Data from 20171114-ORNL-Ar_H_NY_Subt18_08-04-42-736.txt Node
Date: Tue Nov 14 08:04:42 EST 2017
User: Ender
Spectrometer: HR+D1039
Trigger mode: 0
Integration Time (sec): 2.730000E-2
Scans to average: 10
Electric dark correction enabled: true
Nonlinearity correction enabled: false
Boxcar width: 0
XAxis mode: Wavelengths
Number of Pixels in Spectrum: 2048
>>>>>Begin Spectral Data<<<<<
187.836	-1.94
188.309	-1.94
188.782	-1.94
189.255	1.06
189.728	-2.94
190.201	5.36
190.674	0.06
191.147	3.76
191.619	-5.74
192.092	-0.74
192.565	5.86
193.038	1.96
193.511	2.26
193.984	-1.74
194.456	0.86
194.929	-3.54
195.402	-1.94
195.874	-2.54
196.347	-1.44
196.82	-3.04
197.292	3.56
197.765	0.76
198.237	-3.04
198.71	5.36
199.182	-3.24
199.655	2.96
200.127	2.96
200.6	-2.64
201.072	-1.34
201.544	-6.64
202.017	-1.34
202.489	3.86
202.961	-4.24
203.433	0.36
203.906	-6.84
204.378	-7.84
204.85	-1.24
205.322	-4.74
205.794	1.16
206.266	-2.84
206.739	-8.84
207.211	3.16
207.683	-4.54
208.155	-2.84
208.627	-9.64
209.099	-5.94
209.57	-3.24
210.042	-4.34
210.514	-0.64
210.986	-2.34
211.458	-7.14
211.93	-1.94
212.402	4.16
212.873	-7.24
213.345	-4.64
213.817	-6.94
214.288	-5.44
214.76	-14.04
215.232	-1.14
215.703	-6.84
216.175	-4.24
216.646	-2.34
217.118	-4.94
217.589	-4.04
218.061	2.96
218.532	-3.64
219.004	0.86
219.475	-1.94
219.946	-4.74
220.418	-7.04
220.889	2.36
221.36	1.96
221.832	-2.44
222.303	-5.74
222.774	4.36
223.245	-2.24
223.717	-2.94
224.188	-0.04
224.659	-9.54
225.13	-3.54
225.601	-4.54
226.072	4.96
226.543	0.36
227.014	4.66
227.485	4.06
227.956	-3.84
228.427	-0.54
228.898	-0.34
229.369	3.26
229.839	-5.34
230.31	-8.24
230.781	5.26
231.252	-2.94
231.722	2.26
232.193	0.56
232.664	0.96
233.135	4.06
233.605	5.36
234.076	-5.84
234.546	2.46
235.017	7.06
235.487	2.96
235.958	-1.94
236.428	-3.04
236.899	2.76
237.369	6.76
237.84	1.66
238.31	3.36
238.78	4.46
239.251	5.46
239.721	6.26
240.191	-0.84
240.662	-5.84
241.132	3.96
241.602	-0.24
242.072	0.36
242.542	9.26
243.013	1.56
243.483	7.36
243.953	4.96
244.423	0.66
244.893	-3.04
245.363	5.96
245.833	6.66
246.303	4.36
246.773	6.76
247.243	7.06
247.712	4.36
248.182	9.66
248.652	9.46
249.122	-0.64
249.592	10.76
250.061	20.76
250.531	36.16
251.001	20.76
251.471	26.06
251.94	15.26
252.41	8.26
252.879	2.86
253.349	15.66
253.818	6.86
254.288	7.86
254.757	4.86
255.227	7.56
255.696	4.86
256.166	11.06
256.635	12.46
257.105	11.16
257.574	5.56
258.043	6.16
258.513	18.86
258.982	17.36
259.451	11.86
259.92	17.06
260.389	11.36
260.859	25.16
261.328	12.26
261.797	19.46
262.266	4.76
262.735	11.96
263.204	8.36
263.673	-0.14
264.142	12.56
264.611	-0.84
265.08	-0.84
265.549	7.86
266.018	11.66
266.487	1.46
266.955	1.16
267.424	5.76
267.893	8.06
268.362	6.96
268.83	8.46
269.299	14.46
269.768	11.26
270.236	11.26
270.705	3.26
271.174	12.26
271.642	10.06
272.111	12.06
272.579	23.46
273.048	25.56
273.516	31.66
273.985	25.46
274.453	25.26
274.922	22.16
275.39	11.56
275.858	3.56
276.327	12.66
276.795	20.56
277.263	13.36
277.731	35.26
278.2	56.76
278.668	63.16
279.136	46.96
279.604	16.86
280.072	17.26
280.54	7.16
281.008	11.66
281.477	23.96
281.945	12.36
282.413	18.36
282.881	18.06
283.348	5.06
283.816	20.06
284.284	22.96
284.752	26.26
285.22	16.66
285.688	18.66
286.156	23.56
286.623	45.66
287.091	49.96
287.559	34.96
288.026	23.76
288.494	16.66
288.962	4.76
289.429	14.86
289.897	20.56
290.364	16.16
290.832	13.56
291.3	15.46
291.767	19.66
292.234	23.46
292.702	17.46
293.169	23.86
293.637	24.46
294.104	22.26
294.571	9.66
295.039	13.46
295.506	11.36
295.973	19.86
296.44	15.96
296.908	25.86
297.375	22.06
297.842	24.36
298.309	22.96
298.776	19.06
299.243	24.06
299.71	19.66
300.177	30.46
300.644	22.36
301.111	24.76
301.578	24.16
302.045	20.06
302.512	23.96
302.979	33.86
303.446	23.76
303.913	21.06
304.379	17.96
304.846	29.86
305.313	27.26
305.78	25.86
306.246	31.66
306.713	32.96
307.18	29.36
307.646	27.36
308.113	31.36
308.579	26.26
309.046	28.56
309.512	28.46
309.979	21.46
310.445	31.46
310.912	30.76
311.378	35.96
311.845	36.06
312.311	35.86
312.777	35.76
313.244	36.16
313.71	45.76
314.176	35.36
314.642	29.96
315.109	33.46
315.575	41.96
316.041	35.56
316.507	35.26
316.973	43.36
317.439	44.36
317.905	35.36
318.371	39.06
318.837	34.66
319.303	32.06
319.769	40.46
320.235	38.46
320.701	40.46
321.167	42.46
321.633	35.56
322.099	39.56
322.564	46.26
323.03	40.16
323.496	43.16
323.962	45.46
324.427	38.76
324.893	43.26
325.359	42.16
325.824	37.06
326.29	38.46
326.755	38.66
327.221	42.66
327.686	40.06
328.152	51.26
328.617	45.26
329.083	49.46
329.548	52.16
330.014	47.56
330.479	39.96
330.944	47.06
331.41	50.46
331.875	43.16
332.34	41.96
332.805	41.86
333.271	53.96
333.736	49.76
334.201	58.76
334.666	53.76
335.131	59.46
335.596	51.36
336.061	48.96
336.526	48.06
336.991	50.96
337.456	60.56
337.921	54.56
338.386	45.16
338.851	43.26
339.316	47.96
339.781	42.16
340.246	51.16
340.711	55.76
341.175	55.76
341.64	43.06
342.105	53.16
342.569	55.46
343.034	51.96
343.499	55.76
343.963	53.06
344.428	63.26
344.893	69.96
345.357	65.76
345.822	60.26
346.286	68.56
346.751	73.36
347.215	66.16
347.679	73.96
348.144	93.96
348.608	81.76
349.073	69.76
349.537	77.56
350.001	84.16
350.465	88.96
350.93	88.56
351.394	84.36
351.858	76.76
352.322	89.56
352.786	91.16
353.25	101.46
353.715	111.36
354.179	100.36
354.643	115.76
355.107	124.96
355.571	112.96
356.035	109.36
356.498	116.96
356.962	116.16
357.426	130.06
357.89	116.76
358.354	94.56
358.818	86.66
359.281	79.16
359.745	75.86
360.209	78.06
360.673	84.06
361.136	75.76
361.6	89.86
362.064	86.76
362.527	80.56
362.991	89.56
363.454	84.36
363.918	78.56
364.381	82.56
364.845	83.26
365.308	80.66
365.772	86.96
366.235	94.56
366.698	88.76
367.162	87.36
367.625	89.16
368.088	88.06
368.552	94.16
369.015	91.26
369.478	98.26
369.941	97.96
370.404	95.86
370.867	104.86
371.331	101.36
371.794	118.36
372.257	108.26
372.72	115.66
373.183	110.06
373.646	105.56
374.109	105.36
374.572	109.76
375.035	110.26
375.497	106.76
375.96	101.96
376.423	106.36
376.886	111.56
377.349	104.26
377.811	103.86
378.274	108.06
378.737	101.56
379.199	110.16
379.662	109.06
380.125	114.76
380.587	115.36
381.05	122.36
381.512	125.86
381.975	134.86
382.437	122.46
382.9	120.76
383.362	124.96
383.825	135.96
384.287	144.86
384.75	131.76
385.212	134.66
385.674	135.16
386.136	132.06
386.599	123.56
387.061	128.56
387.523	122.36
387.985	127.36
388.447	146.96
388.91	137.16
389.372	144.56
389.834	150.66
390.296	141.16
390.758	148.36
391.22	164.76
391.682	200.76
392.144	280.76
392.606	219.56
393.068	163.66
393.529	160.66
393.991	148.36
394.453	144.26
394.915	154.96
395.377	181.36
395.838	201.06
396.3	150.56
396.762	140.56
397.224	126.96
397.685	125.76
398.147	124.06
398.608	123.96
399.07	131.66
399.531	133.76
399.993	139.56
400.454	143.76
400.916	136.26
401.377	140.06
401.839	141.46
402.3	146.86
402.762	154.56
403.223	174.66
403.684	165.36
404.145	154.06
404.607	150.66
405.068	157.66
405.529	164.76
405.99	177.26
406.451	171.86
406.913	167.26
407.374	163.06
407.835	154.06
408.296	155.66
408.757	168.26
409.218	175.26
409.679	172.96
410.14	160.76
410.601	171.56
411.062	171.46
411.522	181.96
411.983	181.76
412.444	172.26
412.905	169.16
413.366	175.56
413.826	187.96
414.287	210.66
414.748	248.56
415.208	240.06
415.669	209.56
416.13	194.76
416.59	195.56
417.051	213.56
417.511	213.86
417.972	224.36
418.432	241.76
418.893	280.26
419.353	245.26
419.814	192.46
420.274	171.56
420.734	172.96
421.195	192.56
421.655	189.86
422.115	189.56
422.576	187.86
423.036	182.06
423.496	200.56
423.956	205.46
424.416	218.86
424.876	247.26
425.336	253.06
425.797	244.86
426.257	248.86
426.717	229.26
427.177	215.86
427.637	219.26
428.097	222.66
428.556	235.06
429.016	258.36
429.476	250.36
429.936	263.46
430.396	267.36
430.856	285.46
431.315	302.66
431.775	329.06
432.235	367.76
432.694	342.66
433.154	342.36
433.614	372.56
434.073	323.46
434.533	271.06
434.993	259.96
435.452	269.46
435.912	279.66
436.371	279.06
436.83	277.46
437.29	253.26
437.749	240.36
438.209	229.46
438.668	265.16
439.127	268.86
439.587	252.96
440.046	237.16
440.505	259.86
440.964	269.16
441.424	300.96
441.883	290.06
442.342	247.46
442.801	214.36
443.26	204.76
443.719	210.06
444.178	212.86
444.637	196.46
445.096	215.36
445.555	215.56
446.014	208.56
446.473	219.66
446.932	223.06
447.391	218.06
447.849	222.96
448.308	204.96
448.767	205.16
449.226	230.06
449.685	234.36
450.143	237.66
450.602	223.16
451.061	212.96
451.519	227.76
451.978	221.66
452.436	222.26
452.895	230.46
453.353	246.06
453.812	225.26
454.27	226.56
454.729	226.86
455.187	226.26
455.646	220.76
456.104	235.56
456.562	252.06
457.021	251.36
457.479	250.96
457.937	259.26
458.395	251.16
458.854	234.26
459.312	241.36
459.77	258.06
460.228	241.26
460.686	226.86
461.144	237.26
461.602	233.86
462.06	229.56
462.518	243.66
462.976	244.06
463.434	252.36
463.892	246.06
464.35	262.36
464.808	269.76
465.266	250.06
465.724	258.06
466.181	258.96
466.639	263.96
467.097	270.96
467.555	286.36
468.012	285.16
468.47	296.56
468.928	299.36
469.385	326.26
469.843	329.56
470.3	331.46
470.758	347.86
471.215	361.96
471.673	387.76
472.13	387.16
472.588	395.26
473.045	349.96
473.503	359.56
473.96	372.96
474.417	385.76
474.875	406.16
475.332	452.66
475.789	440.56
476.246	442.16
476.704	460.06
477.161	475.26
477.618	497.76
478.075	534.06
478.532	579.66
478.989	654.56
479.446	759.86
479.903	726.96
480.36	766.06
480.817	828.26
481.274	914.56
481.731	1021.16
482.188	1114.56
482.645	1227.06
483.102	1349.86
483.558	1476.66
484.015	1521.56
484.472	1507.36
484.929	1446.76
485.385	1411.16
485.842	1364.16
486.299	1306.76
486.755	1232.26
487.212	1038.56
487.668	881.16
488.125	811.86
488.582	749.46
489.038	717.36
489.494	675.96
489.951	651.36
490.407	630.76
490.864	625.46
491.32	615.56
491.776	610.16
492.233	629.16
492.689	575.86
493.145	572.56
493.602	571.66
494.058	585.46
494.514	583.06
494.97	606.76
495.426	611.26
495.882	591.46
496.338	583.56
496.794	595.06
497.251	599.96
497.707	604.76
498.163	610.36
498.618	614.86
499.074	618.66
499.53	640.86
499.986	646.96
500.442	620.96
500.898	604.16
501.354	586.16
501.809	599.16
502.265	618.56
502.721	622.26
503.177	630.56
503.632	628.46
504.088	644.56
504.543	679.56
504.999	667.36
505.455	624.26
505.91	595.96
506.366	606.96
506.821	597.26
507.277	585.86
507.732	592.26
508.187	593.56
508.643	607.96
509.098	601.36
509.553	626.76
510.009	634.46
510.464	639.16
510.919	654.86
511.375	643.36
511.83	673.36
512.285	690.66
512.74	731.76
513.195	746.86
513.65	730.16
514.105	724.86
514.56	736.96
515.015	752.46
515.47	774.06
515.925	754.86
516.38	751.66
516.835	753.46
517.29	746.16
517.745	734.96
518.2	726.16
518.655	713.86
519.109	712.46
519.564	710.76
520.019	693.76
520.474	691.76
520.928	688.06
521.383	684.16
521.838	669.86
522.292	678.16
522.747	677.56
523.201	669.46
523.656	660.06
524.11	662.56
524.565	651.46
525.019	655.16
525.474	665.96
525.928	662.46
526.382	655.86
526.837	653.66
527.291	657.16
527.745	666.16
528.2	659.16
528.654	651.46
529.108	648.36
529.562	648.26
530.016	650.66
530.47	652.46
530.925	644.86
531.379	656.46
531.833	665.36
532.287	656.76
532.741	660.16
533.195	662.96
533.649	669.96
534.103	678.86
534.556	670.06
535.01	679.76
535.464	674.26
535.918	668.06
536.372	685.46
536.826	687.76
537.279	667.76
537.733	668.26
538.187	681.46
538.64	679.26
539.094	678.76
539.548	684.16
540.001	683.26
540.455	679.96
540.908	678.06
541.362	697.06
541.815	696.86
542.269	711.26
542.722	704.86
543.175	725.46
543.629	722.46
544.082	739.36
544.536	732.66
544.989	729.06
545.442	741.46
545.895	732.16
546.349	743.16
546.802	742.26
547.255	744.56
547.708	759.66
548.161	759.66
548.614	773.76
549.067	774.66
549.52	763.76
549.973	768.56
550.426	756.76
550.879	740.06
551.332	748.66
551.785	751.56
552.238	752.46
552.691	768.26
553.144	773.86
553.596	792.26
554.049	809.36
554.502	831.46
554.955	850.26
555.407	845.96
555.86	847.96
556.313	841.96
556.765	817.26
557.218	826.86
557.67	816.06
558.123	826.66
558.576	817.76
559.028	815.96
559.48	823.06
559.933	817.86
560.385	773.66
560.838	755.66
561.29	734.36
561.742	728.06
562.195	713.06
562.647	703.86
563.099	721.86
563.551	711.76
564.004	732.76
564.456	715.06
564.908	712.56
565.36	699.26
565.812	687.06
566.264	666.56
566.716	675.26
567.168	662.16
567.62	670.26
568.072	651.46
568.524	632.16
568.976	635.46
569.428	615.86
569.88	621.56
570.332	621.46
570.784	633.86
571.235	620.16
571.687	644.56
572.139	642.16
572.59	656.76
573.042	654.46
573.494	656.76
573.945	637.76
574.397	627.96
574.849	635.96
575.3	636.86
575.752	633.16
576.203	629.56
576.655	629.16
577.106	612.66
577.557	619.36
578.009	615.36
578.46	611.96
578.912	611.46
579.363	620.36
579.814	619.86
580.265	612.06
580.717	612.86
581.168	622.36
581.619	615.56
582.07	629.36
582.521	624.76
582.972	621.36
583.423	620.86
583.875	618.56
584.326	643.06
584.777	679.26
585.227	749.86
585.678	831.36
586.129	917.76
586.58	989.36
587.031	1064.56
587.482	1227.36
587.933	1394.76
588.384	1201.76
588.834	900.36
589.285	735.26
589.736	716.26
590.186	701.66
590.637	703.46
591.088	674.86
591.538	668.56
591.989	667.46
592.439	662.86
592.89	659.66
593.34	641.86
593.791	656.16
594.241	648.46
594.692	647.56
595.142	633.36
595.593	640.56
596.043	646.86
596.493	641.16
596.943	651.66
597.394	654.36
597.844	649.76
598.294	662.46
598.744	680.16
599.195	705.96
599.645	743.56
600.095	774.36
600.545	827.96
600.995	868.56
601.445	926.56
601.895	983.26
602.345	1039.26
602.795	1015.96
603.245	973.66
603.695	919.96
604.145	867.06
604.594	827.06
605.044	780.76
605.494	721.26
605.944	679.16
606.393	666.06
606.843	658.06
607.293	661.06
607.743	665.56
608.192	668.56
608.642	684.96
609.091	690.76
609.541	696.86
609.99	699.76
610.44	691.96
610.889	658.46
611.339	630.16
611.788	620.56
612.238	623.06
612.687	645.26
613.136	650.76
613.586	662.36
614.035	652.76
614.484	681.06
614.933	684.26
615.383	664.76
615.832	673.46
616.281	654.56
616.73	623.76
617.179	602.26
617.628	575.06
618.077	574.56
618.526	552.86
618.975	551.16
619.424	554.46
619.873	553.76
620.322	557.56
620.771	539.66
621.22	540.26
621.669	531.66
622.118	528.76
622.567	512.26
623.015	503.66
623.464	495.76
623.913	496.36
624.361	485.56
624.81	494.36
625.259	488.46
625.707	498.36
626.156	497.16
626.604	494.76
627.053	503.66
627.501	495.26
627.95	503.46
628.398	516.46
628.847	510.26
629.295	515.26
629.744	510.26
630.192	502.06
630.64	504.36
631.089	502.56
631.537	512.66
631.985	515.36
632.433	527.96
632.881	537.26
633.33	581.06
633.778	562.96
634.226	500.66
634.674	500.76
635.122	511.96
635.57	529.26
636.018	547.06
636.466	509.06
636.914	486.06
637.362	506.96
637.81	510.66
638.258	503.16
638.705	510.26
639.153	538.16
639.601	547.96
640.049	570.46
640.497	597.96
640.944	619.46
641.392	569.36
641.84	540.86
642.287	521.66
642.735	507.26
643.182	503.16
643.63	505.26
644.078	509.16
644.525	515.56
644.973	524.26
645.42	530.36
645.867	552.66
646.315	557.76
646.762	584.06
647.21	613.36
647.657	625.06
648.104	657.86
648.551	685.16
648.999	732.66
649.446	794.26
649.893	874.66
650.34	1006.46
650.787	1203.56
651.234	1509.16
651.682	1948.46
652.129	2648.36
652.576	3832.06
653.023	5652.16
653.47	7799.86
653.917	9862.86
654.363	11547.66
654.81	12923.16
655.257	12281.46
655.704	7979.36
656.151	4691.76
656.598	3018.76
657.044	2149.06
657.491	1656.46
657.938	1329.26
658.385	1102.56
658.831	954.26
659.278	847.56
659.724	754.96
660.171	692.36
660.618	639.06
661.064	595.36
661.511	582.06
661.957	577.76
662.404	562.36
662.85	564.26
663.296	540.76
663.743	492.26
664.189	469.56
664.635	463.46
665.082	467.96
665.528	470.36
665.974	452.96
666.42	448.96
666.867	445.16
667.313	420.06
667.759	417.26
668.205	417.56
668.651	425.06
669.097	425.96
669.543	436.26
669.989	414.16
670.435	391.36
670.881	387.06
671.327	388.36
671.773	404.26
672.219	424.66
672.665	464.76
673.11	502.96
673.556	549.66
674.002	587.36
674.448	575.26
674.893	479.76
675.339	417.06
675.785	380.76
676.23	368.06
676.676	352.46
677.122	336.46
677.567	317.56
678.013	325.66
678.458	312.26
678.904	312.76
679.349	303.86
679.794	307.76
680.24	305.96
680.685	305.36
681.131	304.46
681.576	308.26
682.021	303.96
682.466	296.86
682.912	302.06
683.357	300.26
683.802	333.76
684.247	362.86
684.692	390.06
685.137	425.46
685.583	465.96
686.028	488.06
686.473	450.96
686.918	389.26
687.363	360.76
687.807	338.76
688.252	318.56
688.697	310.56
689.142	295.26
689.587	286.56
690.032	285.96
690.477	294.16
690.921	304.26
691.366	329.66
691.811	343.76
692.255	370.16
692.7	395.96
693.145	422.26
693.589	577.56
694.034	947.86
694.478	1319.86
694.923	1517.06
695.367	1990.86
695.812	1052.36
696.256	434.36
696.701	327.76
697.145	299.86
697.59	286.96
698.034	270.16
698.478	284.86
698.922	278.56
699.367	276.06
699.811	281.06
700.255	306.66
700.699	329.06
701.143	363.26
701.588	415.66
702.032	445.96
702.476	440.06
702.92	432.56
703.364	431.96
703.808	533.76
704.252	866.16
704.696	1231.06
705.14	1464.66
705.584	1870.86
706.027	923.76
706.471	449.66
706.915	336.46
707.359	303.46
707.803	283.26
708.246	269.46
708.69	272.46
709.134	267.36
709.577	269.96
710.021	274.36
710.465	266.36
710.908	262.16
711.352	262.46
711.795	268.36
712.239	300.26
712.682	327.06
713.126	364.36
713.569	405.16
714.012	312.66
714.456	268.66
714.899	256.26
715.342	233.96
715.786	228.66
716.229	219.36
716.672	219.26
717.115	211.86
717.558	216.36
718.002	217.36
718.445	226.26
718.888	243.06
719.331	250.36
719.774	268.66
720.217	263.76
720.66	244.46
721.103	237.16
721.546	208.56
721.989	213.06
722.432	203.26
722.874	201.96
723.317	196.46
723.76	201.46
724.203	218.26
724.645	269.16
725.088	377.46
725.531	489.36
725.974	570.06
726.416	479.76
726.859	271.06
727.301	208.46
727.744	203.46
728.187	201.76
728.629	205.46
729.071	205.16
729.514	218.46
729.956	227.26
730.399	247.96
730.841	249.66
731.283	233.66
731.726	226.16
732.168	223.66
732.61	231.76
733.053	239.86
733.495	265.56
733.937	304.66
734.379	345.36
734.821	374.36
735.263	454.46
735.705	688.86
736.148	1309.76
736.59	2188.46
737.032	2686.86
737.474	2189.76
737.916	701.96
738.357	369.36
738.799	277.76
739.241	253.86
739.683	235.86
740.125	251.86
740.567	255.06
741.008	275.36
741.45	275.16
741.892	268.86
742.334	304.16
742.775	313.46
743.217	283.96
743.658	231.86
744.1	215.66
744.542	215.86
744.983	272.26
745.425	302.56
745.866	301.46
746.307	245.76
746.749	245.66
747.19	276.16
747.632	381.16
748.073	715.06
748.514	1553.36
748.956	2457.96
749.397	3056.56
749.838	2533.76
750.279	2615.76
750.72	1304.66
751.162	467.16
751.603	271.36
752.044	211.86
752.485	184.16
752.926	187.46
753.367	181.16
753.808	167.06
754.249	164.26
754.69	163.06
755.131	160.96
755.572	156.16
756.013	149.66
756.453	153.26
756.894	156.16
757.335	164.96
757.776	164.36
758.216	168.36
758.657	167.96
759.098	176.86
759.538	190.16
759.979	229.86
760.42	311.06
760.86	580.96
761.301	1497.26
761.741	3708.66
762.182	5683.06
762.622	3997.96
763.063	1133.26
763.503	464.36
763.943	290.96
764.384	288.56
764.824	352.06
765.264	383.16
765.705	265.06
766.145	180.26
766.585	164.26
767.025	156.26
767.465	161.26
767.906	206.86
768.346	281.06
768.786	299.66
769.226	227.66
769.666	269.86
770.106	515.46
770.546	1291.36
770.986	2291.66
771.426	2075.46
771.866	678.96
772.306	273.16
772.745	174.76
773.185	141.26
773.625	152.16
774.065	141.16
774.505	161.06
774.944	259.16
775.384	563.36
775.824	1043.26
776.263	1059.16
776.703	440.46
777.142	183.66
777.582	137.36
778.021	120.46
778.461	123.06
778.9	118.66
779.34	116.26
779.779	105.96
780.219	89.76
780.658	99.66
781.097	97.66
781.537	101.56
781.976	94.66
782.415	98.56
782.855	88.26
783.294	86.56
783.733	93.86
784.172	96.16
784.611	92.96
785.05	93.86
785.489	95.16
785.928	103.66
786.367	103.56
786.806	108.26
787.245	114.86
787.684	114.46
788.123	130.16
788.562	121.26
789.001	104.96
789.44	97.16
789.879	103.36
790.317	102.86
790.756	109.96
791.195	112.06
791.634	120.56
792.072	170.56
792.511	308.86
792.95	823.96
793.388	1860.06
793.827	1720.26
794.265	577.26
794.704	240.86
795.142	153.86
795.581	137.66
796.019	119.56
796.458	109.16
796.896	100.36
797.334	105.36
797.773	135.56
798.211	186.16
798.649	356.86
799.087	857.06
799.526	1364.06
799.964	1718.46
800.402	1773.46
800.84	659.56
801.278	250.96
801.716	154.66
802.154	132.86
802.592	129.66
803.03	114.66
803.468	106.46
803.906	122.86
804.344	130.86
804.782	116.76
805.22	112.86
805.658	114.46
806.096	124.66
806.533	137.26
806.971	145.16
807.409	182.06
807.847	257.16
808.284	539.36
808.722	1547.36
809.16	2839.56
809.597	2635.86
810.035	4657.36
810.472	5195.96
810.91	1844.26
811.347	687.66
811.785	349.26
812.222	222.16
812.66	162.96
813.097	142.06
813.535	124.36
813.972	110.86
814.409	98.86
814.846	88.26
815.284	96.06
815.721	84.96
816.158	97.26
816.595	97.36
817.032	151.36
817.47	177.36
817.907	148.86
818.344	124.56
818.781	98.26
819.218	81.36
819.655	107.06
820.092	165.96
820.529	193.36
820.966	159.16
821.403	117.56
821.839	91.56
822.276	87.66
822.713	109.36
823.15	117.66
823.587	100.06
824.023	125.76
824.46	255.26
824.897	754.76
825.333	1189.36
825.77	508.46
826.206	195.76
826.643	118.36
827.08	87.06
827.516	68.86
827.953	62.06
828.389	73.86
828.825	62.56
829.262	62.36
829.698	52.16
830.135	50.66
830.571	49.26
831.007	53.26
831.443	51.26
831.88	56.96
832.316	52.56
832.752	52.36
833.188	54.76
833.624	57.36
834.06	59.86
834.497	65.26
834.933	59.86
835.369	61.76
835.805	58.56
836.241	62.46
836.677	69.36
837.112	75.66
837.548	86.56
837.984	111.76
838.42	167.56
838.856	410.86
839.292	1291.56
839.727	2038.76
840.163	931.96
840.599	775.06
841.034	1744.16
841.47	1888.96
841.906	685.56
842.341	288.96
842.777	190.96
843.212	264.56
843.648	270.86
844.083	133.06
844.519	82.96
844.954	70.86
845.39	47.46
845.825	48.16
846.261	43.86
846.696	48.96
847.131	42.06
847.566	44.76
848.002	47.76
848.437	44.96
848.872	48.66
849.307	54.96
849.742	75.46
850.177	144.86
850.613	467.66
851.048	773.36
851.483	330.76
851.918	133.56
852.353	75.76
852.788	50.36
853.223	51.16
853.657	45.26
854.092	40.46
854.527	37.56
854.962	34.66
855.397	36.16
855.832	48.06
856.266	31.16
856.701	32.56
857.136	32.56
857.57	31.86
858.005	37.46
858.44	43.56
858.874	39.26
859.309	42.66
859.743	32.96
860.178	41.66
860.612	36.86
861.047	41.16
861.481	62.26
861.915	65.56
862.35	42.76
862.784	27.86
863.218	30.36
863.653	30.76
864.087	41.96
864.521	49.26
864.955	64.16
865.39	131.76
865.824	154.06
866.258	101.46
866.692	139.46
867.126	159.16
867.56	101.96
867.994	44.96
868.428	29.76
868.862	39.16
869.296	50.26
869.73	52.76
870.164	42.46
870.598	37.86
871.031	32.86
871.465	25.96
871.899	28.86
872.333	19.46
872.766	26.56
873.2	19.46
873.634	24.16
874.067	21.66
874.501	26.46
874.935	36.06
875.368	29.96
875.802	23.26
876.235	21.86
876.669	22.86
877.102	20.46
877.535	30.76
877.969	23.76
878.402	19.66
878.836	14.16
879.269	19.86
879.702	20.16
880.135	22.16
880.569	23.86
881.002	29.76
881.435	18.16
881.868	13.66
882.301	22.66
882.734	16.26
883.167	18.56
883.601	15.66
884.034	17.16
884.467	9.36
884.899	16.66
885.332	16.16
885.765	11.86
886.198	15.36
886.631	15.46
887.064	15.86
887.497	20.86
887.929	15.46
888.362	17.96
888.795	13.16
889.228	18.46
889.66	14.96
890.093	15.36
890.526	16.96
890.958	14.76
891.391	17.66
891.823	16.36
892.256	14.96
892.688	13.76
893.121	17.16
893.553	13.66
893.985	26.66
894.418	14.26
894.85	13.86
895.282	15.26
895.715	15.26
896.147	15.96
896.579	15.46
897.011	12.06
897.444	14.96
897.876	13.96
898.308	13.46
898.74	9.56
899.172	10.06
899.604	22.56
900.036	19.26
900.468	13.06
900.9	9.36
901.332	16.26
901.764	18.96
902.196	15.46
902.628	17.96
903.06	13.26
903.491	21.36
903.923	21.86
904.355	18.96
904.787	26.06
905.218	21.76
905.65	19.96
906.082	11.36
906.513	5.96
906.945	15.86
907.376	10.36
907.808	17.16
908.239	18.86
908.671	13.06
909.102	21.26
909.534	27.96
909.965	37.66
910.397	82.86
910.828	269.26
911.259	417.26
911.691	189.36
912.122	95.46
912.553	48.56
912.984	31.66
913.415	21.36
913.847	25.36
914.278	8.06
914.709	10.06
915.14	17.46
915.571	23.36
916.002	10.26
916.433	16.16
916.864	20.36
917.295	10.26
917.726	23.26
918.157	15.36
918.587	25.06
919.018	20.96
919.449	16.86
919.88	23.56
920.311	26.66
920.741	39.16
921.172	138.56
921.603	128.86
922.033	60.56
922.464	42.16
922.895	24.06
923.325	20.86
923.756	15.26
924.186	16.76
924.617	21.66
925.047	37.26
925.478	50.16
925.908	38.86
926.338	26.86
926.769	14.56
927.199	18.46
927.629	6.46
928.06	12.26
928.49	10.66
928.92	19.16
929.35	5.66
929.78	15.36
930.21	6.46
930.641	10.76
931.071	10.56
931.501	3.96
931.931	10.26
932.361	5.96
932.791	3.56
933.221	7.66
933.651	3.86
934.08	10.36
934.51	27.06
934.94	1.86
935.37	8.76
935.8	10.26
936.229	6.16
936.659	9.26
937.089	0.06
937.519	12.06
937.948	18.86
938.378	17.46
938.807	4.56
939.237	9.06
939.666	-1.34
940.096	-2.44
940.525	1.66
940.955	-0.24
941.384	-2.74
941.814	-3.44
942.243	6.36
942.672	10.36
943.102	-0.94
943.531	-0.64
943.96	1.96
944.39	3.36
944.819	-1.84
945.248	6.46
945.677	0.26
946.106	7.26
946.535	4.56
946.964	0.76
947.393	0.66
947.822	-1.04
948.251	-0.34
948.68	4.26
949.109	7.06
949.538	8.96
949.967	-1.44
950.396	-0.84
950.825	-1.64
951.254	-0.94
951.682	-5.54
952.111	2.76
952.54	6.16
952.969	-6.04
953.397	-8.54
953.826	-0.64
954.254	-7.54
954.683	7.56
955.112	-2.24
955.54	-1.04
955.969	4.06
956.397	-0.64
956.826	0.46
957.254	4.96
957.682	3.26
958.111	4.46
958.539	-3.34
958.967	5.46
959.396	0.36
959.824	0.26
960.252	8.76
960.68	-0.34
961.109	0.46
961.537	0.26
961.965	0.76
962.393	0.06
962.821	1.46
963.249	5.66
963.677	3.36
964.105	4.56
964.533	40.16
964.961	37.56
965.389	21.96
965.817	6.16
966.245	7.56
966.672	5.06
967.1	-13.04
967.528	-2.84
967.956	-8.94
968.383	1.36
968.811	-3.94
969.239	-4.64
969.666	-4.44
970.094	4.16
970.522	-5.14
970.949	-0.24
971.377	-3.74
971.804	-6.94
972.232	-1.54
972.659	-2.94
973.087	1.26
973.514	-0.74
973.941	2.16
974.369	1.96
974.796	-2.54
975.223	-3.64
975.651	-0.44
976.078	7.56
976.505	-4.14
976.932	2.66
977.359	16.16
977.786	5.96
978.214	1.66
978.641	-7.64
979.068	-3.24
979.495	-3.14
979.922	0.96
980.349	-0.84
980.776	9.86
981.202	3.06
981.629	-2.24
982.056	6.46
982.483	-2.34
982.91	2.76
983.337	-4.34
983.763	2.56
984.19	-1.74
984.617	-2.04
985.043	-5.24
985.47	0.26
985.897	0.46
986.323	-5.14
986.75	0.06
987.176	-1.64
987.603	7.56
988.029	-0.44
988.456	-5.44
988.882	3.26
989.308	-4.54
989.735	-2.34
990.161	2.16
990.587	-1.54
991.014	1.16
991.44	4.06
991.866	-1.44
992.292	-1.84
992.719	0.36
993.145	8.96
993.571	-6.84
993.997	-5.34
994.423	-3.64
994.849	-4.94
995.275	-0.64
995.701	2.56
996.127	2.76
996.553	3.86
996.979	-0.64
997.405	-2.74
997.83	-2.04
998.256	-10.74
998.682	-2.44
999.108	-8.44
999.534	-0.84
999.959	-1.84
1000.385	-5.64
1000.811	1.96
1001.236	-5.24
1001.662	-5.94
1002.087	-8.44
1002.513	-0.74
1002.938	5.76
1003.364	-1.94
1003.789	2.96
1004.215	3.86
1004.64	2.76
1005.066	3.16
1005.491	-1.94
1005.916	-3.74
1006.342	-6.14
1006.767	-9.24
1007.192	4.56
1007.617	-3.54
1008.042	0.46
1008.468	-0.54
1008.893	0.16
1009.318	-4.84
1009.743	1.26
1010.168	4.06
1010.593	4.66
1011.018	-6.44
1011.443	-3.44
1011.868	4.26
1012.293	0.86
1012.718	-11.54
1013.143	2.16
1013.567	3.36
1013.992	4.06
1014.417	-10.74
1014.842	-0.34
1015.267	-7.24
1015.691	0.86
1016.116	0.36
1016.541	-6.24
1016.965	5.16
1017.39	4.36
1017.814	0.46
1018.239	0.36
1018.663	-0.74
1019.088	-8.74
1019.512	0.96
1019.937	-1.74
1020.361	-3.04
1020.785	-10.74
1021.21	-5.34
1021.634	-2.74
1022.058	-1.04
1022.483	6.66
1022.907	0.36
1023.331	-3.74
1023.755	-5.54
1024.179	4.66
1024.604	-3.94
1025.028	-7.64
1025.452	-2.74
1025.876	2.06
1026.3	3.96
1026.724	-14.74
1027.148	-0.74
1027.572	-12.54
1027.996	-7.14
1028.42	-1.14
1028.843	-6.94
1029.267	-6.94
1029.691	-1.74
1030.115	-6.24
1030.539	-9.44
1030.962	-0.54
1031.386	-2.14
1031.81	-1.14
1032.233	0.06
1032.657	2.26
1033.08	-4.44
1033.504	2.16
1033.927	-4.84
1034.351	-2.94
1034.774	-0.94
1035.198	3.56
1035.621	-6.14
1036.045	-10.34
1036.468	-9.04
1036.891	-11.44
1037.315	-4.84
1037.738	-6.14
1038.161	4.36
1038.584	-4.74
1039.008	-2.84
1039.431	-3.84
1039.854	-3.64
1040.277	-4.44
1040.7	-13.64
1041.123	3.16
1041.546	-6.24
1041.969	-4.64
1042.392	-5.14
1042.815	4.56
1043.238	0.06
1043.661	5.26
1044.084	-5.14
1044.507	1.16
1044.93	-5.04
1045.352	-5.74
1045.775	-2.04
1046.198	-0.94
1046.621	0.56
1047.043	-0.14
1047.466	6.46
1047.889	0.36
1048.311	-2.54
1048.734	-4.84
1049.156	0.36
1049.579	2.36
1050.001	-0.74
1050.424	1.36
1050.846	-6.34
1051.269	-5.04
1051.691	-8.04
1052.113	-3.44
1052.536	0.56
1052.958	-5.14
1053.38	-6.14
1053.802	-2.54
1054.225	1.86
1054.647	-9.54
1055.069	-6.94
1055.491	-0.24
1055.913	-3.84
1056.335	3.66
1056.757	-3.74
1057.179	-7.14
1057.601	-1.04
1058.023	0.06
1058.445	-1.94
1058.867	-2.64
1059.289	-1.94
1059.711	-3.34
1060.133	-4.94
1060.555	-3.44
1060.976	-2.84
1061.398	-5.24
1061.82	-6.44
1062.241	-7.14
1062.663	-8.04
1063.085	-8.54
1063.506	3.46
1063.928	-3.84
1064.35	-0.14
1064.771	-10.94
1065.193	-1.54
1065.614	-12.44
1066.035	-4.84
1066.457	-5.24
1066.878	1.96
1067.3	-4.44
1067.721	-0.94
1068.142	-7.74
1068.564	-1.84
1068.985	-0.44
1069.406	-9.54
1069.827	-2.04
1070.248	0.16
1070.67	-3.34
1071.091	-2.04
1071.512	-1.74
1071.933	-7.24
1072.354	-4.14
1072.775	0.06
1073.196	-6.24
1073.617	-2.94
1074.038	-12.24
1074.459	-0.54
1074.88	-6.54
1075.3	2.86
1075.721	-7.74
1076.142	3.16
1076.563	0.26
1076.983	-8.14
1077.404	-9.14
1077.825	-6.34
1078.246	-2.24
1078.666	-9.24
1079.087	-4.64
1079.507	-3.04
1079.928	-1.24
1080.348	-3.34
1080.769	-6.44
1081.189	-1.84
1081.61	-3.74
1082.03	-10.44
1082.451	-9.64
1082.871	-3.14
1083.291	-5.14
1083.711	-2.04
1084.132	-6.54
1084.552	-8.34
1084.972	0.96
1085.392	-14.24
1085.813	-11.24
1086.233	-1.34
1086.653	-4.04
1087.073	-3.04
1087.493	-4.64
1087.913	-8.44
1088.333	-9.04
1088.753	-6.04
1089.173	2.66
1089.593	-6.24
1090.013	0.56
1090.433	-0.14
1090.852	-1.94
1091.272	-0.84
1091.692	3.06
1092.112	-3.24
1092.531	-3.24
1092.951	-9.34
1093.371	0.86
1093.79	2.06
1094.21	-1.24
1094.63	-3.04
1095.049	-1.84
1095.469	2.46
1095.888	3.46
1096.308	6.26
1096.727	5.46
1097.146	1.26
1097.566	0.16
1097.985	-4.34
1098.405	-6.14
1098.824	-4.04
1099.243	-2.74
1099.662	-7.94
1100.082	-2.64
1100.501	2.36
1100.92	-3.04
1101.339	-7.44
1101.758	-11.04
