Data from 20171114-ORNL-Ar_H_NY_Subt18_08-08-58-027.txt Node
Date: Tue Nov 14 08:08:58 EST 2017
User: Ender
Spectrometer: HR+D1039
Trigger mode: 0
Integration Time (sec): 2.730000E-2
Scans to average: 10
Electric dark correction enabled: true
Nonlinearity correction enabled: false
Boxcar width: 0
XAxis mode: Wavelengths
Number of Pixels in Spectrum: 2048
>>>>>Begin Spectral Data<<<<<
187.836	-1.44
188.309	-1.44
188.782	-1.44
189.255	0.46
189.728	-6.04
190.201	1.76
190.674	3.26
191.147	5.76
191.619	-7.84
192.092	-1.24
192.565	2.96
193.038	-2.14
193.511	4.36
193.984	3.06
194.456	1.36
194.929	5.06
195.402	-6.84
195.874	-2.44
196.347	-0.24
196.82	-6.24
197.292	7.16
197.765	-4.24
198.237	-8.24
198.71	0.06
199.182	2.16
199.655	0.46
200.127	4.86
200.6	-8.34
201.072	-3.44
201.544	0.76
202.017	-2.54
202.489	0.96
202.961	0.16
203.433	-5.74
203.906	-2.54
204.378	-5.14
204.85	-6.94
205.322	-10.94
205.794	2.16
206.266	-0.74
206.739	-8.24
207.211	0.56
207.683	-10.64
208.155	-8.84
208.627	-5.34
209.099	-2.14
209.57	-8.24
210.042	-6.14
210.514	-7.44
210.986	-7.54
211.458	-5.74
211.93	-5.94
212.402	-0.64
212.873	-10.94
213.345	-4.64
213.817	-11.84
214.288	-9.44
214.76	-12.04
215.232	-6.74
215.703	-3.94
216.175	-5.74
216.646	-5.44
217.118	-7.44
217.589	-7.04
218.061	-5.04
218.532	-10.24
219.004	-5.04
219.475	-2.44
219.946	-2.94
220.418	-7.14
220.889	-2.34
221.36	-0.04
221.832	-1.94
222.303	-7.34
222.774	-5.44
223.245	-7.04
223.717	-10.94
224.188	-6.34
224.659	-5.34
225.13	-9.04
225.601	-4.34
226.072	-1.84
226.543	-2.64
227.014	-2.04
227.485	-12.24
227.956	-11.54
228.427	-4.34
228.898	-0.04
229.369	1.26
229.839	-4.84
230.31	-10.84
230.781	5.16
231.252	-2.54
231.722	-7.04
232.193	-2.04
232.664	-7.14
233.135	-5.44
233.605	-0.04
234.076	-3.54
234.546	1.46
235.017	-0.74
235.487	-1.84
235.958	-5.64
236.428	-6.84
236.899	-2.34
237.369	-9.84
237.84	-10.84
238.31	-0.74
238.78	1.06
239.251	-9.14
239.721	-7.64
240.191	-7.24
240.662	-11.14
241.132	-3.44
241.602	-6.44
242.072	-1.94
242.542	2.16
243.013	-4.24
243.483	5.36
243.953	-2.14
244.423	-7.84
244.893	-6.64
245.363	-1.14
245.833	-4.04
246.303	-10.84
246.773	3.46
247.243	-5.54
247.712	-0.54
248.182	3.66
248.652	-2.34
249.122	-15.04
249.592	-2.44
250.061	7.46
250.531	3.86
251.001	0.46
251.471	5.26
251.94	9.36
252.41	-0.74
252.879	-4.14
253.349	4.76
253.818	-0.74
254.288	-3.04
254.757	-3.54
255.227	-7.84
255.696	-0.34
256.166	1.46
256.635	1.16
257.105	3.96
257.574	0.36
258.043	-3.54
258.513	-4.64
258.982	5.56
259.451	-7.44
259.92	-2.64
260.389	-2.34
260.859	5.06
261.328	-3.44
261.797	4.76
262.266	4.26
262.735	11.36
263.204	4.76
263.673	1.76
264.142	2.06
264.611	-9.44
265.08	-2.44
265.549	-4.84
266.018	1.96
266.487	-2.64
266.955	-4.44
267.424	-6.74
267.893	-1.94
268.362	-4.44
268.83	-2.24
269.299	5.96
269.768	-1.44
270.236	5.26
270.705	-4.34
271.174	4.26
271.642	0.06
272.111	-4.74
272.579	2.86
273.048	3.66
273.516	2.76
273.985	4.86
274.453	2.86
274.922	13.96
275.39	-2.84
275.858	-8.44
276.327	2.36
276.795	9.16
277.263	-1.94
277.731	14.16
278.2	8.16
278.668	11.96
279.136	14.86
279.604	-1.14
280.072	4.46
280.54	-1.54
281.008	2.86
281.477	9.36
281.945	4.86
282.413	12.06
282.881	5.56
283.348	-2.24
283.816	5.56
284.284	6.76
284.752	10.76
285.22	1.06
285.688	4.56
286.156	7.56
286.623	13.76
287.091	12.86
287.559	11.06
288.026	7.46
288.494	7.66
288.962	-3.34
289.429	7.16
289.897	18.56
290.364	13.16
290.832	10.96
291.3	9.66
291.767	12.26
292.234	12.76
292.702	3.06
293.169	11.36
293.637	16.86
294.104	11.96
294.571	3.26
295.039	4.26
295.506	6.56
295.973	9.96
296.44	4.36
296.908	10.16
297.375	7.26
297.842	9.26
298.309	3.16
298.776	5.06
299.243	10.06
299.71	0.76
300.177	12.96
300.644	10.46
301.111	7.96
301.578	15.26
302.045	6.86
302.512	11.96
302.979	18.16
303.446	12.96
303.913	6.66
304.379	7.36
304.846	15.36
305.313	14.16
305.78	18.46
306.246	18.86
306.713	22.46
307.18	14.36
307.646	14.16
308.113	11.86
308.579	8.86
309.046	19.26
309.512	16.66
309.979	8.16
310.445	20.66
310.912	21.96
311.378	14.56
311.845	16.16
312.311	24.16
312.777	24.56
313.244	18.96
313.71	25.26
314.176	20.76
314.642	18.66
315.109	16.86
315.575	19.16
316.041	27.56
316.507	23.96
316.973	24.56
317.439	19.26
317.905	27.26
318.371	25.96
318.837	23.06
319.303	24.86
319.769	23.16
320.235	20.76
320.701	22.56
321.167	25.36
321.633	21.86
322.099	28.26
322.564	28.66
323.03	22.76
323.496	22.26
323.962	24.46
324.427	22.86
324.893	27.06
325.359	19.46
325.824	30.46
326.29	20.96
326.755	23.96
327.221	21.96
327.686	26.76
328.152	34.36
328.617	33.96
329.083	35.56
329.548	40.96
330.014	34.26
330.479	35.46
330.944	37.76
331.41	33.86
331.875	32.06
332.34	33.26
332.805	29.96
333.271	30.66
333.736	35.46
334.201	36.76
334.666	30.56
335.131	37.16
335.596	37.56
336.061	35.36
336.526	26.26
336.991	36.56
337.456	40.06
337.921	32.36
338.386	29.36
338.851	34.16
339.316	31.96
339.781	36.66
340.246	41.76
340.711	35.06
341.175	39.26
341.64	31.36
342.105	40.96
342.569	44.16
343.034	45.56
343.499	41.76
343.963	34.16
344.428	54.46
344.893	44.66
345.357	50.26
345.822	50.86
346.286	57.26
346.751	58.86
347.215	48.66
347.679	61.86
348.144	76.76
348.608	73.06
349.073	53.66
349.537	60.46
350.001	59.56
350.465	69.96
350.93	66.36
351.394	65.16
351.858	53.16
352.322	69.46
352.786	68.26
353.25	84.66
353.715	81.26
354.179	81.96
354.643	95.16
355.107	99.96
355.571	85.06
356.035	75.26
356.498	88.16
356.962	90.16
357.426	94.86
357.89	87.96
358.354	65.06
358.818	65.56
359.281	67.96
359.745	64.26
360.209	61.26
360.673	54.86
361.136	66.46
361.6	73.56
362.064	69.96
362.527	69.56
362.991	71.86
363.454	68.16
363.918	57.26
364.381	65.26
364.845	67.96
365.308	75.76
365.772	80.46
366.235	70.16
366.698	63.76
367.162	67.26
367.625	73.26
368.088	76.16
368.552	80.26
369.015	79.56
369.478	80.86
369.941	80.26
370.404	77.96
370.867	80.46
371.331	84.86
371.794	90.86
372.257	89.36
372.72	86.06
373.183	89.76
373.646	83.66
374.109	85.86
374.572	83.46
375.035	89.86
375.497	87.66
375.96	86.16
376.423	84.76
376.886	89.86
377.349	96.96
377.811	89.86
378.274	89.66
378.737	92.16
379.199	92.86
379.662	94.66
380.125	92.06
380.587	96.66
381.05	98.56
381.512	102.86
381.975	115.56
382.437	97.96
382.9	102.46
383.362	109.86
383.825	119.16
384.287	117.16
384.75	108.96
385.212	110.46
385.674	119.36
386.136	119.76
386.599	110.86
387.061	113.86
387.523	113.86
387.985	112.26
388.447	116.56
388.91	114.46
389.372	115.26
389.834	119.96
390.296	119.36
390.758	124.66
391.22	122.46
391.682	145.26
392.144	161.96
392.606	146.36
393.068	132.26
393.529	139.16
393.991	124.36
394.453	122.36
394.915	121.66
395.377	126.36
395.838	141.86
396.3	130.26
396.762	120.46
397.224	124.86
397.685	117.86
398.147	125.86
398.608	119.26
399.07	121.46
399.531	129.86
399.993	130.16
400.454	146.86
400.916	134.46
401.377	139.16
401.839	141.06
402.3	139.46
402.762	155.46
403.223	163.66
403.684	151.36
404.145	147.36
404.607	149.16
405.068	146.76
405.529	153.76
405.99	169.06
406.451	162.46
406.913	162.86
407.374	153.06
407.835	151.96
408.296	156.86
408.757	162.66
409.218	171.26
409.679	165.46
410.14	166.86
410.601	166.16
411.062	171.56
411.522	170.66
411.983	161.96
412.444	167.26
412.905	169.56
413.366	175.36
413.826	189.26
414.287	208.26
414.748	250.06
415.208	240.06
415.669	210.86
416.13	203.06
416.59	198.26
417.051	213.36
417.511	211.06
417.972	228.66
418.432	240.46
418.893	280.16
419.353	246.16
419.814	188.46
420.274	176.16
420.734	173.16
421.195	190.26
421.655	186.66
422.115	186.56
422.576	184.56
423.036	192.66
423.496	201.06
423.956	212.86
424.416	220.66
424.876	253.26
425.336	250.46
425.797	249.06
426.257	248.36
426.717	231.36
427.177	224.56
427.637	211.36
428.097	227.66
428.556	232.86
429.016	257.96
429.476	246.86
429.936	260.66
430.396	265.86
430.856	277.16
431.315	303.26
431.775	331.16
432.235	361.16
432.694	337.16
433.154	336.26
433.614	367.26
434.073	322.76
434.533	267.86
434.993	262.36
435.452	270.96
435.912	279.36
436.371	282.06
436.83	268.56
437.29	254.26
437.749	242.56
438.209	239.46
438.668	266.46
439.127	276.46
439.587	253.96
440.046	237.36
440.505	258.96
440.964	262.66
441.424	306.76
441.883	301.26
442.342	251.16
442.801	223.76
443.26	217.36
443.719	219.06
444.178	216.86
444.637	212.46
445.096	220.86
445.555	217.16
446.014	219.16
446.473	226.26
446.932	235.66
447.391	225.66
447.849	230.76
448.308	220.26
448.767	221.36
449.226	236.36
449.685	231.86
450.143	246.66
450.602	241.86
451.061	232.56
451.519	232.56
451.978	229.66
452.436	235.56
452.895	237.36
453.353	250.26
453.812	240.56
454.27	242.96
454.729	239.16
455.187	235.06
455.646	249.86
456.104	243.86
456.562	262.26
457.021	268.76
457.479	261.96
457.937	267.26
458.395	262.66
458.854	242.56
459.312	253.06
459.77	266.46
460.228	256.76
460.686	245.76
461.144	249.46
461.602	249.26
462.06	243.86
462.518	257.66
462.976	254.26
463.434	257.06
463.892	267.46
464.35	278.26
464.808	291.36
465.266	261.56
465.724	272.26
466.181	274.26
466.639	276.66
467.097	288.86
467.555	300.16
468.012	301.46
468.47	310.66
468.928	327.06
469.385	333.96
469.843	350.06
470.3	346.96
470.758	365.16
471.215	387.36
471.673	413.26
472.13	400.86
472.588	416.76
473.045	372.76
473.503	378.16
473.96	394.56
474.417	403.36
474.875	431.86
475.332	465.66
475.789	460.16
476.246	459.36
476.704	479.66
477.161	509.36
477.618	527.26
478.075	556.36
478.532	612.76
478.989	674.96
479.446	776.76
479.903	744.76
480.36	776.76
480.817	828.86
481.274	912.06
481.731	1005.46
482.188	1081.26
482.645	1197.96
483.102	1290.76
483.558	1408.76
484.015	1446.36
484.472	1429.86
484.929	1389.66
485.385	1347.56
485.842	1311.36
486.299	1259.36
486.755	1223.66
487.212	1044.46
487.668	888.76
488.125	819.66
488.582	758.96
489.038	731.16
489.494	698.66
489.951	669.76
490.407	664.26
490.864	636.56
491.32	632.86
491.776	640.06
492.233	645.26
492.689	606.86
493.145	610.46
493.602	600.16
494.058	613.86
494.514	615.06
494.97	630.86
495.426	651.46
495.882	621.36
496.338	601.46
496.794	614.46
497.251	615.06
497.707	626.86
498.163	623.26
498.618	632.36
499.074	630.66
499.53	665.36
499.986	658.76
500.442	643.76
500.898	622.46
501.354	620.16
501.809	631.66
502.265	630.66
502.721	631.06
503.177	636.66
503.632	651.96
504.088	663.46
504.543	671.36
504.999	694.86
505.455	656.16
505.91	636.76
506.366	632.66
506.821	633.16
507.277	632.56
507.732	634.56
508.187	620.36
508.643	637.66
509.098	651.76
509.553	664.26
510.009	673.86
510.464	680.46
510.919	691.16
511.375	700.66
511.83	709.96
512.285	728.16
512.74	763.56
513.195	783.56
513.65	766.36
514.105	765.76
514.56	771.56
515.015	791.66
515.47	791.36
515.925	773.56
516.38	794.96
516.835	796.66
517.29	780.86
517.745	781.56
518.2	768.56
518.655	753.96
519.109	751.66
519.564	738.96
520.019	738.76
520.474	731.46
520.928	734.56
521.383	725.76
521.838	701.76
522.292	719.46
522.747	719.06
523.201	711.86
523.656	707.96
524.11	710.26
524.565	710.56
525.019	700.76
525.474	717.76
525.928	713.86
526.382	699.26
526.837	704.76
527.291	705.36
527.745	698.86
528.2	705.96
528.654	702.66
529.108	696.56
529.562	690.96
530.016	691.76
530.47	691.46
530.925	704.06
531.379	706.46
531.833	704.76
532.287	708.86
532.741	712.96
533.195	709.06
533.649	711.76
534.103	724.96
534.556	714.36
535.01	704.36
535.464	707.66
535.918	721.66
536.372	722.86
536.826	713.36
537.279	715.36
537.733	719.16
538.187	712.06
538.64	720.56
539.094	728.86
539.548	732.76
540.001	731.76
540.455	737.76
540.908	741.36
541.362	744.06
541.815	759.56
542.269	771.46
542.722	765.96
543.175	769.46
543.629	785.26
544.082	794.96
544.536	798.56
544.989	805.26
545.442	806.16
545.895	808.46
546.349	808.26
546.802	802.26
547.255	812.76
547.708	812.46
548.161	831.26
548.614	839.26
549.067	846.96
549.52	826.16
549.973	822.06
550.426	814.76
550.879	808.96
551.332	809.36
551.785	816.26
552.238	822.46
552.691	827.86
553.144	857.46
553.596	867.16
554.049	883.46
554.502	903.36
554.955	927.46
555.407	911.56
555.86	909.36
556.313	902.46
556.765	899.46
557.218	900.86
557.67	899.16
558.123	898.66
558.576	890.16
559.028	894.56
559.48	894.86
559.933	892.76
560.385	853.76
560.838	823.86
561.29	808.66
561.742	804.96
562.195	794.46
562.647	789.06
563.099	792.36
563.551	799.86
564.004	797.66
564.456	774.86
564.908	772.66
565.36	746.86
565.812	740.36
566.264	731.06
566.716	737.76
567.168	714.66
567.62	717.36
568.072	714.56
568.524	693.06
568.976	694.36
569.428	694.26
569.88	681.86
570.332	704.66
570.784	699.86
571.235	709.06
571.687	710.56
572.139	721.76
572.59	723.76
573.042	729.76
573.494	727.66
573.945	713.76
574.397	696.96
574.849	700.36
575.3	708.86
575.752	702.26
576.203	687.56
576.655	689.76
577.106	676.86
577.557	673.56
578.009	683.16
578.46	668.46
578.912	678.56
579.363	678.56
579.814	687.76
580.265	682.96
580.717	692.36
581.168	696.06
581.619	696.86
582.07	696.56
582.521	686.96
582.972	683.36
583.423	686.16
583.875	689.06
584.326	704.36
584.777	720.66
585.227	756.76
585.678	776.96
586.129	810.46
586.58	832.16
587.031	867.86
587.482	918.36
587.933	985.46
588.384	932.56
588.834	832.56
589.285	803.56
589.736	790.26
590.186	793.96
590.637	782.86
591.088	763.46
591.538	746.86
591.989	753.36
592.439	731.86
592.89	737.16
593.34	723.86
593.791	723.36
594.241	714.66
594.692	720.56
595.142	717.66
595.593	710.46
596.043	722.06
596.493	728.36
596.943	721.76
597.394	742.46
597.844	733.26
598.294	754.96
598.744	781.96
599.195	804.86
599.645	843.16
600.095	889.26
600.545	937.76
600.995	993.56
601.445	1053.66
601.895	1111.36
602.345	1163.86
602.795	1151.76
603.245	1099.66
603.695	1042.16
604.145	979.96
604.594	936.56
605.044	882.96
605.494	814.26
605.944	769.46
606.393	763.56
606.843	751.06
607.293	743.86
607.743	749.26
608.192	756.56
608.642	780.16
609.091	778.16
609.541	776.86
609.99	776.46
610.44	773.16
610.889	742.86
611.339	717.86
611.788	701.06
612.238	717.66
612.687	725.36
613.136	713.66
613.586	731.96
614.035	725.26
614.484	730.36
614.933	736.86
615.383	726.86
615.832	728.46
616.281	720.76
616.73	690.16
617.179	676.06
617.628	659.66
618.077	656.96
618.526	637.46
618.975	625.16
619.424	632.46
619.873	626.76
620.322	628.66
620.771	629.26
621.22	623.46
621.669	601.76
622.118	606.86
622.567	596.76
623.015	585.86
623.464	577.16
623.913	571.46
624.361	570.26
624.81	568.46
625.259	566.66
625.707	567.86
626.156	571.76
626.604	578.96
627.053	575.46
627.501	583.76
627.95	592.56
628.398	593.06
628.847	597.46
629.295	583.66
629.744	588.56
630.192	584.06
630.64	580.16
631.089	572.06
631.537	558.66
631.985	552.76
632.433	559.56
632.881	555.46
633.33	575.76
633.778	556.86
634.226	536.06
634.674	558.26
635.122	562.96
635.57	563.16
636.018	583.16
636.466	582.76
636.914	568.66
637.362	580.06
637.81	585.56
638.258	600.86
638.705	605.96
639.153	629.56
639.601	645.46
640.049	661.76
640.497	692.66
640.944	712.96
641.392	659.56
641.84	630.96
642.287	604.16
642.735	583.96
643.182	581.26
643.63	581.66
644.078	576.56
644.525	585.76
644.973	605.06
645.42	607.76
645.867	638.46
646.315	653.76
646.762	670.46
647.21	698.56
647.657	722.96
648.104	757.46
648.551	786.26
648.999	827.36
649.446	911.36
649.893	989.56
650.34	1138.06
650.787	1360.86
651.234	1690.96
651.682	2175.36
652.129	2966.66
652.576	4249.66
653.023	6181.16
653.47	8324.86
653.917	10265.46
654.363	11738.26
654.81	12911.26
655.257	12176.26
655.704	8070.66
656.151	4847.36
656.598	3187.26
657.044	2277.76
657.491	1778.46
657.938	1438.96
658.385	1201.26
658.831	1053.96
659.278	952.36
659.724	847.76
660.171	789.36
660.618	731.36
661.064	692.96
661.511	672.26
661.957	667.56
662.404	648.96
662.85	656.96
663.296	635.36
663.743	575.56
664.189	554.66
664.635	542.26
665.082	535.16
665.528	538.56
665.974	530.36
666.42	515.26
666.867	527.66
667.313	501.46
667.759	485.96
668.205	470.96
668.651	466.46
669.097	471.56
669.543	465.96
669.989	456.76
670.435	465.36
670.881	458.86
671.327	468.36
671.773	491.96
672.219	515.46
672.665	567.06
673.11	608.46
673.556	647.46
674.002	691.06
674.448	674.46
674.893	569.46
675.339	498.86
675.785	462.36
676.23	435.36
676.676	414.36
677.122	396.76
677.567	382.46
678.013	388.46
678.458	379.16
678.904	374.76
679.349	368.06
679.794	374.06
680.24	361.96
680.685	365.26
681.131	362.76
681.576	362.16
682.021	368.96
682.466	361.86
682.912	368.06
683.357	373.66
683.802	404.46
684.247	432.06
684.692	476.76
685.137	518.16
685.583	567.66
686.028	578.96
686.473	545.06
686.918	470.36
687.363	428.46
687.807	411.36
688.252	383.56
688.697	371.36
689.142	352.86
689.587	349.26
690.032	339.16
690.477	357.96
690.921	370.96
691.366	407.96
691.811	419.56
692.255	448.26
692.7	483.56
693.145	536.16
693.589	755.96
694.034	1225.66
694.478	1640.26
694.923	1806.86
695.367	2346.76
695.812	1252.66
696.256	525.06
696.701	384.96
697.145	360.16
697.59	338.86
698.034	341.76
698.478	347.06
698.922	340.66
699.367	339.76
699.811	344.86
700.255	371.86
700.699	406.56
701.143	446.26
701.588	493.56
702.032	533.76
702.476	533.06
702.92	508.16
703.364	527.36
703.808	690.56
704.252	1125.26
704.696	1565.76
705.14	1746.46
705.584	2210.16
706.027	1123.46
706.471	550.26
706.915	415.96
707.359	368.16
707.803	333.26
708.246	330.66
708.69	324.26
709.134	324.66
709.577	322.66
710.021	333.76
710.465	326.06
710.908	318.26
711.352	317.16
711.795	330.76
712.239	368.86
712.682	410.76
713.126	438.26
713.569	466.86
714.012	374.66
714.456	321.66
714.899	302.46
715.342	288.76
715.786	275.36
716.229	276.16
716.672	262.66
717.115	264.26
717.558	266.56
718.002	269.86
718.445	269.76
718.888	298.16
719.331	308.16
719.774	322.06
720.217	321.26
720.66	290.46
721.103	275.76
721.546	260.26
721.989	254.46
722.432	251.66
722.874	243.86
723.317	234.06
723.76	241.56
724.203	274.26
724.645	342.96
725.088	477.46
725.531	609.56
725.974	668.96
726.416	566.76
726.859	317.16
727.301	259.56
727.744	243.96
728.187	245.16
728.629	251.86
729.071	261.16
729.514	275.36
729.956	289.56
730.399	298.36
730.841	309.06
731.283	292.16
731.726	279.56
732.168	266.86
732.61	282.66
733.053	297.56
733.495	331.16
733.937	370.06
734.379	420.16
734.821	465.56
735.263	577.96
735.705	923.76
736.148	1734.76
736.59	2766.56
737.032	3152.16
737.474	2603.46
737.916	866.06
738.357	455.06
738.799	347.26
739.241	312.86
739.683	298.66
740.125	313.36
740.567	315.96
741.008	330.86
741.45	333.16
741.892	340.46
742.334	362.56
742.775	379.06
743.217	361.36
743.658	286.86
744.1	271.46
744.542	287.56
744.983	339.16
745.425	366.26
745.866	357.66
746.307	293.26
746.749	291.66
747.19	352.76
747.632	496.56
748.073	984.66
748.514	2053.26
748.956	3022.06
749.397	3840.46
749.838	3160.36
750.279	3083.96
750.72	1580.46
751.162	583.36
751.603	343.46
752.044	272.06
752.485	231.46
752.926	216.56
753.367	214.46
753.808	208.66
754.249	200.56
754.69	196.46
755.131	191.56
755.572	193.86
756.013	190.36
756.453	190.96
756.894	194.06
757.335	199.86
757.776	206.36
758.216	211.66
758.657	205.66
759.098	217.56
759.538	238.36
759.979	288.16
760.42	411.46
760.86	792.36
761.301	2050.36
761.741	4819.76
762.182	6651.76
762.622	4712.16
763.063	1384.46
763.503	563.36
763.943	344.66
764.384	298.86
764.824	293.86
765.264	274.46
765.705	236.86
766.145	199.66
766.585	189.56
767.025	178.36
767.465	174.66
767.906	204.76
768.346	234.56
768.786	237.96
769.226	236.56
769.666	329.86
770.106	690.16
770.546	1733.66
770.986	2749.26
771.426	2450.96
771.866	830.96
772.306	347.36
772.745	213.86
773.185	178.96
773.625	166.06
774.065	154.66
774.505	177.26
774.944	228.96
775.384	427.56
775.824	698.46
776.263	665.76
776.703	318.46
777.142	169.86
777.582	146.66
778.021	120.86
778.461	132.06
778.9	130.66
779.34	124.06
779.779	120.26
780.219	116.06
780.658	113.46
781.097	118.56
781.537	117.56
781.976	114.76
782.415	111.86
782.855	109.76
783.294	110.86
783.733	103.26
784.172	111.26
784.611	108.36
785.05	114.46
785.489	113.66
785.928	122.16
786.367	129.16
786.806	121.56
787.245	137.26
787.684	136.86
788.123	151.66
788.562	142.46
789.001	137.86
789.44	128.06
789.879	122.86
790.317	125.36
790.756	141.56
791.195	134.26
791.634	151.16
792.072	221.06
792.511	401.86
792.95	1114.96
793.388	2249.46
793.827	1978.96
794.265	703.16
794.704	292.56
795.142	196.66
795.581	162.86
796.019	145.66
796.458	135.76
796.896	127.66
797.334	147.06
797.773	170.16
798.211	240.16
798.649	487.16
799.087	1091.46
799.526	1708.96
799.964	2145.96
800.402	2083.16
800.84	798.66
801.278	326.86
801.716	192.46
802.154	159.96
802.592	150.46
803.03	150.26
803.468	135.96
803.906	147.16
804.344	160.46
804.782	143.46
805.22	143.26
805.658	145.66
806.096	151.06
806.533	168.06
806.971	189.46
807.409	235.26
807.847	351.26
808.284	739.56
808.722	2052.86
809.16	3479.76
809.597	3425.66
810.035	5819.56
810.472	5961.86
810.91	2192.66
811.347	854.36
811.785	421.56
812.222	266.06
812.66	203.26
813.097	182.16
813.535	156.86
813.972	133.16
814.409	119.86
814.846	112.16
815.284	111.76
815.721	105.46
816.158	109.16
816.595	115.46
817.032	161.96
817.47	183.86
817.907	139.46
818.344	114.26
818.781	105.36
819.218	99.56
819.655	133.66
820.092	200.96
820.529	220.26
820.966	178.16
821.403	129.26
821.839	110.76
822.276	99.66
822.713	131.36
823.15	139.06
823.587	129.46
824.023	157.16
824.46	335.76
824.897	980.06
825.333	1414.96
825.77	613.16
826.206	247.26
826.643	140.86
827.08	103.26
827.516	82.26
827.953	81.26
828.389	89.96
828.825	74.36
829.262	71.96
829.698	66.56
830.135	66.76
830.571	55.96
831.007	61.66
831.443	69.06
831.88	60.76
832.316	70.06
832.752	64.36
833.188	67.56
833.624	64.36
834.06	69.46
834.497	74.36
834.933	72.26
835.369	77.86
835.805	68.06
836.241	75.16
836.677	79.26
837.112	97.56
837.548	114.16
837.984	141.66
838.42	223.36
838.856	558.96
839.292	1650.36
839.727	2394.36
840.163	1138.76
840.599	1024.86
841.034	2180.56
841.47	2197.56
841.906	818.76
842.341	353.36
842.777	216.66
843.212	227.76
843.648	198.06
844.083	117.36
844.519	84.16
844.954	72.46
845.39	58.26
845.825	59.86
846.261	56.76
846.696	55.06
847.131	52.46
847.566	62.96
848.002	54.96
848.437	56.06
848.872	62.26
849.307	61.36
849.742	90.76
850.177	198.86
850.613	612.46
851.048	923.16
851.483	394.66
851.918	159.66
852.353	90.76
852.788	59.76
853.223	55.36
853.657	57.66
854.092	52.16
854.527	46.26
854.962	45.36
855.397	47.56
855.832	53.56
856.266	43.86
856.701	41.06
857.136	37.56
857.57	39.96
858.005	52.56
858.44	65.56
858.874	45.46
859.309	57.86
859.743	42.76
860.178	49.46
860.612	45.96
861.047	50.26
861.481	73.66
861.915	70.66
862.35	51.76
862.784	36.56
863.218	44.66
863.653	39.86
864.087	45.06
864.521	55.96
864.955	70.36
865.39	165.86
865.824	180.76
866.258	120.66
866.692	177.86
867.126	184.76
867.56	107.76
867.994	56.76
868.428	37.96
868.862	49.66
869.296	56.66
869.73	56.26
870.164	51.06
870.598	50.86
871.031	39.96
871.465	34.76
871.899	32.76
872.333	23.86
872.766	23.96
873.2	24.86
873.634	26.86
874.067	24.06
874.501	25.66
874.935	38.26
875.368	33.16
875.802	25.96
876.235	27.56
876.669	25.56
877.102	26.56
877.535	26.56
877.969	27.36
878.402	22.76
878.836	16.96
879.269	28.06
879.702	26.06
880.135	20.96
880.569	25.56
881.002	31.06
881.435	23.46
881.868	14.26
882.301	22.06
882.734	10.26
883.167	21.56
883.601	18.86
884.034	20.66
884.467	9.76
884.899	18.46
885.332	14.76
885.765	12.56
886.198	15.96
886.631	17.16
887.064	16.26
887.497	20.36
887.929	24.46
888.362	12.26
888.795	14.26
889.228	15.76
889.66	22.56
890.093	15.06
890.526	20.26
890.958	19.86
891.391	17.96
891.823	21.56
892.256	14.66
892.688	10.46
893.121	9.66
893.553	12.06
893.985	21.66
894.418	21.56
894.85	13.56
895.282	12.86
895.715	19.26
896.147	17.96
896.579	14.96
897.011	11.66
897.444	16.76
897.876	13.46
898.308	13.16
898.74	17.06
899.172	15.86
899.604	18.66
900.036	17.96
900.468	12.76
900.9	13.36
901.332	18.96
901.764	15.86
902.196	16.46
902.628	14.46
903.06	18.06
903.491	29.06
903.923	21.56
904.355	18.76
904.787	24.46
905.218	20.36
905.65	12.06
906.082	11.96
906.513	13.36
906.945	17.76
907.376	15.96
907.808	25.46
908.239	20.96
908.671	24.06
909.102	19.26
909.534	23.66
909.965	47.76
910.397	94.36
910.828	334.96
911.259	495.96
911.691	225.46
912.122	112.06
912.553	45.86
912.984	34.66
913.415	26.36
913.847	22.06
914.278	11.86
914.709	13.86
915.14	22.86
915.571	15.16
916.002	10.26
916.433	19.36
916.864	17.16
917.295	14.36
917.726	23.26
918.157	18.26
918.587	27.36
919.018	25.06
919.449	26.16
919.88	25.06
920.311	34.56
920.741	50.16
921.172	183.66
921.603	160.36
922.033	75.16
922.464	44.66
922.895	29.56
923.325	18.86
923.756	8.66
924.186	10.66
924.617	19.96
925.047	26.56
925.478	25.56
925.908	26.36
926.338	14.76
926.769	11.46
927.199	14.96
927.629	5.06
928.06	11.26
928.49	12.26
928.92	13.86
929.35	5.66
929.78	12.96
930.21	1.26
930.641	13.56
931.071	5.76
931.501	7.46
931.931	11.66
932.361	9.86
932.791	8.06
933.221	4.36
933.651	6.16
934.08	14.36
934.51	31.06
934.94	14.26
935.37	4.06
935.8	11.86
936.229	8.46
936.659	9.46
937.089	3.06
937.519	16.96
937.948	25.36
938.378	17.96
938.807	0.36
939.237	1.46
939.666	6.76
940.096	-5.64
940.525	-0.54
940.955	-1.04
941.384	2.16
941.814	-2.64
942.243	1.96
942.672	3.46
943.102	-0.54
943.531	0.06
943.96	-0.34
944.39	-4.34
944.819	2.06
945.248	2.76
945.677	0.86
946.106	2.36
946.535	5.76
946.964	2.46
947.393	-1.44
947.822	2.66
948.251	-6.84
948.68	2.66
949.109	4.96
949.538	6.96
949.967	-0.04
950.396	3.36
950.825	1.56
951.254	0.56
951.682	-5.74
952.111	2.36
952.54	0.36
952.969	-2.54
953.397	-5.84
953.826	2.26
954.254	-5.24
954.683	-2.74
955.112	-0.54
955.54	-1.14
955.969	-2.74
956.397	-2.34
956.826	-4.04
957.254	1.26
957.682	-0.44
958.111	3.56
958.539	3.76
958.967	-1.44
959.396	-0.24
959.824	-0.24
960.252	3.06
960.68	-6.54
961.109	1.96
961.537	-1.04
961.965	0.96
962.393	-0.44
962.821	-4.14
963.249	-1.14
963.677	3.56
964.105	4.66
964.533	47.16
964.961	41.56
965.389	20.26
965.817	4.96
966.245	3.96
966.672	-0.34
967.1	-5.54
967.528	1.56
967.956	-4.24
968.383	-6.44
968.811	-6.84
969.239	-7.24
969.666	-4.64
970.094	-1.54
970.522	-3.14
970.949	1.46
971.377	-2.94
971.804	-3.34
972.232	-2.94
972.659	-2.64
973.087	-1.24
973.514	-5.84
973.941	-8.34
974.369	-1.84
974.796	0.46
975.223	-6.54
975.651	-5.74
976.078	-3.14
976.505	-2.24
976.932	2.16
977.359	12.46
977.786	5.96
978.214	-3.04
978.641	-3.34
979.068	-0.64
979.495	-5.44
979.922	-4.14
980.349	-1.54
980.776	2.16
981.202	-2.74
981.629	2.46
982.056	-1.04
982.483	-4.94
982.91	6.46
983.337	-8.24
983.763	-3.74
984.19	-3.44
984.617	-5.94
985.043	-7.44
985.47	-3.94
985.897	-6.24
986.323	-6.74
986.75	6.76
987.176	2.26
987.603	1.16
988.029	-4.44
988.456	0.86
988.882	2.16
989.308	-6.44
989.735	-9.34
990.161	0.06
990.587	-5.84
991.014	0.46
991.44	4.16
991.866	-1.24
992.292	-3.84
992.719	-2.74
993.145	9.36
993.571	-8.24
993.997	-3.64
994.423	-7.54
994.849	-5.24
995.275	-2.04
995.701	-1.34
996.127	-3.64
996.553	6.76
996.979	-0.54
997.405	-6.74
997.83	-8.74
998.256	-11.64
998.682	-8.94
999.108	-11.64
999.534	-3.74
999.959	-8.24
1000.385	-6.64
1000.811	-2.74
1001.236	-4.84
1001.662	-8.84
1002.087	-7.94
1002.513	0.46
1002.938	1.46
1003.364	-4.34
1003.789	-2.64
1004.215	2.06
1004.64	0.86
1005.066	-5.44
1005.491	-2.74
1005.916	-4.04
1006.342	-8.34
1006.767	-6.64
1007.192	1.66
1007.617	-7.94
1008.042	-8.34
1008.468	-4.94
1008.893	-1.74
1009.318	-3.34
1009.743	-4.04
1010.168	3.36
1010.593	1.06
1011.018	-7.44
1011.443	-3.64
1011.868	-3.14
1012.293	-2.94
1012.718	-6.04
1013.143	-0.24
1013.567	-4.54
1013.992	-5.64
1014.417	-14.84
1014.842	0.96
1015.267	-9.94
1015.691	-6.44
1016.116	4.76
1016.541	-3.14
1016.965	-1.04
1017.39	0.16
1017.814	-1.84
1018.239	-6.84
1018.663	-8.94
1019.088	-10.44
1019.512	-1.14
1019.937	-2.24
1020.361	-7.34
1020.785	-15.54
1021.21	-1.94
1021.634	-5.14
1022.058	-3.54
1022.483	4.66
1022.907	-2.34
1023.331	-1.54
1023.755	-5.24
1024.179	-4.34
1024.604	-7.14
1025.028	-8.54
1025.452	-7.74
1025.876	-2.44
1026.3	2.56
1026.724	-7.44
1027.148	-7.74
1027.572	-12.64
1027.996	-2.94
1028.42	-1.84
1028.843	-7.54
1029.267	-7.84
1029.691	-0.74
1030.115	-6.84
1030.539	-8.44
1030.962	-2.24
1031.386	-10.34
1031.81	-4.24
1032.233	-6.24
1032.657	-4.04
1033.08	-2.34
1033.504	-11.84
1033.927	-6.84
1034.351	-3.64
1034.774	-3.44
1035.198	-8.94
1035.621	-14.84
1036.045	-5.24
1036.468	1.86
1036.891	-12.44
1037.315	-17.84
1037.738	-7.84
1038.161	2.96
1038.584	-5.44
1039.008	-5.44
1039.431	-2.84
1039.854	-0.84
1040.277	-12.24
1040.7	-12.64
1041.123	-4.74
1041.546	-5.84
1041.969	-2.64
1042.392	-7.64
1042.815	-5.34
1043.238	-3.24
1043.661	2.46
1044.084	-10.64
1044.507	-4.94
1044.93	-8.34
1045.352	-6.14
1045.775	-3.14
1046.198	-1.84
1046.621	-2.74
1047.043	-2.64
1047.466	-0.94
1047.889	-7.24
1048.311	-3.84
1048.734	-8.04
1049.156	-7.04
1049.579	-2.14
1050.001	-5.14
1050.424	-3.34
1050.846	-9.34
1051.269	-5.34
1051.691	-11.74
1052.113	-7.74
1052.536	-4.74
1052.958	-10.24
1053.38	-6.54
1053.802	-11.14
1054.225	-2.84
1054.647	-8.44
1055.069	-9.94
1055.491	1.66
1055.913	-9.84
1056.335	-3.24
1056.757	-7.24
1057.179	-3.94
1057.601	-10.74
1058.023	-0.44
1058.445	-5.04
1058.867	-3.14
1059.289	-3.54
1059.711	-6.84
1060.133	-7.44
1060.555	-2.94
1060.976	-7.94
1061.398	-2.74
1061.82	-10.04
1062.241	-4.94
1062.663	-6.04
1063.085	-3.94
1063.506	1.66
1063.928	-4.54
1064.35	1.06
1064.771	-6.64
1065.193	-2.24
1065.614	-13.74
1066.035	-2.04
1066.457	-5.04
1066.878	1.86
1067.3	-7.04
1067.721	-2.84
1068.142	-9.24
1068.564	-7.44
1068.985	-7.74
1069.406	-6.84
1069.827	-4.34
1070.248	-3.14
1070.67	-7.54
1071.091	-4.24
1071.512	-4.24
1071.933	-4.94
1072.354	-8.24
1072.775	-6.34
1073.196	-9.84
1073.617	-1.34
1074.038	-8.74
1074.459	-5.04
1074.88	-8.44
1075.3	-3.54
1075.721	-6.74
1076.142	-3.84
1076.563	-1.94
1076.983	-11.04
1077.404	-7.24
1077.825	-15.14
1078.246	-5.04
1078.666	-12.64
1079.087	-7.04
1079.507	-5.44
1079.928	-6.94
1080.348	-2.84
1080.769	-8.24
1081.189	-6.04
1081.61	-5.34
1082.03	-7.54
1082.451	-8.44
1082.871	-1.94
1083.291	-5.64
1083.711	-10.44
1084.132	-6.54
1084.552	-5.94
1084.972	-5.74
1085.392	-11.54
1085.813	-7.94
1086.233	-13.04
1086.653	-9.04
1087.073	2.46
1087.493	-7.54
1087.913	-6.94
1088.333	-7.54
1088.753	-3.34
1089.173	0.26
1089.593	-3.34
1090.013	-0.04
1090.433	-1.94
1090.852	-6.74
1091.272	-8.24
1091.692	-4.24
1092.112	-7.04
1092.531	-10.44
1092.951	-13.34
1093.371	-8.04
1093.79	3.46
1094.21	-4.04
1094.63	-7.84
1095.049	-10.94
1095.469	-2.14
1095.888	-6.64
1096.308	1.76
1096.727	0.76
1097.146	-6.04
1097.566	-6.44
1097.985	-7.64
1098.405	-3.54
1098.824	-10.14
1099.243	-8.64
1099.662	-11.74
1100.082	-6.04
1100.501	-1.34
1100.92	-9.14
1101.339	-6.34
1101.758	-7.34
