Data from 20171114-ORNL-Ar_H_NY_Subt18_08-03-36-402.txt Node
Date: Tue Nov 14 08:03:36 EST 2017
User: Ender
Spectrometer: HR+D1039
Trigger mode: 0
Integration Time (sec): 2.730000E-2
Scans to average: 10
Electric dark correction enabled: true
Nonlinearity correction enabled: false
Boxcar width: 0
XAxis mode: Wavelengths
Number of Pixels in Spectrum: 2048
>>>>>Begin Spectral Data<<<<<
187.836	-3.14
188.309	-3.14
188.782	-3.14
189.255	1.66
189.728	1.56
190.201	5.36
190.674	-2.74
191.147	9.86
191.619	-8.64
192.092	0.96
192.565	4.46
193.038	-3.14
193.511	-4.54
193.984	-2.54
194.456	-4.04
194.929	3.66
195.402	-0.44
195.874	1.76
196.347	3.76
196.82	-2.94
197.292	0.66
197.765	-2.54
198.237	-7.54
198.71	3.96
199.182	-2.54
199.655	4.96
200.127	2.76
200.6	-5.74
201.072	-2.34
201.544	-5.34
202.017	-0.14
202.489	3.46
202.961	3.36
203.433	-4.14
203.906	-6.44
204.378	-6.14
204.85	-7.64
205.322	-6.24
205.794	-0.94
206.266	-7.14
206.739	-8.34
207.211	0.76
207.683	-6.24
208.155	-7.24
208.627	-2.74
209.099	-3.54
209.57	-7.44
210.042	-4.24
210.514	2.56
210.986	-1.24
211.458	-11.04
211.93	-10.44
212.402	1.16
212.873	-7.54
213.345	-6.44
213.817	-13.04
214.288	-3.24
214.76	-7.84
215.232	-4.64
215.703	-2.04
216.175	-5.24
216.646	-4.94
217.118	-9.54
217.589	-11.54
218.061	-0.44
218.532	-7.24
219.004	-2.74
219.475	-8.84
219.946	-4.44
220.418	-7.54
220.889	10.26
221.36	-1.44
221.832	4.26
222.303	-5.34
222.774	1.46
223.245	-7.44
223.717	-4.64
224.188	-3.94
224.659	-8.64
225.13	-8.84
225.601	-4.74
226.072	2.86
226.543	-0.94
227.014	-1.14
227.485	-1.74
227.956	-8.54
228.427	-7.84
228.898	6.96
229.369	1.76
229.839	-10.94
230.31	-10.34
230.781	0.96
231.252	-5.14
231.722	-1.34
232.193	-6.94
232.664	1.66
233.135	-4.24
233.605	-5.04
234.076	-9.14
234.546	3.86
235.017	1.16
235.487	0.96
235.958	-7.14
236.428	-9.94
236.899	-3.94
237.369	-2.34
237.84	-8.54
238.31	3.16
238.78	0.96
239.251	-9.04
239.721	-4.44
240.191	-2.54
240.662	0.26
241.132	-0.54
241.602	-10.44
242.072	-4.54
242.542	0.46
243.013	2.26
243.483	2.46
243.953	-2.54
244.423	-7.04
244.893	-5.14
245.363	1.86
245.833	0.26
246.303	-5.24
246.773	5.76
247.243	0.86
247.712	-5.04
248.182	4.66
248.652	4.66
249.122	-10.84
249.592	-0.94
250.061	1.46
250.531	7.96
251.001	-4.54
251.471	7.26
251.94	1.86
252.41	-8.54
252.879	-9.44
253.349	6.76
253.818	4.16
254.288	-1.44
254.757	-0.64
255.227	-3.44
255.696	-2.94
256.166	-3.44
256.635	-2.44
257.105	1.06
257.574	-8.14
258.043	-4.54
258.513	-10.84
258.982	4.36
259.451	-6.14
259.92	-1.04
260.389	-1.04
260.859	4.06
261.328	-1.94
261.797	-1.04
262.266	-1.14
262.735	4.56
263.204	-3.34
263.673	-0.54
264.142	1.76
264.611	-4.14
265.08	-8.34
265.549	-10.74
266.018	7.26
266.487	-6.64
266.955	-7.34
267.424	-4.74
267.893	-0.44
268.362	-4.04
268.83	-2.14
269.299	4.86
269.768	-4.14
270.236	-2.84
270.705	-8.64
271.174	-2.04
271.642	-2.24
272.111	-2.44
272.579	7.06
273.048	2.86
273.516	-1.44
273.985	-4.94
274.453	0.56
274.922	4.46
275.39	-1.14
275.858	1.96
276.327	1.06
276.795	0.96
277.263	-4.24
277.731	2.96
278.2	-2.74
278.668	-2.14
279.136	2.06
279.604	-0.74
280.072	6.86
280.54	-2.24
281.008	0.66
281.477	1.96
281.945	0.86
282.413	4.96
282.881	2.96
283.348	-1.64
283.816	5.36
284.284	5.76
284.752	10.86
285.22	-0.04
285.688	3.46
286.156	3.96
286.623	2.16
287.091	-0.24
287.559	2.06
288.026	2.96
288.494	-0.14
288.962	-11.54
289.429	1.76
289.897	11.16
290.364	1.26
290.832	6.36
291.3	-1.64
291.767	4.16
292.234	5.66
292.702	-0.54
293.169	5.86
293.637	7.26
294.104	-1.34
294.571	-4.84
295.039	3.06
295.506	-2.54
295.973	5.06
296.44	1.26
296.908	1.76
297.375	-1.34
297.842	4.66
298.309	2.46
298.776	-2.34
299.243	10.36
299.71	-4.64
300.177	5.86
300.644	10.66
301.111	4.06
301.578	6.86
302.045	0.36
302.512	8.46
302.979	8.86
303.446	9.76
303.913	-4.94
304.379	-4.14
304.846	14.76
305.313	8.56
305.78	4.56
306.246	13.86
306.713	12.86
307.18	11.46
307.646	11.36
308.113	9.46
308.579	8.46
309.046	9.36
309.512	8.16
309.979	2.56
310.445	8.06
310.912	14.76
311.378	14.26
311.845	7.76
312.311	12.66
312.777	11.86
313.244	16.26
313.71	16.66
314.176	11.26
314.642	5.76
315.109	4.26
315.575	13.66
316.041	18.16
316.507	6.96
316.973	10.26
317.439	9.16
317.905	14.86
318.371	22.66
318.837	15.26
319.303	11.66
319.769	11.96
320.235	14.06
320.701	10.36
321.167	13.16
321.633	11.76
322.099	13.86
322.564	23.06
323.03	13.96
323.496	16.36
323.962	14.86
324.427	12.46
324.893	18.06
325.359	14.26
325.824	20.46
326.29	11.56
326.755	19.76
327.221	16.96
327.686	13.76
328.152	20.16
328.617	20.16
329.083	23.46
329.548	22.86
330.014	15.76
330.479	16.66
330.944	20.26
331.41	20.06
331.875	21.86
332.34	16.46
332.805	18.26
333.271	22.06
333.736	11.46
334.201	20.66
334.666	24.06
335.131	26.96
335.596	26.56
336.061	24.76
336.526	10.96
336.991	29.86
337.456	32.66
337.921	23.06
338.386	18.26
338.851	24.36
339.316	26.06
339.781	23.76
340.246	28.46
340.711	16.36
341.175	23.86
341.64	17.46
342.105	21.36
342.569	24.76
343.034	25.96
343.499	26.16
343.963	21.56
344.428	36.76
344.893	28.56
345.357	41.16
345.822	25.96
346.286	33.56
346.751	31.96
347.215	38.96
347.679	31.26
348.144	44.66
348.608	42.26
349.073	34.86
349.537	38.56
350.001	40.36
350.465	47.36
350.93	39.86
351.394	45.56
351.858	35.36
352.322	41.56
352.786	41.46
353.25	43.46
353.715	53.76
354.179	43.86
354.643	62.66
355.107	62.36
355.571	50.66
356.035	60.56
356.498	54.96
356.962	57.66
357.426	58.96
357.89	55.96
358.354	46.96
358.818	50.96
359.281	40.96
359.745	35.96
360.209	43.86
360.673	41.96
361.136	46.26
361.6	49.06
362.064	45.36
362.527	37.26
362.991	57.86
363.454	41.06
363.918	43.06
364.381	45.86
364.845	42.96
365.308	54.16
365.772	47.16
366.235	48.36
366.698	49.96
367.162	46.66
367.625	45.16
368.088	47.26
368.552	41.66
369.015	52.86
369.478	55.96
369.941	53.76
370.404	51.76
370.867	53.76
371.331	59.86
371.794	55.06
372.257	55.56
372.72	61.86
373.183	57.06
373.646	53.46
374.109	55.96
374.572	60.36
375.035	54.26
375.497	58.56
375.96	61.96
376.423	56.96
376.886	58.36
377.349	65.16
377.811	60.56
378.274	64.26
378.737	60.46
379.199	65.46
379.662	57.96
380.125	67.56
380.587	61.46
381.05	59.66
381.512	65.26
381.975	71.56
382.437	63.16
382.9	67.16
383.362	71.66
383.825	79.66
384.287	80.96
384.75	70.06
385.212	75.26
385.674	77.86
386.136	78.36
386.599	72.26
387.061	72.66
387.523	70.56
387.985	74.46
388.447	80.56
388.91	80.76
389.372	79.26
389.834	76.86
390.296	76.26
390.758	81.76
391.22	86.46
391.682	86.66
392.144	93.86
392.606	89.46
393.068	93.66
393.529	94.86
393.991	84.46
394.453	84.96
394.915	85.46
395.377	81.46
395.838	77.86
396.3	90.56
396.762	85.46
397.224	84.86
397.685	81.76
398.147	91.46
398.608	90.06
399.07	79.86
399.531	94.26
399.993	93.46
400.454	101.56
400.916	87.76
401.377	89.26
401.839	92.16
402.3	93.96
402.762	107.86
403.223	118.56
403.684	107.16
404.145	103.36
404.607	102.16
405.068	101.46
405.529	100.56
405.99	107.86
406.451	98.56
406.913	103.76
407.374	103.86
407.835	96.06
408.296	100.46
408.757	103.06
409.218	115.36
409.679	110.56
410.14	104.86
410.601	113.26
411.062	115.06
411.522	112.86
411.983	111.76
412.444	116.26
412.905	125.76
413.366	131.16
413.826	139.66
414.287	154.86
414.748	191.16
415.208	181.06
415.669	150.26
416.13	149.26
416.59	144.66
417.051	157.76
417.511	160.46
417.972	183.56
418.432	187.96
418.893	225.96
419.353	195.66
419.814	148.16
420.274	135.36
420.734	129.56
421.195	130.66
421.655	123.26
422.115	131.16
422.576	131.26
423.036	134.06
423.496	148.26
423.956	155.56
424.416	155.66
424.876	182.06
425.336	173.56
425.797	173.36
426.257	168.36
426.717	156.16
427.177	146.86
427.637	132.56
428.097	136.96
428.556	143.96
429.016	160.86
429.476	142.06
429.936	140.76
430.396	140.26
430.856	150.36
431.315	160.76
431.775	170.76
432.235	197.76
432.694	186.26
433.154	181.66
433.614	189.46
434.073	171.76
434.533	150.16
434.993	145.96
435.452	155.36
435.912	159.26
436.371	166.26
436.83	160.26
437.29	156.06
437.749	149.06
438.209	147.06
438.668	162.66
439.127	170.16
439.587	158.96
440.046	158.26
440.505	157.26
440.964	166.66
441.424	187.96
441.883	182.96
442.342	164.46
442.801	151.76
443.26	151.66
443.719	155.66
444.178	152.36
444.637	139.16
445.096	151.66
445.555	161.06
446.014	159.86
446.473	167.56
446.932	168.96
447.391	154.56
447.849	159.86
448.308	148.86
448.767	159.66
449.226	171.26
449.685	165.46
450.143	177.66
450.602	170.36
451.061	156.16
451.519	159.56
451.978	163.46
452.436	156.26
452.895	158.36
453.353	164.86
453.812	168.06
454.27	167.56
454.729	162.16
455.187	167.16
455.646	168.16
456.104	163.76
456.562	174.56
457.021	182.06
457.479	178.96
457.937	186.46
458.395	175.96
458.854	165.86
459.312	169.76
459.77	171.76
460.228	171.76
460.686	171.76
461.144	170.86
461.602	171.16
462.06	170.06
462.518	169.86
462.976	177.16
463.434	173.26
463.892	173.16
464.35	179.66
464.808	190.86
465.266	175.36
465.724	183.26
466.181	189.76
466.639	179.96
467.097	198.16
467.555	205.66
468.012	196.56
468.47	203.26
468.928	206.46
469.385	218.06
469.843	216.16
470.3	214.56
470.758	218.46
471.215	231.76
471.673	241.66
472.13	241.36
472.588	255.56
473.045	234.26
473.503	236.76
473.96	242.86
474.417	247.26
474.875	260.96
475.332	275.56
475.789	271.36
476.246	271.16
476.704	271.36
477.161	270.66
477.618	273.66
478.075	282.86
478.532	298.96
478.989	318.66
479.446	352.16
479.903	314.26
480.36	300.66
480.817	298.86
481.274	306.36
481.731	307.86
482.188	309.96
482.645	335.16
483.102	334.66
483.558	351.76
484.015	356.86
484.472	354.46
484.929	356.46
485.385	356.26
485.842	366.06
486.299	360.46
486.755	394.96
487.212	375.06
487.668	343.76
488.125	341.86
488.582	338.86
489.038	340.26
489.494	337.46
489.951	336.66
490.407	345.06
490.864	340.26
491.32	349.46
491.776	359.36
492.233	355.36
492.689	346.06
493.145	347.26
493.602	344.96
494.058	358.06
494.514	358.46
494.97	371.26
495.426	368.56
495.882	364.96
496.338	352.66
496.794	364.06
497.251	349.36
497.707	369.16
498.163	365.16
498.618	369.66
499.074	369.96
499.53	383.66
499.986	385.16
500.442	373.76
500.898	370.56
501.354	365.16
501.809	369.76
502.265	377.86
502.721	387.86
503.177	389.16
503.632	397.76
504.088	389.16
504.543	401.06
504.999	401.76
505.455	392.06
505.91	384.26
506.366	388.36
506.821	378.16
507.277	387.36
507.732	382.26
508.187	376.36
508.643	388.56
509.098	382.56
509.553	397.76
510.009	409.36
510.464	394.36
510.919	414.96
511.375	416.46
511.83	418.26
512.285	427.76
512.74	444.86
513.195	452.56
513.65	445.86
514.105	457.06
514.56	458.16
515.015	471.96
515.47	477.96
515.925	460.36
516.38	462.66
516.835	476.56
517.29	460.16
517.745	459.86
518.2	460.36
518.655	445.16
519.109	431.96
519.564	431.86
520.019	426.76
520.474	424.76
520.928	421.26
521.383	415.36
521.838	409.56
522.292	416.66
522.747	423.46
523.201	419.36
523.656	409.46
524.11	409.36
524.565	408.56
525.019	405.96
525.474	407.46
525.928	397.26
526.382	403.16
526.837	402.96
527.291	410.66
527.745	396.86
528.2	393.06
528.654	399.56
529.108	389.76
529.562	390.16
530.016	390.26
530.47	390.56
530.925	389.76
531.379	386.56
531.833	398.36
532.287	390.36
532.741	388.36
533.195	387.56
533.649	401.36
534.103	389.16
534.556	381.66
535.01	382.16
535.464	382.06
535.918	387.66
536.372	398.66
536.826	401.86
537.279	389.26
537.733	391.26
538.187	394.76
538.64	391.56
539.094	390.56
539.548	394.76
540.001	392.36
540.455	401.26
540.908	408.96
541.362	408.26
541.815	407.06
542.269	420.36
542.722	419.16
543.175	424.06
543.629	429.96
544.082	447.06
544.536	437.16
544.989	434.46
545.442	438.96
545.895	437.36
546.349	443.56
546.802	426.16
547.255	438.26
547.708	441.66
548.161	449.66
548.614	458.96
549.067	463.16
549.52	450.46
549.973	444.66
550.426	437.86
550.879	432.46
551.332	434.56
551.785	441.36
552.238	423.86
552.691	445.96
553.144	446.66
553.596	458.56
554.049	470.46
554.502	486.16
554.955	491.16
555.407	492.86
555.86	492.66
556.313	470.96
556.765	470.26
557.218	480.26
557.67	471.16
558.123	457.26
558.576	460.06
559.028	463.16
559.48	471.96
559.933	457.26
560.385	440.56
560.838	440.36
561.29	415.26
561.742	413.16
562.195	404.56
562.647	411.46
563.099	414.76
563.551	402.56
564.004	412.96
564.456	404.26
564.908	397.16
565.36	383.46
565.812	375.86
566.264	368.66
566.716	369.86
567.168	364.26
567.62	366.56
568.072	355.66
568.524	350.06
568.976	353.86
569.428	349.66
569.88	349.86
570.332	352.06
570.784	354.76
571.235	348.56
571.687	353.56
572.139	355.96
572.59	363.86
573.042	359.36
573.494	361.56
573.945	357.66
574.397	343.16
574.849	343.56
575.3	339.66
575.752	345.96
576.203	338.56
576.655	343.66
577.106	330.06
577.557	338.46
578.009	333.56
578.46	326.96
578.912	325.96
579.363	322.26
579.814	324.46
580.265	328.56
580.717	326.96
581.168	319.86
581.619	322.46
582.07	338.26
582.521	332.26
582.972	328.26
583.423	331.06
583.875	327.86
584.326	334.36
584.777	334.56
585.227	353.46
585.678	347.46
586.129	354.46
586.58	359.26
587.031	366.86
587.482	381.26
587.933	399.36
588.384	381.96
588.834	389.26
589.285	384.56
589.736	381.36
590.186	379.96
590.637	373.86
591.088	362.66
591.538	360.06
591.989	359.16
592.439	356.06
592.89	345.26
593.34	338.76
593.791	328.56
594.241	329.76
594.692	333.36
595.142	335.46
595.593	326.86
596.043	338.26
596.493	332.76
596.943	336.76
597.394	350.86
597.844	339.16
598.294	346.46
598.744	371.16
599.195	383.86
599.645	394.66
600.095	419.36
600.545	440.26
600.995	473.66
601.445	497.96
601.895	534.56
602.345	566.16
602.795	551.26
603.245	523.36
603.695	492.76
604.145	470.16
604.594	440.46
605.044	407.36
605.494	378.36
605.944	357.76
606.393	343.36
606.843	333.46
607.293	345.36
607.743	335.56
608.192	349.66
608.642	353.16
609.091	362.26
609.541	357.96
609.99	348.46
610.44	351.86
610.889	334.26
611.339	326.46
611.788	309.86
612.238	319.96
612.687	334.86
613.136	328.06
613.586	334.26
614.035	317.76
614.484	326.16
614.933	322.26
615.383	325.76
615.832	331.16
616.281	321.66
616.73	304.96
617.179	307.96
617.628	285.46
618.077	282.06
618.526	287.66
618.975	284.66
619.424	284.16
619.873	279.16
620.322	278.26
620.771	265.36
621.22	265.66
621.669	268.56
622.118	270.16
622.567	260.86
623.015	251.16
623.464	255.86
623.913	252.26
624.361	245.16
624.81	241.86
625.259	244.66
625.707	259.16
626.156	253.56
626.604	253.36
627.053	251.36
627.501	246.26
627.95	247.96
628.398	260.26
628.847	254.06
629.295	248.56
629.744	256.16
630.192	256.16
630.64	250.56
631.089	244.36
631.537	235.26
631.985	224.66
632.433	233.76
632.881	234.26
633.33	218.76
633.778	221.16
634.226	223.16
634.674	227.36
635.122	227.96
635.57	242.16
636.018	233.66
636.466	245.36
636.914	233.16
637.362	240.96
637.81	241.96
638.258	248.46
638.705	244.26
639.153	262.06
639.601	256.96
640.049	266.06
640.497	282.56
640.944	302.76
641.392	271.06
641.84	243.96
642.287	234.66
642.735	216.46
643.182	227.36
643.63	212.96
644.078	212.36
644.525	218.46
644.973	211.46
645.42	212.86
645.867	207.66
646.315	221.86
646.762	212.06
647.21	223.76
647.657	208.66
648.104	214.96
648.551	208.06
648.999	196.56
649.446	202.96
649.893	193.16
650.34	198.36
650.787	200.96
651.234	200.56
651.682	211.06
652.129	210.96
652.576	223.06
653.023	241.76
653.47	267.56
653.917	262.66
654.363	288.86
654.81	289.76
655.257	291.66
655.704	251.16
656.151	216.36
656.598	209.16
657.044	198.06
657.491	201.96
657.938	181.16
658.385	190.06
658.831	199.56
659.278	203.56
659.724	195.06
660.171	200.96
660.618	188.96
661.064	187.16
661.511	195.26
661.957	191.26
662.404	194.46
662.85	206.26
663.296	196.76
663.743	187.76
664.189	192.86
664.635	188.56
665.082	186.36
665.528	194.66
665.974	193.26
666.42	194.36
666.867	194.46
667.313	182.76
667.759	180.66
668.205	175.36
668.651	169.16
669.097	170.76
669.543	166.46
669.989	175.26
670.435	173.56
670.881	177.76
671.327	171.96
671.773	188.16
672.219	204.76
672.665	222.16
673.11	240.46
673.556	271.66
674.002	288.86
674.448	286.56
674.893	235.16
675.339	198.96
675.785	189.76
676.23	173.56
676.676	162.46
677.122	156.86
677.567	157.16
678.013	153.66
678.458	143.76
678.904	148.56
679.349	140.36
679.794	142.46
680.24	147.16
680.685	139.56
681.131	140.56
681.576	146.86
682.021	153.86
682.466	150.56
682.912	142.66
683.357	136.76
683.802	160.66
684.247	170.06
684.692	195.26
685.137	205.46
685.583	232.06
686.028	261.46
686.473	221.66
686.918	190.56
687.363	175.76
687.807	177.36
688.252	151.26
688.697	155.26
689.142	151.46
689.587	147.16
690.032	127.86
690.477	148.96
690.921	144.06
691.366	170.26
691.811	170.16
692.255	187.66
692.7	210.16
693.145	216.96
693.589	301.26
694.034	499.76
694.478	716.36
694.923	849.36
695.367	1128.96
695.812	580.76
696.256	227.06
696.701	162.86
697.145	151.96
697.59	137.96
698.034	134.46
698.478	143.46
698.922	139.66
699.367	137.66
699.811	145.26
700.255	149.96
700.699	166.56
701.143	179.86
701.588	201.36
702.032	228.36
702.476	227.06
702.92	214.16
703.364	213.26
703.808	269.76
704.252	465.96
704.696	667.86
705.14	818.56
705.584	1061.16
706.027	512.86
706.471	233.26
706.915	172.56
707.359	150.56
707.803	135.16
708.246	132.56
708.69	133.16
709.134	133.96
709.577	129.86
710.021	140.56
710.465	131.16
710.908	125.26
711.352	125.26
711.795	130.06
712.239	145.86
712.682	167.06
713.126	178.86
713.569	206.16
714.012	162.66
714.456	133.36
714.899	125.16
715.342	115.16
715.786	107.46
716.229	107.76
716.672	102.96
717.115	99.66
717.558	105.56
718.002	110.46
718.445	108.76
718.888	118.86
719.331	123.26
719.774	135.16
720.217	130.56
720.66	117.96
721.103	114.06
721.546	111.16
721.989	104.66
722.432	92.06
722.874	105.76
723.317	87.26
723.76	92.86
724.203	112.06
724.645	130.26
725.088	190.36
725.531	250.36
725.974	300.96
726.416	256.16
726.859	135.46
727.301	100.76
727.744	100.66
728.187	100.16
728.629	105.56
729.071	102.96
729.514	116.36
729.956	110.56
730.399	121.96
730.841	125.76
731.283	113.66
731.726	113.86
732.168	104.86
732.61	109.36
733.053	123.46
733.495	132.36
733.937	145.66
734.379	178.46
734.821	190.86
735.263	234.56
735.705	364.76
736.148	706.76
736.59	1207.96
737.032	1500.96
737.474	1233.76
737.916	378.36
738.357	188.76
738.799	141.96
739.241	131.46
739.683	118.56
740.125	128.06
740.567	125.36
741.008	147.86
741.45	145.46
741.892	141.66
742.334	157.76
742.775	160.76
743.217	155.36
743.658	116.16
744.1	108.86
744.542	110.96
744.983	146.06
745.425	155.66
745.866	162.46
746.307	124.66
746.749	115.46
747.19	144.56
747.632	193.96
748.073	380.26
748.514	832.86
748.956	1356.26
749.397	1685.16
749.838	1415.46
750.279	1474.16
750.72	730.96
751.162	255.96
751.603	139.26
752.044	110.16
752.485	85.06
752.926	85.56
753.367	88.06
753.808	81.96
754.249	78.66
754.69	73.26
755.131	71.86
755.572	70.86
756.013	69.26
756.453	79.16
756.894	78.86
757.335	75.16
757.776	76.76
758.216	85.16
758.657	86.46
759.098	81.16
759.538	99.96
759.979	108.66
760.42	156.56
760.86	302.66
761.301	798.86
761.741	2020.96
762.182	3195.16
762.622	2282.86
763.063	649.26
763.503	251.66
763.943	140.86
764.384	115.16
764.824	99.56
765.264	84.36
765.705	84.56
766.145	67.06
766.585	68.56
767.025	65.86
767.465	57.16
767.906	69.36
768.346	75.06
768.786	82.06
769.226	83.16
769.666	130.76
770.106	264.56
770.546	689.56
770.986	1283.86
771.426	1184.06
771.866	382.96
772.306	146.06
772.745	86.06
773.185	72.96
773.625	62.76
774.065	56.26
774.505	65.36
774.944	87.66
775.384	160.46
775.824	269.76
776.263	275.16
776.703	129.36
777.142	64.36
777.582	50.66
778.021	43.36
778.461	53.96
778.9	53.26
779.34	53.56
779.779	41.56
780.219	34.26
780.658	37.16
781.097	39.56
781.537	40.96
781.976	43.56
782.415	31.86
782.855	41.46
783.294	43.06
783.733	38.66
784.172	45.06
784.611	37.46
785.05	36.46
785.489	43.36
785.928	41.56
786.367	51.66
786.806	40.66
787.245	49.86
787.684	57.36
788.123	63.56
788.562	61.56
789.001	52.86
789.44	46.86
789.879	48.16
790.317	44.96
790.756	52.66
791.195	48.06
791.634	58.86
792.072	85.36
792.511	150.16
792.95	435.16
793.388	1012.86
793.827	969.56
794.265	325.06
794.704	125.36
795.142	82.66
795.581	71.16
796.019	61.16
796.458	52.56
796.896	52.96
797.334	50.56
797.773	57.96
798.211	93.56
798.649	193.16
799.087	470.66
799.526	756.76
799.964	959.86
800.402	1016.16
800.84	371.36
801.278	140.36
801.716	82.46
802.154	67.46
802.592	64.46
803.03	59.66
803.468	44.76
803.906	60.36
804.344	63.46
804.782	60.46
805.22	53.06
805.658	47.76
806.096	65.16
806.533	67.66
806.971	80.76
807.409	92.16
807.847	133.26
808.284	282.06
808.722	848.26
809.16	1593.76
809.597	1478.66
810.035	2582.06
810.472	2977.56
810.91	1067.06
811.347	384.66
811.785	196.66
812.222	123.56
812.66	92.46
813.097	76.96
813.535	61.26
813.972	54.46
814.409	53.36
814.846	42.46
815.284	46.06
815.721	38.46
816.158	40.76
816.595	39.76
817.032	66.66
817.47	88.96
817.907	68.06
818.344	37.66
818.781	35.66
819.218	34.36
819.655	51.66
820.092	86.76
820.529	97.56
820.966	80.76
821.403	53.56
821.839	40.36
822.276	34.26
822.713	55.96
823.15	60.76
823.587	48.86
824.023	59.56
824.46	123.36
824.897	414.06
825.333	673.96
825.77	296.66
826.206	107.06
826.643	61.16
827.08	42.16
827.516	33.66
827.953	28.56
828.389	38.06
828.825	22.66
829.262	29.76
829.698	20.36
830.135	31.86
830.571	25.46
831.007	22.16
831.443	28.46
831.88	25.46
832.316	22.96
832.752	30.36
833.188	20.66
833.624	21.86
834.06	25.56
834.497	24.06
834.933	28.06
835.369	39.96
835.805	34.06
836.241	30.86
836.677	34.16
837.112	40.26
837.548	39.86
837.984	57.86
838.42	82.86
838.856	222.46
839.292	721.86
839.727	1163.96
840.163	532.96
840.599	423.66
841.034	976.56
841.47	1099.86
841.906	393.96
842.341	148.56
842.777	90.96
843.212	86.36
843.648	88.86
844.083	41.96
844.519	35.26
844.954	28.16
845.39	21.26
845.825	23.96
846.261	25.66
846.696	20.16
847.131	15.56
847.566	20.36
848.002	18.66
848.437	14.76
848.872	22.96
849.307	22.26
849.742	38.36
850.177	76.16
850.613	256.96
851.048	432.06
851.483	188.16
851.918	66.46
852.353	28.36
852.788	14.06
853.223	14.56
853.657	26.96
854.092	20.66
854.527	17.66
854.962	14.16
855.397	16.36
855.832	23.36
856.266	19.96
856.701	17.26
857.136	15.36
857.57	18.96
858.005	18.56
858.44	29.26
858.874	18.26
859.309	26.46
859.743	15.06
860.178	13.86
860.612	12.46
861.047	17.86
861.481	27.46
861.915	33.66
862.35	23.16
862.784	10.26
863.218	18.76
863.653	11.16
864.087	22.06
864.521	26.56
864.955	26.86
865.39	68.36
865.824	78.06
866.258	53.46
866.692	80.46
867.126	89.06
867.56	54.26
867.994	22.66
868.428	13.36
868.862	15.26
869.296	31.26
869.73	29.56
870.164	21.36
870.598	20.36
871.031	16.56
871.465	12.86
871.899	16.16
872.333	7.46
872.766	5.66
873.2	9.46
873.634	14.06
874.067	10.26
874.501	6.16
874.935	18.96
875.368	10.86
875.802	8.16
876.235	9.66
876.669	11.66
877.102	3.16
877.535	9.06
877.969	13.66
878.402	9.86
878.836	5.56
879.269	9.16
879.702	9.06
880.135	3.66
880.569	6.76
881.002	8.06
881.435	6.76
881.868	-0.24
882.301	5.16
882.734	-1.74
883.167	9.16
883.601	6.36
884.034	10.76
884.467	3.06
884.899	6.46
885.332	1.56
885.765	6.16
886.198	3.76
886.631	5.66
887.064	5.16
887.497	7.66
887.929	11.76
888.362	-1.94
888.795	9.26
889.228	6.96
889.66	8.46
890.093	10.46
890.526	5.26
890.958	6.16
891.391	7.96
891.823	10.56
892.256	0.06
892.688	-0.44
893.121	1.96
893.553	-0.14
893.985	12.36
894.418	5.76
894.85	-0.04
895.282	0.76
895.715	10.26
896.147	7.76
896.579	6.06
897.011	5.86
897.444	7.96
897.876	3.76
898.308	3.96
898.74	4.46
899.172	1.56
899.604	8.46
900.036	9.26
900.468	8.26
900.9	4.16
901.332	2.56
901.764	3.86
902.196	10.66
902.628	4.56
903.06	-1.04
903.491	12.66
903.923	8.36
904.355	13.26
904.787	5.66
905.218	10.26
905.65	7.86
906.082	0.76
906.513	2.26
906.945	6.66
907.376	-0.44
907.808	9.46
908.239	4.86
908.671	-5.84
909.102	6.96
909.534	1.46
909.965	21.66
910.397	44.86
910.828	149.46
911.259	237.36
911.691	111.36
912.122	47.56
912.553	18.96
912.984	14.66
913.415	10.36
913.847	10.76
914.278	11.66
914.709	6.96
915.14	3.76
915.571	12.06
916.002	-4.64
916.433	8.76
916.864	0.16
917.295	4.86
917.726	12.66
918.157	4.66
918.587	15.76
919.018	6.56
919.449	4.56
919.88	6.96
920.311	11.76
920.741	14.16
921.172	77.46
921.603	71.96
922.033	26.76
922.464	19.86
922.895	8.66
923.325	9.66
923.756	3.06
924.186	2.66
924.617	9.16
925.047	3.96
925.478	8.86
925.908	9.36
926.338	4.66
926.769	4.86
927.199	10.36
927.629	-1.54
928.06	4.46
928.49	5.56
928.92	7.46
929.35	4.36
929.78	4.56
930.21	4.36
930.641	2.56
931.071	2.26
931.501	-5.14
931.931	-2.74
932.361	0.56
932.791	-4.04
933.221	3.86
933.651	-2.04
934.08	8.66
934.51	16.86
934.94	5.16
935.37	7.36
935.8	8.16
936.229	0.26
936.659	3.36
937.089	-7.44
937.519	2.26
937.948	19.36
938.378	9.26
938.807	1.36
939.237	-5.44
939.666	-0.24
940.096	-16.04
940.525	-3.54
940.955	2.06
941.384	3.06
941.814	-4.54
942.243	-3.24
942.672	0.56
943.102	-2.54
943.531	-3.54
943.96	-3.54
944.39	-7.04
944.819	-2.44
945.248	2.86
945.677	-0.94
946.106	1.26
946.535	-0.94
946.964	0.56
947.393	4.56
947.822	2.46
948.251	-8.94
948.68	-3.54
949.109	1.96
949.538	2.26
949.967	3.26
950.396	6.26
950.825	-7.64
951.254	-0.94
951.682	-3.84
952.111	-2.44
952.54	6.56
952.969	-3.74
953.397	-2.74
953.826	-3.04
954.254	-1.44
954.683	-3.04
955.112	-0.94
955.54	-2.04
955.969	4.26
956.397	-5.44
956.826	-4.94
957.254	-0.64
957.682	-2.34
958.111	1.56
958.539	-2.74
958.967	-4.04
959.396	-3.84
959.824	-0.34
960.252	0.46
960.68	-5.14
961.109	-5.94
961.537	0.76
961.965	-0.14
962.393	-1.74
962.821	-8.14
963.249	-2.34
963.677	1.46
964.105	-0.84
964.533	17.16
964.961	21.16
965.389	14.06
965.817	-1.14
966.245	-0.64
966.672	-5.84
967.1	-9.44
967.528	2.56
967.956	-5.24
968.383	-4.74
968.811	-3.04
969.239	-8.14
969.666	-7.04
970.094	-1.14
970.522	-4.44
970.949	-5.04
971.377	-3.44
971.804	-8.84
972.232	-2.74
972.659	-2.84
973.087	-4.04
973.514	-1.44
973.941	-7.34
974.369	0.86
974.796	3.26
975.223	-1.44
975.651	-1.74
976.078	5.96
976.505	0.16
976.932	2.46
977.359	1.86
977.786	11.76
978.214	-1.54
978.641	-3.34
979.068	-1.94
979.495	-8.84
979.922	1.06
980.349	-3.04
980.776	6.96
981.202	-1.44
981.629	3.86
982.056	4.06
982.483	-9.34
982.91	-1.94
983.337	-6.64
983.763	-1.04
984.19	-6.34
984.617	-1.94
985.043	-8.14
985.47	-6.14
985.897	-4.74
986.323	-11.44
986.75	3.26
987.176	-0.94
987.603	-4.24
988.029	-3.64
988.456	-2.14
988.882	3.36
989.308	-10.64
989.735	1.96
990.161	2.66
990.587	-3.14
991.014	1.36
991.44	6.36
991.866	-4.54
992.292	-3.14
992.719	-1.94
993.145	-2.74
993.571	-10.44
993.997	-7.64
994.423	-6.44
994.849	-7.64
995.275	7.56
995.701	-1.64
996.127	-2.04
996.553	-4.04
996.979	-6.74
997.405	-1.14
997.83	-7.74
998.256	-3.94
998.682	-7.54
999.108	-7.84
999.534	-3.74
999.959	-0.44
1000.385	-2.14
1000.811	1.86
1001.236	-2.04
1001.662	-8.84
1002.087	-10.54
1002.513	-2.94
1002.938	3.36
1003.364	-0.34
1003.789	-1.44
1004.215	6.46
1004.64	0.56
1005.066	0.36
1005.491	3.66
1005.916	-1.04
1006.342	2.76
1006.767	-4.94
1007.192	5.26
1007.617	-10.54
1008.042	-4.24
1008.468	-5.04
1008.893	-7.94
1009.318	-9.94
1009.743	-4.44
1010.168	2.36
1010.593	-3.04
1011.018	-11.64
1011.443	-6.64
1011.868	2.76
1012.293	3.76
1012.718	-5.74
1013.143	2.96
1013.567	0.86
1013.992	-2.14
1014.417	-10.04
1014.842	-4.74
1015.267	-5.04
1015.691	-2.84
1016.116	8.76
1016.541	3.06
1016.965	-0.84
1017.39	2.16
1017.814	-0.84
1018.239	-6.34
1018.663	-7.94
1019.088	-5.74
1019.512	-3.24
1019.937	-3.94
1020.361	-2.04
1020.785	-9.04
1021.21	-0.04
1021.634	-4.64
1022.058	4.96
1022.483	5.36
1022.907	-1.74
1023.331	-3.24
1023.755	-2.44
1024.179	-6.24
1024.604	-6.84
1025.028	-10.44
1025.452	-6.84
1025.876	-3.44
1026.3	2.06
1026.724	-12.24
1027.148	-5.44
1027.572	-7.74
1027.996	-1.34
1028.42	-1.64
1028.843	-3.64
1029.267	-9.74
1029.691	-0.84
1030.115	-6.94
1030.539	-8.04
1030.962	-7.14
1031.386	-6.94
1031.81	2.96
1032.233	1.86
1032.657	-2.64
1033.08	-1.54
1033.504	-6.44
1033.927	-5.64
1034.351	1.66
1034.774	-2.74
1035.198	-1.04
1035.621	-8.74
1036.045	-5.24
1036.468	-3.54
1036.891	-9.94
1037.315	-9.84
1037.738	-13.04
1038.161	-0.84
1038.584	-6.04
1039.008	-4.04
1039.431	-5.64
1039.854	1.76
1040.277	-4.94
1040.7	-3.04
1041.123	3.56
1041.546	-3.94
1041.969	-3.94
1042.392	-5.94
1042.815	-7.24
1043.238	-0.14
1043.661	6.56
1044.084	-4.74
1044.507	-7.44
1044.93	-8.14
1045.352	-3.34
1045.775	-3.84
1046.198	-2.54
1046.621	-1.14
1047.043	-1.54
1047.466	4.36
1047.889	-5.44
1048.311	-11.54
1048.734	-6.84
1049.156	-1.34
1049.579	0.16
1050.001	-0.24
1050.424	-2.44
1050.846	-0.24
1051.269	-6.34
1051.691	-3.94
1052.113	-5.24
1052.536	-2.54
1052.958	-5.74
1053.38	-8.84
1053.802	-6.34
1054.225	4.36
1054.647	-8.94
1055.069	-8.04
1055.491	4.36
1055.913	-7.14
1056.335	-0.94
1056.757	-1.24
1057.179	-9.64
1057.601	-6.34
1058.023	-8.44
1058.445	-11.14
1058.867	-1.34
1059.289	-6.04
1059.711	-4.64
1060.133	0.76
1060.555	-7.84
1060.976	-8.74
1061.398	-2.54
1061.82	-2.64
1062.241	-2.64
1062.663	-6.04
1063.085	-5.64
1063.506	4.16
1063.928	-8.74
1064.35	-6.24
1064.771	-9.84
1065.193	-3.84
1065.614	-7.94
1066.035	-4.54
1066.457	-6.84
1066.878	4.96
1067.3	-4.44
1067.721	-1.34
1068.142	-4.54
1068.564	-2.74
1068.985	-4.14
1069.406	-4.44
1069.827	-2.44
1070.248	-1.04
1070.67	-2.94
1071.091	-7.84
1071.512	-0.14
1071.933	-4.54
1072.354	-6.74
1072.775	-4.84
1073.196	-3.64
1073.617	-2.24
1074.038	-8.84
1074.459	-6.54
1074.88	-5.94
1075.3	-3.24
1075.721	-3.44
1076.142	0.36
1076.563	6.46
1076.983	-15.14
1077.404	-6.04
1077.825	-14.64
1078.246	-8.74
1078.666	-14.64
1079.087	-5.24
1079.507	-3.14
1079.928	-1.94
1080.348	-1.74
1080.769	-2.14
1081.189	2.76
1081.61	-7.14
1082.03	-3.04
1082.451	-0.34
1082.871	-3.34
1083.291	-3.14
1083.711	-6.34
1084.132	0.66
1084.552	-1.54
1084.972	1.66
1085.392	-8.74
1085.813	-11.64
1086.233	-1.34
1086.653	-8.04
1087.073	-3.04
1087.493	-4.54
1087.913	-0.54
1088.333	-5.94
1088.753	-4.94
1089.173	3.56
1089.593	-2.44
1090.013	-1.44
1090.433	3.76
1090.852	-2.74
1091.272	2.56
1091.692	-1.14
1092.112	-0.34
1092.531	-7.44
1092.951	-16.54
1093.371	-0.04
1093.79	3.06
1094.21	-1.54
1094.63	0.06
1095.049	2.76
1095.469	3.06
1095.888	-3.04
1096.308	1.96
1096.727	-1.24
1097.146	-6.04
1097.566	0.26
1097.985	-6.94
1098.405	-4.44
1098.824	-10.84
1099.243	-3.44
1099.662	-10.54
1100.082	0.36
1100.501	-4.14
1100.92	-9.34
1101.339	-3.94
1101.758	-3.94
