Data from 20171114-ORNL-Ar_H_NY_Subt18_08-09-21-503.txt Node
Date: Tue Nov 14 08:09:21 EST 2017
User: Ender
Spectrometer: HR+D1039
Trigger mode: 0
Integration Time (sec): 2.730000E-2
Scans to average: 10
Electric dark correction enabled: true
Nonlinearity correction enabled: false
Boxcar width: 0
XAxis mode: Wavelengths
Number of Pixels in Spectrum: 2048
>>>>>Begin Spectral Data<<<<<
187.836	-4.21
188.309	-4.21
188.782	-4.21
189.255	-0.71
189.728	-0.51
190.201	6.09
190.674	1.09
191.147	2.09
191.619	-6.91
192.092	-0.01
192.565	10.49
193.038	-5.51
193.511	-2.81
193.984	-1.31
194.456	-2.21
194.929	1.89
195.402	-0.31
195.874	2.79
196.347	-1.21
196.82	-11.91
197.292	0.49
197.765	1.29
198.237	-9.11
198.71	-0.41
199.182	-4.11
199.655	1.49
200.127	0.39
200.6	-1.71
201.072	-0.71
201.544	-11.31
202.017	-4.41
202.489	3.79
202.961	-2.91
203.433	-3.81
203.906	-2.71
204.378	-12.81
204.85	-1.91
205.322	-7.81
205.794	-7.81
206.266	-6.91
206.739	-11.31
207.211	1.19
207.683	-10.81
208.155	-2.71
208.627	-8.31
209.099	-4.41
209.57	-9.21
210.042	-11.81
210.514	0.69
210.986	-1.81
211.458	-14.31
211.93	-7.61
212.402	-0.61
212.873	-10.31
213.345	-12.91
213.817	-16.21
214.288	-8.71
214.76	-11.01
215.232	-6.71
215.703	-4.41
216.175	-16.31
216.646	-3.11
217.118	-5.61
217.589	-6.51
218.061	-2.91
218.532	-5.61
219.004	-3.01
219.475	-6.01
219.946	-4.71
220.418	-10.21
220.889	-5.11
221.36	-4.11
221.832	-6.81
222.303	-6.81
222.774	-3.81
223.245	-13.41
223.717	-5.21
224.188	-8.71
224.659	-7.51
225.13	-5.71
225.601	-1.51
226.072	-0.41
226.543	-3.51
227.014	-3.21
227.485	-4.31
227.956	-10.51
228.427	-9.21
228.898	-2.01
229.369	-0.21
229.839	-1.91
230.31	-8.91
230.781	-3.71
231.252	-8.71
231.722	-1.31
232.193	-8.51
232.664	0.49
233.135	-5.11
233.605	-8.21
234.076	-5.31
234.546	-3.81
235.017	1.59
235.487	-3.01
235.958	-5.41
236.428	-8.21
236.899	-5.51
237.369	-4.71
237.84	-6.41
238.31	-0.11
238.78	-4.11
239.251	-8.41
239.721	-10.61
240.191	0.09
240.662	-9.41
241.132	-9.01
241.602	-4.61
242.072	-1.91
242.542	1.89
243.013	-8.01
243.483	-0.51
243.953	-7.71
244.423	-2.51
244.893	-10.41
245.363	-6.31
245.833	-0.81
246.303	-6.41
246.773	3.79
247.243	0.49
247.712	2.89
248.182	-4.51
248.652	2.99
249.122	-19.91
249.592	-0.01
250.061	-1.71
250.531	6.89
251.001	-4.71
251.471	-0.61
251.94	0.59
252.41	-5.21
252.879	-9.41
253.349	3.49
253.818	-2.61
254.288	-1.71
254.757	-4.31
255.227	-5.51
255.696	-6.11
256.166	-7.21
256.635	-5.71
257.105	3.39
257.574	-7.41
258.043	-2.21
258.513	-6.41
258.982	-7.61
259.451	0.29
259.92	-4.51
260.389	-5.01
260.859	2.79
261.328	-2.01
261.797	-0.61
262.266	-7.61
262.735	4.09
263.204	2.09
263.673	-5.21
264.142	-3.61
264.611	-8.21
265.08	-4.41
265.549	-7.51
266.018	-7.31
266.487	-10.31
266.955	-10.31
267.424	-3.81
267.893	1.49
268.362	-9.91
268.83	-5.41
269.299	1.09
269.768	-0.81
270.236	-3.01
270.705	-3.21
271.174	-3.71
271.642	-4.21
272.111	1.29
272.579	-0.71
273.048	-4.31
273.516	-2.71
273.985	-0.41
274.453	1.39
274.922	5.89
275.39	-4.61
275.858	-4.91
276.327	5.49
276.795	6.19
277.263	-0.21
277.731	10.89
278.2	0.89
278.668	-1.91
279.136	1.89
279.604	-1.31
280.072	7.39
280.54	1.59
281.008	0.29
281.477	8.89
281.945	4.79
282.413	9.19
282.881	2.79
283.348	-2.51
283.816	2.29
284.284	7.29
284.752	4.59
285.22	0.09
285.688	6.39
286.156	5.09
286.623	11.79
287.091	3.69
287.559	8.69
288.026	1.79
288.494	2.19
288.962	-9.21
289.429	-4.01
289.897	9.59
290.364	5.89
290.832	10.69
291.3	6.39
291.767	7.99
292.234	9.89
292.702	2.59
293.169	2.39
293.637	7.09
294.104	12.09
294.571	0.09
295.039	2.59
295.506	1.69
295.973	9.19
296.44	9.89
296.908	7.09
297.375	5.99
297.842	8.39
298.309	12.79
298.776	6.19
299.243	8.79
299.71	2.39
300.177	15.09
300.644	12.29
301.111	8.19
301.578	18.89
302.045	2.89
302.512	11.99
302.979	13.89
303.446	7.99
303.913	9.59
304.379	4.09
304.846	10.09
305.313	15.99
305.78	10.39
306.246	13.69
306.713	15.19
307.18	16.09
307.646	15.29
308.113	15.79
308.579	16.19
309.046	15.39
309.512	12.09
309.979	7.59
310.445	15.39
310.912	18.69
311.378	22.99
311.845	20.99
312.311	16.09
312.777	18.19
313.244	19.19
313.71	21.59
314.176	18.79
314.642	16.99
315.109	13.69
315.575	20.39
316.041	23.59
316.507	16.69
316.973	21.99
317.439	17.99
317.905	21.09
318.371	26.39
318.837	18.39
319.303	24.99
319.769	22.29
320.235	23.79
320.701	22.79
321.167	25.79
321.633	18.79
322.099	27.69
322.564	26.39
323.03	25.39
323.496	24.69
323.962	24.59
324.427	18.89
324.893	28.99
325.359	22.89
325.824	27.99
326.29	26.19
326.755	21.39
327.221	25.79
327.686	26.29
328.152	32.99
328.617	30.19
329.083	31.89
329.548	32.39
330.014	33.79
330.479	21.89
330.944	29.49
331.41	33.39
331.875	32.59
332.34	27.69
332.805	29.39
333.271	28.89
333.736	26.89
334.201	29.19
334.666	36.29
335.131	36.69
335.596	33.09
336.061	37.29
336.526	28.59
336.991	36.99
337.456	40.29
337.921	36.79
338.386	31.99
338.851	32.59
339.316	32.69
339.781	37.09
340.246	40.49
340.711	29.79
341.175	37.19
341.64	26.69
342.105	40.69
342.569	37.69
343.034	42.09
343.499	44.69
343.963	39.29
344.428	45.29
344.893	40.79
345.357	42.89
345.822	37.89
346.286	50.09
346.751	49.19
347.215	49.99
347.679	52.39
348.144	69.19
348.608	59.39
349.073	48.19
349.537	58.39
350.001	58.79
350.465	67.99
350.93	52.29
351.394	64.59
351.858	58.09
352.322	69.69
352.786	59.09
353.25	70.49
353.715	81.49
354.179	76.99
354.643	92.89
355.107	84.69
355.571	75.49
356.035	73.19
356.498	82.19
356.962	81.49
357.426	91.89
357.89	85.89
358.354	71.99
358.818	68.19
359.281	60.19
359.745	62.79
360.209	60.89
360.673	53.59
361.136	65.79
361.6	71.79
362.064	67.79
362.527	65.89
362.991	76.99
363.454	63.29
363.918	58.29
364.381	59.79
364.845	65.09
365.308	74.29
365.772	69.69
366.235	71.99
366.698	68.79
367.162	67.09
367.625	71.09
368.088	71.79
368.552	73.19
369.015	71.89
369.478	76.39
369.941	79.79
370.404	77.69
370.867	79.39
371.331	82.89
371.794	85.09
372.257	72.39
372.72	82.79
373.183	84.89
373.646	78.59
374.109	79.99
374.572	84.99
375.035	82.89
375.497	85.49
375.96	82.99
376.423	90.59
376.886	89.29
377.349	97.19
377.811	84.79
378.274	88.19
378.737	88.39
379.199	91.99
379.662	91.49
380.125	91.49
380.587	90.49
381.05	87.09
381.512	103.39
381.975	106.19
382.437	97.19
382.9	102.39
383.362	105.59
383.825	110.09
384.287	109.29
384.75	99.39
385.212	110.89
385.674	111.09
386.136	111.29
386.599	102.79
387.061	105.09
387.523	101.79
387.985	107.69
388.447	113.69
388.91	111.39
389.372	109.39
389.834	112.19
390.296	106.79
390.758	115.29
391.22	111.39
391.682	119.49
392.144	130.49
392.606	122.19
393.068	123.89
393.529	134.49
393.991	124.49
394.453	111.39
394.915	119.99
395.377	116.49
395.838	120.49
396.3	115.89
396.762	120.59
397.224	120.29
397.685	115.79
398.147	114.59
398.608	118.19
399.07	119.69
399.531	121.09
399.993	128.89
400.454	140.49
400.916	128.89
401.377	130.89
401.839	141.59
402.3	140.99
402.762	152.39
403.223	166.29
403.684	154.99
404.145	148.49
404.607	151.09
405.068	145.29
405.529	150.69
405.99	162.49
406.451	161.39
406.913	151.99
407.374	148.79
407.835	152.29
408.296	152.79
408.757	155.99
409.218	162.99
409.679	162.69
410.14	155.69
410.601	161.79
411.062	164.99
411.522	168.29
411.983	166.29
412.444	162.09
412.905	167.99
413.366	166.99
413.826	179.79
414.287	205.19
414.748	256.29
415.208	232.19
415.669	207.39
416.13	200.79
416.59	194.59
417.051	202.69
417.511	208.99
417.972	227.09
418.432	246.49
418.893	274.59
419.353	243.79
419.814	185.69
420.274	172.79
420.734	173.99
421.195	186.09
421.655	183.59
422.115	182.59
422.576	183.09
423.036	188.89
423.496	199.89
423.956	208.69
424.416	220.09
424.876	253.29
425.336	252.09
425.797	251.89
426.257	238.89
426.717	229.29
427.177	221.69
427.637	204.19
428.097	224.29
428.556	229.69
429.016	247.19
429.476	239.89
429.936	251.99
430.396	254.69
430.856	267.29
431.315	297.49
431.775	316.69
432.235	352.19
432.694	326.39
433.154	334.69
433.614	368.69
434.073	310.69
434.533	265.99
434.993	248.09
435.452	264.69
435.912	270.99
436.371	263.29
436.83	260.79
437.29	251.49
437.749	238.89
438.209	233.79
438.668	254.89
439.127	263.49
439.587	254.09
440.046	237.09
440.505	245.39
440.964	255.59
441.424	302.39
441.883	291.19
442.342	255.09
442.801	215.09
443.26	219.29
443.719	215.19
444.178	206.99
444.637	210.59
445.096	213.89
445.555	221.89
446.014	214.89
446.473	217.59
446.932	226.79
447.391	224.19
447.849	228.69
448.308	214.09
448.767	215.69
449.226	226.79
449.685	229.39
450.143	244.69
450.602	234.49
451.061	224.49
451.519	225.49
451.978	229.29
452.436	224.29
452.895	238.49
453.353	246.19
453.812	237.09
454.27	239.29
454.729	233.99
455.187	235.99
455.646	240.69
456.104	245.49
456.562	260.09
457.021	255.59
457.479	249.79
457.937	261.69
458.395	256.29
458.854	236.69
459.312	266.19
459.77	271.99
460.228	247.49
460.686	240.09
461.144	244.79
461.602	249.19
462.06	241.89
462.518	252.99
462.976	247.79
463.434	251.79
463.892	252.29
464.35	276.89
464.808	276.99
465.266	260.39
465.724	267.39
466.181	276.79
466.639	267.59
467.097	288.89
467.555	290.09
468.012	298.49
468.47	310.99
468.928	322.59
469.385	333.09
469.843	333.09
470.3	342.99
470.758	357.09
471.215	377.69
471.673	402.79
472.13	399.99
472.588	411.19
473.045	359.99
473.503	374.09
473.96	388.29
474.417	407.39
474.875	428.79
475.332	467.39
475.789	449.89
476.246	458.39
476.704	476.59
477.161	490.19
477.618	514.29
478.075	550.59
478.532	601.69
478.989	658.99
479.446	762.29
479.903	735.19
480.36	764.19
480.817	805.69
481.274	894.89
481.731	979.79
482.188	1053.29
482.645	1161.09
483.102	1249.99
483.558	1366.89
484.015	1401.49
484.472	1386.79
484.929	1344.29
485.385	1288.69
485.842	1282.09
486.299	1222.49
486.755	1189.59
487.212	1006.99
487.668	867.39
488.125	807.19
488.582	744.59
489.038	716.59
489.494	680.09
489.951	666.49
490.407	657.89
490.864	626.79
491.32	632.19
491.776	630.09
492.233	637.59
492.689	611.69
493.145	590.29
493.602	594.79
494.058	602.19
494.514	604.19
494.97	624.09
495.426	642.39
495.882	611.49
496.338	603.49
496.794	615.09
497.251	611.69
497.707	626.69
498.163	620.69
498.618	626.39
499.074	633.59
499.53	651.19
499.986	657.59
500.442	628.69
500.898	612.49
501.354	609.79
501.809	619.49
502.265	609.09
502.721	627.49
503.177	640.39
503.632	641.39
504.088	636.09
504.543	653.59
504.999	679.79
505.455	654.19
505.91	628.69
506.366	635.49
506.821	622.49
507.277	630.19
507.732	629.89
508.187	629.39
508.643	631.69
509.098	639.49
509.553	657.19
510.009	660.69
510.464	670.89
510.919	689.39
511.375	696.09
511.83	710.99
512.285	717.29
512.74	753.09
513.195	776.59
513.65	754.49
514.105	759.99
514.56	772.49
515.015	777.39
515.47	786.39
515.925	782.89
516.38	780.69
516.835	776.39
517.29	776.09
517.745	776.79
518.2	764.09
518.655	756.99
519.109	745.29
519.564	744.29
520.019	726.69
520.474	725.19
520.928	725.59
521.383	717.39
521.838	703.79
522.292	715.89
522.747	712.09
523.201	713.49
523.656	699.79
524.11	697.99
524.565	696.19
525.019	688.39
525.474	691.39
525.928	694.69
526.382	686.89
526.837	688.79
527.291	698.19
527.745	690.59
528.2	698.09
528.654	695.29
529.108	690.39
529.562	693.49
530.016	693.49
530.47	690.99
530.925	685.49
531.379	693.09
531.833	705.19
532.287	695.49
532.741	702.99
533.195	704.29
533.649	699.99
534.103	713.39
534.556	697.59
535.01	701.99
535.464	695.89
535.918	716.19
536.372	717.59
536.826	711.39
537.279	701.29
537.733	712.29
538.187	717.79
538.64	717.09
539.094	725.89
539.548	730.99
540.001	732.19
540.455	720.59
540.908	732.49
541.362	738.39
541.815	744.09
542.269	771.39
542.722	764.49
543.175	768.39
543.629	782.99
544.082	793.29
544.536	792.29
544.989	804.39
545.442	792.79
545.895	801.49
546.349	796.79
546.802	799.49
547.255	799.49
547.708	809.39
548.161	822.39
548.614	826.69
549.067	841.29
549.52	827.09
549.973	819.39
550.426	819.99
550.879	806.79
551.332	809.19
551.785	819.79
552.238	823.39
552.691	823.49
553.144	839.09
553.596	866.59
554.049	870.29
554.502	897.99
554.955	911.29
555.407	904.49
555.86	911.89
556.313	906.49
556.765	879.99
557.218	890.19
557.67	891.59
558.123	876.59
558.576	883.49
559.028	885.49
559.48	890.99
559.933	871.99
560.385	845.89
560.838	816.39
561.29	792.79
561.742	801.29
562.195	787.19
562.647	785.59
563.099	789.09
563.551	788.49
564.004	791.69
564.456	780.39
564.908	761.19
565.36	746.49
565.812	736.09
566.264	722.49
566.716	724.29
567.168	711.29
567.62	711.39
568.072	705.59
568.524	703.89
568.976	692.59
569.428	681.99
569.88	696.99
570.332	694.29
570.784	697.99
571.235	692.89
571.687	708.99
572.139	707.29
572.59	719.39
573.042	719.69
573.494	721.79
573.945	714.69
574.397	692.29
574.849	699.89
575.3	701.99
575.752	698.39
576.203	687.59
576.655	699.19
577.106	683.49
577.557	669.39
578.009	671.79
578.46	682.79
578.912	665.39
579.363	666.39
579.814	684.39
580.265	666.19
580.717	685.89
581.168	684.69
581.619	688.89
582.07	692.29
582.521	681.19
582.972	682.29
583.423	682.29
583.875	690.69
584.326	700.59
584.777	711.09
585.227	720.79
585.678	722.89
586.129	739.09
586.58	758.09
587.031	769.59
587.482	798.39
587.933	808.89
588.384	803.89
588.834	784.89
589.285	786.69
589.736	785.09
590.186	780.79
590.637	776.09
591.088	754.39
591.538	757.39
591.989	735.09
592.439	741.59
592.89	731.19
593.34	718.49
593.791	724.59
594.241	699.79
594.692	714.89
595.142	714.49
595.593	707.19
596.043	714.39
596.493	712.29
596.943	709.09
597.394	729.69
597.844	726.79
598.294	739.39
598.744	774.69
599.195	796.89
599.645	823.79
600.095	877.59
600.545	934.09
600.995	991.49
601.445	1047.29
601.895	1103.09
602.345	1160.89
602.795	1129.89
603.245	1092.79
603.695	1030.29
604.145	973.69
604.594	939.19
605.044	871.49
605.494	812.39
605.944	774.49
606.393	757.89
606.843	739.69
607.293	746.99
607.743	745.29
608.192	748.29
608.642	769.29
609.091	769.89
609.541	750.49
609.99	760.19
610.44	774.69
610.889	728.29
611.339	709.39
611.788	698.09
612.238	708.29
612.687	716.19
613.136	710.89
613.586	718.09
614.035	709.09
614.484	714.59
614.933	711.79
615.383	705.19
615.832	706.99
616.281	708.59
616.73	676.19
617.179	665.39
617.628	652.39
618.077	637.29
618.526	634.79
618.975	628.99
619.424	626.69
619.873	617.59
620.322	622.79
620.771	617.79
621.22	610.69
621.669	594.09
622.118	597.09
622.567	580.29
623.015	572.29
623.464	570.89
623.913	562.29
624.361	551.19
624.81	565.69
625.259	562.39
625.707	571.09
626.156	573.39
626.604	570.29
627.053	572.99
627.501	576.59
627.95	573.49
628.398	586.99
628.847	577.49
629.295	585.79
629.744	578.49
630.192	579.59
630.64	575.99
631.089	552.29
631.537	550.99
631.985	522.09
632.433	540.59
632.881	532.69
633.33	539.99
633.778	530.79
634.226	532.19
634.674	547.69
635.122	553.79
635.57	562.99
636.018	561.39
636.466	576.39
636.914	559.99
637.362	575.09
637.81	585.99
638.258	590.29
638.705	588.49
639.153	620.79
639.601	629.59
640.049	653.49
640.497	678.09
640.944	709.59
641.392	657.19
641.84	619.69
642.287	601.89
642.735	574.29
643.182	575.69
643.63	572.59
644.078	566.89
644.525	580.49
644.973	582.79
645.42	599.99
645.867	624.59
646.315	641.99
646.762	671.39
647.21	696.79
647.657	705.79
648.104	751.29
648.551	767.39
648.999	825.49
649.446	899.49
649.893	984.69
650.34	1136.29
650.787	1336.39
651.234	1640.99
651.682	2146.89
652.129	2905.69
652.576	4112.39
653.023	6008.69
653.47	8105.99
653.917	9982.19
654.363	11384.39
654.81	12484.09
655.257	11860.79
655.704	7854.19
656.151	4693.59
656.598	3096.59
657.044	2239.59
657.491	1737.59
657.938	1408.29
658.385	1188.99
658.831	1039.99
659.278	930.79
659.724	813.49
660.171	773.09
660.618	705.09
661.064	692.19
661.511	663.19
661.957	655.49
662.404	634.19
662.85	652.19
663.296	627.99
663.743	567.89
664.189	536.39
664.635	543.59
665.082	538.89
665.528	536.99
665.974	522.69
666.42	520.79
666.867	504.79
667.313	492.89
667.759	473.69
668.205	463.59
668.651	462.79
669.097	453.59
669.543	449.59
669.989	449.59
670.435	452.59
670.881	456.79
671.327	458.99
671.773	483.59
672.219	502.69
672.665	573.39
673.11	608.69
673.556	652.49
674.002	684.99
674.448	672.19
674.893	565.79
675.339	493.69
675.785	453.69
676.23	434.19
676.676	411.19
677.122	395.59
677.567	387.59
678.013	381.39
678.458	376.69
678.904	368.29
679.349	359.19
679.794	370.29
680.24	362.39
680.685	363.99
681.131	353.39
681.576	357.29
682.021	364.59
682.466	366.49
682.912	361.49
683.357	368.19
683.802	392.29
684.247	420.89
684.692	471.29
685.137	510.49
685.583	551.29
686.028	574.09
686.473	532.49
686.918	468.69
687.363	433.89
687.807	404.59
688.252	379.69
688.697	368.29
689.142	353.99
689.587	339.99
690.032	339.89
690.477	352.39
690.921	360.69
691.366	396.49
691.811	414.59
692.255	447.29
692.7	479.69
693.145	526.69
693.589	759.49
694.034	1217.19
694.478	1629.99
694.923	1795.89
695.367	2320.69
695.812	1254.89
696.256	521.79
696.701	386.09
697.145	355.09
697.59	340.19
698.034	331.89
698.478	331.89
698.922	333.89
699.367	331.09
699.811	342.49
700.255	359.99
700.699	396.79
701.143	435.49
701.588	491.39
702.032	528.59
702.476	534.39
702.92	510.79
703.364	518.79
703.808	688.69
704.252	1127.39
704.696	1549.29
705.14	1738.29
705.584	2188.79
706.027	1119.39
706.471	546.29
706.915	411.99
707.359	366.49
707.803	323.69
708.246	319.29
708.69	319.89
709.134	327.09
709.577	325.09
710.021	320.09
710.465	305.69
710.908	308.29
711.352	314.29
711.795	326.69
712.239	371.49
712.682	400.59
713.126	431.29
713.569	471.09
714.012	371.79
714.456	318.49
714.899	295.39
715.342	281.79
715.786	266.99
716.229	264.69
716.672	259.99
717.115	253.89
717.558	255.79
718.002	256.29
718.445	272.99
718.888	294.19
719.331	300.29
719.774	317.99
720.217	310.39
720.66	299.09
721.103	276.99
721.546	261.69
721.989	255.69
722.432	237.59
722.874	240.89
723.317	245.39
723.76	239.59
724.203	271.79
724.645	334.59
725.088	474.89
725.531	590.39
725.974	665.69
726.416	566.39
726.859	319.79
727.301	250.39
727.744	242.69
728.187	239.79
728.629	245.59
729.071	255.69
729.514	269.19
729.956	287.69
730.399	297.19
730.841	300.29
731.283	288.89
731.726	276.59
732.168	260.09
732.61	280.99
733.053	297.59
733.495	328.79
733.937	370.19
734.379	420.39
734.821	456.29
735.263	595.19
735.705	928.09
736.148	1756.69
736.59	2783.19
737.032	3161.29
737.474	2585.09
737.916	852.59
738.357	454.49
738.799	338.59
739.241	318.29
739.683	301.99
740.125	307.29
740.567	315.49
741.008	329.69
741.45	333.89
741.892	334.89
742.334	363.89
742.775	369.89
743.217	359.29
743.658	278.29
744.1	265.89
744.542	278.09
744.983	335.79
745.425	360.79
745.866	362.49
746.307	294.79
746.749	289.69
747.19	342.49
747.632	505.19
748.073	999.09
748.514	2057.09
748.956	3011.19
749.397	3802.69
749.838	3153.89
750.279	3057.89
750.72	1576.89
751.162	586.19
751.603	340.09
752.044	270.19
752.485	228.49
752.926	219.79
753.367	212.29
753.808	207.19
754.249	199.59
754.69	195.29
755.131	188.19
755.572	188.89
756.013	184.29
756.453	191.39
756.894	196.29
757.335	198.69
757.776	201.89
758.216	204.29
758.657	207.69
759.098	212.29
759.538	236.99
759.979	279.69
760.42	406.39
760.86	791.79
761.301	2080.29
761.741	4859.49
762.182	6672.69
762.622	4725.89
763.063	1395.99
763.503	560.59
763.943	347.59
764.384	280.19
764.824	243.99
765.264	222.99
765.705	216.59
766.145	187.79
766.585	186.69
767.025	179.99
767.465	169.89
767.906	186.49
768.346	188.09
768.786	198.29
769.226	224.69
769.666	334.69
770.106	696.29
770.546	1715.59
770.986	2759.99
771.426	2427.79
771.866	832.69
772.306	338.39
772.745	215.69
773.185	178.49
773.625	170.09
774.065	160.49
774.505	166.09
774.944	211.59
775.384	377.09
775.824	588.49
776.263	551.99
776.703	274.09
777.142	159.09
777.582	131.99
778.021	132.29
778.461	126.79
778.9	123.49
779.34	129.99
779.779	117.09
780.219	109.69
780.658	113.19
781.097	108.49
781.537	117.79
781.976	109.69
782.415	104.99
782.855	108.99
783.294	104.99
783.733	109.79
784.172	109.39
784.611	111.09
785.05	114.69
785.489	114.59
785.928	118.39
786.367	120.69
786.806	118.29
787.245	125.79
787.684	148.19
788.123	153.39
788.562	141.69
789.001	125.79
789.44	129.29
789.879	117.89
790.317	119.49
790.756	131.89
791.195	128.59
791.634	154.19
792.072	221.89
792.511	406.59
792.95	1120.89
793.388	2229.99
793.827	1959.89
794.265	703.69
794.704	296.69
795.142	193.89
795.581	158.29
796.019	139.79
796.458	136.79
796.896	131.09
797.334	141.39
797.773	164.89
798.211	226.19
798.649	493.59
799.087	1110.49
799.526	1722.39
799.964	2151.49
800.402	2054.39
800.84	787.39
801.278	320.39
801.716	190.59
802.154	157.39
802.592	155.39
803.03	142.79
803.468	147.69
803.906	153.49
804.344	159.59
804.782	149.39
805.22	141.69
805.658	130.69
806.096	156.29
806.533	165.49
806.971	183.39
807.409	232.79
807.847	342.99
808.284	752.09
808.722	2084.69
809.16	3473.29
809.597	3436.49
810.035	5853.49
810.472	5947.69
810.91	2216.89
811.347	863.09
811.785	430.19
812.222	265.99
812.66	211.39
813.097	178.19
813.535	153.39
813.972	137.59
814.409	119.49
814.846	108.99
815.284	115.09
815.721	102.69
816.158	111.99
816.595	116.39
817.032	162.69
817.47	180.19
817.907	132.29
818.344	103.29
818.781	95.89
819.218	101.49
819.655	131.39
820.092	198.99
820.529	219.49
820.966	171.09
821.403	128.99
821.839	101.89
822.276	100.09
822.713	122.19
823.15	143.69
823.587	122.99
824.023	165.39
824.46	337.19
824.897	977.49
825.333	1404.79
825.77	597.19
826.206	233.69
826.643	137.99
827.08	104.19
827.516	84.99
827.953	78.99
828.389	78.79
828.825	74.79
829.262	70.29
829.698	61.59
830.135	62.89
830.571	59.39
831.007	60.29
831.443	65.09
831.88	61.59
832.316	59.69
832.752	65.29
833.188	68.79
833.624	61.39
834.06	69.79
834.497	67.19
834.933	71.69
835.369	72.39
835.805	69.89
836.241	74.49
836.677	80.99
837.112	92.19
837.548	111.69
837.984	145.29
838.42	220.79
838.856	559.49
839.292	1662.79
839.727	2393.19
840.163	1136.09
840.599	1025.29
841.034	2175.99
841.47	2185.39
841.906	811.89
842.341	338.09
842.777	209.99
843.212	209.39
843.648	190.29
844.083	110.89
844.519	87.39
844.954	73.29
845.39	57.99
845.825	56.99
846.261	58.69
846.696	58.29
847.131	58.49
847.566	53.19
848.002	56.69
848.437	53.59
848.872	61.69
849.307	61.39
849.742	86.19
850.177	196.99
850.613	604.89
851.048	911.59
851.483	397.29
851.918	161.99
852.353	88.39
852.788	54.99
853.223	50.59
853.657	52.49
854.092	51.99
854.527	45.09
854.962	38.59
855.397	53.09
855.832	51.49
856.266	42.29
856.701	42.49
857.136	38.49
857.57	43.79
858.005	53.19
858.44	62.39
858.874	45.59
859.309	57.29
859.743	37.49
860.178	50.39
860.612	43.39
861.047	60.29
861.481	71.79
861.915	74.99
862.35	50.99
862.784	36.59
863.218	39.59
863.653	36.89
864.087	44.79
864.521	52.49
864.955	69.19
865.39	159.39
865.824	181.89
866.258	124.59
866.692	181.89
867.126	186.99
867.56	115.09
867.994	54.29
868.428	43.19
868.862	45.89
869.296	54.49
869.73	58.29
870.164	61.69
870.598	49.59
871.031	40.39
871.465	24.59
871.899	28.69
872.333	22.79
872.766	25.19
873.2	22.29
873.634	29.39
874.067	20.09
874.501	26.09
874.935	34.09
875.368	31.89
875.802	23.09
876.235	23.19
876.669	26.29
877.102	24.59
877.535	26.19
877.969	22.79
878.402	28.89
878.836	20.49
879.269	19.69
879.702	23.29
880.135	13.99
880.569	20.59
881.002	26.99
881.435	15.19
881.868	12.39
882.301	28.29
882.734	20.59
883.167	21.69
883.601	20.29
884.034	26.09
884.467	16.59
884.899	18.09
885.332	17.19
885.765	17.19
886.198	14.99
886.631	17.99
887.064	17.69
887.497	20.09
887.929	21.49
888.362	7.29
888.795	10.29
889.228	14.69
889.66	12.39
890.093	17.49
890.526	20.79
890.958	14.99
891.391	9.99
891.823	16.29
892.256	17.59
892.688	8.19
893.121	18.29
893.553	15.39
893.985	21.09
894.418	19.29
894.85	11.29
895.282	19.59
895.715	12.69
896.147	14.39
896.579	10.89
897.011	12.79
897.444	18.79
897.876	14.99
898.308	17.69
898.74	18.09
899.172	18.09
899.604	28.09
900.036	17.19
900.468	13.69
900.9	21.39
901.332	16.69
901.764	13.09
902.196	22.99
902.628	16.69
903.06	12.99
903.491	28.59
903.923	27.09
904.355	22.69
904.787	22.39
905.218	20.39
905.65	21.69
906.082	12.89
906.513	7.19
906.945	13.09
907.376	14.89
907.808	22.89
908.239	18.89
908.671	17.39
909.102	18.89
909.534	20.69
909.965	42.19
910.397	92.99
910.828	337.19
911.259	500.39
911.691	222.19
912.122	110.29
912.553	52.69
912.984	33.79
913.415	24.69
913.847	30.79
914.278	11.89
914.709	10.89
915.14	15.09
915.571	17.09
916.002	12.49
916.433	17.49
916.864	16.79
917.295	17.59
917.726	18.69
918.157	14.59
918.587	24.49
919.018	23.29
919.449	20.19
919.88	30.69
920.311	38.79
920.741	48.19
921.172	181.29
921.603	153.29
922.033	77.29
922.464	40.89
922.895	21.59
923.325	11.19
923.756	10.69
924.186	11.49
924.617	12.29
925.047	15.19
925.478	24.09
925.908	28.59
926.338	16.19
926.769	5.29
927.199	16.89
927.629	3.99
928.06	14.29
928.49	15.49
928.92	5.69
929.35	12.19
929.78	15.49
930.21	8.69
930.641	7.79
931.071	5.09
931.501	2.39
931.931	6.49
932.361	4.19
932.791	2.69
933.221	-0.81
933.651	4.49
934.08	17.39
934.51	31.39
934.94	10.19
935.37	14.49
935.8	10.59
936.229	8.89
936.659	14.79
937.089	7.39
937.519	14.89
937.948	25.09
938.378	19.79
938.807	3.89
939.237	-0.41
939.666	5.39
940.096	-2.91
940.525	1.29
940.955	2.49
941.384	-0.21
941.814	-1.71
942.243	-3.81
942.672	4.09
943.102	1.99
943.531	6.59
943.96	4.19
944.39	0.89
944.819	3.29
945.248	-0.21
945.677	-0.81
946.106	0.79
946.535	10.19
946.964	-1.21
947.393	3.69
947.822	1.39
948.251	-2.41
948.68	4.09
949.109	0.19
949.538	6.59
949.967	0.19
950.396	2.49
950.825	2.69
951.254	-3.81
951.682	-10.81
952.111	3.49
952.54	1.19
952.969	-4.11
953.397	-7.31
953.826	-6.11
954.254	-5.91
954.683	0.79
955.112	-1.51
955.54	-3.41
955.969	3.29
956.397	3.09
956.826	-1.01
957.254	0.69
957.682	-1.61
958.111	6.59
958.539	0.09
958.967	-0.21
959.396	-3.01
959.824	0.69
960.252	4.29
960.68	-1.61
961.109	-5.41
961.537	-2.71
961.965	1.69
962.393	0.49
962.821	0.99
963.249	-1.51
963.677	0.19
964.105	4.89
964.533	45.69
964.961	44.49
965.389	22.59
965.817	7.89
966.245	0.19
966.672	-3.21
967.1	-8.81
967.528	-2.21
967.956	-1.21
968.383	-2.41
968.811	1.29
969.239	-2.61
969.666	-4.91
970.094	-1.51
970.522	2.99
970.949	-1.51
971.377	-4.21
971.804	-2.01
972.232	-6.11
972.659	-0.81
973.087	-0.61
973.514	-6.71
973.941	-7.61
974.369	5.09
974.796	1.29
975.223	-1.21
975.651	-10.71
976.078	1.29
976.505	-0.91
976.932	-2.51
977.359	14.09
977.786	7.79
978.214	-3.71
978.641	-6.51
979.068	-5.21
979.495	-4.21
979.922	-6.51
980.349	-6.51
980.776	1.89
981.202	-3.01
981.629	3.09
982.056	3.59
982.483	-1.51
982.91	3.19
983.337	-8.21
983.763	-0.71
984.19	-0.61
984.617	-8.11
985.043	-9.51
985.47	-9.01
985.897	-0.51
986.323	-3.01
986.75	-0.61
987.176	4.49
987.603	-3.51
988.029	-3.41
988.456	-5.01
988.882	3.09
989.308	-4.81
989.735	-6.81
990.161	-1.91
990.587	-5.91
991.014	-3.01
991.44	7.69
991.866	3.99
992.292	-5.31
992.719	-4.71
993.145	-1.31
993.571	-13.81
993.997	-10.81
994.423	-9.01
994.849	-4.91
995.275	2.69
995.701	7.99
996.127	-1.81
996.553	2.29
996.979	-6.51
997.405	-0.21
997.83	-4.01
998.256	-8.41
998.682	-12.11
999.108	-12.51
999.534	-0.61
999.959	0.99
1000.385	-2.31
1000.811	-2.91
1001.236	-10.31
1001.662	-6.41
1002.087	-12.81
1002.513	-2.71
1002.938	-5.31
1003.364	-4.31
1003.789	-4.21
1004.215	4.19
1004.64	-3.81
1005.066	1.39
1005.491	1.99
1005.916	-2.51
1006.342	-5.61
1006.767	-13.31
1007.192	0.29
1007.617	-9.01
1008.042	-8.51
1008.468	-7.61
1008.893	-4.41
1009.318	-4.11
1009.743	-4.51
1010.168	-1.31
1010.593	-1.51
1011.018	-6.31
1011.443	-9.01
1011.868	-1.61
1012.293	-4.41
1012.718	-5.81
1013.143	-2.61
1013.567	-1.81
1013.992	-2.91
1014.417	-7.51
1014.842	4.79
1015.267	-9.81
1015.691	-4.61
1016.116	5.39
1016.541	-4.01
1016.965	-2.71
1017.39	6.89
1017.814	5.59
1018.239	-4.31
1018.663	-5.91
1019.088	-14.61
1019.512	-3.31
1019.937	-1.81
1020.361	-4.01
1020.785	-10.41
1021.21	-8.51
1021.634	-5.21
1022.058	-3.01
1022.483	1.59
1022.907	-6.51
1023.331	-6.61
1023.755	-4.41
1024.179	-4.81
1024.604	-9.91
1025.028	-7.01
1025.452	-2.01
1025.876	0.59
1026.3	0.09
1026.724	-15.71
1027.148	-5.31
1027.572	-7.01
1027.996	-10.01
1028.42	-6.81
1028.843	-9.11
1029.267	-5.41
1029.691	0.09
1030.115	-4.21
1030.539	-14.31
1030.962	-5.31
1031.386	-9.71
1031.81	-0.61
1032.233	-1.01
1032.657	-8.11
1033.08	-5.61
1033.504	-5.31
1033.927	-5.01
1034.351	-2.91
1034.774	-4.11
1035.198	-7.01
1035.621	-7.71
1036.045	-5.71
1036.468	-0.81
1036.891	-10.71
1037.315	-10.11
1037.738	-5.31
1038.161	1.49
1038.584	-2.31
1039.008	-9.71
1039.431	-3.11
1039.854	-11.81
1040.277	-7.21
1040.7	-14.91
1041.123	3.19
1041.546	-8.31
1041.969	-10.31
1042.392	-8.21
1042.815	-4.61
1043.238	2.99
1043.661	-5.11
1044.084	-7.61
1044.507	-8.71
1044.93	-7.11
1045.352	-7.31
1045.775	-7.01
1046.198	0.19
1046.621	-3.81
1047.043	-1.81
1047.466	4.19
1047.889	-4.31
1048.311	1.89
1048.734	-4.51
1049.156	-3.31
1049.579	-9.61
1050.001	-5.81
1050.424	-2.91
1050.846	-5.71
1051.269	-4.11
1051.691	-10.61
1052.113	-10.61
1052.536	-3.61
1052.958	-2.11
1053.38	-1.71
1053.802	-5.81
1054.225	-0.31
1054.647	-12.41
1055.069	-7.31
1055.491	1.19
1055.913	-9.11
1056.335	-4.01
1056.757	-5.81
1057.179	-11.01
1057.601	-9.51
1058.023	-5.41
1058.445	-4.51
1058.867	-7.41
1059.289	-5.51
1059.711	-11.51
1060.133	-5.41
1060.555	-13.11
1060.976	-9.51
1061.398	-8.71
1061.82	-11.31
1062.241	-6.31
1062.663	-13.11
1063.085	-5.41
1063.506	-4.11
1063.928	-7.41
1064.35	1.89
1064.771	-12.71
1065.193	-8.41
1065.614	-10.41
1066.035	-1.41
1066.457	-6.61
1066.878	-2.11
1067.3	-7.61
1067.721	-4.61
1068.142	-6.01
1068.564	0.29
1068.985	1.69
1069.406	-5.01
1069.827	-6.31
1070.248	-11.31
1070.67	-14.41
1071.091	-5.01
1071.512	-7.71
1071.933	-5.51
1072.354	-12.81
1072.775	-6.21
1073.196	-11.21
1073.617	-5.01
1074.038	-8.31
1074.459	-7.41
1074.88	-3.71
1075.3	-4.21
1075.721	-10.21
1076.142	-4.71
1076.563	-0.61
1076.983	-11.71
1077.404	-5.31
1077.825	-18.01
1078.246	-3.11
1078.666	-14.71
1079.087	-4.71
1079.507	-6.71
1079.928	-2.91
1080.348	-2.01
1080.769	-11.11
1081.189	-5.21
1081.61	-1.91
1082.03	-9.31
1082.451	-16.01
1082.871	-5.11
1083.291	-8.81
1083.711	-13.61
1084.132	-4.61
1084.552	-11.81
1084.972	-5.21
1085.392	-18.01
1085.813	-11.11
1086.233	-7.21
1086.653	-5.61
1087.073	-3.61
1087.493	-11.71
1087.913	-4.41
1088.333	-8.01
1088.753	-7.21
1089.173	-0.51
1089.593	-5.71
1090.013	0.49
1090.433	-4.71
1090.852	-10.21
1091.272	-3.91
1091.692	-2.41
1092.112	-5.31
1092.531	-12.21
1092.951	-16.91
1093.371	-3.21
1093.79	-2.41
1094.21	-6.31
1094.63	-5.11
1095.049	-6.71
1095.469	-0.01
1095.888	-4.01
1096.308	4.69
1096.727	4.89
1097.146	-10.71
1097.566	-0.91
1097.985	-6.81
1098.405	-2.11
1098.824	-11.01
1099.243	-3.11
1099.662	-17.61
1100.082	-5.61
1100.501	-8.41
1100.92	-9.41
1101.339	-5.61
1101.758	0.39
