Data from 20171114-ORNL-Ar_H_NY_Subt18_08-07-49-997.txt Node
Date: Tue Nov 14 08:07:49 EST 2017
User: Ender
Spectrometer: HR+D1039
Trigger mode: 0
Integration Time (sec): 2.730000E-2
Scans to average: 10
Electric dark correction enabled: true
Nonlinearity correction enabled: false
Boxcar width: 0
XAxis mode: Wavelengths
Number of Pixels in Spectrum: 2048
>>>>>Begin Spectral Data<<<<<
187.836	-6.81
188.309	-6.81
188.782	-6.81
189.255	0.39
189.728	-2.91
190.201	4.69
190.674	3.09
191.147	4.39
191.619	-5.71
192.092	-2.41
192.565	5.89
193.038	3.19
193.511	-1.31
193.984	0.49
194.456	-5.01
194.929	0.89
195.402	-4.31
195.874	5.49
196.347	-0.61
196.82	-5.71
197.292	2.19
197.765	-0.01
198.237	-6.21
198.71	4.49
199.182	-3.31
199.655	0.59
200.127	7.19
200.6	1.69
201.072	-2.01
201.544	-4.61
202.017	-2.81
202.489	2.59
202.961	2.49
203.433	-0.71
203.906	-5.21
204.378	-3.71
204.85	-3.11
205.322	-5.91
205.794	-7.71
206.266	-6.01
206.739	-11.41
207.211	0.79
207.683	-6.71
208.155	-4.31
208.627	-8.81
209.099	-6.41
209.57	-7.61
210.042	-7.41
210.514	-5.51
210.986	0.29
211.458	-6.31
211.93	-6.41
212.402	5.69
212.873	-4.21
213.345	-7.61
213.817	-8.41
214.288	2.69
214.76	-14.41
215.232	-5.11
215.703	-0.81
216.175	2.89
216.646	-1.51
217.118	-5.91
217.589	-1.81
218.061	-0.41
218.532	0.99
219.004	6.49
219.475	-6.11
219.946	-2.91
220.418	2.59
220.889	1.99
221.36	0.89
221.832	0.19
222.303	-7.91
222.774	2.69
223.245	-9.51
223.717	-5.01
224.188	-2.21
224.659	-1.91
225.13	-7.61
225.601	-3.01
226.072	3.69
226.543	2.99
227.014	6.19
227.485	-0.21
227.956	-5.21
228.427	-3.31
228.898	-0.21
229.369	2.79
229.839	-3.31
230.31	-7.41
230.781	-2.21
231.252	1.29
231.722	-8.31
232.193	-2.11
232.664	4.89
233.135	4.99
233.605	0.29
234.076	-1.61
234.546	0.19
235.017	2.69
235.487	1.39
235.958	5.29
236.428	-5.91
236.899	1.29
237.369	2.19
237.84	-0.91
238.31	6.89
238.78	-6.11
239.251	-4.21
239.721	-0.61
240.191	5.59
240.662	-2.81
241.132	-4.11
241.602	-4.21
242.072	2.09
242.542	3.39
243.013	0.59
243.483	5.99
243.953	1.09
244.423	2.59
244.893	-5.11
245.363	1.69
245.833	-0.21
246.303	1.89
246.773	2.79
247.243	1.89
247.712	1.59
248.182	6.09
248.652	10.49
249.122	-5.21
249.592	6.59
250.061	25.69
250.531	33.09
251.001	11.29
251.471	19.39
251.94	24.69
252.41	6.59
252.879	0.19
253.349	12.69
253.818	10.29
254.288	6.89
254.757	7.09
255.227	4.69
255.696	0.49
256.166	5.49
256.635	5.09
257.105	5.79
257.574	2.99
258.043	2.89
258.513	9.89
258.982	17.79
259.451	4.59
259.92	18.59
260.389	8.79
260.859	17.19
261.328	13.19
261.797	16.19
262.266	9.59
262.735	8.79
263.204	5.79
263.673	-3.91
264.142	2.69
264.611	-5.41
265.08	3.89
265.549	-4.31
266.018	2.59
266.487	1.59
266.955	-4.11
267.424	7.99
267.893	6.59
268.362	-0.11
268.83	7.69
269.299	10.89
269.768	6.59
270.236	0.69
270.705	4.19
271.174	7.09
271.642	7.49
272.111	7.69
272.579	18.19
273.048	23.69
273.516	27.99
273.985	21.99
274.453	22.59
274.922	22.69
275.39	10.39
275.858	5.29
276.327	9.59
276.795	19.19
277.263	8.29
277.731	27.79
278.2	51.29
278.668	50.79
279.136	38.19
279.604	11.99
280.072	18.09
280.54	15.09
281.008	13.99
281.477	16.09
281.945	12.19
282.413	8.49
282.881	20.29
283.348	3.49
283.816	13.29
284.284	16.59
284.752	21.49
285.22	13.29
285.688	11.89
286.156	19.39
286.623	44.89
287.091	47.99
287.559	26.39
288.026	14.79
288.494	14.79
288.962	4.89
289.429	11.89
289.897	19.89
290.364	15.99
290.832	14.39
291.3	12.39
291.767	12.39
292.234	21.09
292.702	13.89
293.169	24.59
293.637	28.09
294.104	17.89
294.571	7.09
295.039	11.59
295.506	19.29
295.973	13.79
296.44	15.89
296.908	17.59
297.375	14.19
297.842	14.19
298.309	12.79
298.776	13.39
299.243	23.29
299.71	15.49
300.177	25.09
300.644	23.19
301.111	17.39
301.578	19.89
302.045	16.89
302.512	12.19
302.979	24.69
303.446	17.89
303.913	15.49
304.379	13.89
304.846	20.59
305.313	23.59
305.78	19.09
306.246	27.39
306.713	26.89
307.18	18.59
307.646	24.69
308.113	21.89
308.579	21.49
309.046	23.99
309.512	25.19
309.979	18.19
310.445	25.69
310.912	27.09
311.378	32.19
311.845	29.09
312.311	26.79
312.777	29.19
313.244	29.09
313.71	31.19
314.176	32.89
314.642	35.59
315.109	32.69
315.575	32.39
316.041	33.69
316.507	31.59
316.973	37.49
317.439	38.89
317.905	41.09
318.371	35.79
318.837	33.49
319.303	35.69
319.769	30.39
320.235	33.29
320.701	31.19
321.167	28.49
321.633	32.19
322.099	41.19
322.564	48.79
323.03	41.39
323.496	40.99
323.962	39.79
324.427	32.29
324.893	37.09
325.359	36.29
325.824	35.59
326.29	33.79
326.755	44.09
327.221	39.89
327.686	32.59
328.152	44.39
328.617	38.59
329.083	47.99
329.548	50.39
330.014	47.49
330.479	41.29
330.944	49.79
331.41	44.59
331.875	39.49
332.34	41.19
332.805	42.79
333.271	42.49
333.736	41.99
334.201	46.19
334.666	44.79
335.131	52.19
335.596	48.69
336.061	41.89
336.526	40.39
336.991	42.89
337.456	50.69
337.921	48.59
338.386	41.79
338.851	43.99
339.316	49.99
339.781	51.99
340.246	54.29
340.711	43.79
341.175	50.89
341.64	43.99
342.105	47.19
342.569	49.09
343.034	49.39
343.499	55.29
343.963	51.39
344.428	63.79
344.893	58.29
345.357	61.09
345.822	59.49
346.286	65.89
346.751	72.59
347.215	63.49
347.679	75.89
348.144	92.19
348.608	79.59
349.073	69.89
349.537	74.49
350.001	74.69
350.465	84.99
350.93	73.09
351.394	80.89
351.858	69.69
352.322	80.19
352.786	76.99
353.25	95.19
353.715	102.09
354.179	94.89
354.643	108.39
355.107	122.99
355.571	104.69
356.035	101.19
356.498	114.89
356.962	115.29
357.426	130.49
357.89	116.49
358.354	85.49
358.818	83.49
359.281	73.99
359.745	74.29
360.209	68.19
360.673	74.69
361.136	82.79
361.6	83.89
362.064	77.39
362.527	79.39
362.991	83.89
363.454	81.89
363.918	72.19
364.381	78.19
364.845	79.39
365.308	82.89
365.772	89.29
366.235	91.49
366.698	80.69
367.162	84.99
367.625	84.69
368.088	83.19
368.552	85.49
369.015	89.69
369.478	97.99
369.941	94.89
370.404	95.29
370.867	104.39
371.331	105.19
371.794	111.09
372.257	103.89
372.72	122.09
373.183	106.69
373.646	105.49
374.109	101.89
374.572	100.49
375.035	106.59
375.497	105.59
375.96	108.69
376.423	97.49
376.886	108.99
377.349	109.89
377.811	100.69
378.274	99.69
378.737	103.29
379.199	109.59
379.662	102.99
380.125	118.69
380.587	115.49
381.05	125.49
381.512	124.39
381.975	129.49
382.437	128.09
382.9	120.69
383.362	131.39
383.825	137.49
384.287	145.19
384.75	144.69
385.212	132.59
385.674	145.59
386.136	137.89
386.599	122.89
387.061	126.89
387.523	127.19
387.985	130.39
388.447	143.19
388.91	144.99
389.372	158.79
389.834	153.69
390.296	142.19
390.758	159.79
391.22	166.69
391.682	211.79
392.144	307.19
392.606	226.29
393.068	171.99
393.529	170.09
393.991	163.89
394.453	144.79
394.915	157.49
395.377	185.99
395.838	211.89
396.3	154.09
396.762	139.89
397.224	130.09
397.685	130.39
398.147	130.89
398.608	129.99
399.07	129.99
399.531	130.69
399.993	145.29
400.454	160.59
400.916	142.69
401.377	147.69
401.839	152.99
402.3	149.49
402.762	168.99
403.223	181.59
403.684	170.09
404.145	156.29
404.607	156.19
405.068	165.89
405.529	164.99
405.99	183.69
406.451	172.19
406.913	172.99
407.374	165.49
407.835	166.39
408.296	163.99
408.757	166.29
409.218	189.99
409.679	178.79
410.14	175.99
410.601	177.59
411.062	185.09
411.522	188.59
411.983	187.29
412.444	174.89
412.905	180.99
413.366	187.39
413.826	198.19
414.287	215.69
414.748	258.19
415.208	242.89
415.669	214.39
416.13	206.69
416.59	203.19
417.051	210.49
417.511	215.89
417.972	227.79
418.432	241.99
418.893	285.99
419.353	245.09
419.814	195.29
420.274	185.49
420.734	187.79
421.195	191.49
421.655	192.19
422.115	185.69
422.576	189.59
423.036	194.69
423.496	204.29
423.956	223.29
424.416	231.09
424.876	261.89
425.336	262.19
425.797	264.59
426.257	252.39
426.717	235.89
427.177	235.79
427.637	227.99
428.097	227.99
428.556	239.79
429.016	261.59
429.476	260.49
429.936	274.79
430.396	274.89
430.856	294.89
431.315	316.49
431.775	348.39
432.235	377.69
432.694	350.49
433.154	360.49
433.614	392.09
434.073	342.19
434.533	283.99
434.993	267.09
435.452	281.39
435.912	294.39
436.371	291.39
436.83	279.99
437.29	276.49
437.749	246.79
438.209	248.89
438.668	270.69
439.127	282.89
439.587	261.59
440.046	246.19
440.505	264.79
440.964	276.59
441.424	315.09
441.883	305.59
442.342	257.29
442.801	221.09
443.26	219.39
443.719	218.09
444.178	219.89
444.637	211.39
445.096	226.39
445.555	219.69
446.014	220.09
446.473	222.99
446.932	233.29
447.391	225.39
447.849	224.99
448.308	223.29
448.767	217.89
449.226	237.89
449.685	235.69
450.143	244.29
450.602	238.19
451.061	228.09
451.519	236.19
451.978	230.79
452.436	229.29
452.895	233.59
453.353	252.09
453.812	243.39
454.27	243.09
454.729	239.49
455.187	241.29
455.646	246.59
456.104	243.89
456.562	261.99
457.021	261.99
457.479	258.69
457.937	267.29
458.395	263.09
458.854	257.39
459.312	252.69
459.77	283.69
460.228	254.99
460.686	242.39
461.144	250.79
461.602	242.29
462.06	239.89
462.518	254.89
462.976	251.29
463.434	261.39
463.892	263.19
464.35	271.09
464.808	282.69
465.266	270.59
465.724	266.79
466.181	273.59
466.639	269.99
467.097	287.79
467.555	294.79
468.012	301.29
468.47	304.09
468.928	320.69
469.385	336.79
469.843	343.79
470.3	341.79
470.758	359.59
471.215	380.09
471.673	410.89
472.13	405.69
472.588	416.29
473.045	367.19
473.503	376.39
473.96	393.89
474.417	399.09
474.875	437.09
475.332	472.99
475.789	459.19
476.246	465.99
476.704	483.49
477.161	497.49
477.618	522.69
478.075	561.89
478.532	612.79
478.989	691.09
479.446	802.49
479.903	763.49
480.36	804.89
480.817	859.29
481.274	963.29
481.731	1065.69
482.188	1156.89
482.645	1290.19
483.102	1400.29
483.558	1517.99
484.015	1579.69
484.472	1568.49
484.929	1508.99
485.385	1465.19
485.842	1417.09
486.299	1359.99
486.755	1282.29
487.212	1082.89
487.668	915.29
488.125	851.99
488.582	773.19
489.038	734.59
489.494	699.09
489.951	673.09
490.407	656.79
490.864	642.79
491.32	644.89
491.776	638.79
492.233	642.09
492.689	604.59
493.145	600.89
493.602	591.59
494.058	602.49
494.514	611.99
494.97	637.99
495.426	648.89
495.882	617.49
496.338	605.59
496.794	622.99
497.251	607.29
497.707	631.89
498.163	620.39
498.618	630.19
499.074	634.19
499.53	667.19
499.986	672.69
500.442	648.89
500.898	623.39
501.354	623.09
501.809	628.09
502.265	638.09
502.721	654.29
503.177	662.09
503.632	661.69
504.088	670.29
504.543	711.59
504.999	713.49
505.455	646.59
505.91	629.79
506.366	634.29
506.821	610.09
507.277	622.79
507.732	622.09
508.187	622.79
508.643	623.89
509.098	624.09
509.553	641.59
510.009	642.79
510.464	660.59
510.919	678.99
511.375	680.69
511.83	691.29
512.285	718.79
512.74	748.19
513.195	775.29
513.65	767.09
514.105	752.69
514.56	755.79
515.015	780.99
515.47	793.69
515.925	781.39
516.38	786.79
516.835	784.59
517.29	775.69
517.745	772.39
518.2	754.29
518.655	742.19
519.109	745.29
519.564	732.79
520.019	724.99
520.474	714.99
520.928	716.39
521.383	710.89
521.838	707.59
522.292	709.89
522.747	703.79
523.201	699.29
523.656	697.29
524.11	691.99
524.565	690.59
525.019	685.09
525.474	692.09
525.928	691.59
526.382	696.99
526.837	692.19
527.291	695.49
527.745	691.49
528.2	694.59
528.654	674.99
529.108	685.39
529.562	676.79
530.016	676.49
530.47	684.79
530.925	685.79
531.379	688.89
531.833	703.19
532.287	696.29
532.741	693.79
533.195	694.59
533.649	697.39
534.103	704.49
534.556	706.09
535.01	706.79
535.464	697.19
535.918	713.89
536.372	722.79
536.826	701.19
537.279	699.89
537.733	700.69
538.187	701.89
538.64	704.79
539.094	713.09
539.548	723.49
540.001	707.09
540.455	720.79
540.908	725.59
541.362	731.69
541.815	745.59
542.269	743.19
542.722	756.59
543.175	765.79
543.629	765.89
544.082	774.19
544.536	780.29
544.989	774.39
545.442	790.39
545.895	789.89
546.349	786.09
546.802	783.59
547.255	791.09
547.708	804.59
548.161	810.29
548.614	809.19
549.067	826.99
549.52	814.39
549.973	805.29
550.426	794.99
550.879	788.29
551.332	779.99
551.785	802.59
552.238	799.59
552.691	809.39
553.144	817.79
553.596	833.69
554.049	847.89
554.502	881.69
554.955	901.69
555.407	900.69
555.86	895.89
556.313	878.49
556.765	870.59
557.218	868.39
557.67	866.79
558.123	870.79
558.576	877.49
559.028	868.19
559.48	873.59
559.933	865.99
560.385	835.59
560.838	807.49
561.29	775.89
561.742	770.39
562.195	763.09
562.647	765.69
563.099	770.39
563.551	771.69
564.004	780.69
564.456	762.19
564.908	755.69
565.36	742.09
565.812	725.89
566.264	707.79
566.716	720.99
567.168	710.79
567.62	714.99
568.072	701.79
568.524	697.39
568.976	689.39
569.428	669.79
569.88	662.29
570.332	670.09
570.784	678.19
571.235	685.69
571.687	690.89
572.139	692.59
572.59	706.09
573.042	700.69
573.494	703.09
573.945	700.89
574.397	680.59
574.849	687.09
575.3	684.19
575.752	682.49
576.203	675.19
576.655	676.29
577.106	665.89
577.557	652.29
578.009	656.79
578.46	656.09
578.912	660.69
579.363	658.09
579.814	665.29
580.265	653.09
580.717	654.39
581.168	659.39
581.619	673.09
582.07	679.59
582.521	681.69
582.972	669.79
583.423	674.59
583.875	682.39
584.326	704.19
584.777	746.09
585.227	826.89
585.678	915.69
586.129	1011.69
586.58	1086.59
587.031	1168.09
587.482	1318.89
587.933	1501.39
588.384	1310.59
588.834	978.19
589.285	801.59
589.736	776.09
590.186	770.19
590.637	758.29
591.088	740.29
591.538	730.29
591.989	722.99
592.439	717.99
592.89	717.89
593.34	713.29
593.791	706.39
594.241	703.49
594.692	702.89
595.142	708.09
595.593	695.49
596.043	700.99
596.493	710.89
596.943	717.19
597.394	721.99
597.844	712.09
598.294	729.59
598.744	754.39
599.195	778.39
599.645	810.39
600.095	849.69
600.545	915.19
600.995	967.59
601.445	1029.69
601.895	1073.39
602.345	1131.19
602.795	1117.09
603.245	1057.19
603.695	1007.99
604.145	954.69
604.594	905.29
605.044	851.99
605.494	798.69
605.944	752.09
606.393	733.59
606.843	722.89
607.293	736.59
607.743	735.99
608.192	745.69
608.642	752.49
609.091	770.39
609.541	763.09
609.99	767.29
610.44	779.99
610.889	732.99
611.339	707.89
611.788	682.69
612.238	696.79
612.687	724.69
613.136	709.69
613.586	740.19
614.035	733.29
614.484	752.19
614.933	756.99
615.383	750.19
615.832	742.29
616.281	724.59
616.73	680.69
617.179	661.99
617.628	648.59
618.077	636.89
618.526	623.49
618.975	610.99
619.424	611.79
619.873	617.09
620.322	614.59
620.771	599.09
621.22	602.99
621.669	592.29
622.118	586.29
622.567	585.79
623.015	569.39
623.464	564.79
623.913	556.49
624.361	546.89
624.81	549.59
625.259	556.69
625.707	559.19
626.156	557.19
626.604	575.89
627.053	559.29
627.501	559.59
627.95	570.79
628.398	579.99
628.847	567.69
629.295	581.49
629.744	571.99
630.192	562.89
630.64	565.99
631.089	567.69
631.537	576.09
631.985	596.79
632.433	604.99
632.881	604.69
633.33	660.09
633.778	641.39
634.226	569.59
634.674	576.49
635.122	580.49
635.57	610.59
636.018	633.19
636.466	586.99
636.914	564.79
637.362	569.79
637.81	579.09
638.258	579.49
638.705	576.29
639.153	610.39
639.601	611.29
640.049	641.09
640.497	679.09
640.944	693.49
641.392	638.29
641.84	614.79
642.287	584.39
642.735	564.89
643.182	571.39
643.63	573.99
644.078	581.29
644.525	588.89
644.973	593.39
645.42	602.19
645.867	624.49
646.315	638.69
646.762	670.19
647.21	693.79
647.657	709.89
648.104	752.69
648.551	773.29
648.999	833.89
649.446	917.69
649.893	1014.99
650.34	1174.49
650.787	1410.49
651.234	1747.59
651.682	2278.69
652.129	3159.79
652.576	4549.39
653.023	6710.49
653.47	9172.09
653.917	11397.79
654.363	13085.29
654.81	14388.59
655.257	13656.19
655.704	8969.09
656.151	5305.99
656.598	3447.09
657.044	2425.39
657.491	1861.19
657.938	1493.09
658.385	1245.79
658.831	1073.39
659.278	961.09
659.724	853.69
660.171	784.49
660.618	714.49
661.064	682.49
661.511	660.89
661.957	663.89
662.404	648.39
662.85	648.89
663.296	631.89
663.743	568.29
664.189	544.39
664.635	532.19
665.082	523.89
665.528	521.79
665.974	515.49
666.42	507.69
666.867	504.89
667.313	493.29
667.759	488.19
668.205	474.49
668.651	483.39
669.097	486.69
669.543	503.69
669.989	478.69
670.435	447.69
670.881	445.19
671.327	458.79
671.773	474.69
672.219	491.99
672.665	550.49
673.11	578.99
673.556	624.29
674.002	667.99
674.448	654.49
674.893	543.69
675.339	476.29
675.785	438.79
676.23	416.19
676.676	388.89
677.122	377.59
677.567	370.39
678.013	371.09
678.458	353.89
678.904	351.59
679.349	345.49
679.794	359.79
680.24	355.19
680.685	355.69
681.131	344.79
681.576	352.09
682.021	350.59
682.466	347.59
682.912	346.29
683.357	354.79
683.802	381.49
684.247	416.59
684.692	454.19
685.137	492.09
685.583	531.39
686.028	561.69
686.473	516.09
686.918	440.59
687.363	409.19
687.807	388.79
688.252	370.79
688.697	350.89
689.142	327.39
689.587	335.49
690.032	327.89
690.477	340.89
690.921	357.19
691.366	383.99
691.811	393.99
692.255	430.79
692.7	463.49
693.145	504.19
693.589	709.49
694.034	1145.09
694.478	1524.09
694.923	1724.79
695.367	2222.39
695.812	1186.89
696.256	499.79
696.701	374.29
697.145	338.89
697.59	330.99
698.034	318.39
698.478	330.19
698.922	323.59
699.367	327.29
699.811	335.59
700.255	347.19
700.699	386.19
701.143	427.49
701.588	477.79
702.032	516.49
702.476	518.19
702.92	494.39
703.364	496.39
703.808	641.09
704.252	1048.29
704.696	1459.49
705.14	1659.79
705.584	2101.39
706.027	1055.09
706.471	528.99
706.915	403.59
707.359	354.19
707.803	312.19
708.246	319.49
708.69	312.59
709.134	314.49
709.577	314.49
710.021	312.79
710.465	306.19
710.908	305.49
711.352	298.39
711.795	316.99
712.239	358.89
712.682	394.89
713.126	417.89
713.569	465.79
714.012	370.49
714.456	328.19
714.899	302.59
715.342	275.89
715.786	259.39
716.229	260.99
716.672	262.89
717.115	248.79
717.558	263.29
718.002	253.09
718.445	264.49
718.888	289.69
719.331	296.99
719.774	309.99
720.217	299.89
720.66	284.19
721.103	259.69
721.546	253.29
721.989	258.09
722.432	233.09
722.874	241.99
723.317	229.49
723.76	244.49
724.203	262.29
724.645	318.39
725.088	443.79
725.531	573.29
725.974	646.69
726.416	545.89
726.859	313.19
727.301	249.19
727.744	238.59
728.187	237.39
728.629	243.99
729.071	243.79
729.514	254.49
729.956	271.19
730.399	275.59
730.841	291.89
731.283	275.39
731.726	269.69
732.168	261.19
732.61	270.99
733.053	284.69
733.495	318.99
733.937	351.79
734.379	397.59
734.821	440.29
735.263	541.49
735.705	849.99
736.148	1598.29
736.59	2585.39
737.032	2999.09
737.474	2443.89
737.916	806.99
738.357	433.59
738.799	330.99
739.241	292.59
739.683	290.79
740.125	290.59
740.567	292.79
741.008	311.49
741.45	318.19
741.892	311.09
742.334	344.79
742.775	356.49
743.217	341.99
743.658	267.69
744.1	247.29
744.542	264.89
744.983	306.69
745.425	344.09
745.866	338.49
746.307	288.69
746.749	282.39
747.19	333.79
747.632	467.89
748.073	901.49
748.514	1893.49
748.956	2838.39
749.397	3548.79
749.838	2955.39
750.279	2901.09
750.72	1469.19
751.162	548.69
751.603	320.29
752.044	247.39
752.485	221.99
752.926	214.39
753.367	203.59
753.808	189.29
754.249	198.69
754.69	191.09
755.131	184.29
755.572	184.39
756.013	183.09
756.453	182.09
756.894	186.89
757.335	186.99
757.776	196.79
758.216	199.29
758.657	205.49
759.098	206.19
759.538	228.99
759.979	269.49
760.42	377.59
760.86	727.89
761.301	1878.49
761.741	4469.89
762.182	6296.69
762.622	4412.89
763.063	1293.79
763.503	545.09
763.943	350.99
764.384	338.19
764.824	416.89
765.264	448.69
765.705	308.19
766.145	217.29
766.585	187.19
767.025	184.79
767.465	202.69
767.906	258.09
768.346	329.59
768.786	348.09
769.226	273.29
769.666	331.49
770.106	646.79
770.546	1595.29
770.986	2620.19
771.426	2323.99
771.866	789.09
772.306	328.49
772.745	210.89
773.185	179.89
773.625	173.99
774.065	164.29
774.505	199.69
774.944	317.39
775.384	709.09
775.824	1241.79
776.263	1185.09
776.703	503.29
777.142	227.29
777.582	155.39
778.021	144.19
778.461	142.89
778.9	142.29
779.34	128.09
779.779	117.59
780.219	113.99
780.658	108.89
781.097	112.99
781.537	122.19
781.976	106.79
782.415	109.99
782.855	106.59
783.294	101.59
783.733	109.09
784.172	118.29
784.611	103.59
785.05	108.69
785.489	109.79
785.928	121.59
786.367	119.49
786.806	119.69
787.245	130.49
787.684	138.39
788.123	145.79
788.562	139.69
789.001	127.29
789.44	127.79
789.879	117.69
790.317	115.39
790.756	130.09
791.195	136.59
791.634	149.79
792.072	208.29
792.511	374.79
792.95	1030.59
793.388	2125.19
793.827	1903.59
794.265	671.79
794.704	288.49
795.142	183.29
795.581	151.99
796.019	142.69
796.458	124.69
796.896	121.59
797.334	131.19
797.773	154.89
798.211	219.39
798.649	460.69
799.087	1028.79
799.526	1587.99
799.964	2004.19
800.402	1977.59
800.84	751.29
801.278	303.09
801.716	179.79
802.154	157.89
802.592	148.59
803.03	140.39
803.468	133.49
803.906	144.19
804.344	152.89
804.782	141.79
805.22	134.09
805.658	129.29
806.096	146.99
806.533	156.69
806.971	177.39
807.409	220.69
807.847	317.69
808.284	680.89
808.722	1896.69
809.16	3255.99
809.597	3129.29
810.035	5388.79
810.472	5621.79
810.91	2044.19
811.347	791.29
811.785	403.29
812.222	255.59
812.66	196.59
813.097	162.89
813.535	144.39
813.972	134.29
814.409	123.49
814.846	108.99
815.284	105.49
815.721	98.49
816.158	108.89
816.595	120.49
817.032	176.19
817.47	203.99
817.907	160.19
818.344	148.89
818.781	114.69
819.218	112.29
819.655	120.89
820.092	183.09
820.529	215.79
820.966	177.09
821.403	132.79
821.839	115.99
822.276	101.49
822.713	121.49
823.15	131.19
823.587	114.09
824.023	147.39
824.46	311.39
824.897	908.29
825.333	1338.79
825.77	571.69
826.206	230.49
826.643	131.19
827.08	101.69
827.516	80.79
827.953	75.69
828.389	83.59
828.825	76.79
829.262	70.89
829.698	67.49
830.135	68.29
830.571	66.09
831.007	61.29
831.443	66.59
831.88	67.19
832.316	61.89
832.752	64.99
833.188	62.59
833.624	70.39
834.06	67.29
834.497	75.99
834.933	74.19
835.369	78.19
835.805	67.79
836.241	77.69
836.677	82.29
837.112	93.89
837.548	104.59
837.984	132.99
838.42	197.49
838.856	506.49
839.292	1536.99
839.727	2258.59
840.163	1053.09
840.599	939.69
841.034	2028.29
841.47	2062.99
841.906	768.09
842.341	327.79
842.777	240.39
843.212	322.79
843.648	308.39
844.083	154.49
844.519	101.99
844.954	78.89
845.39	63.39
845.825	58.19
846.261	60.29
846.696	51.89
847.131	53.79
847.566	51.49
848.002	52.79
848.437	58.79
848.872	57.09
849.307	66.49
849.742	92.19
850.177	181.79
850.613	567.09
851.048	858.89
851.483	369.29
851.918	156.49
852.353	88.29
852.788	67.09
853.223	55.39
853.657	61.39
854.092	45.99
854.527	44.39
854.962	35.29
855.397	41.99
855.832	49.09
856.266	44.79
856.701	45.09
857.136	43.49
857.57	37.79
858.005	49.39
858.44	55.69
858.874	43.89
859.309	55.09
859.743	41.89
860.178	47.49
860.612	38.59
861.047	56.09
861.481	74.19
861.915	67.19
862.35	50.49
862.784	40.39
863.218	40.29
863.653	33.99
864.087	45.89
864.521	55.39
864.955	74.89
865.39	156.39
865.824	176.39
866.258	119.69
866.692	158.79
867.126	169.29
867.56	101.89
867.994	54.39
868.428	36.59
868.862	42.89
869.296	49.29
869.73	58.99
870.164	55.99
870.598	50.19
871.031	39.19
871.465	33.79
871.899	35.19
872.333	22.99
872.766	28.19
873.2	24.79
873.634	30.39
874.067	24.29
874.501	27.49
874.935	38.39
875.368	29.19
875.802	26.89
876.235	20.09
876.669	32.29
877.102	25.59
877.535	23.79
877.969	27.79
878.402	25.49
878.836	20.79
879.269	24.09
879.702	22.59
880.135	19.49
880.569	23.79
881.002	30.39
881.435	19.09
881.868	20.29
882.301	22.09
882.734	15.19
883.167	29.99
883.601	20.19
884.034	25.09
884.467	18.39
884.899	20.39
885.332	17.49
885.765	18.99
886.198	20.59
886.631	22.09
887.064	21.29
887.497	21.89
887.929	25.39
888.362	19.59
888.795	16.19
889.228	22.09
889.66	23.79
890.093	14.59
890.526	18.99
890.958	20.59
891.391	27.49
891.823	21.69
892.256	13.49
892.688	14.19
893.121	25.19
893.553	18.29
893.985	24.59
894.418	18.69
894.85	7.49
895.282	17.09
895.715	20.99
896.147	17.99
896.579	12.99
897.011	11.09
897.444	21.99
897.876	20.39
898.308	18.09
898.74	16.49
899.172	17.89
899.604	27.69
900.036	22.89
900.468	16.29
900.9	15.69
901.332	22.49
901.764	12.29
902.196	18.29
902.628	19.99
903.06	12.99
903.491	34.29
903.923	18.59
904.355	21.39
904.787	24.99
905.218	24.79
905.65	23.79
906.082	14.49
906.513	14.59
906.945	18.89
907.376	17.69
907.808	22.49
908.239	23.19
908.671	18.39
909.102	24.19
909.534	27.69
909.965	46.69
910.397	88.59
910.828	315.09
911.259	465.69
911.691	213.59
912.122	104.99
912.553	59.09
912.984	37.39
913.415	21.19
913.847	19.69
914.278	22.29
914.709	20.89
915.14	16.79
915.571	20.39
916.002	18.29
916.433	18.99
916.864	18.89
917.295	14.89
917.726	20.19
918.157	17.49
918.587	26.19
919.018	22.49
919.449	23.69
919.88	24.19
920.311	36.99
920.741	49.59
921.172	173.19
921.603	150.29
922.033	71.49
922.464	44.79
922.895	17.89
923.325	24.09
923.756	18.89
924.186	17.49
924.617	29.69
925.047	51.79
925.478	56.39
925.908	45.49
926.338	27.39
926.769	17.49
927.199	18.59
927.629	8.79
928.06	18.09
928.49	23.89
928.92	16.99
929.35	10.59
929.78	10.89
930.21	14.49
930.641	8.59
931.071	12.29
931.501	4.19
931.931	10.09
932.361	11.19
932.791	6.39
933.221	5.59
933.651	4.69
934.08	17.59
934.51	30.89
934.94	12.29
935.37	10.69
935.8	14.69
936.229	6.49
936.659	9.69
937.089	2.79
937.519	16.19
937.948	27.59
938.378	15.69
938.807	2.29
939.237	5.99
939.666	10.99
940.096	0.59
940.525	1.39
940.955	0.99
941.384	5.19
941.814	-1.71
942.243	4.29
942.672	6.39
943.102	-1.71
943.531	2.39
943.96	3.49
944.39	5.09
944.819	6.19
945.248	6.39
945.677	6.09
946.106	3.89
946.535	6.79
946.964	-0.41
947.393	7.49
947.822	5.49
948.251	-5.21
948.68	2.19
949.109	6.79
949.538	9.39
949.967	0.69
950.396	0.39
950.825	-3.91
951.254	-2.11
951.682	-7.71
952.111	3.39
952.54	3.39
952.969	-5.41
953.397	-3.01
953.826	4.49
954.254	-7.91
954.683	6.09
955.112	5.49
955.54	2.39
955.969	0.09
956.397	-1.61
956.826	2.89
957.254	2.49
957.682	0.79
958.111	4.09
958.539	-0.41
958.967	6.39
959.396	0.49
959.824	1.59
960.252	-3.91
960.68	-3.71
961.109	0.19
961.537	-3.91
961.965	2.09
962.393	5.39
962.821	-5.61
963.249	7.79
963.677	8.59
964.105	8.89
964.533	39.59
964.961	38.79
965.389	15.09
965.817	8.99
966.245	3.99
966.672	4.79
967.1	-8.71
967.528	-0.51
967.956	-1.71
968.383	0.79
968.811	0.89
969.239	0.29
969.666	-7.31
970.094	-2.51
970.522	3.19
970.949	-1.71
971.377	-1.61
971.804	-1.71
972.232	1.39
972.659	-7.01
973.087	-7.01
973.514	-1.31
973.941	-4.01
974.369	7.49
974.796	1.89
975.223	0.39
975.651	0.79
976.078	-1.41
976.505	3.29
976.932	-0.11
977.359	20.59
977.786	14.09
978.214	4.19
978.641	-2.51
979.068	-1.31
979.495	-4.71
979.922	6.79
980.349	-4.41
980.776	1.69
981.202	-2.41
981.629	4.39
982.056	3.99
982.483	-9.01
982.91	3.59
983.337	-3.81
983.763	1.59
984.19	-2.41
984.617	-3.81
985.043	-0.81
985.47	-6.11
985.897	-3.71
986.323	-8.51
986.75	0.49
987.176	4.79
987.603	1.69
988.029	1.99
988.456	0.09
988.882	4.19
989.308	-1.31
989.735	-10.31
990.161	-1.21
990.587	-3.51
991.014	1.59
991.44	11.79
991.866	1.39
992.292	-1.71
992.719	0.19
993.145	0.39
993.571	-16.41
993.997	0.59
994.423	-3.11
994.849	-4.61
995.275	8.69
995.701	3.09
996.127	-3.61
996.553	-0.01
996.979	-6.61
997.405	0.39
997.83	-2.91
998.256	-3.11
998.682	-1.91
999.108	-2.91
999.534	0.29
999.959	2.39
1000.385	-1.91
1000.811	-2.81
1001.236	-13.41
1001.662	-4.21
1002.087	-7.91
1002.513	3.19
1002.938	5.79
1003.364	0.59
1003.789	-1.61
1004.215	4.49
1004.64	0.29
1005.066	3.69
1005.491	0.59
1005.916	-9.31
1006.342	-2.31
1006.767	-2.21
1007.192	3.09
1007.617	-0.51
1008.042	-1.51
1008.468	-8.71
1008.893	-1.61
1009.318	-6.31
1009.743	0.39
1010.168	1.99
1010.593	3.69
1011.018	-6.21
1011.443	-1.71
1011.868	0.99
1012.293	2.79
1012.718	-6.81
1013.143	-3.81
1013.567	4.59
1013.992	4.29
1014.417	-13.81
1014.842	3.19
1015.267	-8.71
1015.691	-9.41
1016.116	6.59
1016.541	-2.61
1016.965	1.39
1017.39	0.89
1017.814	-0.01
1018.239	-0.71
1018.663	-7.61
1019.088	-6.41
1019.512	0.29
1019.937	-3.21
1020.361	-7.41
1020.785	-11.51
1021.21	-6.11
1021.634	-4.31
1022.058	-1.01
1022.483	0.09
1022.907	-0.51
1023.331	-7.11
1023.755	-0.71
1024.179	-7.11
1024.604	-10.51
1025.028	-5.61
1025.452	-5.01
1025.876	2.49
1026.3	4.89
1026.724	-3.31
1027.148	-3.21
1027.572	-9.61
1027.996	-4.51
1028.42	-7.91
1028.843	-5.61
1029.267	-7.11
1029.691	-0.71
1030.115	-6.81
1030.539	-7.11
1030.962	-8.11
1031.386	-13.11
1031.81	-3.51
1032.233	0.09
1032.657	-4.81
1033.08	-4.21
1033.504	0.19
1033.927	-2.51
1034.351	-2.41
1034.774	-3.11
1035.198	-3.81
1035.621	-4.31
1036.045	-7.51
1036.468	4.49
1036.891	-7.81
1037.315	-10.51
1037.738	-10.41
1038.161	3.49
1038.584	-4.91
1039.008	-9.51
1039.431	-0.91
1039.854	-3.81
1040.277	-7.61
1040.7	-5.71
1041.123	-4.21
1041.546	-3.41
1041.969	-2.01
1042.392	-6.11
1042.815	-2.81
1043.238	-0.71
1043.661	-0.81
1044.084	-7.41
1044.507	-10.21
1044.93	-6.91
1045.352	-9.51
1045.775	-2.21
1046.198	-3.41
1046.621	2.99
1047.043	-3.61
1047.466	3.19
1047.889	-2.11
1048.311	-2.61
1048.734	-0.61
1049.156	-0.21
1049.579	-7.41
1050.001	-7.91
1050.424	-2.61
1050.846	-2.01
1051.269	2.29
1051.691	-6.41
1052.113	-8.81
1052.536	-2.71
1052.958	-4.11
1053.38	-5.71
1053.802	-8.11
1054.225	-2.91
1054.647	-12.11
1055.069	-7.71
1055.491	5.99
1055.913	-13.01
1056.335	-3.71
1056.757	-1.51
1057.179	-10.11
1057.601	-8.01
1058.023	-1.31
1058.445	-7.61
1058.867	-3.91
1059.289	0.99
1059.711	-4.61
1060.133	-8.21
1060.555	-12.01
1060.976	-6.01
1061.398	-2.51
1061.82	-3.11
1062.241	-6.51
1062.663	-7.21
1063.085	-3.31
1063.506	-0.21
1063.928	-9.71
1064.35	-4.61
1064.771	-13.41
1065.193	-8.21
1065.614	-5.91
1066.035	0.69
1066.457	-5.71
1066.878	0.99
1067.3	-8.41
1067.721	-6.41
1068.142	-4.21
1068.564	-7.21
1068.985	-5.21
1069.406	1.49
1069.827	-4.71
1070.248	-3.91
1070.67	-5.51
1071.091	-8.21
1071.512	-2.41
1071.933	-10.11
1072.354	-7.11
1072.775	-2.81
1073.196	-4.51
1073.617	-1.11
1074.038	-4.41
1074.459	-4.01
1074.88	-8.01
1075.3	-2.61
1075.721	-6.11
1076.142	-2.31
1076.563	-4.91
1076.983	-11.21
1077.404	-9.41
1077.825	-11.91
1078.246	-8.31
1078.666	-11.41
1079.087	-6.51
1079.507	-7.71
1079.928	-0.11
1080.348	-7.21
1080.769	-8.21
1081.189	-1.41
1081.61	1.09
1082.03	2.29
1082.451	-8.11
1082.871	-3.01
1083.291	-6.51
1083.711	-7.01
1084.132	-2.51
1084.552	-1.51
1084.972	-4.11
1085.392	-6.41
1085.813	-12.81
1086.233	-4.81
1086.653	-4.01
1087.073	-7.51
1087.493	-9.01
1087.913	-4.71
1088.333	-11.11
1088.753	-3.81
1089.173	2.49
1089.593	-7.91
1090.013	3.49
1090.433	5.99
1090.852	-3.91
1091.272	1.09
1091.692	0.49
1092.112	0.19
1092.531	-5.01
1092.951	-13.01
1093.371	-10.01
1093.79	3.09
1094.21	-4.21
1094.63	-7.01
1095.049	-7.31
1095.469	-1.71
1095.888	-4.71
1096.308	-1.51
1096.727	0.59
1097.146	-5.71
1097.566	3.59
1097.985	-5.61
1098.405	-6.51
1098.824	-4.11
1099.243	-7.21
1099.662	-3.21
1100.082	-11.01
1100.501	4.09
1100.92	-10.51
1101.339	-1.91
1101.758	-2.91
