Data from 20171114-ORNL-Ar_H_NY_Subt18_08-09-09-492.txt Node
Date: Tue Nov 14 08:09:09 EST 2017
User: Ender
Spectrometer: HR+D1039
Trigger mode: 0
Integration Time (sec): 2.730000E-2
Scans to average: 10
Electric dark correction enabled: true
Nonlinearity correction enabled: false
Boxcar width: 0
XAxis mode: Wavelengths
Number of Pixels in Spectrum: 2048
>>>>>Begin Spectral Data<<<<<
187.836	-4.71
188.309	-4.71
188.782	-4.71
189.255	-0.91
189.728	-0.01
190.201	6.49
190.674	2.19
191.147	-3.31
191.619	-2.61
192.092	-2.51
192.565	3.69
193.038	-3.31
193.511	4.09
193.984	1.39
194.456	-2.31
194.929	0.99
195.402	-0.81
195.874	1.69
196.347	-0.61
196.82	-5.31
197.292	4.29
197.765	-1.01
198.237	-6.91
198.71	1.99
199.182	-2.41
199.655	6.89
200.127	2.79
200.6	-0.61
201.072	-3.41
201.544	-0.31
202.017	-1.81
202.489	2.39
202.961	2.99
203.433	-4.01
203.906	0.29
204.378	-5.61
204.85	-4.51
205.322	-6.71
205.794	4.39
206.266	-3.71
206.739	-5.31
207.211	2.79
207.683	-7.31
208.155	-4.31
208.627	-7.51
209.099	-1.61
209.57	-5.21
210.042	-3.91
210.514	-7.21
210.986	-4.11
211.458	-4.31
211.93	0.09
212.402	6.89
212.873	-5.11
213.345	-6.21
213.817	-7.61
214.288	-0.61
214.76	-7.01
215.232	-4.41
215.703	2.39
216.175	-3.31
216.646	-8.71
217.118	-6.11
217.589	-3.11
218.061	-0.51
218.532	-2.31
219.004	4.79
219.475	-4.71
219.946	-2.11
220.418	-0.71
220.889	-3.41
221.36	1.79
221.832	1.99
222.303	-8.41
222.774	1.29
223.245	-2.51
223.717	-3.81
224.188	-0.21
224.659	-9.61
225.13	-2.31
225.601	3.89
226.072	3.39
226.543	0.89
227.014	0.99
227.485	-2.01
227.956	-6.01
228.427	0.79
228.898	-0.41
229.369	1.29
229.839	-6.91
230.31	-6.11
230.781	5.49
231.252	-5.41
231.722	-1.61
232.193	0.69
232.664	-1.41
233.135	-2.21
233.605	-3.81
234.076	-8.11
234.546	-2.11
235.017	1.19
235.487	1.19
235.958	-1.81
236.428	-3.61
236.899	-6.51
237.369	0.89
237.84	-5.91
238.31	4.19
238.78	-3.91
239.251	-6.31
239.721	-5.61
240.191	-3.71
240.662	-6.91
241.132	-4.01
241.602	-8.61
242.072	-0.81
242.542	11.09
243.013	-3.01
243.483	3.49
243.953	0.59
244.423	-1.51
244.893	-6.51
245.363	-1.61
245.833	-1.71
246.303	-0.41
246.773	6.99
247.243	-2.21
247.712	-1.61
248.182	1.59
248.652	1.69
249.122	-9.61
249.592	-1.11
250.061	4.19
250.531	12.29
251.001	0.49
251.471	7.89
251.94	7.29
252.41	-1.91
252.879	-5.51
253.349	9.59
253.818	4.09
254.288	1.09
254.757	5.39
255.227	-0.61
255.696	-1.51
256.166	5.59
256.635	6.99
257.105	5.49
257.574	0.79
258.043	-0.51
258.513	-3.51
258.982	3.39
259.451	-3.71
259.92	2.69
260.389	3.69
260.859	7.59
261.328	-2.11
261.797	3.59
262.266	-0.51
262.735	4.49
263.204	1.99
263.673	-4.11
264.142	5.39
264.611	-7.11
265.08	-1.21
265.549	0.29
266.018	1.19
266.487	-3.81
266.955	-2.31
267.424	-1.51
267.893	1.99
268.362	-6.51
268.83	-5.11
269.299	6.59
269.768	-0.61
270.236	3.59
270.705	-4.91
271.174	0.09
271.642	4.89
272.111	0.99
272.579	0.59
273.048	0.99
273.516	5.19
273.985	4.99
274.453	8.19
274.922	13.99
275.39	7.99
275.858	-1.01
276.327	6.79
276.795	9.19
277.263	3.39
277.731	9.09
278.2	7.19
278.668	8.99
279.136	8.49
279.604	2.29
280.072	4.79
280.54	5.49
281.008	2.99
281.477	4.29
281.945	1.49
282.413	7.89
282.881	6.29
283.348	-1.81
283.816	3.09
284.284	3.09
284.752	10.39
285.22	6.39
285.688	4.79
286.156	7.79
286.623	19.89
287.091	8.49
287.559	8.49
288.026	6.79
288.494	12.39
288.962	4.39
289.429	8.39
289.897	15.79
290.364	8.49
290.832	10.99
291.3	12.49
291.767	8.09
292.234	9.59
292.702	8.09
293.169	5.49
293.637	13.89
294.104	14.69
294.571	3.09
295.039	3.49
295.506	12.29
295.973	7.39
296.44	12.89
296.908	12.39
297.375	10.39
297.842	11.39
298.309	9.29
298.776	7.99
299.243	12.89
299.71	1.59
300.177	18.19
300.644	23.69
301.111	18.59
301.578	12.79
302.045	9.59
302.512	17.79
302.979	15.29
303.446	15.09
303.913	13.29
304.379	16.39
304.846	21.99
305.313	15.99
305.78	15.89
306.246	18.59
306.713	18.09
307.18	17.79
307.646	14.19
308.113	20.69
308.579	10.39
309.046	16.89
309.512	22.69
309.979	9.29
310.445	20.99
310.912	25.99
311.378	31.49
311.845	22.09
312.311	25.69
312.777	24.59
313.244	23.59
313.71	28.49
314.176	16.09
314.642	19.59
315.109	22.39
315.575	27.49
316.041	23.79
316.507	22.29
316.973	20.79
317.439	26.99
317.905	31.19
318.371	22.69
318.837	24.39
319.303	27.99
319.769	26.39
320.235	22.19
320.701	27.59
321.167	26.69
321.633	24.19
322.099	34.59
322.564	22.79
323.03	30.39
323.496	23.69
323.962	31.89
324.427	29.59
324.893	29.29
325.359	25.09
325.824	30.39
326.29	26.89
326.755	30.09
327.221	30.99
327.686	29.09
328.152	36.69
328.617	30.69
329.083	38.99
329.548	45.39
330.014	37.89
330.479	30.59
330.944	23.49
331.41	33.49
331.875	33.29
332.34	26.29
332.805	30.09
333.271	31.09
333.736	26.69
334.201	41.59
334.666	41.09
335.131	37.39
335.596	34.69
336.061	37.59
336.526	33.69
336.991	38.19
337.456	50.79
337.921	36.89
338.386	34.99
338.851	34.19
339.316	43.39
339.781	37.89
340.246	39.49
340.711	38.99
341.175	39.99
341.64	34.99
342.105	40.59
342.569	44.99
343.034	49.19
343.499	44.99
343.963	39.59
344.428	49.39
344.893	50.69
345.357	49.49
345.822	48.49
346.286	51.39
346.751	54.89
347.215	50.09
347.679	47.09
348.144	74.19
348.608	66.29
349.073	56.69
349.537	57.49
350.001	58.39
350.465	66.79
350.93	58.99
351.394	65.59
351.858	57.59
352.322	70.59
352.786	66.89
353.25	77.19
353.715	89.09
354.179	77.99
354.643	89.69
355.107	89.59
355.571	83.79
356.035	70.69
356.498	81.39
356.962	88.99
357.426	96.69
357.89	86.39
358.354	70.09
358.818	68.79
359.281	67.09
359.745	64.49
360.209	58.79
360.673	58.09
361.136	63.19
361.6	69.29
362.064	64.89
362.527	69.89
362.991	69.99
363.454	65.69
363.918	61.79
364.381	60.99
364.845	76.59
365.308	81.09
365.772	75.79
366.235	67.49
366.698	71.29
367.162	70.79
367.625	69.09
368.088	76.19
368.552	70.69
369.015	77.79
369.478	80.09
369.941	86.29
370.404	74.39
370.867	78.89
371.331	90.89
371.794	92.99
372.257	79.59
372.72	96.49
373.183	89.59
373.646	80.79
374.109	82.39
374.572	91.29
375.035	85.59
375.497	90.09
375.96	86.89
376.423	86.89
376.886	98.79
377.349	93.39
377.811	88.09
378.274	86.69
378.737	91.49
379.199	95.09
379.662	88.59
380.125	99.49
380.587	92.59
381.05	90.99
381.512	97.39
381.975	107.79
382.437	108.59
382.9	108.09
383.362	107.59
383.825	108.19
384.287	111.29
384.75	106.29
385.212	108.79
385.674	118.59
386.136	116.19
386.599	103.19
387.061	110.89
387.523	107.99
387.985	113.29
388.447	124.89
388.91	116.19
389.372	119.39
389.834	113.59
390.296	113.59
390.758	117.69
391.22	126.79
391.682	129.69
392.144	148.19
392.606	132.29
393.068	129.19
393.529	139.39
393.991	126.49
394.453	113.99
394.915	122.89
395.377	127.59
395.838	136.19
396.3	125.69
396.762	128.39
397.224	121.69
397.685	125.09
398.147	127.09
398.608	122.19
399.07	125.39
399.531	123.49
399.993	132.49
400.454	140.39
400.916	135.29
401.377	138.99
401.839	142.39
402.3	142.29
402.762	153.99
403.223	159.89
403.684	152.19
404.145	142.59
404.607	149.29
405.068	156.99
405.529	153.09
405.99	162.49
406.451	162.99
406.913	157.99
407.374	152.69
407.835	154.39
408.296	159.89
408.757	157.69
409.218	175.69
409.679	164.89
410.14	164.49
410.601	162.19
411.062	164.39
411.522	170.09
411.983	173.09
412.444	158.09
412.905	170.39
413.366	179.59
413.826	187.89
414.287	205.19
414.748	248.39
415.208	238.59
415.669	202.69
416.13	198.59
416.59	199.69
417.051	207.19
417.511	216.19
417.972	229.09
418.432	236.79
418.893	273.69
419.353	241.19
419.814	186.59
420.274	175.99
420.734	170.49
421.195	189.29
421.655	183.29
422.115	188.09
422.576	182.99
423.036	197.09
423.496	203.09
423.956	208.89
424.416	223.29
424.876	254.39
425.336	243.79
425.797	239.99
426.257	243.69
426.717	223.39
427.177	226.19
427.637	209.29
428.097	225.79
428.556	234.29
429.016	249.49
429.476	243.89
429.936	260.29
430.396	266.19
430.856	273.49
431.315	298.79
431.775	325.99
432.235	358.59
432.694	328.89
433.154	333.49
433.614	355.59
434.073	313.69
434.533	267.89
434.993	256.59
435.452	263.39
435.912	273.59
436.371	263.09
436.83	263.99
437.29	244.99
437.749	235.29
438.209	238.29
438.668	257.69
439.127	272.69
439.587	256.99
440.046	237.19
440.505	238.99
440.964	267.19
441.424	307.29
441.883	293.29
442.342	250.19
442.801	225.49
443.26	218.59
443.719	226.49
444.178	220.79
444.637	211.09
445.096	223.49
445.555	226.69
446.014	223.99
446.473	222.69
446.932	231.79
447.391	226.09
447.849	226.99
448.308	220.69
448.767	223.49
449.226	230.09
449.685	239.49
450.143	244.29
450.602	239.29
451.061	226.19
451.519	231.39
451.978	231.09
452.436	230.79
452.895	237.29
453.353	249.19
453.812	236.09
454.27	239.79
454.729	234.19
455.187	233.09
455.646	246.99
456.104	245.99
456.562	255.69
457.021	260.69
457.479	252.69
457.937	267.29
458.395	266.69
458.854	246.99
459.312	249.19
459.77	274.79
460.228	247.59
460.686	248.19
461.144	250.79
461.602	247.89
462.06	246.09
462.518	253.59
462.976	249.29
463.434	255.59
463.892	260.39
464.35	272.39
464.808	289.79
465.266	269.39
465.724	270.99
466.181	269.19
466.639	270.29
467.097	293.29
467.555	308.69
468.012	306.59
468.47	311.99
468.928	327.19
469.385	332.69
469.843	342.79
470.3	353.79
470.758	363.59
471.215	378.29
471.673	404.29
472.13	399.69
472.588	412.69
473.045	365.89
473.503	369.49
473.96	391.89
474.417	406.39
474.875	439.59
475.332	465.69
475.789	456.09
476.246	455.09
476.704	487.59
477.161	495.89
477.618	513.19
478.075	546.59
478.532	596.09
478.989	662.19
479.446	781.89
479.903	736.99
480.36	761.19
480.817	806.69
481.274	900.89
481.731	993.09
482.188	1060.59
482.645	1178.59
483.102	1268.99
483.558	1374.49
484.015	1431.79
484.472	1397.29
484.929	1359.09
485.385	1312.89
485.842	1281.69
486.299	1241.19
486.755	1198.59
487.212	1016.19
487.668	871.99
488.125	814.49
488.582	751.39
489.038	714.29
489.494	691.29
489.951	666.89
490.407	655.69
490.864	631.19
491.32	629.79
491.776	628.99
492.233	633.39
492.689	611.69
493.145	601.09
493.602	589.19
494.058	606.89
494.514	593.49
494.97	621.99
495.426	635.49
495.882	612.49
496.338	603.79
496.794	607.69
497.251	604.79
497.707	622.19
498.163	625.09
498.618	623.89
499.074	625.89
499.53	658.89
499.986	658.79
500.442	628.39
500.898	617.89
501.354	613.19
501.809	617.79
502.265	613.49
502.721	622.09
503.177	635.79
503.632	638.79
504.088	641.89
504.543	661.39
504.999	683.49
505.455	643.89
505.91	626.39
506.366	628.29
506.821	627.19
507.277	630.99
507.732	619.39
508.187	633.79
508.643	634.19
509.098	633.19
509.553	659.39
510.009	659.89
510.464	664.19
510.919	691.09
511.375	681.29
511.83	690.39
512.285	721.19
512.74	754.89
513.195	770.09
513.65	765.69
514.105	760.69
514.56	749.79
515.015	777.99
515.47	799.49
515.925	773.09
516.38	775.19
516.835	798.69
517.29	779.39
517.745	770.19
518.2	765.19
518.655	747.59
519.109	741.69
519.564	740.99
520.019	727.29
520.474	726.19
520.928	714.49
521.383	723.69
521.838	712.39
522.292	709.39
522.747	703.99
523.201	709.69
523.656	702.39
524.11	700.09
524.565	694.09
525.019	695.89
525.474	700.29
525.928	706.39
526.382	705.29
526.837	695.09
527.291	699.99
527.745	698.09
528.2	708.59
528.654	691.89
529.108	680.79
529.562	680.49
530.016	688.49
530.47	700.49
530.925	698.69
531.379	697.89
531.833	713.29
532.287	691.79
532.741	691.69
533.195	697.79
533.649	707.19
534.103	713.99
534.556	702.19
535.01	703.49
535.464	700.89
535.918	712.59
536.372	712.79
536.826	719.29
537.279	706.49
537.733	705.59
538.187	722.59
538.64	707.79
539.094	721.59
539.548	724.09
540.001	721.79
540.455	721.29
540.908	733.89
541.362	735.39
541.815	747.59
542.269	758.19
542.722	760.09
543.175	766.39
543.629	772.49
544.082	797.89
544.536	796.49
544.989	790.89
545.442	796.39
545.895	799.99
546.349	802.29
546.802	796.59
547.255	802.39
547.708	809.39
548.161	820.79
548.614	819.89
549.067	834.19
549.52	818.29
549.973	812.59
550.426	808.89
550.879	802.29
551.332	810.19
551.785	816.89
552.238	813.59
552.691	834.79
553.144	838.99
553.596	844.69
554.049	870.59
554.502	902.59
554.955	920.99
555.407	919.79
555.86	891.29
556.313	893.29
556.765	891.89
557.218	888.19
557.67	891.39
558.123	888.59
558.576	878.79
559.028	881.99
559.48	900.39
559.933	889.69
560.385	854.69
560.838	814.89
561.29	791.19
561.742	795.99
562.195	773.69
562.647	777.89
563.099	789.79
563.551	780.49
564.004	789.99
564.456	776.99
564.908	761.09
565.36	749.89
565.812	744.49
566.264	734.49
566.716	722.69
567.168	718.79
567.62	712.89
568.072	704.99
568.524	706.59
568.976	695.29
569.428	694.79
569.88	689.99
570.332	687.39
570.784	690.49
571.235	686.09
571.687	707.39
572.139	715.19
572.59	731.69
573.042	717.49
573.494	724.29
573.945	712.59
574.397	689.79
574.849	700.29
575.3	692.49
575.752	694.79
576.203	685.49
576.655	695.99
577.106	679.29
577.557	673.29
578.009	680.49
578.46	672.59
578.912	669.69
579.363	675.89
579.814	679.09
580.265	664.89
580.717	679.59
581.168	683.79
581.619	690.29
582.07	686.09
582.521	680.39
582.972	684.09
583.423	687.79
583.875	690.89
584.326	691.49
584.777	717.29
585.227	739.79
585.678	764.29
586.129	781.09
586.58	799.59
587.031	828.89
587.482	861.79
587.933	914.39
588.384	890.69
588.834	805.09
589.285	792.09
589.736	787.69
590.186	777.39
590.637	780.19
591.088	758.69
591.538	752.19
591.989	744.99
592.439	739.79
592.89	721.29
593.34	711.39
593.791	716.69
594.241	707.79
594.692	704.09
595.142	707.59
595.593	698.19
596.043	714.39
596.493	710.59
596.943	714.79
597.394	733.39
597.844	730.29
598.294	745.19
598.744	760.89
599.195	791.69
599.645	843.89
600.095	875.79
600.545	931.49
600.995	986.69
601.445	1042.29
601.895	1116.19
602.345	1153.59
602.795	1132.29
603.245	1083.89
603.695	1037.19
604.145	970.89
604.594	932.59
605.044	880.19
605.494	813.19
605.944	772.59
606.393	760.49
606.843	737.39
607.293	747.19
607.743	745.89
608.192	757.89
608.642	763.39
609.091	768.69
609.541	771.99
609.99	772.19
610.44	773.69
610.889	733.29
611.339	715.89
611.788	693.29
612.238	698.49
612.687	714.59
613.136	708.19
613.586	721.49
614.035	715.29
614.484	733.79
614.933	722.29
615.383	726.29
615.832	722.09
616.281	721.79
616.73	687.69
617.179	666.29
617.628	657.49
618.077	626.59
618.526	631.99
618.975	628.39
619.424	626.09
619.873	620.39
620.322	622.19
620.771	607.99
621.22	615.99
621.669	602.99
622.118	600.89
622.567	584.89
623.015	575.69
623.464	579.09
623.913	573.59
624.361	561.69
624.81	565.99
625.259	569.09
625.707	576.19
626.156	566.99
626.604	577.79
627.053	574.59
627.501	565.99
627.95	583.29
628.398	593.69
628.847	580.59
629.295	585.09
629.744	585.99
630.192	567.69
630.64	581.09
631.089	556.99
631.537	542.49
631.985	547.39
632.433	550.89
632.881	542.09
633.33	551.29
633.778	554.59
634.226	532.99
634.674	554.09
635.122	558.89
635.57	561.49
636.018	584.89
636.466	574.89
636.914	570.39
637.362	587.49
637.81	580.59
638.258	593.09
638.705	598.09
639.153	621.19
639.601	635.89
640.049	664.39
640.497	694.19
640.944	704.59
641.392	657.39
641.84	625.49
642.287	595.89
642.735	576.79
643.182	573.09
643.63	574.09
644.078	573.79
644.525	578.99
644.973	585.19
645.42	604.29
645.867	621.89
646.315	643.99
646.762	656.69
647.21	688.89
647.657	709.69
648.104	741.69
648.551	767.39
648.999	829.29
649.446	901.69
649.893	992.19
650.34	1134.49
650.787	1333.39
651.234	1658.99
651.682	2144.49
652.129	2929.49
652.576	4171.49
653.023	6058.39
653.47	8194.49
653.917	10060.19
654.363	11531.19
654.81	12667.49
655.257	11960.39
655.704	7940.49
656.151	4772.19
656.598	3145.99
657.044	2252.09
657.491	1755.79
657.938	1420.49
658.385	1191.59
658.831	1044.69
659.278	940.09
659.724	843.49
660.171	769.69
660.618	719.19
661.064	681.59
661.511	666.09
661.957	655.39
662.404	641.29
662.85	655.89
663.296	617.99
663.743	563.69
664.189	548.09
664.635	547.99
665.082	540.99
665.528	541.09
665.974	534.19
666.42	517.99
666.867	515.69
667.313	499.89
667.759	472.89
668.205	467.39
668.651	464.49
669.097	458.59
669.543	446.39
669.989	460.39
670.435	457.99
670.881	457.49
671.327	464.29
671.773	483.19
672.219	514.89
672.665	568.39
673.11	615.09
673.556	648.59
674.002	685.39
674.448	681.29
674.893	565.09
675.339	492.49
675.785	453.99
676.23	438.49
676.676	409.39
677.122	390.09
677.567	383.29
678.013	391.29
678.458	373.69
678.904	379.49
679.349	358.09
679.794	364.09
680.24	361.99
680.685	356.09
681.131	364.39
681.576	365.79
682.021	364.89
682.466	355.89
682.912	360.09
683.357	367.99
683.802	398.79
684.247	435.09
684.692	472.69
685.137	514.69
685.583	556.49
686.028	582.39
686.473	528.99
686.918	465.59
687.363	429.49
687.807	403.29
688.252	389.99
688.697	356.29
689.142	352.09
689.587	341.99
690.032	338.79
690.477	360.49
690.921	365.39
691.366	408.89
691.811	423.79
692.255	452.49
692.7	480.49
693.145	530.79
693.589	751.59
694.034	1217.99
694.478	1615.89
694.923	1797.59
695.367	2317.29
695.812	1234.69
696.256	522.69
696.701	382.09
697.145	359.59
697.59	341.29
698.034	340.19
698.478	334.79
698.922	338.39
699.367	327.79
699.811	345.49
700.255	368.09
700.699	396.49
701.143	452.19
701.588	494.79
702.032	529.29
702.476	530.19
702.92	509.99
703.364	519.99
703.808	689.99
704.252	1130.39
704.696	1541.89
705.14	1716.39
705.584	2192.69
706.027	1120.19
706.471	553.79
706.915	417.99
707.359	367.69
707.803	321.29
708.246	321.09
708.69	323.99
709.134	327.89
709.577	329.09
710.021	329.29
710.465	317.69
710.908	319.39
711.352	310.59
711.795	328.19
712.239	366.79
712.682	399.59
713.126	433.59
713.569	470.99
714.012	366.79
714.456	318.39
714.899	299.79
715.342	279.99
715.786	272.29
716.229	263.79
716.672	257.39
717.115	259.79
717.558	262.39
718.002	258.09
718.445	271.49
718.888	301.49
719.331	312.89
719.774	325.99
720.217	315.69
720.66	300.79
721.103	279.19
721.546	264.09
721.989	263.99
722.432	236.39
722.874	247.19
723.317	230.39
723.76	242.49
724.203	264.99
724.645	340.19
725.088	468.89
725.531	589.49
725.974	652.89
726.416	565.29
726.859	320.79
727.301	260.99
727.744	252.59
728.187	245.99
728.629	248.79
729.071	250.99
729.514	264.19
729.956	285.69
730.399	294.79
730.841	297.19
731.283	287.09
731.726	276.79
732.168	275.69
732.61	279.29
733.053	307.09
733.495	337.89
733.937	369.89
734.379	422.99
734.821	464.89
735.263	582.99
735.705	911.59
736.148	1748.79
736.59	2748.69
737.032	3148.99
737.474	2566.79
737.916	862.09
738.357	456.49
738.799	348.89
739.241	315.19
739.683	303.29
740.125	312.49
740.567	315.49
741.008	325.99
741.45	330.69
741.892	336.89
742.334	376.89
742.775	380.79
743.217	361.09
743.658	288.99
744.1	266.69
744.542	281.19
744.983	327.39
745.425	357.09
745.866	359.19
746.307	291.69
746.749	292.69
747.19	348.49
747.632	503.69
748.073	984.09
748.514	2040.69
748.956	3013.79
749.397	3792.59
749.838	3120.29
750.279	3043.79
750.72	1580.69
751.162	580.69
751.603	340.89
752.044	262.09
752.485	231.49
752.926	219.29
753.367	209.39
753.808	199.19
754.249	197.99
754.69	195.89
755.131	190.79
755.572	187.49
756.013	184.29
756.453	191.29
756.894	196.29
757.335	198.49
757.776	203.59
758.216	206.99
758.657	203.59
759.098	210.39
759.538	242.09
759.979	293.89
760.42	404.09
760.86	785.29
761.301	2055.19
761.741	4799.89
762.182	6606.49
762.622	4663.99
763.063	1383.29
763.503	570.39
763.943	345.19
764.384	283.09
764.824	269.69
765.264	265.29
765.705	231.09
766.145	195.89
766.585	188.79
767.025	180.69
767.465	177.89
767.906	185.49
768.346	221.09
768.786	224.29
769.226	231.59
769.666	339.69
770.106	691.49
770.546	1714.39
770.986	2737.89
771.426	2415.49
771.866	835.69
772.306	340.89
772.745	222.09
773.185	176.59
773.625	167.09
774.065	164.29
774.505	177.09
774.944	229.79
775.384	411.09
775.824	659.49
776.263	625.19
776.703	302.79
777.142	170.59
777.582	137.29
778.021	134.69
778.461	128.49
778.9	126.49
779.34	132.49
779.779	124.69
780.219	115.79
780.658	113.59
781.097	113.19
781.537	123.29
781.976	114.19
782.415	106.99
782.855	106.59
783.294	109.99
783.733	111.99
784.172	118.29
784.611	109.09
785.05	114.59
785.489	108.09
785.928	122.69
786.367	124.69
786.806	125.09
787.245	136.79
787.684	143.99
788.123	155.99
788.562	147.49
789.001	129.69
789.44	133.99
789.879	118.79
790.317	124.89
790.756	141.89
791.195	137.49
791.634	150.69
792.072	210.09
792.511	402.49
792.95	1102.39
793.388	2236.39
793.827	1960.29
794.265	701.49
794.704	294.09
795.142	197.09
795.581	157.79
796.019	148.29
796.458	138.29
796.896	127.69
797.334	136.69
797.773	167.89
798.211	238.39
798.649	495.09
799.087	1100.39
799.526	1705.39
799.964	2154.89
800.402	2063.89
800.84	796.69
801.278	334.29
801.716	191.99
802.154	156.79
802.592	161.39
803.03	147.59
803.468	140.99
803.906	153.79
804.344	158.69
804.782	144.19
805.22	151.09
805.658	136.49
806.096	153.99
806.533	170.49
806.971	190.39
807.409	233.99
807.847	341.99
808.284	738.49
808.722	2042.39
809.16	3459.19
809.597	3414.69
810.035	5795.89
810.472	5916.79
810.91	2191.09
811.347	850.59
811.785	427.39
812.222	272.99
812.66	207.49
813.097	168.89
813.535	150.79
813.972	135.09
814.409	126.19
814.846	114.09
815.284	116.99
815.721	103.29
816.158	112.69
816.595	119.49
817.032	165.79
817.47	183.39
817.907	127.49
818.344	111.29
818.781	112.19
819.218	106.29
819.655	138.59
820.092	199.59
820.529	217.29
820.966	173.19
821.403	131.09
821.839	106.09
822.276	104.59
822.713	129.59
823.15	143.69
823.587	123.79
824.023	165.19
824.46	335.89
824.897	968.19
825.333	1392.89
825.77	603.69
826.206	246.69
826.643	147.19
827.08	110.09
827.516	89.19
827.953	82.09
828.389	83.99
828.825	75.59
829.262	74.29
829.698	68.59
830.135	70.39
830.571	61.79
831.007	63.99
831.443	61.99
831.88	60.69
832.316	64.59
832.752	68.69
833.188	65.39
833.624	65.69
834.06	72.99
834.497	80.19
834.933	73.09
835.369	82.29
835.805	71.69
836.241	76.89
836.677	90.19
837.112	95.79
837.548	113.79
837.984	142.59
838.42	213.79
838.856	556.79
839.292	1648.09
839.727	2379.49
840.163	1129.29
840.599	1020.59
841.034	2167.79
841.47	2179.59
841.906	816.19
842.341	356.49
842.777	213.29
843.212	223.49
843.648	203.09
844.083	112.99
844.519	86.79
844.954	69.49
845.39	59.79
845.825	57.79
846.261	58.09
846.696	56.69
847.131	60.79
847.566	57.99
848.002	57.09
848.437	58.09
848.872	68.79
849.307	70.19
849.742	96.89
850.177	202.39
850.613	600.29
851.048	901.89
851.483	395.59
851.918	165.69
852.353	93.09
852.788	57.69
853.223	57.79
853.657	58.49
854.092	52.39
854.527	48.29
854.962	45.29
855.397	45.39
855.832	53.19
856.266	50.89
856.701	42.69
857.136	43.79
857.57	45.79
858.005	55.19
858.44	57.49
858.874	51.99
859.309	50.09
859.743	42.79
860.178	50.79
860.612	44.19
861.047	58.69
861.481	71.89
861.915	73.89
862.35	54.79
862.784	38.29
863.218	39.79
863.653	36.29
864.087	51.69
864.521	47.99
864.955	77.29
865.39	169.69
865.824	187.09
866.258	120.99
866.692	174.39
867.126	191.09
867.56	114.59
867.994	57.89
868.428	45.39
868.862	52.69
869.296	57.79
869.73	58.89
870.164	59.69
870.598	53.59
871.031	38.09
871.465	38.69
871.899	36.29
872.333	30.99
872.766	26.89
873.2	27.29
873.634	31.79
874.067	25.79
874.501	27.79
874.935	38.39
875.368	31.49
875.802	32.99
876.235	23.89
876.669	26.29
877.102	17.99
877.535	26.69
877.969	26.89
878.402	24.99
878.836	16.79
879.269	30.79
879.702	27.19
880.135	20.09
880.569	21.79
881.002	25.99
881.435	20.49
881.868	17.19
882.301	28.69
882.734	20.09
883.167	29.09
883.601	22.59
884.034	28.39
884.467	18.19
884.899	27.09
885.332	15.99
885.765	19.99
886.198	16.39
886.631	21.69
887.064	25.99
887.497	23.89
887.929	24.29
888.362	21.99
888.795	16.59
889.228	19.59
889.66	22.19
890.093	19.99
890.526	17.49
890.958	16.49
891.391	19.39
891.823	20.49
892.256	18.39
892.688	7.69
893.121	14.99
893.553	18.39
893.985	28.49
894.418	20.89
894.85	6.29
895.282	20.39
895.715	25.69
896.147	16.89
896.579	18.89
897.011	11.59
897.444	19.69
897.876	15.99
898.308	15.19
898.74	14.39
899.172	19.59
899.604	29.59
900.036	23.79
900.468	20.99
900.9	21.09
901.332	23.99
901.764	21.89
902.196	19.79
902.628	18.69
903.06	20.39
903.491	32.49
903.923	27.29
904.355	19.89
904.787	28.69
905.218	27.79
905.65	26.89
906.082	16.19
906.513	17.99
906.945	18.69
907.376	15.39
907.808	19.29
908.239	27.99
908.671	20.79
909.102	24.39
909.534	26.69
909.965	58.09
910.397	103.89
910.828	340.29
911.259	491.39
911.691	222.29
912.122	111.09
912.553	54.59
912.984	34.39
913.415	28.19
913.847	25.29
914.278	12.59
914.709	19.19
915.14	20.19
915.571	20.29
916.002	15.49
916.433	25.29
916.864	16.59
917.295	11.09
917.726	24.29
918.157	16.59
918.587	33.99
919.018	26.19
919.449	20.39
919.88	29.59
920.311	37.99
920.741	49.09
921.172	178.09
921.603	155.79
922.033	74.89
922.464	48.09
922.895	24.59
923.325	26.69
923.756	15.79
924.186	14.59
924.617	21.49
925.047	23.39
925.478	24.89
925.908	27.89
926.338	11.29
926.769	11.39
927.199	17.99
927.629	10.69
928.06	19.29
928.49	13.89
928.92	13.19
929.35	13.79
929.78	10.99
930.21	11.59
930.641	7.79
931.071	3.39
931.501	6.29
931.931	9.59
932.361	8.59
932.791	3.39
933.221	10.19
933.651	5.79
934.08	18.69
934.51	30.09
934.94	16.59
935.37	15.39
935.8	12.29
936.229	14.69
936.659	14.09
937.089	6.29
937.519	17.09
937.948	24.69
938.378	15.19
938.807	8.29
939.237	0.19
939.666	6.49
940.096	-4.41
940.525	2.29
940.955	5.39
941.384	4.19
941.814	-8.81
942.243	1.09
942.672	3.79
943.102	-3.81
943.531	-0.81
943.96	3.59
944.39	5.19
944.819	11.19
945.248	10.99
945.677	2.19
946.106	7.79
946.535	2.39
946.964	3.39
947.393	7.29
947.822	5.79
948.251	-1.71
948.68	2.69
949.109	5.29
949.538	4.39
949.967	-1.21
950.396	3.99
950.825	0.79
951.254	2.39
951.682	-8.51
952.111	9.29
952.54	10.29
952.969	-1.81
953.397	-3.81
953.826	1.19
954.254	4.79
954.683	3.89
955.112	-0.41
955.54	3.09
955.969	-1.71
956.397	4.99
956.826	4.09
957.254	5.39
957.682	1.99
958.111	6.89
958.539	-2.11
958.967	5.39
959.396	1.29
959.824	0.89
960.252	6.59
960.68	5.19
961.109	0.59
961.537	-2.11
961.965	1.99
962.393	-1.11
962.821	-2.51
963.249	0.89
963.677	1.59
964.105	6.99
964.533	52.59
964.961	47.49
965.389	26.99
965.817	11.39
966.245	3.39
966.672	2.99
967.1	-7.41
967.528	-0.21
967.956	-5.71
968.383	1.39
968.811	-5.01
969.239	-1.81
969.666	-3.61
970.094	3.99
970.522	2.59
970.949	3.19
971.377	-3.21
971.804	-3.01
972.232	-1.11
972.659	-4.61
973.087	-1.31
973.514	0.19
973.941	-5.61
974.369	7.39
974.796	5.89
975.223	2.59
975.651	-2.01
976.078	-1.41
976.505	-2.11
976.932	4.99
977.359	14.99
977.786	16.09
978.214	1.39
978.641	0.69
979.068	-3.61
979.495	-5.01
979.922	-0.81
980.349	1.79
980.776	4.39
981.202	-2.81
981.629	2.99
982.056	6.99
982.483	-5.21
982.91	6.29
983.337	-3.11
983.763	7.19
984.19	0.29
984.617	-3.11
985.043	-5.91
985.47	-4.61
985.897	-2.91
986.323	-1.51
986.75	2.29
987.176	-1.11
987.603	0.29
988.029	1.39
988.456	-7.11
988.882	5.39
989.308	-2.21
989.735	-5.41
990.161	-1.21
990.587	-4.81
991.014	-2.31
991.44	5.59
991.866	-4.41
992.292	-0.91
992.719	-1.81
993.145	0.19
993.571	-3.51
993.997	-3.01
994.423	3.09
994.849	-4.71
995.275	1.19
995.701	1.49
996.127	-2.51
996.553	4.09
996.979	-3.91
997.405	-1.41
997.83	1.99
998.256	-5.31
998.682	-2.11
999.108	-9.51
999.534	-3.31
999.959	-0.21
1000.385	-2.61
1000.811	1.69
1001.236	-8.41
1001.662	-7.61
1002.087	-5.21
1002.513	7.99
1002.938	2.79
1003.364	-4.61
1003.789	-4.51
1004.215	6.49
1004.64	-0.21
1005.066	4.99
1005.491	4.99
1005.916	6.09
1006.342	-1.31
1006.767	-2.51
1007.192	7.09
1007.617	-8.31
1008.042	-1.01
1008.468	-6.11
1008.893	1.29
1009.318	1.69
1009.743	1.19
1010.168	4.09
1010.593	6.79
1011.018	-3.81
1011.443	-2.21
1011.868	1.59
1012.293	-2.41
1012.718	-5.11
1013.143	0.99
1013.567	5.99
1013.992	-3.61
1014.417	-10.91
1014.842	2.09
1015.267	-1.91
1015.691	1.89
1016.116	7.69
1016.541	2.09
1016.965	4.39
1017.39	-0.41
1017.814	2.09
1018.239	-1.61
1018.663	-6.91
1019.088	-6.11
1019.512	6.29
1019.937	0.19
1020.361	-2.71
1020.785	-12.71
1021.21	-2.81
1021.634	-6.71
1022.058	-2.31
1022.483	2.59
1022.907	-0.51
1023.331	4.09
1023.755	6.19
1024.179	-2.71
1024.604	-7.11
1025.028	-7.41
1025.452	2.89
1025.876	1.79
1026.3	3.99
1026.724	-14.01
1027.148	-1.21
1027.572	-4.31
1027.996	-5.81
1028.42	0.49
1028.843	-7.61
1029.267	-5.21
1029.691	-0.61
1030.115	-5.51
1030.539	-6.91
1030.962	-3.81
1031.386	-8.81
1031.81	-1.91
1032.233	0.99
1032.657	-3.01
1033.08	-2.01
1033.504	-1.61
1033.927	-1.31
1034.351	-0.21
1034.774	-8.51
1035.198	-0.91
1035.621	-1.31
1036.045	-3.71
1036.468	2.79
1036.891	-9.91
1037.315	-7.01
1037.738	-11.21
1038.161	3.19
1038.584	-5.61
1039.008	0.29
1039.431	-0.91
1039.854	-2.01
1040.277	-6.41
1040.7	-13.01
1041.123	-0.61
1041.546	-0.71
1041.969	-6.31
1042.392	-5.01
1042.815	-3.21
1043.238	0.89
1043.661	5.69
1044.084	-3.31
1044.507	-3.31
1044.93	-6.31
1045.352	-6.31
1045.775	2.29
1046.198	1.89
1046.621	-2.31
1047.043	6.69
1047.466	6.59
1047.889	-4.11
1048.311	-5.51
1048.734	-1.01
1049.156	3.39
1049.579	-0.91
1050.001	-1.31
1050.424	4.09
1050.846	-2.51
1051.269	-1.11
1051.691	-7.61
1052.113	-3.11
1052.536	4.69
1052.958	1.29
1053.38	-7.21
1053.802	-11.01
1054.225	-0.11
1054.647	-9.21
1055.069	-8.01
1055.491	3.29
1055.913	-9.31
1056.335	3.29
1056.757	-8.21
1057.179	-2.41
1057.601	-1.21
1058.023	-2.51
1058.445	-2.51
1058.867	-4.81
1059.289	1.79
1059.711	-6.81
1060.133	2.59
1060.555	-5.01
1060.976	-5.31
1061.398	-0.11
1061.82	-6.21
1062.241	-1.01
1062.663	-2.01
1063.085	-1.61
1063.506	0.99
1063.928	-9.01
1064.35	-0.01
1064.771	-11.01
1065.193	0.19
1065.614	-7.61
1066.035	-5.41
1066.457	-0.51
1066.878	5.79
1067.3	-2.71
1067.721	-3.11
1068.142	-2.51
1068.564	-3.11
1068.985	-3.81
1069.406	-8.21
1069.827	-5.61
1070.248	0.39
1070.67	-1.31
1071.091	-0.91
1071.512	-1.81
1071.933	-1.61
1072.354	-2.51
1072.775	-4.51
1073.196	-3.41
1073.617	-6.61
1074.038	-8.11
1074.459	-0.41
1074.88	-4.71
1075.3	2.19
1075.721	-5.91
1076.142	4.69
1076.563	0.19
1076.983	-10.21
1077.404	-3.01
1077.825	-8.01
1078.246	-8.31
1078.666	-8.71
1079.087	-6.71
1079.507	-4.41
1079.928	1.59
1080.348	-2.71
1080.769	-4.61
1081.189	-0.11
1081.61	-0.41
1082.03	-1.81
1082.451	-8.01
1082.871	-5.41
1083.291	-5.61
1083.711	-11.31
1084.132	-5.71
1084.552	-1.51
1084.972	0.09
1085.392	-6.01
1085.813	-5.51
1086.233	-4.91
1086.653	-7.01
1087.073	2.29
1087.493	-4.41
1087.913	-7.51
1088.333	-1.91
1088.753	-2.51
1089.173	1.69
1089.593	-1.81
1090.013	5.29
1090.433	-0.71
1090.852	-5.71
1091.272	-2.01
1091.692	-1.41
1092.112	-3.91
1092.531	-9.91
1092.951	-15.61
1093.371	-4.51
1093.79	1.79
1094.21	-3.01
1094.63	-7.21
1095.049	-7.61
1095.469	-4.91
1095.888	-6.91
1096.308	-2.21
1096.727	3.89
1097.146	-3.31
1097.566	0.09
1097.985	-1.81
1098.405	-0.51
1098.824	-8.01
1099.243	-10.81
1099.662	-11.31
1100.082	-4.41
1100.501	0.59
1100.92	-3.41
1101.339	-0.31
1101.758	-1.31
