Data from 20171114-ORNL-Ar_H_NY_Subt18_08-07-01-953.txt Node
Date: Tue Nov 14 08:07:01 EST 2017
User: Ender
Spectrometer: HR+D1039
Trigger mode: 0
Integration Time (sec): 2.730000E-2
Scans to average: 10
Electric dark correction enabled: true
Nonlinearity correction enabled: false
Boxcar width: 0
XAxis mode: Wavelengths
Number of Pixels in Spectrum: 2048
>>>>>Begin Spectral Data<<<<<
187.836	-3.98
188.309	-3.98
188.782	-3.98
189.255	2.92
189.728	-4.38
190.201	3.02
190.674	0.02
191.147	1.32
191.619	-5.08
192.092	2.92
192.565	8.92
193.038	-3.68
193.511	-2.48
193.984	-4.08
194.456	-6.08
194.929	-0.78
195.402	3.82
195.874	7.62
196.347	-1.28
196.82	-1.18
197.292	6.42
197.765	-6.38
198.237	-4.48
198.71	1.12
199.182	0.32
199.655	2.92
200.127	5.92
200.6	-2.58
201.072	-1.68
201.544	-3.28
202.017	2.32
202.489	3.02
202.961	-1.48
203.433	-0.48
203.906	-2.18
204.378	-2.48
204.85	-6.38
205.322	-10.08
205.794	-6.38
206.266	0.72
206.739	-8.38
207.211	-0.38
207.683	-6.98
208.155	1.02
208.627	-4.78
209.099	-5.38
209.57	-9.98
210.042	-7.78
210.514	0.82
210.986	-4.08
211.458	-4.78
211.93	-1.08
212.402	6.42
212.873	-2.78
213.345	-10.38
213.817	-10.08
214.288	-10.08
214.76	-11.68
215.232	-3.08
215.703	-5.98
216.175	-1.18
216.646	-11.98
217.118	-6.18
217.589	-4.38
218.061	-2.98
218.532	-7.08
219.004	2.02
219.475	-5.78
219.946	-6.68
220.418	-6.88
220.889	1.62
221.36	2.62
221.832	-1.18
222.303	-6.38
222.774	-6.18
223.245	-8.08
223.717	-8.28
224.188	-5.78
224.659	-11.38
225.13	-9.18
225.601	-2.08
226.072	-1.98
226.543	-3.18
227.014	0.72
227.485	-3.38
227.956	-5.08
228.427	-4.68
228.898	-3.88
229.369	1.52
229.839	-10.88
230.31	-8.08
230.781	-3.68
231.252	-5.48
231.722	-5.38
232.193	-2.78
232.664	-1.88
233.135	-1.48
233.605	-0.68
234.076	-12.28
234.546	1.82
235.017	-1.18
235.487	2.02
235.958	-5.68
236.428	-5.98
236.899	-0.18
237.369	-3.88
237.84	-13.68
238.31	5.22
238.78	-5.98
239.251	-4.88
239.721	-6.68
240.191	-1.28
240.662	-8.58
241.132	0.62
241.602	-9.28
242.072	-4.28
242.542	6.52
243.013	-0.98
243.483	0.02
243.953	-2.68
244.423	-7.78
244.893	-7.88
245.363	-1.48
245.833	10.12
246.303	-2.68
246.773	4.72
247.243	6.82
247.712	-3.18
248.182	-0.78
248.652	5.62
249.122	-10.28
249.592	0.32
250.061	3.82
250.531	10.32
251.001	-4.28
251.471	3.62
251.94	5.42
252.41	-0.78
252.879	-0.58
253.349	5.32
253.818	5.62
254.288	-3.78
254.757	3.22
255.227	-1.48
255.696	-1.28
256.166	-1.38
256.635	4.02
257.105	4.02
257.574	-0.48
258.043	1.22
258.513	-7.58
258.982	9.92
259.451	-1.68
259.92	-2.18
260.389	-1.78
260.859	10.42
261.328	3.42
261.797	3.32
262.266	-3.38
262.735	5.42
263.204	3.02
263.673	0.12
264.142	7.92
264.611	-4.98
265.08	-9.98
265.549	-5.78
266.018	3.72
266.487	-2.38
266.955	-6.08
267.424	-1.38
267.893	6.32
268.362	-1.28
268.83	-1.58
269.299	6.22
269.768	1.32
270.236	0.12
270.705	-6.88
271.174	5.52
271.642	6.02
272.111	8.92
272.579	5.92
273.048	0.32
273.516	4.52
273.985	4.32
274.453	5.92
274.922	11.72
275.39	2.52
275.858	0.22
276.327	9.22
276.795	10.42
277.263	-4.48
277.731	16.62
278.2	8.72
278.668	5.82
279.136	8.22
279.604	1.92
280.072	12.32
280.54	5.82
281.008	6.82
281.477	10.22
281.945	7.32
282.413	3.02
282.881	6.62
283.348	0.92
283.816	9.42
284.284	11.02
284.752	18.02
285.22	8.12
285.688	14.92
286.156	10.42
286.623	13.42
287.091	9.62
287.559	12.12
288.026	11.12
288.494	12.52
288.962	5.72
289.429	5.82
289.897	17.02
290.364	7.22
290.832	12.62
291.3	12.22
291.767	13.42
292.234	11.32
292.702	15.22
293.169	11.52
293.637	20.92
294.104	13.72
294.571	8.32
295.039	7.12
295.506	7.12
295.973	11.62
296.44	11.52
296.908	14.62
297.375	14.02
297.842	14.32
298.309	12.82
298.776	15.62
299.243	14.92
299.71	11.32
300.177	13.52
300.644	10.22
301.111	14.12
301.578	15.62
302.045	9.22
302.512	19.62
302.979	21.32
303.446	13.72
303.913	6.52
304.379	16.32
304.846	24.42
305.313	26.02
305.78	15.62
306.246	20.62
306.713	22.22
307.18	23.62
307.646	17.52
308.113	18.32
308.579	17.12
309.046	17.12
309.512	18.92
309.979	9.92
310.445	27.32
310.912	21.12
311.378	28.22
311.845	19.32
312.311	27.42
312.777	26.72
313.244	19.82
313.71	36.32
314.176	23.92
314.642	26.02
315.109	25.32
315.575	29.02
316.041	32.72
316.507	23.82
316.973	27.72
317.439	29.92
317.905	27.62
318.371	31.42
318.837	28.32
319.303	27.82
319.769	22.92
320.235	29.32
320.701	30.82
321.167	29.62
321.633	23.52
322.099	28.62
322.564	32.32
323.03	28.82
323.496	24.82
323.962	24.92
324.427	29.22
324.893	38.42
325.359	27.62
325.824	34.52
326.29	38.02
326.755	35.62
327.221	34.72
327.686	34.22
328.152	39.62
328.617	33.82
329.083	38.72
329.548	39.52
330.014	40.52
330.479	30.02
330.944	36.82
331.41	37.52
331.875	42.82
332.34	39.72
332.805	35.92
333.271	37.82
333.736	29.22
334.201	45.12
334.666	36.52
335.131	45.62
335.596	46.62
336.061	36.42
336.526	35.92
336.991	43.82
337.456	45.62
337.921	40.32
338.386	35.82
338.851	38.92
339.316	44.62
339.781	42.72
340.246	47.62
340.711	48.02
341.175	49.32
341.64	40.42
342.105	47.62
342.569	52.12
343.034	50.92
343.499	46.22
343.963	44.72
344.428	55.92
344.893	60.62
345.357	52.82
345.822	54.32
346.286	55.52
346.751	62.02
347.215	62.82
347.679	61.62
348.144	84.72
348.608	74.62
349.073	64.72
349.537	65.62
350.001	70.92
350.465	77.82
350.93	73.12
351.394	70.32
351.858	70.22
352.322	78.82
352.786	69.92
353.25	82.52
353.715	92.22
354.179	82.32
354.643	94.32
355.107	99.12
355.571	90.92
356.035	94.22
356.498	108.32
356.962	94.72
357.426	103.82
357.89	95.02
358.354	78.62
358.818	78.22
359.281	72.92
359.745	67.42
360.209	68.82
360.673	72.92
361.136	75.12
361.6	79.22
362.064	72.12
362.527	73.92
362.991	85.02
363.454	76.82
363.918	71.12
364.381	71.62
364.845	80.12
365.308	82.72
365.772	81.32
366.235	78.62
366.698	74.62
367.162	78.92
367.625	75.62
368.088	79.82
368.552	79.32
369.015	80.92
369.478	88.32
369.941	91.62
370.404	88.02
370.867	94.82
371.331	92.32
371.794	90.52
372.257	84.22
372.72	99.62
373.183	97.12
373.646	91.02
374.109	93.12
374.572	96.02
375.035	96.52
375.497	92.62
375.96	95.52
376.423	99.92
376.886	108.82
377.349	97.52
377.811	92.72
378.274	105.62
378.737	103.02
379.199	108.92
379.662	97.82
380.125	103.82
380.587	96.82
381.05	98.32
381.512	105.32
381.975	111.62
382.437	110.92
382.9	105.52
383.362	121.42
383.825	122.22
384.287	116.92
384.75	112.52
385.212	114.92
385.674	122.12
386.136	121.62
386.599	120.62
387.061	115.82
387.523	116.02
387.985	122.02
388.447	126.32
388.91	122.12
389.372	125.02
389.834	126.92
390.296	124.32
390.758	123.42
391.22	125.42
391.682	137.12
392.144	149.52
392.606	138.82
393.068	134.42
393.529	146.02
393.991	128.72
394.453	130.52
394.915	125.32
395.377	132.42
395.838	135.82
396.3	130.62
396.762	137.52
397.224	138.42
397.685	134.22
398.147	129.72
398.608	131.42
399.07	131.92
399.531	134.62
399.993	143.02
400.454	140.92
400.916	142.72
401.377	141.02
401.839	150.22
402.3	148.02
402.762	167.82
403.223	172.02
403.684	168.32
404.145	160.72
404.607	157.12
405.068	164.12
405.529	162.52
405.99	181.42
406.451	177.62
406.913	174.62
407.374	161.82
407.835	163.12
408.296	166.12
408.757	169.82
409.218	180.22
409.679	170.72
410.14	170.82
410.601	169.32
411.062	179.22
411.522	173.02
411.983	167.42
412.444	168.32
412.905	180.62
413.366	187.52
413.826	196.32
414.287	215.12
414.748	265.12
415.208	253.02
415.669	218.32
416.13	207.42
416.59	199.62
417.051	219.82
417.511	223.82
417.972	246.32
418.432	252.22
418.893	298.52
419.353	259.52
419.814	209.92
420.274	189.72
420.734	182.62
421.195	193.42
421.655	190.22
422.115	192.42
422.576	194.32
423.036	206.02
423.496	212.82
423.956	218.22
424.416	234.42
424.876	270.52
425.336	263.12
425.797	261.92
426.257	255.62
426.717	245.22
427.177	236.52
427.637	224.52
428.097	232.32
428.556	248.92
429.016	269.52
429.476	260.12
429.936	272.12
430.396	269.62
430.856	294.32
431.315	303.42
431.775	339.52
432.235	376.02
432.694	338.62
433.154	349.12
433.614	379.42
434.073	325.32
434.533	283.92
434.993	269.32
435.452	269.32
435.912	285.72
436.371	284.42
436.83	279.52
437.29	260.62
437.749	251.72
438.209	243.32
438.668	272.32
439.127	285.72
439.587	267.22
440.046	247.92
440.505	267.42
440.964	274.52
441.424	320.92
441.883	309.02
442.342	272.22
442.801	233.32
443.26	232.92
443.719	230.52
444.178	223.22
444.637	222.12
445.096	230.62
445.555	230.42
446.014	222.72
446.473	233.62
446.932	245.52
447.391	231.52
447.849	236.62
448.308	220.92
448.767	234.32
449.226	248.72
449.685	249.52
450.143	261.12
450.602	251.02
451.061	233.42
451.519	245.32
451.978	243.32
452.436	245.72
452.895	247.32
453.353	259.42
453.812	248.12
454.27	245.12
454.729	250.52
455.187	250.22
455.646	253.32
456.104	261.82
456.562	270.82
457.021	276.82
457.479	267.12
457.937	286.92
458.395	284.82
458.854	261.82
459.312	273.92
459.77	285.52
460.228	265.12
460.686	260.72
461.144	260.52
461.602	264.82
462.06	257.62
462.518	270.12
462.976	272.42
463.434	264.62
463.892	273.42
464.35	291.52
464.808	294.82
465.266	273.02
465.724	284.82
466.181	288.72
466.639	280.02
467.097	305.32
467.555	316.02
468.012	320.32
468.47	325.12
468.928	338.72
469.385	359.62
469.843	375.12
470.3	361.12
470.758	378.22
471.215	396.72
471.673	417.32
472.13	421.92
472.588	434.32
473.045	397.32
473.503	397.52
473.96	411.32
474.417	413.62
474.875	446.22
475.332	489.92
475.789	479.82
476.246	494.32
476.704	500.32
477.161	526.52
477.618	532.22
478.075	568.02
478.532	623.12
478.989	694.92
479.446	811.32
479.903	765.12
480.36	811.82
480.817	853.22
481.274	949.02
481.731	1035.02
482.188	1115.42
482.645	1231.12
483.102	1323.02
483.558	1436.52
484.015	1494.32
484.472	1463.02
484.929	1421.02
485.385	1390.02
485.842	1338.82
486.299	1304.42
486.755	1269.32
487.212	1068.32
487.668	925.22
488.125	838.02
488.582	792.22
489.038	755.22
489.494	732.62
489.951	708.42
490.407	687.52
490.864	668.32
491.32	664.52
491.776	664.82
492.233	663.92
492.689	635.22
493.145	627.62
493.602	632.42
494.058	639.22
494.514	636.62
494.97	655.72
495.426	673.22
495.882	644.82
496.338	648.22
496.794	650.32
497.251	643.22
497.707	662.72
498.163	660.42
498.618	667.12
499.074	665.82
499.53	695.22
499.986	693.92
500.442	667.12
500.898	648.02
501.354	639.12
501.809	645.12
502.265	646.92
502.721	657.02
503.177	662.02
503.632	669.12
504.088	676.82
504.543	691.02
504.999	721.42
505.455	678.92
505.91	670.02
506.366	664.82
506.821	666.72
507.277	666.12
507.732	675.72
508.187	663.42
508.643	671.02
509.098	677.02
509.553	696.62
510.009	699.12
510.464	700.52
510.919	723.62
511.375	729.82
511.83	758.12
512.285	764.82
512.74	787.92
513.195	817.72
513.65	808.92
514.105	800.42
514.56	799.62
515.015	828.72
515.47	837.02
515.925	824.92
516.38	818.52
516.835	832.72
517.29	821.12
517.745	809.32
518.2	793.52
518.655	783.22
519.109	787.72
519.564	788.42
520.019	771.62
520.474	763.32
520.928	754.52
521.383	752.02
521.838	746.82
522.292	742.32
522.747	739.22
523.201	746.32
523.656	737.62
524.11	724.52
524.565	723.52
525.019	718.42
525.474	721.42
525.928	731.02
526.382	736.22
526.837	732.42
527.291	745.12
527.745	733.32
528.2	737.42
528.654	725.32
529.108	718.72
529.562	715.82
530.016	727.62
530.47	725.62
530.925	721.82
531.379	729.72
531.833	737.02
532.287	735.12
532.741	737.92
533.195	735.52
533.649	744.22
534.103	764.32
534.556	747.32
535.01	746.22
535.464	740.52
535.918	745.52
536.372	752.12
536.826	763.32
537.279	740.92
537.733	747.12
538.187	740.62
538.64	752.62
539.094	751.12
539.548	768.72
540.001	768.62
540.455	767.32
540.908	767.42
541.362	779.22
541.815	789.42
542.269	795.82
542.722	795.12
543.175	810.62
543.629	801.22
544.082	823.52
544.536	834.12
544.989	832.62
545.442	830.52
545.895	837.32
546.349	840.92
546.802	835.82
547.255	844.92
547.708	857.82
548.161	860.02
548.614	871.02
549.067	873.62
549.52	870.62
549.973	849.52
550.426	847.22
550.879	842.72
551.332	839.92
551.785	849.72
552.238	851.62
552.691	868.22
553.144	875.72
553.596	898.42
554.049	910.12
554.502	945.22
554.955	966.22
555.407	957.32
555.86	959.82
556.313	934.02
556.765	936.12
557.218	932.82
557.67	925.82
558.123	928.32
558.576	922.12
559.028	924.22
559.48	931.12
559.933	921.72
560.385	891.92
560.838	858.22
561.29	827.52
561.742	832.52
562.195	809.92
562.647	809.02
563.099	821.12
563.551	811.62
564.004	820.32
564.456	808.02
564.908	799.32
565.36	771.12
565.812	770.52
566.264	756.52
566.716	760.62
567.168	735.32
567.62	752.42
568.072	730.62
568.524	737.62
568.976	727.32
569.428	717.62
569.88	717.12
570.332	717.92
570.784	720.92
571.235	722.92
571.687	727.42
572.139	748.62
572.59	757.42
573.042	751.72
573.494	749.62
573.945	745.12
574.397	719.92
574.849	722.22
575.3	728.72
575.752	714.22
576.203	714.02
576.655	717.82
577.106	711.02
577.557	701.82
578.009	699.32
578.46	703.02
578.912	699.62
579.363	698.12
579.814	701.82
580.265	699.02
580.717	703.52
581.168	712.22
581.619	715.52
582.07	707.92
582.521	704.92
582.972	703.52
583.423	702.52
583.875	717.62
584.326	715.82
584.777	723.42
585.227	754.72
585.678	763.12
586.129	784.42
586.58	808.92
587.031	825.22
587.482	858.82
587.933	896.12
588.384	862.22
588.834	833.42
589.285	811.82
589.736	810.32
590.186	800.82
590.637	797.62
591.088	787.42
591.538	777.62
591.989	772.32
592.439	762.92
592.89	754.82
593.34	735.32
593.791	731.22
594.241	737.42
594.692	734.72
595.142	728.12
595.593	722.62
596.043	725.02
596.493	739.72
596.943	742.62
597.394	763.22
597.844	754.22
598.294	770.42
598.744	795.52
599.195	821.82
599.645	856.72
600.095	903.22
600.545	956.02
600.995	1009.32
601.445	1065.12
601.895	1134.82
602.345	1185.62
602.795	1165.72
603.245	1130.42
603.695	1070.12
604.145	1004.82
604.594	949.82
605.044	907.72
605.494	840.12
605.944	803.02
606.393	782.12
606.843	756.02
607.293	764.92
607.743	758.72
608.192	780.82
608.642	797.02
609.091	795.72
609.541	798.22
609.99	787.62
610.44	781.82
610.889	750.52
611.339	725.42
611.788	709.22
612.238	729.22
612.687	738.62
613.136	729.22
613.586	733.22
614.035	728.42
614.484	749.02
614.933	741.12
615.383	737.02
615.832	725.22
616.281	734.92
616.73	687.72
617.179	683.12
617.628	664.82
618.077	650.52
618.526	643.62
618.975	644.82
619.424	637.52
619.873	633.32
620.322	645.62
620.771	630.72
621.22	632.72
621.669	618.02
622.118	603.02
622.567	597.82
623.015	590.02
623.464	593.72
623.913	582.62
624.361	568.52
624.81	572.52
625.259	581.62
625.707	578.72
626.156	576.72
626.604	590.02
627.053	578.52
627.501	585.52
627.95	599.12
628.398	605.52
628.847	597.12
629.295	602.92
629.744	596.72
630.192	592.32
630.64	579.42
631.089	566.92
631.537	558.72
631.985	551.92
632.433	551.82
632.881	543.72
633.33	558.92
633.778	543.62
634.226	539.72
634.674	561.12
635.122	562.02
635.57	570.02
636.018	578.52
636.466	576.22
636.914	577.02
637.362	593.62
637.81	604.42
638.258	608.82
638.705	607.82
639.153	636.62
639.601	647.52
640.049	670.92
640.497	702.42
640.944	714.72
641.392	674.42
641.84	641.82
642.287	604.92
642.735	576.82
643.182	582.42
643.63	577.82
644.078	577.62
644.525	596.52
644.973	605.72
645.42	617.02
645.867	644.82
646.315	658.92
646.762	669.82
647.21	708.62
647.657	718.72
648.104	758.02
648.551	774.22
648.999	834.42
649.446	915.12
649.893	992.42
650.34	1137.02
650.787	1353.12
651.234	1660.72
651.682	2141.42
652.129	2885.92
652.576	4086.42
653.023	5981.52
653.47	8122.92
653.917	10064.52
654.363	11613.62
654.81	12800.52
655.257	12146.22
655.704	8045.12
656.151	4840.72
656.598	3186.62
657.044	2271.72
657.491	1769.82
657.938	1441.72
658.385	1209.72
658.831	1060.32
659.278	957.32
659.724	852.72
660.171	780.62
660.618	732.42
661.064	693.12
661.511	681.82
661.957	664.12
662.404	652.12
662.85	663.82
663.296	634.52
663.743	583.22
664.189	551.12
664.635	546.82
665.082	540.32
665.528	543.32
665.974	538.32
666.42	522.12
666.867	519.92
667.313	510.82
667.759	478.82
668.205	467.82
668.651	465.72
669.097	461.92
669.543	459.12
669.989	457.02
670.435	467.12
670.881	469.52
671.327	471.42
671.773	491.12
672.219	523.42
672.665	566.62
673.11	600.52
673.556	657.72
674.002	699.12
674.448	686.82
674.893	572.92
675.339	503.32
675.785	462.72
676.23	441.62
676.676	410.92
677.122	405.42
677.567	397.42
678.013	385.22
678.458	385.72
678.904	377.82
679.349	366.12
679.794	370.12
680.24	365.22
680.685	366.62
681.131	367.42
681.576	374.32
682.021	367.02
682.466	364.32
682.912	368.82
683.357	368.22
683.802	400.42
684.247	425.72
684.692	475.62
685.137	517.52
685.583	559.92
686.028	586.92
686.473	539.32
686.918	469.62
687.363	440.02
687.807	415.12
688.252	392.42
688.697	376.42
689.142	350.02
689.587	347.12
690.032	344.42
690.477	359.22
690.921	371.32
691.366	399.62
691.811	418.42
692.255	448.52
692.7	483.12
693.145	529.92
693.589	740.12
694.034	1199.92
694.478	1643.22
694.923	1826.82
695.367	2369.42
695.812	1256.92
696.256	520.72
696.701	387.82
697.145	356.82
697.59	345.52
698.034	333.82
698.478	341.62
698.922	328.62
699.367	343.62
699.811	342.62
700.255	372.22
700.699	396.32
701.143	440.62
701.588	501.92
702.032	537.32
702.476	540.12
702.92	517.22
703.364	525.02
703.808	669.42
704.252	1088.12
704.696	1516.82
705.14	1762.12
705.584	2229.72
706.027	1114.32
706.471	546.92
706.915	417.32
707.359	367.22
707.803	335.42
708.246	330.92
708.69	330.82
709.134	325.62
709.577	317.72
710.021	329.82
710.465	317.82
710.908	318.42
711.352	319.22
711.795	326.92
712.239	367.52
712.682	404.82
713.126	428.42
713.569	472.62
714.012	368.12
714.456	318.02
714.899	299.12
715.342	288.72
715.786	271.52
716.229	269.12
716.672	264.12
717.115	258.12
717.558	265.82
718.002	264.92
718.445	271.92
718.888	294.82
719.331	308.82
719.774	322.42
720.217	322.92
720.66	301.22
721.103	286.72
721.546	262.72
721.989	257.92
722.432	240.42
722.874	248.32
723.317	233.22
723.76	243.42
724.203	272.12
724.645	335.52
725.088	471.22
725.531	602.22
725.974	669.22
726.416	572.52
726.859	313.32
727.301	256.42
727.744	249.02
728.187	240.82
728.629	245.42
729.071	255.72
729.514	262.32
729.956	280.82
730.399	295.82
730.841	299.42
731.283	286.02
731.726	279.92
732.168	274.62
732.61	283.42
733.053	304.82
733.495	335.32
733.937	369.52
734.379	421.52
734.821	465.12
735.263	573.22
735.705	881.62
736.148	1686.32
736.59	2739.12
737.032	3213.92
737.474	2629.72
737.916	865.12
738.357	451.22
738.799	341.92
739.241	320.72
739.683	299.92
740.125	315.52
740.567	308.72
741.008	332.42
741.45	328.62
741.892	326.82
742.334	367.42
742.775	378.02
743.217	363.72
743.658	283.72
744.1	275.42
744.542	285.22
744.983	329.12
745.425	358.62
745.866	361.02
746.307	295.32
746.749	295.12
747.19	336.72
747.632	485.32
748.073	943.52
748.514	1971.32
748.956	3028.22
749.397	3793.92
749.838	3134.52
750.279	3117.02
750.72	1584.52
751.162	587.02
751.603	335.52
752.044	266.42
752.485	227.12
752.926	218.62
753.367	210.12
753.808	204.02
754.249	200.22
754.69	194.62
755.131	201.72
755.572	192.92
756.013	194.62
756.453	198.12
756.894	199.12
757.335	205.72
757.776	208.02
758.216	208.42
758.657	209.22
759.098	210.92
759.538	240.52
759.979	284.12
760.42	391.92
760.86	748.32
761.301	1948.22
761.741	4708.22
762.182	6769.82
762.622	4774.72
763.063	1381.82
763.503	564.02
763.943	341.92
764.384	280.72
764.824	262.72
765.264	246.52
765.705	219.22
766.145	189.52
766.585	180.82
767.025	176.02
767.465	165.02
767.906	187.22
768.346	200.22
768.786	210.52
769.226	226.12
769.666	321.72
770.106	658.82
770.546	1631.92
770.986	2788.62
771.426	2488.32
771.866	837.42
772.306	350.42
772.745	214.02
773.185	174.62
773.625	169.62
774.065	155.72
774.505	166.22
774.944	223.12
775.384	377.92
775.824	607.02
776.263	592.62
776.703	287.12
777.142	160.22
777.582	139.32
778.021	124.72
778.461	127.72
778.9	136.62
779.34	135.32
779.779	119.22
780.219	108.12
780.658	119.52
781.097	118.62
781.537	119.82
781.976	113.22
782.415	108.72
782.855	103.02
783.294	107.02
783.733	110.32
784.172	113.82
784.611	104.32
785.05	111.92
785.489	113.12
785.928	129.42
786.367	126.22
786.806	121.52
787.245	128.72
787.684	141.92
788.123	145.92
788.562	143.02
789.001	138.82
789.44	128.22
789.879	121.62
790.317	125.72
790.756	139.82
791.195	136.42
791.634	156.12
792.072	209.92
792.511	379.22
792.95	1065.12
793.388	2233.12
793.827	2015.92
794.265	708.72
794.704	287.52
795.142	193.62
795.581	164.02
796.019	141.72
796.458	130.22
796.896	127.72
797.334	143.32
797.773	172.22
798.211	233.12
798.649	466.62
799.087	1076.72
799.526	1687.32
799.964	2128.82
800.402	2098.02
800.84	798.72
801.278	318.02
801.716	191.32
802.154	157.52
802.592	153.22
803.03	143.82
803.468	146.12
803.906	155.72
804.344	160.72
804.782	139.52
805.22	141.82
805.658	143.92
806.096	156.92
806.533	164.52
806.971	184.72
807.409	231.02
807.847	340.92
808.284	698.72
808.722	1977.32
809.16	3465.22
809.597	3330.62
810.035	5771.82
810.472	6100.22
810.91	2208.22
811.347	838.52
811.785	424.32
812.222	271.52
812.66	208.22
813.097	174.92
813.535	146.02
813.972	135.62
814.409	127.92
814.846	111.22
815.284	114.92
815.721	110.32
816.158	114.52
816.595	116.12
817.032	162.52
817.47	188.22
817.907	151.22
818.344	109.32
818.781	100.72
819.218	99.92
819.655	132.02
820.092	197.92
820.529	224.92
820.966	179.92
821.403	132.42
821.839	104.42
822.276	101.02
822.713	126.72
823.15	140.72
823.587	115.92
824.023	150.82
824.46	315.72
824.897	954.42
825.333	1426.32
825.77	618.82
826.206	240.62
826.643	144.72
827.08	110.52
827.516	84.22
827.953	82.32
828.389	87.22
828.825	71.32
829.262	69.52
829.698	68.32
830.135	64.82
830.571	72.12
831.007	66.52
831.443	61.82
831.88	64.02
832.316	71.12
832.752	64.52
833.188	66.42
833.624	64.62
834.06	73.82
834.497	72.32
834.933	76.82
835.369	79.22
835.805	74.02
836.241	76.22
836.677	81.12
837.112	99.02
837.548	110.52
837.984	141.62
838.42	223.32
838.856	526.42
839.292	1618.62
839.727	2417.12
840.163	1132.72
840.599	974.92
841.034	2155.02
841.47	2228.62
841.906	816.62
842.341	344.82
842.777	211.02
843.212	209.42
843.648	189.42
844.083	113.52
844.519	85.02
844.954	74.72
845.39	71.22
845.825	62.02
846.261	54.42
846.696	52.32
847.131	53.32
847.566	56.92
848.002	55.12
848.437	53.12
848.872	62.92
849.307	72.42
849.742	84.02
850.177	190.72
850.613	578.82
851.048	918.42
851.483	402.22
851.918	158.82
852.353	93.22
852.788	55.02
853.223	59.72
853.657	55.72
854.092	55.22
854.527	40.92
854.962	42.32
855.397	44.02
855.832	47.92
856.266	40.22
856.701	42.12
857.136	42.82
857.57	39.42
858.005	59.22
858.44	65.52
858.874	47.82
859.309	58.82
859.743	44.42
860.178	47.72
860.612	45.22
861.047	58.12
861.481	70.62
861.915	72.92
862.35	53.22
862.784	43.12
863.218	35.82
863.653	37.02
864.087	50.52
864.521	55.72
864.955	68.32
865.39	162.22
865.824	183.92
866.258	125.12
866.692	178.72
867.126	190.12
867.56	115.62
867.994	60.92
868.428	36.02
868.862	53.02
869.296	61.82
869.73	58.42
870.164	54.22
870.598	51.12
871.031	39.22
871.465	35.72
871.899	31.22
872.333	25.62
872.766	30.62
873.2	29.22
873.634	34.92
874.067	25.22
874.501	31.72
874.935	34.92
875.368	27.22
875.802	24.52
876.235	28.62
876.669	24.92
877.102	26.92
877.535	29.72
877.969	25.22
878.402	29.02
878.836	18.62
879.269	24.02
879.702	23.72
880.135	22.52
880.569	27.72
881.002	20.52
881.435	20.32
881.868	20.02
882.301	25.62
882.734	20.82
883.167	18.72
883.601	23.22
884.034	17.72
884.467	19.12
884.899	20.32
885.332	23.72
885.765	19.52
886.198	19.12
886.631	17.62
887.064	20.72
887.497	17.92
887.929	25.02
888.362	19.32
888.795	8.22
889.228	15.62
889.66	20.82
890.093	19.92
890.526	18.02
890.958	15.12
891.391	22.52
891.823	24.32
892.256	16.32
892.688	12.62
893.121	13.72
893.553	16.42
893.985	28.42
894.418	20.12
894.85	15.02
895.282	18.62
895.715	16.22
896.147	17.42
896.579	14.42
897.011	13.52
897.444	14.82
897.876	17.02
898.308	17.62
898.74	13.92
899.172	10.22
899.604	19.92
900.036	21.62
900.468	9.12
900.9	14.22
901.332	18.82
901.764	13.32
902.196	18.12
902.628	19.22
903.06	17.12
903.491	30.62
903.923	25.22
904.355	21.12
904.787	29.62
905.218	25.32
905.65	24.32
906.082	12.02
906.513	10.52
906.945	21.12
907.376	13.72
907.808	17.72
908.239	28.62
908.671	24.32
909.102	19.42
909.534	28.52
909.965	47.72
910.397	104.62
910.828	336.12
911.259	507.32
911.691	231.92
912.122	115.82
912.553	53.62
912.984	36.72
913.415	28.72
913.847	27.72
914.278	14.42
914.709	17.42
915.14	21.12
915.571	20.82
916.002	14.12
916.433	19.82
916.864	13.22
917.295	17.72
917.726	20.52
918.157	21.12
918.587	34.22
919.018	22.12
919.449	31.92
919.88	21.92
920.311	34.82
920.741	55.62
921.172	181.12
921.603	170.42
922.033	76.62
922.464	47.42
922.895	20.42
923.325	16.42
923.756	10.62
924.186	13.32
924.617	18.82
925.047	26.62
925.478	23.82
925.908	24.22
926.338	6.72
926.769	14.42
927.199	22.42
927.629	1.22
928.06	11.62
928.49	12.02
928.92	14.02
929.35	7.42
929.78	12.02
930.21	9.52
930.641	4.92
931.071	5.32
931.501	10.52
931.931	15.32
932.361	6.82
932.791	4.42
933.221	4.82
933.651	12.22
934.08	20.12
934.51	32.22
934.94	14.82
935.37	11.92
935.8	4.52
936.229	13.02
936.659	12.92
937.089	4.32
937.519	22.42
937.948	24.92
938.378	16.12
938.807	8.42
939.237	4.72
939.666	5.92
940.096	-12.58
940.525	5.32
940.955	1.32
941.384	0.72
941.814	-6.58
942.243	-0.88
942.672	6.82
943.102	-1.18
943.531	-0.68
943.96	4.22
944.39	8.62
944.819	1.12
945.248	1.82
945.677	2.22
946.106	3.22
946.535	9.42
946.964	4.32
947.393	5.02
947.822	-1.78
948.251	-6.88
948.68	0.32
949.109	6.12
949.538	4.82
949.967	-0.78
950.396	5.72
950.825	-1.18
951.254	-0.28
951.682	-0.58
952.111	6.62
952.54	-0.48
952.969	1.02
953.397	-5.88
953.826	-1.88
954.254	-3.28
954.683	6.62
955.112	-1.58
955.54	0.62
955.969	4.42
956.397	-1.88
956.826	-6.38
957.254	5.42
957.682	3.82
958.111	3.52
958.539	-3.58
958.967	1.52
959.396	-4.78
959.824	-1.08
960.252	2.92
960.68	-4.68
961.109	-4.28
961.537	-1.98
961.965	-5.08
962.393	1.82
962.821	-0.88
963.249	0.92
963.677	1.42
964.105	1.22
964.533	43.02
964.961	45.72
965.389	19.42
965.817	10.82
966.245	6.82
966.672	2.32
967.1	-2.78
967.528	2.32
967.956	-2.98
968.383	2.92
968.811	1.12
969.239	-2.78
969.666	-2.48
970.094	3.52
970.522	-3.28
970.949	-2.38
971.377	-1.08
971.804	-5.68
972.232	-5.98
972.659	3.72
973.087	0.12
973.514	-1.28
973.941	-5.98
974.369	5.12
974.796	-2.78
975.223	-4.08
975.651	-6.58
976.078	6.52
976.505	-2.38
976.932	-1.48
977.359	21.22
977.786	15.52
978.214	-1.38
978.641	-0.28
979.068	-5.48
979.495	-0.38
979.922	0.22
980.349	-5.38
980.776	3.42
981.202	3.62
981.629	6.72
982.056	5.72
982.483	3.12
982.91	7.42
983.337	-3.88
983.763	1.62
984.19	-5.98
984.617	-2.58
985.043	-0.48
985.47	-1.18
985.897	-2.88
986.323	-3.68
986.75	1.62
987.176	3.02
987.603	-4.08
988.029	5.42
988.456	-0.48
988.882	-0.28
989.308	-4.68
989.735	-10.98
990.161	2.92
990.587	-4.08
991.014	-2.18
991.44	3.62
991.866	-1.08
992.292	-3.88
992.719	-4.98
993.145	2.72
993.571	-10.98
993.997	-4.18
994.423	-1.18
994.849	-3.28
995.275	5.12
995.701	-0.98
996.127	-6.38
996.553	-0.58
996.979	-3.68
997.405	0.42
997.83	0.82
998.256	0.22
998.682	-6.08
999.108	-9.68
999.534	-2.78
999.959	2.32
1000.385	-2.78
1000.811	3.62
1001.236	-9.38
1001.662	-4.28
1002.087	-8.68
1002.513	1.32
1002.938	5.92
1003.364	-5.68
1003.789	-3.08
1004.215	0.82
1004.64	1.82
1005.066	3.82
1005.491	1.82
1005.916	-3.48
1006.342	-3.18
1006.767	-9.08
1007.192	6.12
1007.617	-7.08
1008.042	-3.88
1008.468	-11.08
1008.893	-2.48
1009.318	-2.28
1009.743	2.02
1010.168	3.62
1010.593	0.82
1011.018	-5.18
1011.443	1.52
1011.868	-1.68
1012.293	-3.18
1012.718	-11.98
1013.143	0.82
1013.567	-1.58
1013.992	-4.68
1014.417	-10.78
1014.842	5.02
1015.267	-1.18
1015.691	-6.58
1016.116	2.62
1016.541	1.12
1016.965	2.02
1017.39	3.42
1017.814	4.92
1018.239	1.02
1018.663	-4.48
1019.088	-6.58
1019.512	-1.48
1019.937	0.32
1020.361	-3.08
1020.785	-9.08
1021.21	1.92
1021.634	-0.98
1022.058	5.62
1022.483	6.52
1022.907	-4.18
1023.331	2.62
1023.755	-8.28
1024.179	-5.58
1024.604	-2.98
1025.028	-4.98
1025.452	-3.68
1025.876	-2.38
1026.3	5.62
1026.724	-9.28
1027.148	-3.58
1027.572	-11.48
1027.996	-5.88
1028.42	-3.98
1028.843	-0.78
1029.267	1.82
1029.691	-1.48
1030.115	-3.28
1030.539	-5.68
1030.962	-7.18
1031.386	-8.98
1031.81	-7.98
1032.233	-3.38
1032.657	-0.48
1033.08	-4.88
1033.504	-7.18
1033.927	-2.68
1034.351	-5.88
1034.774	-7.78
1035.198	0.22
1035.621	-9.88
1036.045	-6.78
1036.468	-2.38
1036.891	-3.88
1037.315	-8.68
1037.738	-8.58
1038.161	-1.28
1038.584	-5.48
1039.008	-6.68
1039.431	0.42
1039.854	-2.88
1040.277	-5.38
1040.7	-8.18
1041.123	-0.58
1041.546	-12.48
1041.969	-6.98
1042.392	-1.98
1042.815	-4.48
1043.238	1.02
1043.661	-1.88
1044.084	-5.58
1044.507	0.12
1044.93	-1.28
1045.352	-3.48
1045.775	-5.18
1046.198	-8.78
1046.621	-2.28
1047.043	4.82
1047.466	-0.28
1047.889	-2.38
1048.311	-5.08
1048.734	-3.78
1049.156	-2.38
1049.579	-1.08
1050.001	-4.38
1050.424	-0.08
1050.846	-4.58
1051.269	-3.08
1051.691	-2.88
1052.113	-6.28
1052.536	6.22
1052.958	-3.58
1053.38	-6.18
1053.802	-13.38
1054.225	-2.08
1054.647	-6.38
1055.069	0.32
1055.491	5.12
1055.913	-5.48
1056.335	0.92
1056.757	4.12
1057.179	0.12
1057.601	-3.88
1058.023	-5.58
1058.445	-1.78
1058.867	-3.38
1059.289	-5.08
1059.711	-6.48
1060.133	-0.28
1060.555	-4.48
1060.976	-8.98
1061.398	-4.68
1061.82	-9.18
1062.241	-3.68
1062.663	-10.98
1063.085	-6.08
1063.506	4.22
1063.928	-1.78
1064.35	-1.08
1064.771	-13.18
1065.193	-3.68
1065.614	-8.08
1066.035	-1.98
1066.457	-1.28
1066.878	-0.48
1067.3	-6.08
1067.721	-4.48
1068.142	-2.28
1068.564	-0.78
1068.985	-6.28
1069.406	-8.98
1069.827	-5.98
1070.248	-2.48
1070.67	-9.28
1071.091	-8.48
1071.512	-4.48
1071.933	-4.68
1072.354	-10.98
1072.775	-0.98
1073.196	-10.18
1073.617	-4.58
1074.038	-5.98
1074.459	2.32
1074.88	-8.68
1075.3	-2.38
1075.721	-3.98
1076.142	0.92
1076.563	-2.38
1076.983	-8.18
1077.404	-8.78
1077.825	-14.38
1078.246	-2.78
1078.666	-8.88
1079.087	-5.38
1079.507	-6.58
1079.928	-3.48
1080.348	-0.48
1080.769	-8.08
1081.189	-1.48
1081.61	-0.08
1082.03	-6.18
1082.451	-8.38
1082.871	-6.38
1083.291	-10.98
1083.711	-9.78
1084.132	-4.98
1084.552	-10.88
1084.972	-1.18
1085.392	-7.48
1085.813	-3.08
1086.233	-3.98
1086.653	-9.48
1087.073	-1.48
1087.493	-4.28
1087.913	-1.48
1088.333	-9.28
1088.753	-3.18
1089.173	3.12
1089.593	-3.68
1090.013	1.72
1090.433	-0.88
1090.852	-6.08
1091.272	-0.48
1091.692	1.02
1092.112	-4.38
1092.531	-10.98
1092.951	-12.78
1093.371	3.62
1093.79	1.12
1094.21	-6.38
1094.63	-4.08
1095.049	-7.98
1095.469	-0.08
1095.888	-0.78
1096.308	8.72
1096.727	8.82
1097.146	-4.88
1097.566	0.72
1097.985	-6.78
1098.405	1.72
1098.824	-4.98
1099.243	-6.48
1099.662	-9.98
1100.082	-2.48
1100.501	-3.08
1100.92	-5.38
1101.339	-3.98
1101.758	-5.38
