Data from 20171114-ORNL-Ar_H_NY_Subt18_08-06-48-578.txt Node
Date: Tue Nov 14 08:06:48 EST 2017
User: Ender
Spectrometer: HR+D1039
Trigger mode: 0
Integration Time (sec): 2.730000E-2
Scans to average: 10
Electric dark correction enabled: true
Nonlinearity correction enabled: false
Boxcar width: 0
XAxis mode: Wavelengths
Number of Pixels in Spectrum: 2048
>>>>>Begin Spectral Data<<<<<
187.836	0.96
188.309	0.96
188.782	0.96
189.255	-0.34
189.728	-3.64
190.201	5.06
190.674	-0.94
191.147	2.86
191.619	-3.64
192.092	3.06
192.565	6.26
193.038	0.86
193.511	-1.14
193.984	0.96
194.456	-5.14
194.929	0.06
195.402	-1.44
195.874	-3.84
196.347	-3.04
196.82	-6.64
197.292	5.86
197.765	-0.04
198.237	1.86
198.71	1.96
199.182	-3.74
199.655	7.36
200.127	2.86
200.6	-4.44
201.072	-1.64
201.544	-6.14
202.017	-3.44
202.489	3.36
202.961	1.56
203.433	-2.64
203.906	-8.04
204.378	-7.64
204.85	-4.04
205.322	-6.04
205.794	-5.94
206.266	-1.24
206.739	-5.04
207.211	4.66
207.683	-6.34
208.155	-3.24
208.627	-3.64
209.099	-4.34
209.57	-2.74
210.042	-4.34
210.514	0.76
210.986	-3.24
211.458	-9.94
211.93	-3.94
212.402	1.86
212.873	-7.64
213.345	-9.34
213.817	-6.84
214.288	-10.14
214.76	-8.74
215.232	-8.74
215.703	-6.04
216.175	-4.94
216.646	-8.34
217.118	-14.44
217.589	0.26
218.061	-2.34
218.532	-7.94
219.004	-1.54
219.475	1.06
219.946	-1.34
220.418	-1.74
220.889	4.46
221.36	-1.34
221.832	-5.84
222.303	-13.04
222.774	0.56
223.245	-9.64
223.717	-7.84
224.188	-2.94
224.659	-3.84
225.13	-5.54
225.601	-3.04
226.072	-0.84
226.543	2.36
227.014	-1.64
227.485	-2.14
227.956	-4.74
228.427	1.26
228.898	6.06
229.369	1.86
229.839	-1.34
230.31	-8.44
230.781	3.06
231.252	-1.74
231.722	-1.14
232.193	-6.74
232.664	-4.84
233.135	-1.54
233.605	-5.04
234.076	-7.24
234.546	2.96
235.017	3.56
235.487	-1.64
235.958	-1.74
236.428	-0.94
236.899	3.26
237.369	-3.04
237.84	-6.84
238.31	-2.94
238.78	4.46
239.251	-4.94
239.721	-4.14
240.191	-0.14
240.662	-1.84
241.132	-2.44
241.602	-7.04
242.072	-2.64
242.542	4.96
243.013	-3.34
243.483	-2.24
243.953	0.16
244.423	-3.64
244.893	-11.04
245.363	-2.04
245.833	3.56
246.303	-3.34
246.773	3.46
247.243	-0.24
247.712	-2.34
248.182	4.16
248.652	6.46
249.122	-11.24
249.592	8.56
250.061	7.26
250.531	13.46
251.001	-2.24
251.471	4.76
251.94	6.76
252.41	-1.94
252.879	-3.04
253.349	7.26
253.818	6.56
254.288	1.16
254.757	6.66
255.227	-1.14
255.696	0.46
256.166	3.56
256.635	3.96
257.105	3.66
257.574	5.76
258.043	3.76
258.513	-2.24
258.982	5.16
259.451	1.56
259.92	-2.64
260.389	-2.74
260.859	12.06
261.328	-4.84
261.797	5.06
262.266	-2.04
262.735	9.66
263.204	-0.24
263.673	-2.14
264.142	0.36
264.611	-5.14
265.08	-2.04
265.549	-0.94
266.018	1.86
266.487	-2.94
266.955	-2.94
267.424	-8.04
267.893	2.76
268.362	-1.74
268.83	3.26
269.299	6.26
269.768	3.76
270.236	4.06
270.705	7.96
271.174	1.86
271.642	3.86
272.111	10.06
272.579	-2.54
273.048	5.76
273.516	5.76
273.985	3.96
274.453	10.56
274.922	6.36
275.39	7.76
275.858	-3.34
276.327	4.86
276.795	15.16
277.263	4.16
277.731	13.86
278.2	8.26
278.668	11.46
279.136	11.66
279.604	4.66
280.072	12.96
280.54	4.96
281.008	10.76
281.477	14.36
281.945	5.16
282.413	12.86
282.881	14.56
283.348	-2.14
283.816	14.06
284.284	9.66
284.752	16.26
285.22	11.16
285.688	10.56
286.156	8.16
286.623	21.76
287.091	11.46
287.559	12.46
288.026	13.86
288.494	17.36
288.962	2.66
289.429	8.76
289.897	17.46
290.364	8.66
290.832	11.46
291.3	12.56
291.767	12.86
292.234	13.66
292.702	7.56
293.169	17.66
293.637	20.56
294.104	14.16
294.571	7.46
295.039	12.76
295.506	13.06
295.973	16.46
296.44	12.46
296.908	14.56
297.375	8.26
297.842	13.66
298.309	13.96
298.776	9.36
299.243	11.36
299.71	9.26
300.177	16.16
300.644	21.46
301.111	15.06
301.578	24.66
302.045	17.76
302.512	19.86
302.979	24.56
303.446	21.66
303.913	14.56
304.379	15.76
304.846	29.46
305.313	20.86
305.78	17.56
306.246	16.66
306.713	25.66
307.18	20.36
307.646	27.56
308.113	24.26
308.579	20.96
309.046	20.56
309.512	25.16
309.979	24.86
310.445	21.16
310.912	31.96
311.378	29.96
311.845	29.86
312.311	24.76
312.777	30.56
313.244	32.86
313.71	35.76
314.176	23.76
314.642	25.06
315.109	21.66
315.575	35.46
316.041	33.26
316.507	23.46
316.973	27.86
317.439	32.36
317.905	33.66
318.371	33.16
318.837	32.96
319.303	38.46
319.769	27.56
320.235	30.06
320.701	33.46
321.167	26.66
321.633	28.56
322.099	32.46
322.564	40.16
323.03	34.16
323.496	37.26
323.962	35.06
324.427	37.86
324.893	44.26
325.359	35.76
325.824	37.26
326.29	28.96
326.755	38.56
327.221	36.26
327.686	38.46
328.152	42.26
328.617	38.56
329.083	46.56
329.548	52.86
330.014	45.46
330.479	34.26
330.944	37.46
331.41	37.96
331.875	48.26
332.34	42.46
332.805	41.76
333.271	47.16
333.736	43.46
334.201	50.56
334.666	47.46
335.131	47.96
335.596	49.46
336.061	45.46
336.526	37.66
336.991	44.06
337.456	51.66
337.921	43.76
338.386	39.96
338.851	41.16
339.316	43.26
339.781	48.96
340.246	49.26
340.711	49.86
341.175	45.76
341.64	41.56
342.105	47.16
342.569	56.06
343.034	61.16
343.499	50.96
343.963	44.86
344.428	62.76
344.893	58.26
345.357	63.96
345.822	58.26
346.286	63.76
346.751	70.56
347.215	62.16
347.679	69.96
348.144	89.66
348.608	79.16
349.073	71.46
349.537	69.76
350.001	71.66
350.465	85.16
350.93	80.46
351.394	80.16
351.858	67.26
352.322	87.76
352.786	77.76
353.25	87.96
353.715	107.36
354.179	93.66
354.643	112.16
355.107	116.26
355.571	95.06
356.035	95.16
356.498	118.16
356.962	104.36
357.426	117.76
357.89	103.76
358.354	82.56
358.818	77.66
359.281	74.96
359.745	71.76
360.209	73.06
360.673	69.86
361.136	78.16
361.6	87.26
362.064	82.96
362.527	81.96
362.991	87.06
363.454	82.56
363.918	80.06
364.381	77.76
364.845	77.76
365.308	87.56
365.772	87.56
366.235	86.66
366.698	79.96
367.162	82.56
367.625	81.56
368.088	80.06
368.552	88.36
369.015	86.16
369.478	90.46
369.941	102.16
370.404	87.26
370.867	95.76
371.331	103.16
371.794	102.86
372.257	99.26
372.72	105.46
373.183	109.06
373.646	95.06
374.109	100.06
374.572	100.16
375.035	95.86
375.497	106.36
375.96	108.36
376.423	104.76
376.886	117.56
377.349	104.96
377.811	106.26
378.274	103.76
378.737	103.76
379.199	114.46
379.662	110.16
380.125	111.06
380.587	102.86
381.05	107.36
381.512	116.36
381.975	125.36
382.437	117.76
382.9	110.76
383.362	127.16
383.825	135.56
384.287	125.66
384.75	123.96
385.212	133.46
385.674	131.46
386.136	130.66
386.599	124.06
387.061	125.56
387.523	119.76
387.985	127.46
388.447	131.16
388.91	130.86
389.372	134.26
389.834	133.26
390.296	129.06
390.758	136.26
391.22	139.36
391.682	149.86
392.144	166.96
392.606	152.56
393.068	146.26
393.529	159.36
393.991	142.46
394.453	131.66
394.915	132.06
395.377	144.46
395.838	143.96
396.3	136.46
396.762	148.46
397.224	140.86
397.685	128.46
398.147	135.66
398.608	130.46
399.07	136.86
399.531	147.46
399.993	149.56
400.454	154.86
400.916	145.26
401.377	149.56
401.839	151.86
402.3	153.36
402.762	165.96
403.223	183.46
403.684	172.96
404.145	160.86
404.607	169.56
405.068	169.26
405.529	171.46
405.99	189.56
406.451	184.26
406.913	175.76
407.374	170.86
407.835	165.26
408.296	171.66
408.757	183.16
409.218	201.56
409.679	181.46
410.14	176.56
410.601	181.16
411.062	190.16
411.522	189.66
411.983	187.76
412.444	177.86
412.905	184.06
413.366	190.66
413.826	202.16
414.287	229.26
414.748	281.96
415.208	263.36
415.669	224.36
416.13	217.96
416.59	222.16
417.051	227.96
417.511	232.26
417.972	247.56
418.432	260.56
418.893	305.46
419.353	267.46
419.814	211.36
420.274	194.66
420.734	192.56
421.195	208.26
421.655	203.66
422.115	200.36
422.576	201.46
423.036	212.46
423.496	218.76
423.956	224.76
424.416	234.96
424.876	282.76
425.336	279.66
425.797	273.56
426.257	270.26
426.717	244.36
427.177	244.26
427.637	235.16
428.097	249.16
428.556	260.06
429.016	281.16
429.476	265.76
429.936	273.16
430.396	288.46
430.856	303.46
431.315	324.76
431.775	354.06
432.235	390.46
432.694	360.26
433.154	372.66
433.614	400.26
434.073	341.46
434.533	286.36
434.993	278.96
435.452	287.26
435.912	306.16
436.371	297.06
436.83	290.16
437.29	276.46
437.749	254.56
438.209	258.76
438.668	283.96
439.127	299.06
439.587	286.36
440.046	274.76
440.505	272.76
440.964	285.06
441.424	333.06
441.883	323.06
442.342	277.06
442.801	242.56
443.26	231.96
443.719	228.96
444.178	232.26
444.637	220.86
445.096	239.86
445.555	236.76
446.014	237.76
446.473	244.96
446.932	244.36
447.391	241.46
447.849	245.06
448.308	230.16
448.767	234.76
449.226	260.96
449.685	248.86
450.143	266.26
450.602	254.66
451.061	247.56
451.519	243.46
451.978	240.76
452.436	253.96
452.895	258.46
453.353	262.06
453.812	256.66
454.27	258.06
454.729	257.86
455.187	257.66
455.646	261.76
456.104	265.66
456.562	280.16
457.021	289.66
457.479	279.36
457.937	297.46
458.395	286.66
458.854	267.56
459.312	272.26
459.77	295.86
460.228	276.26
460.686	265.66
461.144	265.26
461.602	265.56
462.06	271.96
462.518	273.46
462.976	279.06
463.434	282.46
463.892	284.26
464.35	285.56
464.808	308.66
465.266	291.76
465.724	291.16
466.181	302.56
466.639	294.46
467.097	312.76
467.555	323.56
468.012	324.96
468.47	326.16
468.928	359.46
469.385	360.36
469.843	371.16
470.3	377.56
470.758	387.36
471.215	409.96
471.673	427.96
472.13	431.96
472.588	441.16
473.045	404.76
473.503	407.26
473.96	425.76
474.417	431.76
474.875	461.46
475.332	508.86
475.789	491.36
476.246	493.26
476.704	511.36
477.161	540.46
477.618	552.36
478.075	593.16
478.532	642.56
478.989	719.06
479.446	835.26
479.903	790.46
480.36	822.26
480.817	881.76
481.274	970.46
481.731	1059.96
482.188	1151.16
482.645	1269.16
483.102	1375.96
483.558	1485.46
484.015	1519.36
484.472	1493.66
484.929	1470.56
485.385	1419.46
485.842	1404.56
486.299	1335.56
486.755	1290.86
487.212	1109.66
487.668	940.66
488.125	879.06
488.582	804.76
489.038	775.86
489.494	734.76
489.951	726.06
490.407	693.16
490.864	680.36
491.32	678.26
491.776	674.26
492.233	674.76
492.689	644.76
493.145	637.86
493.602	638.36
494.058	651.46
494.514	647.86
494.97	675.16
495.426	683.76
495.882	654.26
496.338	644.56
496.794	668.06
497.251	645.66
497.707	667.26
498.163	680.86
498.618	679.36
499.074	677.76
499.53	713.46
499.986	703.36
500.442	678.46
500.898	659.46
501.354	648.76
501.809	654.86
502.265	665.16
502.721	671.46
503.177	682.46
503.632	685.46
504.088	688.76
504.543	712.66
504.999	732.26
505.455	705.96
505.91	675.96
506.366	681.16
506.821	685.16
507.277	671.66
507.732	665.56
508.187	689.46
508.643	693.16
509.098	697.46
509.553	709.06
510.009	713.06
510.464	713.26
510.919	727.26
511.375	739.96
511.83	757.06
512.285	772.06
512.74	803.96
513.195	828.86
513.65	822.76
514.105	813.36
514.56	813.96
515.015	838.16
515.47	845.16
515.925	829.26
516.38	836.16
516.835	847.86
517.29	827.56
517.745	820.86
518.2	807.66
518.655	807.86
519.109	790.06
519.564	794.76
520.019	778.66
520.474	773.16
520.928	776.96
521.383	771.06
521.838	756.66
522.292	758.66
522.747	760.16
523.201	750.66
523.656	747.36
524.11	746.46
524.565	744.86
525.019	735.86
525.474	735.86
525.928	744.06
526.382	735.06
526.837	745.46
527.291	751.36
527.745	748.06
528.2	736.46
528.654	733.96
529.108	727.86
529.562	738.86
530.016	741.66
530.47	736.16
530.925	738.16
531.379	728.26
531.833	748.76
532.287	751.56
532.741	744.76
533.195	755.26
533.649	759.96
534.103	766.66
534.556	742.76
535.01	762.16
535.464	759.36
535.918	757.86
536.372	770.66
536.826	764.66
537.279	756.46
537.733	758.56
538.187	761.86
538.64	753.66
539.094	763.26
539.548	780.46
540.001	769.76
540.455	767.56
540.908	779.06
541.362	789.16
541.815	792.26
542.269	814.76
542.722	815.16
543.175	818.46
543.629	823.36
544.082	842.36
544.536	840.96
544.989	829.86
545.442	837.66
545.895	843.66
546.349	845.16
546.802	843.46
547.255	854.36
547.708	864.56
548.161	871.66
548.614	869.36
549.067	883.86
549.52	877.66
549.973	877.86
550.426	864.56
550.879	853.36
551.332	863.46
551.785	869.46
552.238	870.66
552.691	873.46
553.144	899.96
553.596	900.06
554.049	915.56
554.502	945.86
554.955	967.26
555.407	970.76
555.86	956.86
556.313	955.76
556.765	935.26
557.218	938.66
557.67	926.46
558.123	934.96
558.576	930.06
559.028	919.66
559.48	939.86
559.933	925.06
560.385	901.66
560.838	869.66
561.29	846.26
561.742	846.06
562.195	829.56
562.647	821.36
563.099	831.76
563.551	823.36
564.004	835.86
564.456	826.16
564.908	817.66
565.36	782.46
565.812	779.56
566.264	759.46
566.716	756.96
567.168	754.36
567.62	741.46
568.072	732.96
568.524	739.56
568.976	741.06
569.428	728.16
569.88	719.56
570.332	729.46
570.784	728.36
571.235	729.26
571.687	744.96
572.139	743.46
572.59	760.66
573.042	759.46
573.494	749.26
573.945	751.16
574.397	731.36
574.849	737.36
575.3	735.16
575.752	726.66
576.203	721.56
576.655	733.06
577.106	718.06
577.557	702.96
578.009	720.06
578.46	707.16
578.912	706.36
579.363	704.96
579.814	703.46
580.265	714.26
580.717	718.06
581.168	707.46
581.619	726.06
582.07	728.56
582.521	710.46
582.972	704.66
583.423	717.36
583.875	717.96
584.326	730.46
584.777	742.56
585.227	755.86
585.678	779.06
586.129	799.56
586.58	816.66
587.031	852.66
587.482	882.26
587.933	921.36
588.384	887.86
588.834	841.96
589.285	813.86
589.736	817.66
590.186	826.56
590.637	817.96
591.088	809.66
591.538	774.06
591.989	780.26
592.439	764.06
592.89	760.16
593.34	742.16
593.791	756.36
594.241	740.96
594.692	743.86
595.142	740.96
595.593	735.16
596.043	744.96
596.493	740.66
596.943	743.86
597.394	757.06
597.844	761.86
598.294	778.56
598.744	789.66
599.195	816.96
599.645	877.26
600.095	902.56
600.545	971.96
600.995	1022.46
601.445	1076.46
601.895	1144.56
602.345	1200.06
602.795	1168.56
603.245	1125.36
603.695	1080.56
604.145	1012.96
604.594	966.46
605.044	912.26
605.494	839.66
605.944	797.86
606.393	783.96
606.843	767.36
607.293	770.06
607.743	764.96
608.192	790.76
608.642	790.56
609.091	799.56
609.541	797.96
609.99	802.96
610.44	799.26
610.889	747.26
611.339	736.36
611.788	712.06
612.238	735.66
612.687	737.76
613.136	737.66
613.586	748.66
614.035	739.76
614.484	742.06
614.933	737.66
615.383	737.66
615.832	744.06
616.281	738.46
616.73	705.46
617.179	690.16
617.628	676.66
618.077	663.76
618.526	652.26
618.975	656.96
619.424	640.16
619.873	645.76
620.322	653.86
620.771	625.46
621.22	632.36
621.669	621.06
622.118	619.46
622.567	615.66
623.015	602.56
623.464	605.46
623.913	589.76
624.361	587.96
624.81	573.96
625.259	583.36
625.707	578.46
626.156	580.06
626.604	595.06
627.053	587.46
627.501	586.76
627.95	599.86
628.398	602.46
628.847	596.56
629.295	590.96
629.744	608.76
630.192	603.26
630.64	594.16
631.089	575.76
631.537	568.86
631.985	560.16
632.433	558.56
632.881	548.06
633.33	559.06
633.778	558.66
634.226	551.36
634.674	558.96
635.122	563.56
635.57	575.76
636.018	592.06
636.466	593.96
636.914	580.06
637.362	598.76
637.81	613.16
638.258	612.56
638.705	611.06
639.153	633.56
639.601	655.56
640.049	660.96
640.497	700.36
640.944	724.66
641.392	670.36
641.84	641.46
642.287	609.96
642.735	585.56
643.182	582.26
643.63	590.86
644.078	593.66
644.525	601.06
644.973	606.46
645.42	612.66
645.867	644.56
646.315	659.46
646.762	677.26
647.21	708.96
647.657	729.76
648.104	769.16
648.551	787.96
648.999	840.56
649.446	925.36
649.893	1004.06
650.34	1145.86
650.787	1359.86
651.234	1685.56
651.682	2160.36
652.129	2927.16
652.576	4133.16
653.023	6014.36
653.47	8192.26
653.917	10189.06
654.363	11758.56
654.81	12964.46
655.257	12278.66
655.704	8138.36
656.151	4896.46
656.598	3218.46
657.044	2305.56
657.491	1786.26
657.938	1453.66
658.385	1240.76
658.831	1072.26
659.278	971.96
659.724	846.56
660.171	797.56
660.618	727.06
661.064	701.86
661.511	690.46
661.957	667.66
662.404	656.96
662.85	669.76
663.296	648.06
663.743	586.26
664.189	552.26
664.635	547.56
665.082	547.86
665.528	545.56
665.974	536.86
666.42	535.46
666.867	516.96
667.313	501.86
667.759	487.16
668.205	472.96
668.651	473.66
669.097	466.96
669.543	466.56
669.989	465.66
670.435	465.56
670.881	461.06
671.327	469.56
671.773	493.46
672.219	515.76
672.665	579.06
673.11	616.06
673.556	660.66
674.002	703.66
674.448	687.26
674.893	584.26
675.339	496.56
675.785	461.86
676.23	441.96
676.676	411.46
677.122	403.66
677.567	397.66
678.013	391.16
678.458	376.86
678.904	377.16
679.349	361.76
679.794	372.26
680.24	372.46
680.685	363.26
681.131	368.26
681.576	372.26
682.021	362.86
682.466	361.76
682.912	367.76
683.357	367.86
683.802	401.66
684.247	428.56
684.692	478.46
685.137	515.46
685.583	563.46
686.028	594.06
686.473	541.06
686.918	475.26
687.363	441.56
687.807	415.46
688.252	385.66
688.697	368.66
689.142	359.76
689.587	344.16
690.032	342.06
690.477	360.76
690.921	371.06
691.366	402.66
691.811	420.76
692.255	454.56
692.7	487.86
693.145	526.06
693.589	736.06
694.034	1185.06
694.478	1611.36
694.923	1838.06
695.367	2380.96
695.812	1265.26
696.256	524.76
696.701	390.26
697.145	359.36
697.59	343.76
698.034	332.46
698.478	349.06
698.922	332.56
699.367	334.96
699.811	354.06
700.255	376.16
700.699	400.46
701.143	441.46
701.588	490.26
702.032	524.16
702.476	532.76
702.92	512.26
703.364	520.86
703.808	681.46
704.252	1088.06
704.696	1535.76
705.14	1770.46
705.584	2248.96
706.027	1123.06
706.471	552.46
706.915	421.56
707.359	365.86
707.803	337.16
708.246	321.96
708.69	327.86
709.134	330.86
709.577	333.26
710.021	330.66
710.465	321.96
710.908	316.56
711.352	317.56
711.795	329.36
712.239	374.46
712.682	408.66
713.126	427.66
713.569	475.86
714.012	372.06
714.456	317.96
714.899	311.36
715.342	293.26
715.786	271.46
716.229	268.26
716.672	270.36
717.115	261.56
717.558	263.66
718.002	268.66
718.445	277.06
718.888	296.56
719.331	304.46
719.774	320.26
720.217	315.76
720.66	297.26
721.103	274.16
721.546	267.76
721.989	258.96
722.432	250.56
722.874	257.86
723.317	238.06
723.76	250.56
724.203	271.56
724.645	331.86
725.088	472.26
725.531	596.56
725.974	669.26
726.416	584.16
726.859	325.26
727.301	262.16
727.744	253.76
728.187	245.66
728.629	241.86
729.071	257.26
729.514	266.36
729.956	278.76
730.399	296.76
730.841	300.66
731.283	293.46
731.726	275.36
732.168	270.86
732.61	282.56
733.053	303.26
733.495	327.56
733.937	368.96
734.379	423.86
734.821	462.36
735.263	565.66
735.705	884.26
736.148	1680.36
736.59	2736.16
737.032	3233.06
737.474	2625.96
737.916	870.36
738.357	463.46
738.799	347.96
739.241	315.26
739.683	299.36
740.125	307.96
740.567	310.46
741.008	328.66
741.45	339.66
741.892	335.96
742.334	367.16
742.775	383.66
743.217	360.86
743.658	282.56
744.1	270.66
744.542	285.36
744.983	332.86
745.425	367.26
745.866	366.26
746.307	290.36
746.749	290.16
747.19	341.26
747.632	479.36
748.073	934.16
748.514	1954.96
748.956	3006.86
749.397	3794.06
749.838	3145.36
750.279	3138.96
750.72	1582.36
751.162	587.16
751.603	340.06
752.044	265.06
752.485	228.96
752.926	219.16
753.367	217.06
753.808	205.16
754.249	199.36
754.69	204.76
755.131	195.16
755.572	198.86
756.013	185.96
756.453	198.66
756.894	190.66
757.335	205.66
757.776	206.86
758.216	206.56
758.657	203.06
759.098	214.96
759.538	234.76
759.979	283.76
760.42	402.56
760.86	748.86
761.301	1937.66
761.741	4692.76
762.182	6788.46
762.622	4806.46
763.063	1395.66
763.503	576.96
763.943	349.96
764.384	286.66
764.824	270.46
765.264	262.56
765.705	225.26
766.145	195.56
766.585	179.86
767.025	176.86
767.465	171.16
767.906	184.26
768.346	210.26
768.786	218.16
769.226	219.86
769.666	323.96
770.106	651.86
770.546	1639.26
770.986	2777.86
771.426	2502.46
771.866	833.36
772.306	343.86
772.745	216.46
773.185	179.56
773.625	160.36
774.065	151.26
774.505	171.26
774.944	216.16
775.384	383.46
775.824	643.06
776.263	624.36
776.703	301.46
777.142	170.16
777.582	138.26
778.021	130.96
778.461	133.96
778.9	135.56
779.34	135.86
779.779	122.66
780.219	118.96
780.658	103.86
781.097	114.56
781.537	117.86
781.976	117.56
782.415	114.36
782.855	108.36
783.294	108.36
783.733	109.56
784.172	112.36
784.611	111.96
785.05	115.66
785.489	113.26
785.928	122.46
786.367	129.26
786.806	124.96
787.245	139.06
787.684	142.86
788.123	150.06
788.562	143.16
789.001	132.76
789.44	128.06
789.879	124.46
790.317	125.66
790.756	137.06
791.195	133.46
791.634	157.26
792.072	215.76
792.511	386.16
792.95	1057.96
793.388	2224.26
793.827	2002.96
794.265	711.56
794.704	294.16
795.142	192.86
795.581	153.66
796.019	144.56
796.458	132.76
796.896	136.06
797.334	132.36
797.773	172.86
798.211	234.46
798.649	463.76
799.087	1076.96
799.526	1677.16
799.964	2124.66
800.402	2110.76
800.84	799.26
801.278	319.36
801.716	197.96
802.154	160.76
802.592	151.96
803.03	142.66
803.468	139.56
803.906	150.06
804.344	154.56
804.782	150.26
805.22	143.56
805.658	137.16
806.096	158.16
806.533	160.86
806.971	185.46
807.409	233.06
807.847	342.26
808.284	704.56
808.722	1989.46
809.16	3497.06
809.597	3319.16
810.035	5722.16
810.472	6108.26
810.91	2220.96
811.347	838.76
811.785	429.16
812.222	276.16
812.66	207.16
813.097	171.26
813.535	150.96
813.972	135.36
814.409	124.16
814.846	116.56
815.284	112.56
815.721	113.96
816.158	111.96
816.595	117.56
817.032	164.76
817.47	189.46
817.907	143.96
818.344	110.36
818.781	110.16
819.218	99.56
819.655	131.26
820.092	204.56
820.529	227.66
820.966	179.36
821.403	130.36
821.839	108.76
822.276	103.96
822.713	128.66
823.15	150.36
823.587	127.16
824.023	163.16
824.46	324.76
824.897	946.46
825.333	1426.96
825.77	618.76
826.206	244.06
826.643	138.66
827.08	105.36
827.516	93.96
827.953	80.56
828.389	84.66
828.825	80.76
829.262	76.26
829.698	64.36
830.135	67.06
830.571	61.76
831.007	69.66
831.443	66.46
831.88	65.56
832.316	62.36
832.752	62.06
833.188	68.76
833.624	62.76
834.06	75.96
834.497	73.36
834.933	78.26
835.369	80.46
835.805	72.26
836.241	77.96
836.677	90.16
837.112	87.76
837.548	107.46
837.984	137.66
838.42	227.96
838.856	525.16
839.292	1606.86
839.727	2438.06
840.163	1140.96
840.599	969.86
841.034	2143.06
841.47	2232.76
841.906	820.46
842.341	348.06
842.777	202.56
843.212	213.46
843.648	199.76
844.083	121.16
844.519	82.76
844.954	72.96
845.39	63.16
845.825	59.86
846.261	54.86
846.696	51.66
847.131	59.26
847.566	61.26
848.002	56.06
848.437	58.96
848.872	63.36
849.307	58.26
849.742	92.16
850.177	187.66
850.613	585.06
851.048	918.26
851.483	403.96
851.918	166.96
852.353	90.16
852.788	62.96
853.223	59.36
853.657	55.76
854.092	50.86
854.527	44.46
854.962	46.56
855.397	45.56
855.832	51.96
856.266	42.96
856.701	46.86
857.136	39.56
857.57	41.36
858.005	54.86
858.44	70.06
858.874	47.46
859.309	54.86
859.743	39.66
860.178	53.96
860.612	42.16
861.047	57.16
861.481	82.26
861.915	81.96
862.35	56.56
862.784	31.66
863.218	40.66
863.653	32.56
864.087	48.46
864.521	57.16
864.955	69.66
865.39	162.36
865.824	182.96
866.258	125.76
866.692	185.06
867.126	187.06
867.56	118.16
867.994	55.86
868.428	41.76
868.862	51.96
869.296	68.16
869.73	66.16
870.164	57.36
870.598	53.16
871.031	38.26
871.465	36.96
871.899	29.86
872.333	34.16
872.766	30.66
873.2	24.36
873.634	32.06
874.067	27.56
874.501	26.46
874.935	36.36
875.368	34.36
875.802	33.86
876.235	25.86
876.669	25.96
877.102	22.96
877.535	31.36
877.969	24.26
878.402	27.26
878.836	15.16
879.269	27.16
879.702	25.06
880.135	27.46
880.569	19.46
881.002	24.76
881.435	25.26
881.868	21.16
882.301	16.16
882.734	17.26
883.167	26.76
883.601	24.96
884.034	22.26
884.467	18.56
884.899	27.66
885.332	16.36
885.765	16.26
886.198	14.36
886.631	14.96
887.064	23.36
887.497	24.26
887.929	28.76
888.362	15.26
888.795	22.76
889.228	15.76
889.66	24.86
890.093	19.96
890.526	17.96
890.958	17.26
891.391	25.36
891.823	29.36
892.256	17.46
892.688	12.86
893.121	21.76
893.553	14.76
893.985	21.36
894.418	23.56
894.85	16.06
895.282	20.56
895.715	17.06
896.147	23.06
896.579	24.76
897.011	16.16
897.444	23.66
897.876	18.36
898.308	20.26
898.74	19.36
899.172	19.06
899.604	18.36
900.036	27.16
900.468	10.96
900.9	18.06
901.332	21.86
901.764	15.56
902.196	23.96
902.628	20.86
903.06	19.26
903.491	33.46
903.923	24.56
904.355	24.86
904.787	19.46
905.218	22.66
905.65	22.06
906.082	13.96
906.513	14.36
906.945	17.06
907.376	16.76
907.808	20.66
908.239	19.96
908.671	19.06
909.102	19.66
909.534	27.06
909.965	44.26
910.397	101.96
910.828	328.16
911.259	502.86
911.691	232.56
912.122	109.96
912.553	55.86
912.984	40.86
913.415	26.96
913.847	25.86
914.278	16.16
914.709	20.86
915.14	18.96
915.571	14.76
916.002	16.56
916.433	25.16
916.864	20.26
917.295	18.36
917.726	22.26
918.157	18.46
918.587	29.96
919.018	22.76
919.449	26.96
919.88	25.76
920.311	32.66
920.741	52.16
921.172	172.46
921.603	157.76
922.033	78.76
922.464	45.96
922.895	27.76
923.325	24.46
923.756	18.06
924.186	16.46
924.617	23.46
925.047	19.56
925.478	25.66
925.908	25.56
926.338	16.16
926.769	13.56
927.199	16.96
927.629	7.76
928.06	6.46
928.49	14.06
928.92	11.26
929.35	11.46
929.78	13.66
930.21	4.66
930.641	5.26
931.071	10.56
931.501	2.66
931.931	5.26
932.361	9.16
932.791	4.66
933.221	6.76
933.651	9.76
934.08	18.86
934.51	33.06
934.94	7.86
935.37	5.26
935.8	9.76
936.229	12.86
936.659	12.26
937.089	7.86
937.519	19.66
937.948	23.96
938.378	17.26
938.807	1.26
939.237	6.06
939.666	4.36
940.096	-2.74
940.525	3.46
940.955	7.36
941.384	2.26
941.814	-3.24
942.243	-0.34
942.672	3.46
943.102	2.46
943.531	-4.14
943.96	10.46
944.39	2.56
944.819	-3.04
945.248	0.96
945.677	4.66
946.106	8.26
946.535	4.66
946.964	-0.64
947.393	0.46
947.822	3.56
948.251	-0.44
948.68	1.66
949.109	-0.64
949.538	6.76
949.967	-5.04
950.396	3.06
950.825	1.06
951.254	-5.44
951.682	-7.14
952.111	4.66
952.54	9.36
952.969	-4.24
953.397	-8.34
953.826	-0.54
954.254	0.76
954.683	5.36
955.112	-6.24
955.54	0.86
955.969	2.36
956.397	4.26
956.826	-2.74
957.254	5.66
957.682	6.66
958.111	3.16
958.539	-3.74
958.967	3.86
959.396	0.36
959.824	0.86
960.252	6.46
960.68	-0.84
961.109	1.96
961.537	0.86
961.965	2.86
962.393	4.36
962.821	-3.54
963.249	-0.94
963.677	0.76
964.105	6.16
964.533	47.36
964.961	42.56
965.389	19.46
965.817	12.66
966.245	3.76
966.672	4.26
967.1	-4.14
967.528	1.16
967.956	-4.64
968.383	-3.34
968.811	-4.34
969.239	-3.14
969.666	-1.34
970.094	9.06
970.522	1.06
970.949	2.46
971.377	-3.94
971.804	1.66
972.232	1.26
972.659	3.06
973.087	-2.64
973.514	0.56
973.941	1.36
974.369	2.76
974.796	4.86
975.223	1.76
975.651	-1.84
976.078	5.26
976.505	-1.14
976.932	6.56
977.359	19.36
977.786	20.76
978.214	-5.14
978.641	-2.14
979.068	-2.44
979.495	-2.64
979.922	-5.74
980.349	1.16
980.776	4.76
981.202	-1.94
981.629	4.46
982.056	0.26
982.483	-2.84
982.91	3.56
983.337	-8.24
983.763	4.56
984.19	-3.54
984.617	1.86
985.043	-1.94
985.47	0.96
985.897	-1.74
986.323	-10.94
986.75	4.06
987.176	0.16
987.603	-1.64
988.029	-1.84
988.456	-3.14
988.882	5.46
989.308	-3.44
989.735	1.06
990.161	3.26
990.587	-1.94
991.014	3.56
991.44	2.46
991.866	-0.84
992.292	-6.04
992.719	2.46
993.145	3.96
993.571	-10.44
993.997	-6.74
994.423	-5.84
994.849	-0.24
995.275	-1.94
995.701	3.66
996.127	-5.54
996.553	0.96
996.979	-1.74
997.405	0.56
997.83	-7.24
998.256	-5.04
998.682	-5.04
999.108	-11.84
999.534	-0.44
999.959	0.76
1000.385	-9.54
1000.811	-1.24
1001.236	-3.44
1001.662	-4.24
1002.087	-7.24
1002.513	0.76
1002.938	-0.24
1003.364	-1.44
1003.789	1.86
1004.215	-0.04
1004.64	1.16
1005.066	1.16
1005.491	1.36
1005.916	0.06
1006.342	1.96
1006.767	-1.64
1007.192	6.46
1007.617	-5.44
1008.042	-1.34
1008.468	-2.54
1008.893	-3.94
1009.318	-0.54
1009.743	-2.94
1010.168	6.86
1010.593	4.86
1011.018	-6.74
1011.443	-0.24
1011.868	1.06
1012.293	-2.34
1012.718	-4.84
1013.143	4.16
1013.567	-2.14
1013.992	-0.44
1014.417	-14.14
1014.842	0.66
1015.267	-7.54
1015.691	-5.44
1016.116	8.96
1016.541	2.36
1016.965	8.26
1017.39	1.26
1017.814	-2.54
1018.239	0.26
1018.663	-8.64
1019.088	-5.74
1019.512	-1.14
1019.937	1.96
1020.361	-5.44
1020.785	-5.04
1021.21	3.46
1021.634	-3.54
1022.058	2.36
1022.483	4.96
1022.907	-2.14
1023.331	-3.54
1023.755	-4.04
1024.179	-4.04
1024.604	-10.64
1025.028	-8.04
1025.452	-5.44
1025.876	5.36
1026.3	4.66
1026.724	-6.04
1027.148	-1.04
1027.572	-10.74
1027.996	-4.14
1028.42	-0.14
1028.843	-1.54
1029.267	-7.94
1029.691	-0.64
1030.115	-6.14
1030.539	0.66
1030.962	-5.84
1031.386	-2.54
1031.81	0.66
1032.233	0.26
1032.657	-3.24
1033.08	0.36
1033.504	0.86
1033.927	-3.54
1034.351	5.86
1034.774	3.26
1035.198	-4.74
1035.621	-7.74
1036.045	-8.24
1036.468	4.16
1036.891	-7.24
1037.315	-10.84
1037.738	-6.94
1038.161	-0.64
1038.584	-7.34
1039.008	-12.64
1039.431	-2.04
1039.854	-4.34
1040.277	-8.14
1040.7	-16.94
1041.123	8.46
1041.546	-4.54
1041.969	0.76
1042.392	-6.94
1042.815	-6.84
1043.238	2.96
1043.661	4.86
1044.084	-7.34
1044.507	-6.14
1044.93	-1.44
1045.352	-5.94
1045.775	-2.24
1046.198	-0.84
1046.621	2.66
1047.043	-1.24
1047.466	9.26
1047.889	-0.84
1048.311	-5.04
1048.734	-0.04
1049.156	-4.94
1049.579	1.86
1050.001	-9.44
1050.424	-2.64
1050.846	-4.14
1051.269	-5.84
1051.691	-6.34
1052.113	-2.64
1052.536	0.56
1052.958	0.56
1053.38	0.06
1053.802	-3.44
1054.225	2.46
1054.647	-2.64
1055.069	-7.84
1055.491	0.06
1055.913	-11.14
1056.335	2.86
1056.757	-3.24
1057.179	-4.84
1057.601	-7.04
1058.023	-1.64
1058.445	-7.14
1058.867	-8.44
1059.289	-6.04
1059.711	-7.24
1060.133	3.26
1060.555	-8.34
1060.976	-3.74
1061.398	-3.14
1061.82	-2.64
1062.241	-5.54
1062.663	-10.24
1063.085	-10.54
1063.506	2.66
1063.928	-5.54
1064.35	-6.54
1064.771	-12.64
1065.193	-2.54
1065.614	-12.04
1066.035	1.46
1066.457	-2.04
1066.878	4.46
1067.3	-2.34
1067.721	-4.44
1068.142	-0.44
1068.564	-1.74
1068.985	-4.14
1069.406	-5.14
1069.827	-7.14
1070.248	-2.84
1070.67	-2.84
1071.091	-7.04
1071.512	-2.64
1071.933	-11.94
1072.354	-10.74
1072.775	-11.54
1073.196	-7.54
1073.617	-5.34
1074.038	-0.74
1074.459	-2.74
1074.88	-3.94
1075.3	0.96
1075.721	-4.64
1076.142	4.66
1076.563	-5.24
1076.983	-15.24
1077.404	-9.04
1077.825	-4.64
1078.246	-6.64
1078.666	-12.64
1079.087	-5.84
1079.507	-6.44
1079.928	1.76
1080.348	3.36
1080.769	-9.34
1081.189	-4.74
1081.61	-3.64
1082.03	-8.74
1082.451	-6.94
1082.871	-3.14
1083.291	-4.24
1083.711	-9.04
1084.132	-0.44
1084.552	-4.64
1084.972	1.06
1085.392	-7.24
1085.813	-12.34
1086.233	-6.64
1086.653	-2.14
1087.073	-1.54
1087.493	-7.44
1087.913	-4.44
1088.333	-2.64
1088.753	-0.44
1089.173	3.86
1089.593	-1.64
1090.013	0.06
1090.433	0.66
1090.852	0.36
1091.272	-5.34
1091.692	-2.64
1092.112	-2.24
1092.531	-8.34
1092.951	-8.14
1093.371	-1.64
1093.79	-1.34
1094.21	-2.74
1094.63	1.16
1095.049	-2.14
1095.469	-5.14
1095.888	-4.64
1096.308	0.86
1096.727	3.36
1097.146	-6.94
1097.566	-6.44
1097.985	-4.64
1098.405	-5.14
1098.824	-2.94
1099.243	-6.24
1099.662	-7.34
1100.082	-5.74
1100.501	-4.94
1100.92	-4.74
1101.339	-0.54
1101.758	-2.64
