Data from 20171114-ORNL-Ar_H_NY_Subt18_08-04-12-435.txt Node
Date: Tue Nov 14 08:04:12 EST 2017
User: Ender
Spectrometer: HR+D1039
Trigger mode: 0
Integration Time (sec): 2.730000E-2
Scans to average: 10
Electric dark correction enabled: true
Nonlinearity correction enabled: false
Boxcar width: 0
XAxis mode: Wavelengths
Number of Pixels in Spectrum: 2048
>>>>>Begin Spectral Data<<<<<
187.836	-7.34
188.309	-7.34
188.782	-7.34
189.255	-2.84
189.728	-0.44
190.201	6.86
190.674	-0.14
191.147	2.86
191.619	-9.14
192.092	2.66
192.565	3.66
193.038	0.56
193.511	-2.74
193.984	2.56
194.456	-3.64
194.929	2.56
195.402	0.26
195.874	4.36
196.347	-1.74
196.82	-5.04
197.292	5.16
197.765	-7.04
198.237	-4.74
198.71	1.96
199.182	-3.24
199.655	-2.04
200.127	3.76
200.6	-2.34
201.072	-2.34
201.544	2.06
202.017	-0.34
202.489	0.56
202.961	-1.54
203.433	-2.54
203.906	-9.04
204.378	-1.74
204.85	-8.34
205.322	-5.14
205.794	0.76
206.266	-6.54
206.739	-3.84
207.211	-0.34
207.683	-5.84
208.155	-5.34
208.627	0.66
209.099	1.76
209.57	-7.74
210.042	-3.84
210.514	-6.44
210.986	-0.74
211.458	-8.24
211.93	-2.04
212.402	3.16
212.873	-0.14
213.345	-8.94
213.817	-8.04
214.288	0.06
214.76	-6.24
215.232	-0.34
215.703	-5.64
216.175	-1.74
216.646	-4.64
217.118	-7.14
217.589	-6.04
218.061	-0.94
218.532	-2.24
219.004	1.86
219.475	0.16
219.946	-9.24
220.418	-2.94
220.889	2.86
221.36	3.36
221.832	-4.64
222.303	-3.44
222.774	-1.44
223.245	-5.74
223.717	-6.94
224.188	-6.24
224.659	-5.14
225.13	-7.54
225.601	-7.44
226.072	0.56
226.543	-2.24
227.014	6.56
227.485	0.66
227.956	-1.24
228.427	-2.34
228.898	2.06
229.369	-1.14
229.839	1.96
230.31	-4.54
230.781	7.86
231.252	-3.34
231.722	2.66
232.193	-6.74
232.664	-5.14
233.135	-3.54
233.605	-1.14
234.076	-6.14
234.546	3.16
235.017	5.26
235.487	3.26
235.958	-2.94
236.428	-6.64
236.899	6.56
237.369	6.06
237.84	-3.04
238.31	4.36
238.78	0.96
239.251	3.36
239.721	9.46
240.191	7.16
240.662	-4.04
241.132	1.26
241.602	1.36
242.072	0.16
242.542	6.16
243.013	-3.14
243.483	5.56
243.953	2.86
244.423	4.46
244.893	-1.94
245.363	7.96
245.833	13.16
246.303	2.56
246.773	7.86
247.243	0.36
247.712	4.46
248.182	9.46
248.652	9.66
249.122	-2.74
249.592	14.36
250.061	17.56
250.531	37.06
251.001	14.26
251.471	17.86
251.94	21.26
252.41	5.76
252.879	4.16
253.349	6.46
253.818	9.06
254.288	3.56
254.757	1.76
255.227	3.16
255.696	-0.64
256.166	3.96
256.635	6.26
257.105	7.36
257.574	4.06
258.043	7.86
258.513	4.06
258.982	16.56
259.451	3.96
259.92	8.96
260.389	14.96
260.859	10.96
261.328	8.16
261.797	17.16
262.266	5.76
262.735	7.66
263.204	9.56
263.673	4.46
264.142	5.86
264.611	3.86
265.08	-0.94
265.549	5.06
266.018	6.96
266.487	-3.24
266.955	-4.74
267.424	5.96
267.893	6.06
268.362	4.56
268.83	3.96
269.299	7.56
269.768	5.66
270.236	1.06
270.705	4.36
271.174	6.26
271.642	4.66
272.111	6.96
272.579	12.56
273.048	17.16
273.516	21.06
273.985	25.86
274.453	20.46
274.922	13.46
275.39	9.26
275.858	2.56
276.327	6.96
276.795	18.16
277.263	9.16
277.731	22.36
278.2	46.06
278.668	47.16
279.136	44.06
279.604	18.36
280.072	15.06
280.54	12.56
281.008	9.76
281.477	13.76
281.945	3.36
282.413	10.46
282.881	12.56
283.348	7.26
283.816	12.76
284.284	14.86
284.752	17.56
285.22	11.06
285.688	15.16
286.156	16.36
286.623	41.36
287.091	34.46
287.559	21.66
288.026	14.36
288.494	10.36
288.962	3.66
289.429	10.46
289.897	17.76
290.364	9.96
290.832	17.86
291.3	15.66
291.767	17.56
292.234	15.56
292.702	9.06
293.169	16.26
293.637	21.06
294.104	21.36
294.571	6.26
295.039	7.76
295.506	12.66
295.973	17.16
296.44	17.16
296.908	21.06
297.375	15.96
297.842	13.16
298.309	14.16
298.776	6.46
299.243	22.26
299.71	14.76
300.177	15.96
300.644	14.06
301.111	14.06
301.578	20.06
302.045	13.26
302.512	19.46
302.979	23.06
303.446	22.96
303.913	15.46
304.379	15.16
304.846	18.96
305.313	19.16
305.78	17.76
306.246	16.26
306.713	21.36
307.18	24.16
307.646	28.46
308.113	22.76
308.579	20.56
309.046	23.56
309.512	26.36
309.979	15.26
310.445	26.36
310.912	24.36
311.378	28.86
311.845	22.36
312.311	27.36
312.777	26.76
313.244	26.46
313.71	30.46
314.176	22.36
314.642	30.56
315.109	22.66
315.575	28.16
316.041	31.06
316.507	27.46
316.973	37.66
317.439	27.36
317.905	27.86
318.371	30.66
318.837	34.56
319.303	23.76
319.769	33.36
320.235	23.76
320.701	31.86
321.167	34.06
321.633	28.26
322.099	30.16
322.564	35.56
323.03	34.26
323.496	31.46
323.962	35.16
324.427	30.36
324.893	42.46
325.359	38.86
325.824	34.86
326.29	29.76
326.755	29.86
327.221	34.06
327.686	31.66
328.152	37.46
328.617	33.16
329.083	40.36
329.548	44.66
330.014	48.06
330.479	33.76
330.944	41.36
331.41	36.46
331.875	39.96
332.34	45.26
332.805	36.86
333.271	40.16
333.736	32.26
334.201	44.26
334.666	50.36
335.131	44.96
335.596	45.86
336.061	42.06
336.526	37.16
336.991	42.76
337.456	49.26
337.921	42.76
338.386	40.16
338.851	43.46
339.316	42.06
339.781	41.36
340.246	42.86
340.711	46.36
341.175	44.16
341.64	38.86
342.105	41.76
342.569	44.86
343.034	55.06
343.499	46.56
343.963	37.76
344.428	55.96
344.893	51.36
345.357	54.96
345.822	55.46
346.286	59.76
346.751	58.86
347.215	56.86
347.679	58.86
348.144	80.06
348.608	64.96
349.073	56.16
349.537	64.76
350.001	64.46
350.465	72.36
350.93	73.16
351.394	73.06
351.858	64.06
352.322	77.76
352.786	67.66
353.25	80.16
353.715	94.66
354.179	85.06
354.643	103.06
355.107	105.76
355.571	88.06
356.035	89.36
356.498	97.46
356.962	101.76
357.426	118.26
357.89	95.06
358.354	80.16
358.818	79.66
359.281	71.86
359.745	66.06
360.209	67.36
360.673	65.16
361.136	64.06
361.6	71.06
362.064	70.96
362.527	76.06
362.991	76.56
363.454	59.06
363.918	65.56
364.381	69.36
364.845	69.06
365.308	71.86
365.772	73.56
366.235	76.66
366.698	76.66
367.162	72.76
367.625	71.06
368.088	71.76
368.552	74.76
369.015	81.16
369.478	84.16
369.941	90.46
370.404	82.36
370.867	89.46
371.331	91.06
371.794	100.56
372.257	101.66
372.72	102.56
373.183	99.46
373.646	89.86
374.109	90.26
374.572	92.96
375.035	95.16
375.497	104.06
375.96	91.06
376.423	95.56
376.886	97.16
377.349	101.46
377.811	88.76
378.274	91.56
378.737	86.76
379.199	95.96
379.662	96.26
380.125	107.06
380.587	101.66
381.05	106.16
381.512	113.86
381.975	124.66
382.437	117.46
382.9	111.56
383.362	115.26
383.825	116.06
384.287	129.56
384.75	116.86
385.212	120.36
385.674	124.36
386.136	116.56
386.599	115.86
387.061	111.26
387.523	112.76
387.985	120.86
388.447	124.86
388.91	120.46
389.372	137.66
389.834	133.46
390.296	123.26
390.758	137.06
391.22	148.16
391.682	174.66
392.144	250.26
392.606	200.16
393.068	143.26
393.529	150.16
393.991	136.46
394.453	131.56
394.915	141.96
395.377	168.76
395.838	188.36
396.3	134.56
396.762	127.96
397.224	122.76
397.685	111.56
398.147	119.26
398.608	120.16
399.07	109.86
399.531	122.56
399.993	135.36
400.454	140.46
400.916	128.26
401.377	126.06
401.839	132.16
402.3	135.96
402.762	147.16
403.223	158.06
403.684	159.66
404.145	148.76
404.607	143.66
405.068	154.36
405.529	151.26
405.99	173.86
406.451	154.86
406.913	151.86
407.374	144.66
407.835	138.06
408.296	152.26
408.757	152.56
409.218	165.06
409.679	158.06
410.14	156.36
410.601	163.36
411.062	162.46
411.522	166.16
411.983	164.66
412.444	157.66
412.905	166.36
413.366	166.46
413.826	173.96
414.287	193.86
414.748	237.86
415.208	221.66
415.669	190.16
416.13	190.36
416.59	187.46
417.051	188.66
417.511	202.16
417.972	208.76
418.432	220.96
418.893	259.16
419.353	225.86
419.814	178.86
420.274	170.76
420.734	155.96
421.195	172.76
421.655	183.06
422.115	175.26
422.576	175.06
423.036	183.46
423.496	187.56
423.956	194.76
424.416	208.66
424.876	234.96
425.336	228.76
425.797	234.56
426.257	234.96
426.717	212.46
427.177	208.06
427.637	205.56
428.097	209.96
428.556	220.16
429.016	238.96
429.476	225.76
429.936	240.86
430.396	240.36
430.856	260.76
431.315	276.26
431.775	312.66
432.235	328.16
432.694	316.86
433.154	314.56
433.614	342.26
434.073	286.96
434.533	256.76
434.993	243.76
435.452	248.76
435.912	253.36
436.371	245.16
436.83	247.66
437.29	234.06
437.749	220.46
438.209	223.66
438.668	232.36
439.127	239.76
439.587	230.66
440.046	220.36
440.505	228.26
440.964	234.36
441.424	274.96
441.883	264.86
442.342	226.36
442.801	191.56
443.26	196.06
443.719	199.96
444.178	203.36
444.637	191.56
445.096	201.66
445.555	199.16
446.014	196.26
446.473	196.06
446.932	201.16
447.391	201.56
447.849	204.96
448.308	201.46
448.767	198.76
449.226	208.56
449.685	212.06
450.143	225.96
450.602	216.06
451.061	203.66
451.519	211.76
451.978	211.16
452.436	210.36
452.895	209.46
453.353	219.56
453.812	209.86
454.27	210.26
454.729	215.26
455.187	213.06
455.646	219.06
456.104	224.86
456.562	236.16
457.021	233.16
457.479	226.16
457.937	238.86
458.395	234.66
458.854	222.76
459.312	234.66
459.77	233.76
460.228	224.66
460.686	224.26
461.144	227.06
461.602	224.46
462.06	212.06
462.518	225.56
462.976	227.56
463.434	235.46
463.892	233.56
464.35	246.16
464.808	260.26
465.266	237.56
465.724	248.56
466.181	249.76
466.639	244.66
467.097	258.76
467.555	265.86
468.012	272.56
468.47	284.56
468.928	295.06
469.385	308.46
469.843	303.36
470.3	301.66
470.758	320.26
471.215	333.66
471.673	357.86
472.13	346.36
472.588	355.96
473.045	327.06
473.503	334.66
473.96	356.46
474.417	359.16
474.875	381.16
475.332	418.06
475.789	408.06
476.246	423.76
476.704	438.86
477.161	449.06
477.618	463.86
478.075	495.06
478.532	542.16
478.989	608.66
479.446	694.86
479.903	682.16
480.36	719.16
480.817	776.36
481.274	872.76
481.731	960.36
482.188	1036.36
482.645	1170.86
483.102	1255.46
483.558	1372.66
484.015	1426.16
484.472	1411.36
484.929	1376.76
485.385	1324.46
485.842	1287.76
486.299	1218.96
486.755	1152.86
487.212	977.96
487.668	825.46
488.125	763.86
488.582	700.56
489.038	676.06
489.494	645.76
489.951	614.76
490.407	613.96
490.864	588.66
491.32	575.76
491.776	575.26
492.233	571.06
492.689	544.66
493.145	546.86
493.602	534.06
494.058	545.16
494.514	546.46
494.97	563.16
495.426	569.66
495.882	545.96
496.338	544.76
496.794	555.56
497.251	558.06
497.707	564.96
498.163	568.86
498.618	570.26
499.074	568.46
499.53	599.56
499.986	595.66
500.442	582.46
500.898	569.06
501.354	557.56
501.809	571.56
502.265	579.66
502.721	592.26
503.177	600.36
503.632	588.96
504.088	597.86
504.543	631.76
504.999	625.56
505.455	582.26
505.91	558.06
506.366	568.36
506.821	561.56
507.277	549.36
507.732	561.56
508.187	556.16
508.643	562.56
509.098	560.06
509.553	586.46
510.009	598.16
510.464	598.36
510.919	618.36
511.375	617.56
511.83	630.66
512.285	637.86
512.74	671.36
513.195	696.46
513.65	681.76
514.105	689.36
514.56	688.36
515.015	700.56
515.47	718.66
515.925	702.26
516.38	711.16
516.835	709.46
517.29	708.16
517.745	696.06
518.2	679.96
518.655	668.16
519.109	670.46
519.564	660.46
520.019	647.76
520.474	645.76
520.928	640.86
521.383	633.16
521.838	629.56
522.292	628.06
522.747	634.96
523.201	623.46
523.656	605.76
524.11	607.56
524.565	608.56
525.019	614.86
525.474	612.96
525.928	612.36
526.382	606.46
526.837	609.06
527.291	621.56
527.745	613.36
528.2	617.06
528.654	600.76
529.108	612.46
529.562	610.46
530.016	602.26
530.47	606.96
530.925	611.86
531.379	610.06
531.833	618.36
532.287	619.56
532.741	616.26
533.195	617.46
533.649	636.56
534.103	639.26
534.556	619.76
535.01	630.96
535.464	622.16
535.918	637.06
536.372	639.26
536.826	622.96
537.279	620.86
537.733	633.26
538.187	629.76
538.64	632.46
539.094	629.46
539.548	634.86
540.001	629.16
540.455	631.76
540.908	648.66
541.362	647.36
541.815	644.86
542.269	661.76
542.722	660.76
543.175	669.16
543.629	667.86
544.082	691.96
544.536	681.66
544.989	699.86
545.442	695.66
545.895	687.36
546.349	691.46
546.802	691.06
547.255	695.36
547.708	706.16
548.161	711.76
548.614	709.96
549.067	719.26
549.52	723.26
549.973	703.96
550.426	707.56
550.879	696.06
551.332	699.26
551.785	700.66
552.238	698.96
552.691	708.16
553.144	712.26
553.596	736.16
554.049	748.26
554.502	763.86
554.955	789.76
555.407	787.06
555.86	779.16
556.313	771.96
556.765	751.06
557.218	757.56
557.67	765.56
558.123	765.86
558.576	755.66
559.028	752.96
559.48	763.66
559.933	751.46
560.385	735.06
560.838	702.56
561.29	690.96
561.742	679.06
562.195	661.56
562.647	650.86
563.099	662.36
563.551	662.76
564.004	682.36
564.456	662.26
564.908	657.66
565.36	644.16
565.812	627.66
566.264	629.56
566.716	626.76
567.168	609.66
567.62	624.56
568.072	602.46
568.524	597.26
568.976	592.06
569.428	570.56
569.88	576.36
570.332	579.46
570.784	587.96
571.235	573.56
571.687	592.16
572.139	591.26
572.59	611.46
573.042	609.46
573.494	610.06
573.945	605.86
574.397	580.66
574.849	583.76
575.3	581.36
575.752	581.26
576.203	572.16
576.655	578.76
577.106	557.06
577.557	563.96
578.009	567.06
578.46	565.36
578.912	552.36
579.363	563.26
579.814	561.76
580.265	558.86
580.717	561.36
581.168	563.06
581.619	576.26
582.07	575.26
582.521	573.46
582.972	564.46
583.423	572.66
583.875	570.46
584.326	593.06
584.777	619.76
585.227	694.76
585.678	767.66
586.129	842.06
586.58	904.76
587.031	969.56
587.482	1119.76
587.933	1293.66
588.384	1103.66
588.834	826.06
589.285	674.96
589.736	660.16
590.186	651.96
590.637	636.96
591.088	634.66
591.538	619.56
591.989	619.86
592.439	611.26
592.89	605.46
593.34	591.86
593.791	595.16
594.241	585.56
594.692	595.56
595.142	577.46
595.593	577.56
596.043	597.96
596.493	591.76
596.943	593.76
597.394	600.86
597.844	596.46
598.294	602.66
598.744	634.36
599.195	637.76
599.645	682.26
600.095	704.86
600.545	747.96
600.995	802.06
601.445	848.66
601.895	898.16
602.345	938.86
602.795	934.06
603.245	882.76
603.695	842.36
604.145	790.26
604.594	753.86
605.044	709.86
605.494	664.96
605.944	626.06
606.393	607.96
606.843	604.66
607.293	607.56
607.743	598.86
608.192	615.16
608.642	622.96
609.091	622.66
609.541	635.96
609.99	628.26
610.44	616.36
610.889	598.66
611.339	566.76
611.788	560.96
612.238	565.66
612.687	581.16
613.136	583.46
613.586	605.36
614.035	601.16
614.484	615.16
614.933	617.96
615.383	613.46
615.832	600.76
616.281	586.06
616.73	559.46
617.179	544.46
617.628	525.86
618.077	516.36
618.526	510.06
618.975	506.76
619.424	504.16
619.873	500.16
620.322	504.66
620.771	496.46
621.22	482.16
621.669	488.16
622.118	472.56
622.567	461.36
623.015	465.46
623.464	467.56
623.913	455.36
624.361	448.46
624.81	444.56
625.259	453.36
625.707	454.36
626.156	453.86
626.604	464.86
627.053	459.26
627.501	455.56
627.95	461.66
628.398	470.56
628.847	453.66
629.295	468.56
629.744	473.86
630.192	462.06
630.64	466.76
631.089	461.86
631.537	464.56
631.985	468.46
632.433	474.06
632.881	483.06
633.33	527.06
633.778	505.26
634.226	455.86
634.674	454.36
635.122	459.46
635.57	474.56
636.018	490.46
636.466	472.86
636.914	447.26
637.362	465.36
637.81	466.36
638.258	466.86
638.705	460.96
639.153	487.76
639.601	499.46
640.049	518.26
640.497	537.66
640.944	560.66
641.392	523.16
641.84	493.36
642.287	467.96
642.735	451.46
643.182	464.06
643.63	463.26
644.078	467.36
644.525	464.46
644.973	478.76
645.42	481.76
645.867	499.06
646.315	509.66
646.762	523.26
647.21	545.26
647.657	564.46
648.104	611.86
648.551	617.76
648.999	657.66
649.446	715.56
649.893	789.46
650.34	907.86
650.787	1091.66
651.234	1349.76
651.682	1735.76
652.129	2383.36
652.576	3403.66
653.023	5075.36
653.47	7035.96
653.917	8924.86
654.363	10490.36
654.81	11828.96
655.257	11247.46
655.704	7240.06
656.151	4290.26
656.598	2757.46
657.044	1953.46
657.491	1495.96
657.938	1193.56
658.385	999.16
658.831	864.06
659.278	761.86
659.724	672.76
660.171	623.76
660.618	572.96
661.064	545.06
661.511	519.46
661.957	510.46
662.404	481.16
662.85	501.36
663.296	485.56
663.743	438.76
664.189	427.66
664.635	418.96
665.082	411.96
665.528	416.16
665.974	412.96
666.42	401.36
666.867	396.06
667.313	390.06
667.759	380.46
668.205	380.16
668.651	385.36
669.097	387.46
669.543	398.06
669.989	378.26
670.435	359.26
670.881	350.96
671.327	355.76
671.773	369.46
672.219	382.76
672.665	433.36
673.11	458.66
673.556	502.16
674.002	526.56
674.448	523.96
674.893	444.16
675.339	371.06
675.785	348.06
676.23	335.76
676.676	305.86
677.122	301.86
677.567	294.06
678.013	293.76
678.458	281.66
678.904	283.06
679.349	271.56
679.794	283.96
680.24	270.86
680.685	271.36
681.131	271.96
681.576	277.16
682.021	286.66
682.466	280.26
682.912	276.36
683.357	273.06
683.802	293.26
684.247	317.56
684.692	349.66
685.137	390.26
685.583	420.36
686.028	448.16
686.473	406.86
686.918	346.56
687.363	328.16
687.807	310.46
688.252	283.76
688.697	277.66
689.142	265.96
689.587	255.86
690.032	248.36
690.477	265.86
690.921	272.16
691.366	301.46
691.811	311.36
692.255	337.56
692.7	368.76
693.145	393.66
693.589	525.86
694.034	858.06
694.478	1186.76
694.923	1388.16
695.367	1858.86
695.812	957.16
696.256	398.06
696.701	289.56
697.145	265.26
697.59	258.76
698.034	250.26
698.478	265.16
698.922	256.66
699.367	249.46
699.811	269.76
700.255	276.76
700.699	300.46
701.143	330.46
701.588	376.66
702.032	406.46
702.476	407.56
702.92	393.86
703.364	378.26
703.808	485.56
704.252	781.36
704.696	1134.56
705.14	1338.96
705.584	1726.36
706.027	851.36
706.471	411.96
706.915	312.76
707.359	273.06
707.803	250.26
708.246	245.16
708.69	240.86
709.134	246.56
709.577	241.06
710.021	248.96
710.465	236.86
710.908	231.86
711.352	237.86
711.795	243.36
712.239	275.96
712.682	299.76
713.126	325.36
713.569	376.56
714.012	294.06
714.456	248.46
714.899	238.66
715.342	216.66
715.786	204.26
716.229	199.46
716.672	203.46
717.115	192.26
717.558	198.86
718.002	194.76
718.445	205.96
718.888	226.66
719.331	232.86
719.774	240.36
720.217	237.76
720.66	215.36
721.103	211.56
721.546	196.26
721.989	201.16
722.432	179.76
722.874	186.76
723.317	173.26
723.76	182.66
724.203	207.26
724.645	246.66
725.088	337.36
725.531	441.76
725.974	508.26
726.416	431.06
726.859	243.16
727.301	190.36
727.744	191.96
728.187	185.76
728.629	185.86
729.071	197.56
729.514	196.96
729.956	213.26
730.399	221.16
730.841	221.36
731.283	212.56
731.726	207.76
732.168	197.96
732.61	203.06
733.053	221.86
733.495	249.96
733.937	276.56
734.379	316.56
734.821	338.26
735.263	413.26
735.705	623.96
736.148	1183.26
736.59	2014.76
737.032	2481.06
737.474	2021.26
737.916	645.46
738.357	338.86
738.799	256.26
739.241	241.06
739.683	227.76
740.125	220.16
740.567	232.26
741.008	246.86
741.45	246.46
741.892	250.16
742.334	272.96
742.775	286.56
743.217	272.96
743.658	208.16
744.1	202.16
744.542	206.06
744.983	250.66
745.425	271.16
745.866	272.36
746.307	226.56
746.749	222.16
747.19	245.16
747.632	350.36
748.073	653.16
748.514	1404.36
748.956	2233.46
749.397	2822.06
749.838	2332.66
750.279	2428.36
750.72	1211.96
751.162	430.96
751.603	249.76
752.044	193.96
752.485	165.06
752.926	161.56
753.367	154.16
753.808	147.96
754.249	147.76
754.69	141.46
755.131	141.46
755.572	136.26
756.013	134.06
756.453	142.36
756.894	147.86
757.335	145.76
757.776	147.96
758.216	152.76
758.657	154.26
759.098	160.76
759.538	173.76
759.979	203.36
760.42	281.76
760.86	528.86
761.301	1352.16
761.741	3432.26
762.182	5336.26
762.622	3746.26
763.063	1062.56
763.503	425.96
763.943	265.36
764.384	268.26
764.824	310.66
765.264	355.66
765.705	240.56
766.145	168.76
766.585	153.16
767.025	139.86
767.465	141.86
767.906	189.76
768.346	253.46
768.786	275.56
769.226	202.86
769.666	239.16
770.106	459.56
770.546	1165.36
770.986	2126.96
771.426	1951.36
771.866	635.96
772.306	254.46
772.745	163.96
773.185	144.66
773.625	133.96
774.065	130.76
774.505	146.46
774.944	225.46
775.384	493.86
775.824	952.76
776.263	946.96
776.703	396.26
777.142	177.96
777.582	122.66
778.021	106.16
778.461	108.36
778.9	108.06
779.34	106.86
779.779	87.26
780.219	90.36
780.658	86.16
781.097	80.66
781.537	82.46
781.976	86.46
782.415	76.36
782.855	74.86
783.294	76.76
783.733	74.86
784.172	85.66
784.611	73.96
785.05	80.96
785.489	81.96
785.928	95.96
786.367	94.86
786.806	90.86
787.245	98.36
787.684	102.96
788.123	116.56
788.562	103.46
789.001	102.46
789.44	94.76
789.879	93.46
790.317	90.16
790.756	102.36
791.195	99.86
791.634	112.56
792.072	157.36
792.511	272.16
792.95	751.96
793.388	1715.36
793.827	1605.06
794.265	542.26
794.704	218.16
795.142	141.06
795.581	118.66
796.019	103.16
796.458	97.46
796.896	97.16
797.334	95.46
797.773	118.56
798.211	167.46
798.649	328.56
799.087	793.36
799.526	1249.56
799.964	1588.56
800.402	1668.46
800.84	612.96
801.278	238.46
801.716	149.36
802.154	117.46
802.592	116.96
803.03	108.16
803.468	102.06
803.906	113.86
804.344	118.46
804.782	103.86
805.22	101.36
805.658	96.26
806.096	118.46
806.533	121.26
806.971	127.96
807.409	172.56
807.847	238.36
808.284	497.66
808.722	1431.36
809.16	2644.86
809.597	2439.76
810.035	4353.36
810.472	4909.66
810.91	1728.96
811.347	638.56
811.785	316.36
812.222	207.66
812.66	160.36
813.097	123.36
813.535	114.46
813.972	99.36
814.409	98.06
814.846	84.76
815.284	77.96
815.721	78.56
816.158	88.06
816.595	92.86
817.032	140.26
817.47	154.66
817.907	128.56
818.344	118.26
818.781	93.46
819.218	78.16
819.655	97.26
820.092	147.26
820.529	179.96
820.966	141.66
821.403	101.16
821.839	86.56
822.276	78.56
822.713	95.96
823.15	108.86
823.587	86.86
824.023	113.46
824.46	221.56
824.897	685.76
825.333	1101.86
825.77	473.96
826.206	182.56
826.643	106.66
827.08	77.96
827.516	61.16
827.953	60.96
828.389	66.16
828.825	58.46
829.262	45.06
829.698	44.16
830.135	54.46
830.571	51.76
831.007	51.66
831.443	51.06
831.88	43.56
832.316	43.26
832.752	54.06
833.188	54.26
833.624	47.56
834.06	59.46
834.497	55.46
834.933	61.36
835.369	56.16
835.805	54.26
836.241	56.06
836.677	56.66
837.112	69.76
837.548	81.36
837.984	106.26
838.42	146.76
838.856	371.66
839.292	1194.76
839.727	1916.56
840.163	868.66
840.599	707.96
841.034	1621.06
841.47	1781.26
841.906	640.86
842.341	268.66
842.777	177.26
843.212	240.96
843.648	252.06
844.083	117.16
844.519	78.36
844.954	56.76
845.39	42.26
845.825	48.56
846.261	42.26
846.696	43.06
847.131	41.66
847.566	50.26
848.002	38.46
848.437	40.86
848.872	47.06
849.307	44.66
849.742	65.16
850.177	133.86
850.613	429.96
851.048	723.66
851.483	307.86
851.918	114.96
852.353	62.36
852.788	43.46
853.223	49.06
853.657	39.86
854.092	39.46
854.527	33.56
854.962	25.36
855.397	40.36
855.832	31.46
856.266	32.46
856.701	29.06
857.136	32.46
857.57	33.56
858.005	40.36
858.44	46.26
858.874	28.36
859.309	39.76
859.743	26.86
860.178	38.26
860.612	32.26
861.047	40.26
861.481	55.46
861.915	53.76
862.35	43.96
862.784	24.56
863.218	29.66
863.653	21.76
864.087	38.46
864.521	41.46
864.955	52.36
865.39	116.66
865.824	141.66
866.258	96.26
866.692	137.76
867.126	149.66
867.56	88.86
867.994	46.86
868.428	29.36
868.862	41.46
869.296	46.96
869.73	48.06
870.164	43.26
870.598	27.46
871.031	29.96
871.465	17.26
871.899	28.66
872.333	14.36
872.766	18.96
873.2	15.56
873.634	27.16
874.067	20.36
874.501	23.06
874.935	30.46
875.368	25.56
875.802	20.26
876.235	18.26
876.669	21.66
877.102	21.46
877.535	18.76
877.969	15.66
878.402	20.86
878.836	16.46
879.269	11.76
879.702	17.76
880.135	16.46
880.569	24.86
881.002	23.26
881.435	20.16
881.868	11.46
882.301	14.16
882.734	12.06
883.167	18.56
883.601	13.46
884.034	13.26
884.467	6.06
884.899	11.26
885.332	16.46
885.765	13.16
886.198	10.46
886.631	10.86
887.064	15.06
887.497	16.36
887.929	14.36
888.362	15.56
888.795	5.16
889.228	10.76
889.66	13.16
890.093	15.16
890.526	12.06
890.958	15.86
891.391	11.16
891.823	18.06
892.256	10.16
892.688	12.36
893.121	11.76
893.553	11.66
893.985	18.76
894.418	12.16
894.85	8.36
895.282	10.26
895.715	8.86
896.147	18.16
896.579	11.66
897.011	13.66
897.444	13.56
897.876	16.26
898.308	11.66
898.74	7.46
899.172	8.06
899.604	20.16
900.036	17.96
900.468	13.06
900.9	14.56
901.332	12.36
901.764	10.46
902.196	16.16
902.628	12.46
903.06	11.96
903.491	20.26
903.923	18.46
904.355	16.86
904.787	19.66
905.218	19.96
905.65	15.66
906.082	6.46
906.513	9.96
906.945	16.86
907.376	11.06
907.808	15.26
908.239	11.16
908.671	19.26
909.102	20.46
909.534	19.96
909.965	36.76
910.397	75.76
910.828	248.96
911.259	401.96
911.691	178.56
912.122	82.56
912.553	36.76
912.984	23.76
913.415	22.66
913.847	20.66
914.278	13.96
914.709	11.56
915.14	8.76
915.571	15.26
916.002	11.46
916.433	16.96
916.864	16.96
917.295	12.06
917.726	13.96
918.157	10.16
918.587	22.16
919.018	16.56
919.449	15.36
919.88	15.96
920.311	24.36
920.741	33.06
921.172	136.56
921.603	123.96
922.033	59.76
922.464	39.36
922.895	22.16
923.325	13.66
923.756	10.56
924.186	12.46
924.617	23.86
925.047	36.66
925.478	33.86
925.908	30.86
926.338	20.06
926.769	15.96
927.199	23.16
927.629	3.46
928.06	9.26
928.49	10.96
928.92	18.36
929.35	6.56
929.78	8.86
930.21	3.56
930.641	10.96
931.071	5.26
931.501	-1.24
931.931	0.36
932.361	12.16
932.791	3.16
933.221	1.26
933.651	2.46
934.08	12.56
934.51	25.96
934.94	6.66
935.37	8.16
935.8	10.96
936.229	3.96
936.659	4.46
937.089	1.66
937.519	13.46
937.948	15.66
938.378	12.86
938.807	3.06
939.237	0.26
939.666	7.76
940.096	-8.34
940.525	2.86
940.955	-0.54
941.384	5.76
941.814	-5.84
942.243	1.06
942.672	3.46
943.102	4.16
943.531	1.66
943.96	8.36
944.39	3.66
944.819	-1.74
945.248	2.96
945.677	-5.74
946.106	7.86
946.535	4.36
946.964	5.06
947.393	8.86
947.822	0.66
948.251	0.26
948.68	-1.34
949.109	5.06
949.538	0.16
949.967	1.66
950.396	1.06
950.825	-1.04
951.254	-1.64
951.682	-4.54
952.111	4.66
952.54	0.36
952.969	-3.74
953.397	-9.54
953.826	1.86
954.254	-3.04
954.683	2.26
955.112	-5.74
955.54	-0.34
955.969	1.96
956.397	-1.04
956.826	-7.64
957.254	1.16
957.682	11.66
958.111	6.16
958.539	3.36
958.967	3.16
959.396	0.06
959.824	-1.84
960.252	-0.64
960.68	-0.34
961.109	-4.34
961.537	-1.44
961.965	-2.94
962.393	4.66
962.821	-1.14
963.249	-0.54
963.677	1.86
964.105	0.26
964.533	38.16
964.961	33.26
965.389	21.96
965.817	6.56
966.245	2.16
966.672	-2.24
967.1	-13.14
967.528	-7.84
967.956	-1.54
968.383	0.96
968.811	-5.54
969.239	-3.04
969.666	-4.14
970.094	3.96
970.522	-1.64
970.949	-2.84
971.377	-7.14
971.804	-0.74
972.232	-2.04
972.659	-1.84
973.087	-2.04
973.514	-7.04
973.941	-2.24
974.369	4.06
974.796	-1.04
975.223	3.86
975.651	-5.44
976.078	1.66
976.505	-3.24
976.932	2.66
977.359	10.66
977.786	17.06
978.214	-0.04
978.641	-5.34
979.068	-5.54
979.495	-8.74
979.922	-0.24
980.349	-4.04
980.776	5.56
981.202	-2.94
981.629	6.26
982.056	0.66
982.483	0.66
982.91	5.76
983.337	-12.64
983.763	2.76
984.19	1.06
984.617	-0.94
985.043	-2.64
985.47	-0.64
985.897	-7.74
986.323	-8.94
986.75	6.76
987.176	0.26
987.603	-1.04
988.029	0.86
988.456	1.26
988.882	0.76
989.308	-2.54
989.735	-0.14
990.161	3.16
990.587	0.46
991.014	3.26
991.44	8.06
991.866	-7.84
992.292	-8.74
992.719	-4.74
993.145	7.06
993.571	-8.94
993.997	-4.94
994.423	-2.04
994.849	-6.74
995.275	2.16
995.701	1.36
996.127	-1.44
996.553	-1.44
996.979	1.76
997.405	-0.04
997.83	0.36
998.256	-4.74
998.682	-3.14
999.108	-13.64
999.534	0.86
999.959	4.76
1000.385	-7.04
1000.811	0.26
1001.236	-13.74
1001.662	-3.54
1002.087	-8.34
1002.513	-4.44
1002.938	-2.64
1003.364	-1.94
1003.789	-2.04
1004.215	7.96
1004.64	-6.54
1005.066	-0.04
1005.491	9.06
1005.916	-5.94
1006.342	-7.64
1006.767	-12.34
1007.192	1.16
1007.617	-3.84
1008.042	-3.64
1008.468	-3.74
1008.893	0.96
1009.318	-0.14
1009.743	-1.74
1010.168	5.46
1010.593	0.46
1011.018	-5.24
1011.443	-3.44
1011.868	-6.94
1012.293	0.76
1012.718	-8.44
1013.143	2.16
1013.567	-0.64
1013.992	0.46
1014.417	-12.64
1014.842	4.46
1015.267	-6.04
1015.691	0.76
1016.116	10.26
1016.541	0.26
1016.965	8.26
1017.39	5.96
1017.814	0.46
1018.239	2.36
1018.663	-10.14
1019.088	-13.04
1019.512	-2.04
1019.937	-2.24
1020.361	-0.44
1020.785	-5.44
1021.21	-5.14
1021.634	2.46
1022.058	1.66
1022.483	6.06
1022.907	-3.94
1023.331	0.86
1023.755	-3.64
1024.179	-3.24
1024.604	-8.14
1025.028	-10.14
1025.452	-2.34
1025.876	-2.04
1026.3	1.76
1026.724	-8.74
1027.148	-2.24
1027.572	-3.64
1027.996	-4.94
1028.42	1.76
1028.843	-4.04
1029.267	-6.54
1029.691	0.86
1030.115	-0.44
1030.539	-12.24
1030.962	-12.94
1031.386	-10.84
1031.81	-4.04
1032.233	3.06
1032.657	3.86
1033.08	-2.04
1033.504	-4.44
1033.927	-2.54
1034.351	-1.14
1034.774	-9.14
1035.198	-0.24
1035.621	-11.44
1036.045	-9.94
1036.468	0.56
1036.891	-6.34
1037.315	-4.74
1037.738	-5.54
1038.161	2.46
1038.584	-3.64
1039.008	-4.94
1039.431	-7.64
1039.854	-3.94
1040.277	-15.14
1040.7	-7.64
1041.123	-3.54
1041.546	-7.04
1041.969	-2.64
1042.392	-3.44
1042.815	0.46
1043.238	-0.24
1043.661	0.16
1044.084	-6.34
1044.507	-3.14
1044.93	-7.64
1045.352	-5.74
1045.775	1.46
1046.198	-3.34
1046.621	-5.24
1047.043	3.36
1047.466	6.36
1047.889	-3.14
1048.311	-5.74
1048.734	-5.24
1049.156	-3.64
1049.579	0.86
1050.001	0.26
1050.424	-4.54
1050.846	-4.84
1051.269	-2.04
1051.691	-9.74
1052.113	-1.74
1052.536	-1.54
1052.958	0.46
1053.38	-4.74
1053.802	-11.54
1054.225	-1.04
1054.647	-11.64
1055.069	-2.14
1055.491	1.16
1055.913	-2.44
1056.335	-1.14
1056.757	-3.44
1057.179	-9.44
1057.601	-7.44
1058.023	-0.24
1058.445	-8.04
1058.867	-9.44
1059.289	-3.24
1059.711	0.56
1060.133	-9.34
1060.555	-2.64
1060.976	-4.34
1061.398	-4.24
1061.82	-9.34
1062.241	-1.04
1062.663	-5.14
1063.085	-9.74
1063.506	-1.04
1063.928	-8.94
1064.35	-1.14
1064.771	-6.44
1065.193	-3.74
1065.614	-9.04
1066.035	-3.34
1066.457	0.66
1066.878	-0.84
1067.3	-3.94
1067.721	-4.84
1068.142	-7.84
1068.564	-9.24
1068.985	-6.54
1069.406	-8.34
1069.827	-5.44
1070.248	3.26
1070.67	-5.74
1071.091	-2.44
1071.512	-4.44
1071.933	-3.64
1072.354	-8.54
1072.775	-10.64
1073.196	-10.94
1073.617	-0.14
1074.038	-2.64
1074.459	2.56
1074.88	-5.74
1075.3	3.36
1075.721	-9.24
1076.142	-2.64
1076.563	2.76
1076.983	-8.94
1077.404	-7.34
1077.825	-11.44
1078.246	-8.04
1078.666	-8.84
1079.087	-3.94
1079.507	-4.54
1079.928	2.56
1080.348	-0.44
1080.769	-2.74
1081.189	-2.44
1081.61	-5.64
1082.03	-3.24
1082.451	-4.84
1082.871	-4.84
1083.291	-9.74
1083.711	-6.34
1084.132	-4.44
1084.552	-5.54
1084.972	1.06
1085.392	-8.24
1085.813	-9.74
1086.233	-3.34
1086.653	-6.84
1087.073	-3.04
1087.493	-8.74
1087.913	-5.04
1088.333	-9.64
1088.753	-7.54
1089.173	3.46
1089.593	-4.34
1090.013	2.66
1090.433	-0.94
1090.852	-4.64
1091.272	3.36
1091.692	5.96
1092.112	-4.14
1092.531	-6.54
1092.951	-12.34
1093.371	-1.44
1093.79	2.56
1094.21	-3.14
1094.63	-0.14
1095.049	-6.34
1095.469	-1.14
1095.888	-1.94
1096.308	4.36
1096.727	4.66
1097.146	-5.24
1097.566	-1.54
1097.985	-2.34
1098.405	0.06
1098.824	-6.04
1099.243	-10.44
1099.662	-6.14
1100.082	-3.74
1100.501	-2.54
1100.92	-8.34
1101.339	-6.34
1101.758	-6.04
