Data from 20171114-ORNL-Ar_H_NY_Subt18_08-08-36-130.txt Node
Date: Tue Nov 14 08:08:36 EST 2017
User: Ender
Spectrometer: HR+D1039
Trigger mode: 0
Integration Time (sec): 2.730000E-2
Scans to average: 10
Electric dark correction enabled: true
Nonlinearity correction enabled: false
Boxcar width: 0
XAxis mode: Wavelengths
Number of Pixels in Spectrum: 2048
>>>>>Begin Spectral Data<<<<<
187.836	-5.68
188.309	-5.68
188.782	-5.68
189.255	-3.98
189.728	-0.98
190.201	7.82
190.674	0.22
191.147	3.82
191.619	-9.18
192.092	0.02
192.565	2.62
193.038	0.32
193.511	3.22
193.984	-1.78
194.456	-3.58
194.929	-0.08
195.402	2.62
195.874	4.52
196.347	0.62
196.82	-7.38
197.292	7.42
197.765	-0.27
198.237	-3.48
198.71	3.12
199.182	-3.18
199.655	3.52
200.127	2.52
200.6	-1.28
201.072	-2.88
201.544	-0.78
202.017	-1.48
202.489	6.52
202.961	1.12
203.433	-5.08
203.906	-1.98
204.378	-1.48
204.85	2.42
205.322	-7.18
205.794	-1.58
206.266	0.32
206.739	-6.18
207.211	2.22
207.683	-9.77
208.155	-3.58
208.627	-4.58
209.099	-1.98
209.57	-5.98
210.042	-7.78
210.514	-2.98
210.986	0.82
211.458	-6.38
211.93	-1.18
212.402	6.52
212.873	-11.08
213.345	-11.88
213.817	-6.98
214.288	-1.48
214.76	-5.98
215.232	-2.58
215.703	-1.98
216.175	-1.08
216.646	-2.38
217.118	-1.68
217.589	-4.98
218.061	-4.08
218.532	-4.38
219.004	-1.08
219.475	3.12
219.946	1.32
220.418	-4.27
220.889	2.42
221.36	7.82
221.832	-1.38
222.303	-9.38
222.774	-1.58
223.245	-9.18
223.717	-7.18
224.188	-4.48
224.659	-8.58
225.13	-5.08
225.601	-4.48
226.072	2.12
226.543	2.62
227.014	3.52
227.485	-0.58
227.956	1.52
228.427	-6.38
228.898	3.12
229.369	7.12
229.839	-4.78
230.31	-5.08
230.781	5.72
231.252	2.32
231.722	-2.88
232.193	4.42
232.664	0.52
233.135	1.62
233.605	-5.77
234.076	-4.18
234.546	3.22
235.017	4.12
235.487	0.72
235.958	2.52
236.428	-3.68
236.899	5.82
237.369	-2.58
237.84	-4.18
238.31	3.92
238.78	-0.77
239.251	-0.58
239.721	-2.58
240.191	-1.08
240.662	-3.08
241.132	2.82
241.602	0.62
242.072	-2.98
242.542	3.12
243.013	-4.68
243.483	0.92
243.953	0.73
244.423	1.42
244.893	-4.78
245.363	5.12
245.833	5.02
246.303	-5.88
246.773	3.32
247.243	4.42
247.712	3.92
248.182	9.32
248.652	3.32
249.122	0.62
249.592	3.32
250.061	15.82
250.531	25.82
251.001	12.12
251.471	19.02
251.94	14.02
252.41	1.82
252.879	-2.38
253.349	10.52
253.818	8.22
254.288	5.02
254.757	4.62
255.227	-2.38
255.696	2.32
256.166	7.42
256.635	3.02
257.105	4.12
257.574	4.12
258.043	5.23
258.513	9.02
258.982	10.32
259.451	3.32
259.92	7.32
260.389	7.42
260.859	16.82
261.328	11.12
261.797	13.12
262.266	10.02
262.735	8.32
263.204	7.82
263.673	5.52
264.142	6.23
264.611	-1.98
265.08	1.12
265.549	2.82
266.018	8.92
266.487	-3.78
266.955	-3.28
267.424	-5.28
267.893	10.62
268.362	-2.88
268.83	5.82
269.299	11.12
269.768	-2.18
270.236	9.72
270.705	-1.38
271.174	10.12
271.642	8.32
272.111	10.42
272.579	7.72
273.048	14.52
273.516	14.12
273.985	16.02
274.453	21.62
274.922	19.62
275.39	10.12
275.858	1.32
276.327	11.62
276.795	15.82
277.263	7.32
277.731	25.22
278.2	37.22
278.668	41.92
279.136	38.62
279.604	15.62
280.072	19.82
280.54	16.92
281.008	10.92
281.477	15.12
281.945	8.02
282.413	12.12
282.881	16.02
283.348	10.92
283.816	11.92
284.284	9.02
284.752	16.52
285.22	11.82
285.688	15.12
286.156	21.42
286.623	32.92
287.091	40.42
287.559	25.22
288.026	17.52
288.494	6.22
288.962	4.02
289.429	9.62
289.897	14.62
290.364	14.92
290.832	16.62
291.3	7.52
291.767	14.12
292.234	16.22
292.702	13.92
293.169	20.12
293.637	17.72
294.104	16.62
294.571	10.52
295.039	14.72
295.506	8.72
295.973	17.62
296.44	10.32
296.908	13.42
297.375	11.62
297.842	14.92
298.309	18.42
298.776	14.82
299.243	16.82
299.71	9.92
300.177	15.62
300.644	14.72
301.111	15.02
301.578	20.22
302.045	7.72
302.512	18.72
302.979	20.32
303.446	27.52
303.913	19.23
304.379	16.62
304.846	25.52
305.313	17.12
305.78	14.52
306.246	23.42
306.713	22.62
307.18	23.02
307.646	20.02
308.113	26.12
308.579	20.42
309.046	22.32
309.512	21.32
309.979	17.92
310.445	33.12
310.912	25.42
311.378	28.12
311.845	23.32
312.311	29.62
312.777	28.52
313.244	28.92
313.71	33.52
314.176	29.52
314.642	27.02
315.109	24.52
315.575	28.52
316.041	30.32
316.507	30.02
316.973	33.72
317.439	33.92
317.905	32.92
318.371	27.82
318.837	31.23
319.303	30.42
319.769	28.42
320.235	30.12
320.701	31.62
321.167	33.72
321.633	31.12
322.099	25.32
322.564	36.02
323.03	35.52
323.496	34.22
323.962	37.52
324.427	31.42
324.893	38.92
325.359	34.32
325.824	31.92
326.29	32.82
326.755	33.32
327.221	34.22
327.686	34.92
328.152	38.42
328.617	47.22
329.083	43.22
329.548	46.52
330.014	39.92
330.479	35.72
330.944	33.82
331.41	35.22
331.875	44.92
332.34	42.12
332.805	37.42
333.271	37.32
333.736	38.92
334.201	45.23
334.666	46.32
335.131	48.62
335.596	40.82
336.061	49.12
336.526	41.02
336.991	44.12
337.456	53.42
337.921	46.92
338.386	42.32
338.851	40.32
339.316	41.02
339.781	40.02
340.246	48.02
340.711	43.92
341.175	48.52
341.64	40.72
342.105	52.42
342.569	52.62
343.034	54.52
343.499	50.52
343.963	44.73
344.428	58.82
344.893	53.72
345.357	53.32
345.822	56.52
346.286	63.22
346.751	64.42
347.215	62.62
347.679	69.22
348.144	82.92
348.608	73.02
349.073	60.82
349.537	67.52
350.001	69.42
350.465	85.12
350.93	77.82
351.394	77.12
351.858	61.02
352.322	80.62
352.786	77.12
353.25	93.32
353.715	106.92
354.179	92.62
354.643	105.92
355.107	113.12
355.571	98.92
356.035	98.82
356.498	107.32
356.962	110.32
357.426	119.42
357.89	106.42
358.354	79.42
358.818	77.22
359.281	73.23
359.745	72.42
360.209	72.72
360.673	71.32
361.136	74.52
361.6	82.02
362.064	73.23
362.527	76.12
362.991	83.72
363.454	70.32
363.918	66.12
364.381	69.42
364.845	76.62
365.308	74.92
365.772	79.22
366.235	75.82
366.698	75.02
367.162	80.82
367.625	81.22
368.088	83.12
368.552	85.22
369.015	87.22
369.478	88.12
369.941	89.42
370.404	91.42
370.867	97.42
371.331	100.02
371.794	106.52
372.257	103.32
372.72	107.72
373.183	103.02
373.646	99.92
374.109	100.12
374.572	100.82
375.035	99.82
375.497	99.52
375.96	100.62
376.423	96.22
376.886	103.02
377.349	102.82
377.811	94.12
378.274	102.42
378.737	102.42
379.199	104.82
379.662	109.72
380.125	111.52
380.587	108.22
381.05	115.92
381.512	118.22
381.975	126.42
382.437	122.52
382.9	124.52
383.362	114.02
383.825	132.82
384.287	131.72
384.75	130.72
385.212	128.82
385.674	132.72
386.136	126.52
386.599	118.62
387.061	130.52
387.523	124.82
387.985	132.32
388.447	136.52
388.91	135.82
389.372	149.73
389.834	146.02
390.296	136.42
390.758	149.22
391.22	156.22
391.682	195.22
392.144	273.22
392.606	216.32
393.068	153.23
393.529	160.02
393.991	154.82
394.453	137.52
394.915	149.12
395.377	175.92
395.838	196.82
396.3	148.22
396.762	138.82
397.224	129.02
397.685	126.32
398.147	124.42
398.608	130.92
399.07	123.42
399.531	130.82
399.993	137.62
400.454	150.42
400.916	146.22
401.377	143.73
401.839	149.02
402.3	148.32
402.762	162.12
403.223	173.62
403.684	165.12
404.145	160.52
404.607	155.72
405.068	158.72
405.529	164.32
405.99	182.62
406.451	164.22
406.913	167.42
407.374	158.52
407.835	153.32
408.296	163.73
408.757	172.52
409.218	182.52
409.679	178.32
410.14	164.02
410.601	174.92
411.062	181.72
411.522	183.02
411.983	177.02
412.444	170.52
412.905	181.73
413.366	180.22
413.826	194.62
414.287	208.33
414.748	256.42
415.208	246.62
415.669	204.82
416.13	203.52
416.59	199.92
417.051	205.52
417.511	206.82
417.972	226.12
418.432	239.42
418.893	283.22
419.353	241.73
419.814	192.92
420.274	186.22
420.734	185.62
421.195	197.02
421.655	189.12
422.115	184.62
422.576	189.72
423.036	193.72
423.496	201.62
423.956	214.12
424.416	224.42
424.876	257.32
425.336	249.02
425.797	257.92
426.257	252.23
426.717	236.82
427.177	228.72
427.637	219.23
428.097	235.02
428.556	240.62
429.016	263.12
429.476	264.73
429.936	264.82
430.396	267.72
430.856	282.82
431.315	315.12
431.775	333.12
432.235	375.42
432.694	342.02
433.154	352.02
433.614	378.52
434.073	325.92
434.533	276.32
434.993	262.33
435.452	272.72
435.912	287.02
436.371	275.12
436.83	275.23
437.29	260.22
437.749	248.72
438.209	240.72
438.668	279.02
439.127	283.72
439.587	253.93
440.046	241.33
440.505	263.32
440.964	270.32
441.424	315.02
441.883	311.82
442.342	260.23
442.801	225.42
443.26	216.82
443.719	221.42
444.178	216.52
444.637	201.73
445.096	209.02
445.555	220.52
446.014	223.12
446.473	226.42
446.932	235.42
447.391	224.12
447.849	230.52
448.308	214.62
448.767	221.82
449.226	237.42
449.685	234.42
450.143	251.22
450.602	229.02
451.061	218.62
451.519	227.23
451.978	224.82
452.436	234.72
452.895	233.52
453.353	250.73
453.812	235.93
454.27	235.82
454.729	233.82
455.187	239.02
455.646	239.73
456.104	245.62
456.562	259.62
457.021	266.02
457.479	255.92
457.937	272.73
458.395	263.12
458.854	243.12
459.312	258.12
459.77	266.72
460.228	253.92
460.686	241.32
461.144	250.22
461.602	242.92
462.06	240.23
462.518	249.52
462.976	247.12
463.434	254.22
463.892	257.92
464.35	274.52
464.808	277.83
465.266	256.02
465.724	265.82
466.181	274.42
466.639	265.02
467.097	292.02
467.555	290.12
468.012	300.32
468.47	309.62
468.928	322.92
469.385	336.02
469.843	346.32
470.3	344.52
470.758	358.33
471.215	379.82
471.673	398.82
472.13	408.42
472.588	408.42
473.045	376.82
473.503	377.82
473.96	388.12
474.417	400.02
474.875	419.72
475.332	462.42
475.789	453.73
476.246	462.12
476.704	477.32
477.161	494.02
477.618	507.82
478.075	547.02
478.532	609.02
478.989	673.42
479.446	786.32
479.903	747.93
480.36	794.52
480.817	830.42
481.274	924.02
481.731	1034.03
482.188	1112.42
482.645	1244.72
483.102	1341.32
483.558	1469.22
484.015	1508.92
484.472	1495.42
484.929	1456.82
485.385	1398.92
485.842	1357.52
486.299	1297.22
486.755	1251.62
487.212	1064.53
487.668	890.22
488.125	818.92
488.582	757.52
489.038	730.02
489.494	696.42
489.951	665.12
490.407	648.73
490.864	643.42
491.32	638.92
491.776	638.42
492.233	638.52
492.689	600.22
493.145	599.82
493.602	581.12
494.058	597.92
494.514	602.62
494.97	622.23
495.426	634.02
495.882	613.33
496.338	592.52
496.794	607.42
497.251	597.72
497.707	619.82
498.163	616.22
498.618	629.72
499.074	632.83
499.53	659.23
499.986	664.42
500.442	635.62
500.898	617.73
501.354	612.02
501.809	622.12
502.265	631.42
502.721	644.12
503.177	653.43
503.632	656.92
504.088	654.73
504.543	688.02
504.999	688.02
505.455	645.02
505.91	620.62
506.366	618.82
506.821	609.42
507.277	617.02
507.732	609.12
508.187	616.82
508.643	635.33
509.098	624.52
509.553	639.92
510.009	650.73
510.464	660.52
510.919	680.52
511.375	684.82
511.83	693.92
512.285	701.82
512.74	736.72
513.195	766.62
513.65	753.23
514.105	747.92
514.56	750.32
515.015	772.23
515.47	784.02
515.925	778.32
516.38	766.22
516.835	774.42
517.29	769.12
517.745	764.43
518.2	749.52
518.655	739.12
519.109	728.73
519.564	729.62
520.019	710.12
520.474	698.52
520.928	707.92
521.383	701.72
521.838	692.32
522.292	702.92
522.747	700.62
523.201	694.42
523.656	691.42
524.11	683.02
524.565	685.72
525.019	688.12
525.474	690.52
525.928	682.23
526.382	676.82
526.837	673.83
527.291	688.62
527.745	680.92
528.2	684.52
528.654	678.22
529.108	675.12
529.562	668.72
530.016	677.73
530.47	678.02
530.925	670.92
531.379	685.62
531.833	702.52
532.287	691.12
532.741	689.73
533.195	689.82
533.649	693.92
534.103	702.02
534.556	691.42
535.01	696.52
535.464	700.22
535.918	707.73
536.372	705.52
536.826	706.23
537.279	688.73
537.733	690.52
538.187	706.12
538.64	691.52
539.094	709.52
539.548	716.73
540.001	715.02
540.455	707.82
540.908	708.72
541.362	721.12
541.815	733.42
542.269	749.82
542.722	743.52
543.175	759.92
543.629	765.32
544.082	776.92
544.536	775.33
544.989	778.02
545.442	785.92
545.895	772.52
546.349	774.43
546.802	780.62
547.255	786.32
547.708	795.62
548.161	808.72
548.614	807.02
549.067	813.33
549.52	804.22
549.973	789.42
550.426	783.12
550.879	777.32
551.332	790.32
551.785	784.32
552.238	797.32
552.691	805.52
553.144	815.72
553.596	824.12
554.049	850.42
554.502	883.92
554.955	889.82
555.407	885.82
555.86	881.82
556.313	862.52
556.765	874.02
557.218	864.02
557.67	869.02
558.123	856.32
558.576	855.92
559.028	861.43
559.48	872.73
559.933	859.92
560.385	817.72
560.838	794.02
561.29	757.42
561.742	766.52
562.195	763.83
562.647	757.62
563.099	760.22
563.551	762.83
564.004	774.42
564.456	762.23
564.908	743.62
565.36	738.22
565.812	720.52
566.264	715.62
566.716	711.52
567.168	709.42
567.62	719.23
568.072	703.42
568.524	677.32
568.976	676.12
569.428	664.02
569.88	656.12
570.332	681.82
570.784	682.22
571.235	676.12
571.687	682.72
572.139	688.22
572.59	701.12
573.042	702.12
573.494	709.23
573.945	689.92
574.397	676.83
574.849	675.22
575.3	686.52
575.752	670.82
576.203	663.42
576.655	667.62
577.106	660.33
577.557	655.23
578.009	662.43
578.46	648.12
578.912	650.02
579.363	655.92
579.814	654.22
580.265	664.82
580.717	665.52
581.168	660.92
581.619	672.43
582.07	672.73
582.521	672.62
582.972	663.92
583.423	676.42
583.875	680.83
584.326	693.02
584.777	731.62
585.227	802.42
585.678	883.12
586.129	955.92
586.58	1013.52
587.031	1078.52
587.482	1207.42
587.933	1384.22
588.384	1212.53
588.834	926.52
589.285	781.42
589.736	774.42
590.186	766.52
590.637	763.72
591.088	736.23
591.538	734.52
591.989	726.83
592.439	716.23
592.89	714.12
593.34	704.72
593.791	706.02
594.241	686.32
594.692	698.33
595.142	699.42
595.593	698.62
596.043	689.23
596.493	712.42
596.943	705.43
597.394	711.72
597.844	706.12
598.294	729.43
598.744	750.82
599.195	769.72
599.645	815.12
600.095	839.52
600.545	907.92
600.995	961.82
601.445	1020.72
601.895	1084.02
602.345	1131.42
602.795	1102.03
603.245	1051.22
603.695	1007.72
604.145	950.92
604.594	897.32
605.044	838.82
605.494	791.92
605.944	748.02
606.393	731.42
606.843	723.32
607.293	732.93
607.743	729.02
608.192	734.42
608.642	755.72
609.091	752.73
609.541	759.62
609.99	767.23
610.44	763.02
610.889	722.12
611.339	702.22
611.788	688.52
612.238	705.42
612.687	714.82
613.136	705.12
613.586	728.32
614.035	716.32
614.484	745.02
614.933	738.32
615.383	735.33
615.832	727.32
616.281	708.82
616.73	682.12
617.179	652.02
617.628	655.12
618.077	624.82
618.526	619.92
618.975	614.42
619.424	604.12
619.873	598.82
620.322	612.32
620.771	600.52
621.22	608.52
621.669	597.02
622.118	586.12
622.567	574.32
623.015	561.72
623.464	561.82
623.913	554.23
624.361	547.12
624.81	546.22
625.259	544.02
625.707	556.32
626.156	551.02
626.604	562.82
627.053	554.22
627.501	557.52
627.95	565.32
628.398	575.52
628.847	574.52
629.295	570.52
629.744	557.12
630.192	568.02
630.64	563.52
631.089	554.22
631.537	575.42
631.985	577.83
632.433	585.92
632.881	599.23
633.33	646.52
633.778	622.42
634.226	564.23
634.674	566.23
635.122	564.32
635.57	587.62
636.018	630.32
636.466	584.22
636.914	552.52
637.362	564.82
637.81	574.12
638.258	571.52
638.705	578.02
639.153	610.12
639.601	614.72
640.049	640.62
640.497	658.12
640.944	686.52
641.392	635.92
641.84	607.42
642.287	575.72
642.735	569.82
643.182	562.43
643.63	573.52
644.078	571.02
644.525	582.62
644.973	595.32
645.42	598.62
645.867	616.42
646.315	630.62
646.762	654.12
647.21	700.12
647.657	704.42
648.104	741.62
648.551	759.92
648.999	833.12
649.446	902.52
649.893	993.12
650.34	1151.53
650.787	1369.92
651.234	1699.42
651.682	2239.52
652.129	3056.32
652.576	4413.03
653.023	6414.12
653.47	8792.12
653.917	10879.73
654.363	12424.23
654.81	13691.62
655.257	12995.83
655.704	8534.02
656.151	5066.82
656.598	3292.92
657.044	2350.02
657.491	1815.32
657.938	1449.12
658.385	1227.12
658.831	1068.23
659.278	949.72
659.724	841.42
660.171	781.32
660.618	713.22
661.064	683.93
661.511	661.42
661.957	647.73
662.404	642.22
662.85	655.52
663.296	617.92
663.743	564.92
664.189	536.62
664.635	534.32
665.082	525.92
665.528	521.12
665.974	527.02
666.42	509.73
666.867	500.62
667.313	487.42
667.759	479.23
668.205	466.73
668.651	475.23
669.097	477.32
669.543	486.12
669.989	466.22
670.435	446.93
670.881	448.32
671.327	450.02
671.773	471.32
672.219	497.52
672.665	549.62
673.11	594.72
673.556	627.32
674.002	667.62
674.448	650.62
674.893	547.72
675.339	481.62
675.785	444.22
676.23	419.42
676.676	386.72
677.122	388.02
677.567	371.12
678.013	365.42
678.458	360.22
678.904	350.43
679.349	350.02
679.794	356.22
680.24	349.02
680.685	351.52
681.131	350.22
681.576	361.42
682.021	348.52
682.466	345.62
682.912	346.62
683.357	356.62
683.802	386.82
684.247	413.32
684.692	452.42
685.137	495.82
685.583	538.22
686.028	560.12
686.473	514.32
686.918	440.42
687.363	413.52
687.807	381.32
688.252	362.12
688.697	348.73
689.142	339.22
689.587	334.42
690.032	330.12
690.477	338.12
690.921	347.52
691.366	382.32
691.811	405.12
692.255	435.22
692.7	469.83
693.145	518.52
693.589	720.23
694.034	1159.03
694.478	1545.02
694.923	1726.42
695.367	2228.53
695.812	1189.82
696.256	509.92
696.701	377.02
697.145	353.92
697.59	334.22
698.034	325.72
698.478	330.62
698.922	332.32
699.367	328.62
699.811	341.72
700.255	357.43
700.699	394.72
701.143	434.93
701.588	480.62
702.032	517.12
702.476	503.73
702.92	485.32
703.364	501.72
703.808	650.92
704.252	1080.53
704.696	1474.12
705.14	1655.52
705.584	2119.32
706.027	1076.92
706.471	520.92
706.915	398.92
707.359	362.22
707.803	324.82
708.246	311.32
708.69	313.12
709.134	311.12
709.577	305.02
710.021	323.52
710.465	310.23
710.908	300.52
711.352	301.52
711.795	315.82
712.239	363.42
712.682	390.32
713.126	408.02
713.569	461.02
714.012	361.62
714.456	320.43
714.899	303.52
715.342	273.32
715.786	269.72
716.229	262.62
716.672	257.22
717.115	252.12
717.558	249.43
718.002	253.32
718.445	265.42
718.888	284.73
719.331	300.73
719.774	311.32
720.217	306.92
720.66	281.73
721.103	274.52
721.546	252.23
721.989	253.62
722.432	235.52
722.874	237.32
723.317	236.22
723.76	242.32
724.203	265.22
724.645	330.72
725.088	456.32
725.531	572.02
725.974	643.02
726.416	540.62
726.859	305.12
727.301	249.33
727.744	240.43
728.187	232.23
728.629	235.42
729.071	244.33
729.514	262.72
729.956	275.52
730.399	284.82
730.841	290.02
731.283	269.32
731.726	267.23
732.168	261.62
732.61	268.62
733.053	289.82
733.495	311.93
733.937	357.43
734.379	404.92
734.821	442.62
735.263	555.32
735.705	861.82
736.148	1650.53
736.59	2610.12
737.032	2997.32
737.474	2462.02
737.916	812.72
738.357	440.52
738.799	327.72
739.241	307.02
739.683	289.72
740.125	299.32
740.567	298.62
741.008	314.32
741.45	316.62
741.892	321.12
742.334	345.43
742.775	361.72
743.217	341.62
743.658	269.92
744.1	260.82
744.542	261.12
744.983	309.42
745.425	342.73
745.866	342.12
746.307	279.22
746.749	279.83
747.19	335.43
747.632	470.52
748.073	931.72
748.514	1928.62
748.956	2864.62
749.397	3599.43
749.838	2991.93
750.279	2900.62
750.72	1494.32
751.162	557.02
751.603	327.23
752.044	260.12
752.485	213.22
752.926	209.02
753.367	203.02
753.808	195.92
754.249	193.42
754.69	189.52
755.131	183.12
755.572	183.32
756.013	178.72
756.453	183.42
756.894	192.92
757.335	193.12
757.776	192.52
758.216	199.52
758.657	199.23
759.098	205.52
759.538	226.33
759.979	271.72
760.42	383.42
760.86	743.52
761.301	1934.62
761.741	4517.23
762.182	6306.52
762.622	4454.73
763.063	1317.72
763.503	545.02
763.943	347.92
764.384	336.12
764.824	378.52
765.264	397.82
765.705	292.02
766.145	209.62
766.585	190.72
767.025	178.02
767.465	184.72
767.906	231.72
768.346	300.73
768.786	314.52
769.226	257.72
769.666	328.82
770.106	653.02
770.546	1623.82
770.986	2620.32
771.426	2321.43
771.866	799.12
772.306	334.62
772.745	211.92
773.185	180.42
773.625	172.02
774.065	163.12
774.505	195.62
774.944	297.42
775.384	614.12
775.824	1059.33
776.263	1013.63
776.703	450.42
777.142	205.12
777.582	154.82
778.021	137.42
778.461	144.73
778.9	139.42
779.34	131.82
779.779	120.52
780.219	117.12
780.658	109.32
781.097	107.62
781.537	114.52
781.976	111.82
782.415	104.12
782.855	110.12
783.294	104.62
783.733	109.12
784.172	110.82
784.611	106.82
785.05	113.62
785.489	115.02
785.928	118.82
786.367	126.72
786.806	116.82
787.245	131.62
787.684	136.02
788.123	145.82
788.562	136.82
789.001	127.92
789.44	118.72
789.879	123.42
790.317	126.02
790.756	131.92
791.195	130.23
791.634	144.82
792.072	207.02
792.511	386.43
792.95	1059.22
793.388	2130.82
793.827	1886.72
794.265	671.42
794.704	285.62
795.142	186.92
795.581	157.52
796.019	142.62
796.458	130.02
796.896	122.82
797.334	133.12
797.773	161.92
798.211	227.62
798.649	463.92
799.087	1051.83
799.526	1602.53
799.964	2040.12
800.402	1969.72
800.84	765.22
801.278	306.33
801.716	187.02
802.154	159.12
802.592	150.92
803.03	143.02
803.468	137.42
803.906	146.12
804.344	151.92
804.782	144.32
805.22	140.62
805.658	131.42
806.096	150.62
806.533	160.32
806.971	175.62
807.409	220.02
807.847	317.32
808.284	704.73
808.722	1934.22
809.16	3282.72
809.597	3218.02
810.035	5455.33
810.472	5641.83
810.91	2066.12
811.347	801.82
811.785	409.02
812.222	246.62
812.66	195.82
813.097	162.42
813.535	140.22
813.972	132.12
814.409	122.32
814.846	107.32
815.284	113.12
815.721	106.12
816.158	110.32
816.595	124.73
817.032	180.12
817.47	195.32
817.907	155.72
818.344	139.82
818.781	115.32
819.218	102.92
819.655	126.62
820.092	186.82
820.529	216.62
820.966	176.23
821.403	131.82
821.839	113.62
822.276	103.42
822.713	127.12
823.15	137.73
823.587	123.42
824.023	152.02
824.46	322.62
824.897	924.02
825.333	1342.03
825.77	567.52
826.206	228.42
826.643	132.22
827.08	102.02
827.516	84.23
827.953	83.02
828.389	80.02
828.825	72.22
829.262	65.62
829.698	64.92
830.135	68.02
830.571	67.32
831.007	63.52
831.443	66.52
831.88	66.23
832.316	64.82
832.752	61.72
833.188	69.92
833.624	70.73
834.06	69.52
834.497	76.22
834.933	76.42
835.369	78.12
835.805	64.42
836.241	78.62
836.677	85.23
837.112	91.52
837.548	106.12
837.984	136.02
838.42	210.12
838.856	525.72
839.292	1549.32
839.727	2271.82
840.163	1066.03
840.599	971.23
841.034	2062.22
841.47	2072.02
841.906	781.23
842.341	336.52
842.777	227.73
843.212	294.92
843.648	271.62
844.083	142.02
844.519	97.52
844.954	77.02
845.39	61.12
845.825	58.42
846.261	58.42
846.696	56.02
847.131	53.92
847.566	58.22
848.002	61.22
848.437	64.02
848.872	58.82
849.307	60.12
849.742	86.62
850.177	191.42
850.613	569.62
851.048	859.62
851.483	378.23
851.918	153.72
852.353	86.02
852.788	64.62
853.223	61.32
853.657	53.92
854.092	47.12
854.527	47.22
854.962	43.32
855.397	46.52
855.832	51.32
856.266	45.32
856.701	45.73
857.136	39.92
857.57	47.82
858.005	53.62
858.44	58.12
858.874	41.92
859.309	54.23
859.743	47.12
860.178	44.22
860.612	38.92
861.047	54.92
861.481	63.52
861.915	71.62
862.35	55.22
862.784	35.52
863.218	39.52
863.653	39.62
864.087	47.82
864.521	54.72
864.955	72.23
865.39	156.22
865.824	174.12
866.258	120.23
866.692	166.82
867.126	180.52
867.56	105.22
867.994	56.52
868.428	43.32
868.862	46.73
869.296	50.42
869.73	56.32
870.164	52.02
870.598	48.82
871.031	34.52
871.465	28.22
871.899	30.02
872.333	29.73
872.766	24.42
873.2	24.22
873.634	31.72
874.067	31.02
874.501	28.12
874.935	39.02
875.368	30.52
875.802	33.22
876.235	30.32
876.669	24.82
877.102	23.12
877.535	25.23
877.969	25.42
878.402	30.32
878.836	19.62
879.269	25.42
879.702	27.22
880.135	24.22
880.569	27.62
881.002	26.92
881.435	19.42
881.868	22.02
882.301	20.62
882.734	15.92
883.167	23.32
883.601	18.02
884.034	32.52
884.467	17.42
884.899	20.02
885.332	14.62
885.765	20.32
886.198	14.42
886.631	17.22
887.064	16.92
887.497	28.12
887.929	27.12
888.362	15.32
888.795	17.82
889.228	18.62
889.66	23.82
890.093	19.22
890.526	21.92
890.958	19.62
891.391	18.32
891.823	26.52
892.256	15.12
892.688	10.92
893.121	16.42
893.553	18.32
893.985	28.22
894.418	17.82
894.85	10.52
895.282	18.62
895.715	17.12
896.147	18.52
896.579	18.92
897.011	13.42
897.444	18.02
897.876	17.23
898.308	18.82
898.74	19.42
899.172	13.52
899.604	25.82
900.036	26.02
900.468	13.12
900.9	22.22
901.332	19.22
901.764	12.82
902.196	18.82
902.628	20.62
903.06	14.82
903.491	35.72
903.923	25.12
904.355	19.12
904.787	24.62
905.218	28.73
905.65	24.02
906.082	13.02
906.513	10.72
906.945	22.62
907.376	15.92
907.808	23.72
908.239	22.62
908.671	21.32
909.102	20.82
909.534	28.12
909.965	46.22
910.397	87.92
910.828	319.12
911.259	465.73
911.691	214.72
912.122	105.42
912.553	54.32
912.984	39.73
913.415	31.32
913.847	27.22
914.278	12.72
914.709	17.72
915.14	17.32
915.571	19.62
916.002	14.92
916.433	22.23
916.864	13.12
917.295	12.52
917.726	21.82
918.157	19.82
918.587	27.52
919.018	17.73
919.449	23.23
919.88	26.22
920.311	34.92
920.741	47.02
921.172	168.12
921.603	147.62
922.033	69.62
922.464	49.52
922.895	23.82
923.325	25.62
923.756	15.52
924.186	15.42
924.617	24.42
925.047	39.82
925.478	47.92
925.908	45.52
926.338	19.42
926.769	14.02
927.199	19.52
927.629	8.52
928.06	21.92
928.49	12.02
928.92	19.42
929.35	15.62
929.78	17.32
930.21	7.72
930.641	7.52
931.071	10.62
931.501	5.82
931.931	10.23
932.361	10.22
932.791	2.02
933.221	6.82
933.651	13.23
934.08	18.92
934.51	26.92
934.94	10.82
935.37	11.23
935.8	11.72
936.229	12.62
936.659	15.52
937.089	10.02
937.519	19.72
937.948	25.52
938.378	10.62
938.807	8.32
939.237	5.32
939.666	7.32
940.096	-0.68
940.525	3.82
940.955	7.82
941.384	2.42
941.814	-2.68
942.243	2.32
942.672	4.62
943.102	2.12
943.531	1.42
943.96	0.92
944.39	0.62
944.819	3.12
945.248	8.02
945.677	7.22
946.106	9.82
946.535	9.22
946.964	-1.58
947.393	6.52
947.822	-0.38
948.251	-7.68
948.68	5.23
949.109	14.52
949.538	9.62
949.967	0.82
950.396	6.72
950.825	3.42
951.254	5.42
951.682	-4.18
952.111	10.22
952.54	8.82
952.969	-0.68
953.397	-0.28
953.826	2.82
954.254	-4.28
954.683	3.02
955.112	-3.28
955.54	5.42
955.969	2.82
956.397	-1.58
956.826	-1.08
957.254	7.82
957.682	2.92
958.111	8.72
958.539	4.62
958.967	8.62
959.396	3.02
959.824	1.32
960.252	4.22
960.68	-2.28
961.109	2.82
961.537	-0.38
961.965	-0.38
962.393	0.02
962.821	-3.88
963.249	4.12
963.677	7.92
964.105	4.42
964.533	47.52
964.961	39.62
965.389	19.52
965.817	10.22
966.245	2.12
966.672	2.12
967.1	-6.68
967.528	1.62
967.956	0.52
968.383	1.52
968.811	-0.78
969.239	2.22
969.666	-2.38
970.094	-1.88
970.522	3.12
970.949	1.52
971.377	-6.18
971.804	1.62
972.232	-1.18
972.659	0.32
973.087	-2.48
973.514	-2.88
973.941	1.12
974.369	4.92
974.796	6.12
975.223	-2.78
975.651	-1.98
976.078	7.12
976.505	0.02
976.932	5.72
977.359	15.62
977.786	19.12
978.214	-0.08
978.641	0.82
979.068	-1.38
979.495	2.72
979.922	4.22
980.349	-0.18
980.776	7.02
981.202	-0.28
981.629	8.62
982.056	6.42
982.483	-1.38
982.91	6.52
983.337	-2.88
983.763	5.62
984.19	-9.78
984.617	-4.78
985.043	-4.88
985.47	5.02
985.897	2.82
986.323	-3.88
986.75	7.82
987.176	-3.28
987.603	-0.28
988.029	1.82
988.456	0.02
988.882	2.32
989.308	-5.28
989.735	-2.98
990.161	0.32
990.587	-1.38
991.014	6.02
991.44	9.82
991.866	-1.98
992.292	-2.48
992.719	-3.78
993.145	6.62
993.571	-4.48
993.997	-2.48
994.423	-0.48
994.849	-0.78
995.275	4.42
995.701	0.32
996.127	-0.28
996.553	5.22
996.979	-3.18
997.405	0.42
997.83	-7.28
998.256	-10.98
998.682	-0.77
999.108	-7.18
999.534	-0.08
999.959	3.52
1000.385	-1.38
1000.811	3.72
1001.236	-6.58
1001.662	-5.98
1002.087	-4.48
1002.513	3.02
1002.938	2.52
1003.364	1.02
1003.789	3.62
1004.215	-0.08
1004.64	2.02
1005.066	8.72
1005.491	4.62
1005.916	3.32
1006.342	1.02
1006.767	-6.58
1007.192	2.12
1007.617	-3.28
1008.042	-5.78
1008.468	-2.48
1008.893	1.32
1009.318	2.42
1009.743	-1.38
1010.168	1.82
1010.593	1.52
1011.018	-6.38
1011.443	-1.18
1011.868	4.12
1012.293	2.42
1012.718	-7.98
1013.143	4.02
1013.567	7.82
1013.992	-0.88
1014.417	-14.78
1014.842	7.32
1015.267	1.12
1015.691	-7.78
1016.116	4.22
1016.541	-2.28
1016.965	2.32
1017.39	0.22
1017.814	6.32
1018.239	4.12
1018.663	-7.18
1019.088	-4.98
1019.512	-2.28
1019.937	-0.88
1020.361	-3.38
1020.785	-10.98
1021.21	0.22
1021.634	-2.28
1022.058	2.62
1022.483	6.72
1022.907	-8.08
1023.331	-5.27
1023.755	-5.18
1024.179	-6.78
1024.604	-5.88
1025.028	-6.28
1025.452	-6.48
1025.876	-5.28
1026.3	5.22
1026.724	-8.58
1027.148	2.02
1027.572	-7.18
1027.996	-2.38
1028.42	-4.28
1028.843	-5.98
1029.267	-1.78
1029.691	3.22
1030.115	-7.98
1030.539	-11.18
1030.962	-5.58
1031.386	-1.68
1031.81	0.12
1032.233	4.62
1032.657	-0.77
1033.08	6.42
1033.504	-2.18
1033.927	2.12
1034.351	0.62
1034.774	-10.78
1035.198	-7.68
1035.621	-6.77
1036.045	-9.48
1036.468	1.22
1036.891	-12.48
1037.315	-5.48
1037.738	-9.78
1038.161	-3.68
1038.584	-5.08
1039.008	-4.38
1039.431	-5.18
1039.854	-6.08
1040.277	-1.48
1040.7	-3.18
1041.123	3.32
1041.546	-4.98
1041.969	-4.18
1042.392	-9.38
1042.815	-0.48
1043.238	2.22
1043.661	2.52
1044.084	-7.58
1044.507	-5.68
1044.93	-1.38
1045.352	-4.08
1045.775	1.72
1046.198	-1.38
1046.621	-1.77
1047.043	-0.58
1047.466	5.72
1047.889	-6.38
1048.311	-6.48
1048.734	-4.88
1049.156	3.32
1049.579	-3.28
1050.001	0.12
1050.424	0.12
1050.846	-2.08
1051.269	-3.38
1051.691	-11.58
1052.113	1.62
1052.536	-0.68
1052.958	-4.18
1053.38	-4.98
1053.802	-5.98
1054.225	6.12
1054.647	-7.28
1055.069	-6.48
1055.491	2.42
1055.913	-5.88
1056.335	-1.88
1056.757	2.22
1057.179	-0.18
1057.601	-2.58
1058.023	-2.88
1058.445	-0.68
1058.867	-2.78
1059.289	3.02
1059.711	-8.58
1060.133	-5.28
1060.555	-0.38
1060.976	-5.48
1061.398	-4.08
1061.82	-9.48
1062.241	-5.98
1062.663	-8.48
1063.085	-10.48
1063.506	-1.27
1063.928	-3.28
1064.35	0.32
1064.771	-8.08
1065.193	-3.08
1065.614	-5.78
1066.035	1.52
1066.457	-4.98
1066.878	-0.78
1067.3	-2.28
1067.721	-3.58
1068.142	-8.48
1068.564	-3.68
1068.985	-0.08
1069.406	-3.38
1069.827	-4.28
1070.248	-2.08
1070.67	-5.28
1071.091	-0.08
1071.512	-3.48
1071.933	-0.48
1072.354	-2.88
1072.775	-3.78
1073.196	-3.38
1073.617	3.22
1074.038	-5.98
1074.459	-1.27
1074.88	-5.98
1075.3	0.92
1075.721	-5.18
1076.142	0.62
1076.563	-1.78
1076.983	-5.08
1077.404	-0.58
1077.825	-7.68
1078.246	-12.58
1078.666	-6.38
1079.087	-4.68
1079.507	1.52
1079.928	0.22
1080.348	4.23
1080.769	0.72
1081.189	1.42
1081.61	-2.78
1082.03	-6.88
1082.451	-14.78
1082.871	-3.18
1083.291	0.32
1083.711	-7.88
1084.132	-3.18
1084.552	-2.68
1084.972	-5.58
1085.392	-9.48
1085.813	-8.58
1086.233	-10.18
1086.653	-4.48
1087.073	-2.98
1087.493	-1.88
1087.913	-2.58
1088.333	-4.38
1088.753	-3.68
1089.173	5.12
1089.593	0.82
1090.013	-1.08
1090.433	4.92
1090.852	-4.98
1091.272	-1.68
1091.692	-2.38
1092.112	-5.08
1092.531	-9.68
1092.951	-13.08
1093.371	-4.38
1093.79	1.82
1094.21	-4.28
1094.63	-3.78
1095.049	-4.08
1095.469	-2.48
1095.888	-2.88
1096.308	7.12
1096.727	5.72
1097.146	1.12
1097.566	4.22
1097.985	-4.18
1098.405	0.02
1098.824	-1.38
1099.243	-8.08
1099.662	-8.08
1100.082	-3.38
1100.501	-5.28
1100.92	-1.08
1101.339	2.42
1101.758	-5.38
