Data from 20171114-ORNL-Ar_H_NY_Subt18_08-08-03-919.txt Node
Date: Tue Nov 14 08:08:03 EST 2017
User: Ender
Spectrometer: HR+D1039
Trigger mode: 0
Integration Time (sec): 2.730000E-2
Scans to average: 10
Electric dark correction enabled: true
Nonlinearity correction enabled: false
Boxcar width: 0
XAxis mode: Wavelengths
Number of Pixels in Spectrum: 2048
>>>>>Begin Spectral Data<<<<<
187.836	-6.62
188.309	-6.62
188.782	-6.62
189.255	1.98
189.728	0.48
190.201	5.98
190.674	1.78
191.147	-0.92
191.619	-5.52
192.092	1.28
192.565	3.58
193.038	1.28
193.511	2.08
193.984	-3.32
194.456	-4.52
194.929	1.08
195.402	-0.52
195.874	1.88
196.347	-1.22
196.82	-4.52
197.292	6.48
197.765	3.88
198.237	-4.62
198.71	0.98
199.182	-3.72
199.655	-1.52
200.127	6.58
200.6	-0.82
201.072	-4.42
201.544	-4.02
202.017	0.08
202.489	6.18
202.961	-5.92
203.433	-3.72
203.906	0.88
204.378	-6.12
204.85	-1.72
205.322	-3.92
205.794	-2.22
206.266	-2.72
206.739	-5.32
207.211	2.88
207.683	-4.82
208.155	-2.22
208.627	-1.82
209.099	-0.62
209.57	-11.52
210.042	-3.02
210.514	-2.32
210.986	-3.82
211.458	-9.52
211.93	-0.52
212.402	6.48
212.873	-0.32
213.345	-3.32
213.817	-10.72
214.288	-5.92
214.76	-6.32
215.232	4.08
215.703	2.38
216.175	-0.12
216.646	-4.42
217.118	-9.32
217.589	-4.72
218.061	-6.72
218.532	-7.52
219.004	-3.32
219.475	-6.72
219.946	-1.52
220.418	-5.82
220.889	3.58
221.36	1.78
221.832	-2.62
222.303	-1.82
222.774	3.58
223.245	-7.02
223.717	-2.62
224.188	-5.22
224.659	-1.42
225.13	-7.02
225.601	-3.92
226.072	2.98
226.543	0.58
227.014	1.38
227.485	-4.02
227.956	-3.62
228.427	-1.42
228.898	4.58
229.369	11.58
229.839	-0.72
230.31	-0.12
230.781	2.38
231.252	-2.52
231.722	-1.42
232.193	0.88
232.664	-3.42
233.135	-4.42
233.605	3.18
234.076	-2.22
234.546	0.68
235.017	6.08
235.487	-1.02
235.958	4.18
236.428	-5.52
236.899	7.08
237.369	6.48
237.84	-0.82
238.31	4.88
238.78	4.28
239.251	2.88
239.721	-0.62
240.191	1.18
240.662	6.78
241.132	0.18
241.602	-1.72
242.072	1.68
242.542	6.48
243.013	0.78
243.483	4.78
243.953	0.48
244.423	-0.52
244.893	-4.62
245.363	5.18
245.833	2.78
246.303	-1.92
246.773	7.08
247.243	-1.22
247.712	9.98
248.182	12.38
248.652	10.58
249.122	-0.42
249.592	12.18
250.061	20.38
250.531	28.28
251.001	15.58
251.471	25.28
251.94	22.98
252.41	6.38
252.879	-3.42
253.349	11.78
253.818	8.78
254.288	1.98
254.757	7.48
255.227	4.78
255.696	6.88
256.166	4.78
256.635	14.68
257.105	9.58
257.574	2.48
258.043	7.28
258.513	13.18
258.982	20.18
259.451	9.88
259.92	20.78
260.389	14.88
260.859	15.88
261.328	16.08
261.797	16.38
262.266	12.88
262.735	10.48
263.204	7.58
263.673	1.68
264.142	9.28
264.611	3.78
265.08	-1.52
265.549	-2.02
266.018	6.08
266.487	1.78
266.955	-1.02
267.424	-1.52
267.893	11.88
268.362	1.68
268.83	5.78
269.299	12.38
269.768	3.68
270.236	9.68
270.705	4.78
271.174	7.98
271.642	13.58
272.111	15.58
272.579	12.38
273.048	26.28
273.516	34.78
273.985	30.18
274.453	24.88
274.922	17.98
275.39	11.38
275.858	6.38
276.327	14.78
276.795	17.78
277.263	13.08
277.731	33.28
278.2	50.28
278.668	58.68
279.136	46.28
279.604	22.28
280.072	14.98
280.54	11.38
281.008	12.58
281.477	14.28
281.945	8.58
282.413	15.78
282.881	17.68
283.348	4.68
283.816	18.08
284.284	16.68
284.752	19.18
285.22	14.48
285.688	16.38
286.156	23.38
286.623	47.88
287.091	53.88
287.559	28.68
288.026	18.88
288.494	13.28
288.962	8.28
289.429	14.28
289.897	19.78
290.364	10.88
290.832	20.58
291.3	16.28
291.767	20.48
292.234	17.38
292.702	17.08
293.169	18.98
293.637	23.38
294.104	23.68
294.571	11.58
295.039	12.18
295.506	13.58
295.973	14.38
296.44	17.58
296.908	21.58
297.375	24.98
297.842	22.78
298.309	16.88
298.776	17.68
299.243	23.48
299.71	16.18
300.177	14.88
300.644	19.98
301.111	20.98
301.578	27.68
302.045	16.78
302.512	21.88
302.979	28.08
303.446	22.98
303.913	22.18
304.379	23.08
304.846	32.68
305.313	21.88
305.78	22.58
306.246	21.08
306.713	26.18
307.18	23.68
307.646	25.78
308.113	26.58
308.579	23.88
309.046	27.18
309.512	26.88
309.979	20.18
310.445	26.38
310.912	31.18
311.378	31.28
311.845	21.48
312.311	34.68
312.777	35.88
313.244	30.98
313.71	37.98
314.176	30.88
314.642	30.38
315.109	31.78
315.575	40.98
316.041	43.58
316.507	29.98
316.973	41.78
317.439	33.78
317.905	34.58
318.371	31.48
318.837	38.28
319.303	32.88
319.769	38.68
320.235	37.98
320.701	35.38
321.167	39.68
321.633	35.88
322.099	38.78
322.564	45.18
323.03	41.78
323.496	35.48
323.962	37.58
324.427	37.48
324.893	44.58
325.359	37.08
325.824	38.68
326.29	41.28
326.755	41.08
327.221	41.78
327.686	37.18
328.152	47.78
328.617	43.88
329.083	48.48
329.548	52.78
330.014	51.98
330.479	37.48
330.944	44.68
331.41	39.58
331.875	47.18
332.34	40.38
332.805	50.28
333.271	52.28
333.736	45.98
334.201	53.28
334.666	50.68
335.131	55.98
335.596	51.98
336.061	53.98
336.526	41.88
336.991	52.48
337.456	51.38
337.921	51.68
338.386	43.68
338.851	41.28
339.316	44.08
339.781	45.98
340.246	50.38
340.711	45.58
341.175	54.58
341.64	47.48
342.105	55.28
342.569	55.58
343.034	61.48
343.499	60.08
343.963	55.48
344.428	70.08
344.893	60.08
345.357	65.88
345.822	69.28
346.286	70.78
346.751	76.98
347.215	65.18
347.679	74.68
348.144	100.98
348.608	83.98
349.073	70.28
349.537	76.78
350.001	83.28
350.465	85.88
350.93	77.38
351.394	80.18
351.858	78.28
352.322	88.18
352.786	87.68
353.25	102.28
353.715	109.58
354.179	101.28
354.643	123.28
355.107	131.08
355.571	107.58
356.035	105.08
356.498	121.78
356.962	127.68
357.426	128.98
357.89	122.88
358.354	95.38
358.818	87.48
359.281	85.18
359.745	78.78
360.209	74.08
360.673	74.58
361.136	79.28
361.6	81.38
362.064	87.98
362.527	84.18
362.991	89.28
363.454	83.78
363.918	81.18
364.381	85.88
364.845	92.38
365.308	87.38
365.772	88.78
366.235	83.58
366.698	76.78
367.162	80.78
367.625	87.68
368.088	95.28
368.552	92.58
369.015	91.38
369.478	99.48
369.941	112.58
370.404	99.38
370.867	112.48
371.331	115.18
371.794	119.18
372.257	119.78
372.72	126.28
373.183	116.08
373.646	101.68
374.109	102.68
374.572	112.98
375.035	115.18
375.497	111.48
375.96	107.58
376.423	104.68
376.886	109.08
377.349	119.28
377.811	107.28
378.274	114.28
378.737	115.98
379.199	114.28
379.662	116.78
380.125	119.98
380.587	126.18
381.05	130.68
381.512	129.78
381.975	137.48
382.437	140.08
382.9	125.68
383.362	137.38
383.825	139.98
384.287	151.98
384.75	143.78
385.212	146.48
385.674	147.38
386.136	135.38
386.599	127.88
387.061	133.18
387.523	142.58
387.985	135.08
388.447	149.38
388.91	148.48
389.372	167.38
389.834	154.18
390.296	154.48
390.758	155.28
391.22	174.78
391.682	215.08
392.144	306.48
392.606	238.08
393.068	175.28
393.529	174.18
393.991	155.28
394.453	154.38
394.915	157.28
395.377	207.68
395.838	225.78
396.3	164.28
396.762	145.68
397.224	140.08
397.685	131.58
398.147	129.88
398.608	131.08
399.07	128.38
399.531	141.38
399.993	143.38
400.454	158.28
400.916	153.68
401.377	146.88
401.839	152.28
402.3	162.68
402.762	173.08
403.223	186.18
403.684	181.98
404.145	164.98
404.607	161.28
405.068	170.38
405.529	171.58
405.99	184.18
406.451	182.38
406.913	174.28
407.374	169.88
407.835	166.78
408.296	173.18
408.757	171.08
409.218	195.48
409.679	185.88
410.14	176.58
410.601	178.78
411.062	194.58
411.522	199.48
411.983	204.28
412.444	185.98
412.905	188.98
413.366	195.68
413.826	198.68
414.287	220.28
414.748	261.68
415.208	253.68
415.669	216.88
416.13	215.08
416.59	212.18
417.051	221.78
417.511	223.08
417.972	241.38
418.432	251.28
418.893	296.78
419.353	259.38
419.814	207.78
420.274	196.28
420.734	186.28
421.195	202.98
421.655	197.98
422.115	203.78
422.576	198.88
423.036	206.78
423.496	215.38
423.956	228.78
424.416	235.38
424.876	278.88
425.336	272.68
425.797	274.18
426.257	257.38
426.717	248.58
427.177	236.78
427.637	228.18
428.097	243.78
428.556	258.08
429.016	280.58
429.476	277.98
429.936	284.28
430.396	279.08
430.856	303.18
431.315	334.18
431.775	364.18
432.235	395.48
432.694	368.98
433.154	369.48
433.614	406.88
434.073	348.98
434.533	297.08
434.993	280.38
435.452	288.78
435.912	300.88
436.371	303.18
436.83	291.18
437.29	273.68
437.749	256.98
438.209	257.68
438.668	284.58
439.127	298.18
439.587	273.48
440.046	256.18
440.505	268.78
440.964	288.78
441.424	330.88
441.883	320.98
442.342	269.68
442.801	229.18
443.26	234.38
443.719	226.48
444.178	229.98
444.637	218.58
445.096	232.08
445.555	229.88
446.014	233.18
446.473	231.68
446.932	239.48
447.391	232.28
447.849	232.38
448.308	219.98
448.767	232.58
449.226	245.58
449.685	245.18
450.143	256.08
450.602	244.08
451.061	223.78
451.519	243.98
451.978	241.78
452.436	238.38
452.895	248.68
453.353	259.48
453.812	253.08
454.27	245.88
454.729	251.18
455.187	240.48
455.646	248.88
456.104	257.78
456.562	266.48
457.021	276.18
457.479	267.18
457.937	274.28
458.395	267.78
458.854	255.18
459.312	260.78
459.77	279.88
460.228	262.28
460.686	244.58
461.144	248.48
461.602	251.38
462.06	249.28
462.518	257.18
462.976	256.98
463.434	270.38
463.892	273.88
464.35	283.28
464.808	292.98
465.266	268.98
465.724	275.88
466.181	284.38
466.639	273.98
467.097	289.48
467.555	304.28
468.012	311.38
468.47	317.08
468.928	339.88
469.385	353.98
469.843	360.68
470.3	360.18
470.758	367.68
471.215	394.58
471.673	420.48
472.13	413.18
472.588	432.58
473.045	374.18
473.503	384.68
473.96	403.48
474.417	413.28
474.875	441.38
475.332	482.38
475.789	478.08
476.246	469.18
476.704	498.18
477.161	517.68
477.618	535.38
478.075	581.68
478.532	633.68
478.989	708.28
479.446	829.28
479.903	785.48
480.36	830.28
480.817	877.58
481.274	979.98
481.731	1090.68
482.188	1185.18
482.645	1320.98
483.102	1422.18
483.558	1553.88
484.015	1609.88
484.472	1575.38
484.929	1541.78
485.385	1502.68
485.842	1446.58
486.299	1386.78
486.755	1309.88
487.212	1118.78
487.668	936.18
488.125	859.28
488.582	790.28
489.038	763.78
489.494	726.68
489.951	693.08
490.407	670.08
490.864	653.68
491.32	659.48
491.776	655.28
492.233	666.58
492.689	628.58
493.145	612.48
493.602	603.88
494.058	628.48
494.514	620.48
494.97	651.18
495.426	662.28
495.882	630.48
496.338	620.78
496.794	634.98
497.251	633.38
497.707	643.38
498.163	634.18
498.618	645.28
499.074	652.98
499.53	681.28
499.986	686.88
500.442	663.58
500.898	643.38
501.354	635.58
501.809	645.78
502.265	657.88
502.721	675.08
503.177	688.78
503.632	672.38
504.088	684.08
504.543	725.28
504.999	722.38
505.455	669.48
505.91	647.78
506.366	643.48
506.821	637.18
507.277	639.18
507.732	639.08
508.187	637.58
508.643	652.58
509.098	636.98
509.553	655.58
510.009	680.38
510.464	694.28
510.919	700.68
511.375	710.28
511.83	714.68
512.285	735.38
512.74	770.18
513.195	790.68
513.65	772.48
514.105	775.98
514.56	783.18
515.015	794.18
515.47	817.68
515.925	814.08
516.38	801.98
516.835	803.58
517.29	803.88
517.745	795.78
518.2	767.28
518.655	752.38
519.109	746.88
519.564	749.18
520.019	733.18
520.474	728.48
520.928	733.18
521.383	736.88
521.838	719.68
522.292	716.48
522.747	717.08
523.201	712.88
523.656	709.38
524.11	699.58
524.565	705.48
525.019	710.38
525.474	713.48
525.928	711.98
526.382	707.08
526.837	719.58
527.291	702.08
527.745	701.78
528.2	705.18
528.654	697.68
529.108	699.48
529.562	699.48
530.016	701.28
530.47	697.48
530.925	705.78
531.379	714.18
531.833	714.08
532.287	705.98
532.741	702.88
533.195	712.08
533.649	720.58
534.103	722.78
534.556	719.28
535.01	728.48
535.464	712.38
535.918	724.28
536.372	722.68
536.826	723.18
537.279	717.88
537.733	719.08
538.187	725.78
538.64	720.38
539.094	730.08
539.548	739.18
540.001	733.38
540.455	737.58
540.908	734.68
541.362	743.18
541.815	755.88
542.269	770.18
542.722	780.68
543.175	784.88
543.629	781.58
544.082	799.58
544.536	801.28
544.989	805.48
545.442	807.48
545.895	801.48
546.349	796.98
546.802	799.88
547.255	804.58
547.708	814.48
548.161	835.08
548.614	833.28
549.067	844.68
549.52	836.88
549.973	827.68
550.426	824.88
550.879	804.38
551.332	805.68
551.785	818.98
552.238	827.68
552.691	827.28
553.144	847.18
553.596	854.48
554.049	872.98
554.502	901.18
554.955	922.58
555.407	921.48
555.86	913.78
556.313	896.68
556.765	882.38
557.218	898.58
557.67	903.58
558.123	896.78
558.576	885.08
559.028	884.18
559.48	894.28
559.933	873.48
560.385	853.98
560.838	823.98
561.29	787.98
561.742	799.58
562.195	766.08
562.647	777.18
563.099	789.78
563.551	783.68
564.004	791.68
564.456	782.48
564.908	764.38
565.36	752.98
565.812	741.88
566.264	747.48
566.716	739.08
567.168	732.18
567.62	743.28
568.072	717.38
568.524	713.48
568.976	700.08
569.428	687.78
569.88	689.18
570.332	695.58
570.784	700.38
571.235	695.68
571.687	713.18
572.139	715.48
572.59	725.18
573.042	722.28
573.494	719.68
573.945	712.38
574.397	688.08
574.849	692.68
575.3	700.58
575.752	697.98
576.203	688.88
576.655	693.38
577.106	677.98
577.557	682.48
578.009	682.98
578.46	677.88
578.912	672.68
579.363	678.18
579.814	677.88
580.265	664.48
580.717	666.98
581.168	680.28
581.619	694.68
582.07	703.28
582.521	693.58
582.972	686.68
583.423	686.88
583.875	698.48
584.326	705.78
584.777	760.58
585.227	842.68
585.678	933.08
586.129	1036.48
586.58	1101.38
587.031	1196.78
587.482	1342.98
587.933	1529.28
588.384	1333.58
588.834	994.98
589.285	819.48
589.736	799.68
590.186	795.08
590.637	781.88
591.088	746.58
591.538	746.08
591.989	744.78
592.439	749.38
592.89	733.68
593.34	721.08
593.791	726.38
594.241	716.18
594.692	720.38
595.142	711.68
595.593	711.48
596.043	719.48
596.493	729.88
596.943	733.58
597.394	736.08
597.844	735.48
598.294	750.98
598.744	766.28
599.195	782.58
599.645	830.68
600.095	875.28
600.545	917.68
600.995	991.28
601.445	1054.78
601.895	1111.98
602.345	1147.98
602.795	1126.48
603.245	1093.38
603.695	1026.98
604.145	972.18
604.594	930.08
605.044	867.48
605.494	811.88
605.944	768.08
606.393	755.78
606.843	738.98
607.293	738.28
607.743	746.98
608.192	762.08
608.642	772.08
609.091	775.38
609.541	782.68
609.99	792.08
610.44	780.48
610.889	733.88
611.339	720.98
611.788	707.48
612.238	710.68
612.687	737.08
613.136	732.18
613.586	751.08
614.035	758.88
614.484	770.48
614.933	769.88
615.383	762.18
615.832	752.98
616.281	752.08
616.73	697.98
617.179	676.88
617.628	656.58
618.077	632.98
618.526	643.28
618.975	631.78
619.424	643.58
619.873	626.88
620.322	630.38
620.771	621.78
621.22	613.38
621.669	608.48
622.118	597.78
622.567	592.98
623.015	588.38
623.464	578.18
623.913	572.48
624.361	571.38
624.81	563.88
625.259	571.58
625.707	568.48
626.156	573.08
626.604	576.98
627.053	567.68
627.501	575.48
627.95	579.58
628.398	586.18
628.847	589.38
629.295	581.58
629.744	583.78
630.192	581.68
630.64	585.18
631.089	581.88
631.537	592.48
631.985	602.88
632.433	616.58
632.881	632.88
633.33	684.78
633.778	668.18
634.226	580.28
634.674	584.68
635.122	600.48
635.57	623.98
636.018	645.28
636.466	596.98
636.914	577.18
637.362	574.78
637.81	581.58
638.258	593.88
638.705	595.58
639.153	629.98
639.601	632.58
640.049	656.98
640.497	676.98
640.944	708.58
641.392	646.98
641.84	615.18
642.287	600.18
642.735	570.88
643.182	587.98
643.63	595.08
644.078	588.68
644.525	596.78
644.973	612.18
645.42	622.58
645.867	628.68
646.315	658.88
646.762	674.08
647.21	709.98
647.657	724.48
648.104	767.58
648.551	796.28
648.999	848.48
649.446	932.38
649.893	1028.28
650.34	1197.78
650.787	1425.98
651.234	1776.28
651.682	2322.28
652.129	3183.98
652.576	4629.28
653.023	6808.78
653.47	9268.38
653.917	11496.28
654.363	13201.38
654.81	14485.18
655.257	13778.98
655.704	9076.48
656.151	5352.38
656.598	3460.58
657.044	2467.08
657.491	1880.28
657.938	1499.28
658.385	1263.08
658.831	1093.38
659.278	983.68
659.724	869.88
660.171	797.38
660.618	730.88
661.064	710.38
661.511	682.38
661.957	670.68
662.404	660.18
662.85	665.88
663.296	633.58
663.743	573.68
664.189	546.48
664.635	548.18
665.082	536.38
665.528	539.88
665.974	533.78
666.42	533.38
666.867	520.98
667.313	498.68
667.759	489.18
668.205	490.08
668.651	491.18
669.097	488.08
669.543	511.78
669.989	485.48
670.435	460.68
670.881	459.78
671.327	460.68
671.773	478.08
672.219	505.98
672.665	560.28
673.11	592.58
673.556	645.78
674.002	670.48
674.448	668.88
674.893	555.38
675.339	479.48
675.785	447.08
676.23	434.08
676.676	403.28
677.122	395.38
677.567	372.68
678.013	374.68
678.458	363.58
678.904	367.48
679.349	362.28
679.794	358.88
680.24	357.48
680.685	358.28
681.131	354.18
681.576	360.38
682.021	360.28
682.466	347.88
682.912	350.28
683.357	360.78
683.802	390.58
684.247	425.08
684.692	464.88
685.137	506.68
685.583	555.98
686.028	577.78
686.473	525.18
686.918	451.18
687.363	428.78
687.807	402.98
688.252	366.48
688.697	353.18
689.142	346.88
689.587	339.18
690.032	324.08
690.477	346.98
690.921	363.78
691.366	389.98
691.811	400.88
692.255	444.88
692.7	475.18
693.145	522.38
693.589	720.38
694.034	1164.58
694.478	1579.08
694.923	1757.88
695.367	2280.98
695.812	1210.58
696.256	496.78
696.701	377.18
697.145	356.18
697.59	331.98
698.034	330.28
698.478	338.48
698.922	329.78
699.367	339.58
699.811	346.08
700.255	367.88
700.699	397.38
701.143	438.88
701.588	484.38
702.032	538.18
702.476	523.98
702.92	497.68
703.364	508.98
703.808	661.08
704.252	1070.38
704.696	1498.08
705.14	1689.98
705.584	2146.98
706.027	1071.88
706.471	530.08
706.915	410.68
707.359	357.88
707.803	328.98
708.246	317.88
708.69	322.38
709.134	325.48
709.577	318.98
710.021	328.18
710.465	311.88
710.908	304.58
711.352	313.08
711.795	324.78
712.239	367.18
712.682	393.58
713.126	425.18
713.569	469.98
714.012	372.68
714.456	327.48
714.899	306.18
715.342	283.08
715.786	262.98
716.229	268.48
716.672	260.08
717.115	259.08
717.558	250.08
718.002	256.98
718.445	267.68
718.888	300.98
719.331	299.88
719.774	312.08
720.217	311.28
720.66	290.38
721.103	278.28
721.546	261.28
721.989	250.68
722.432	238.68
722.874	248.18
723.317	237.98
723.76	244.28
724.203	270.88
724.645	330.98
725.088	457.98
725.531	579.98
725.974	650.38
726.416	561.08
726.859	313.78
727.301	254.68
727.744	243.18
728.187	240.18
728.629	243.08
729.071	252.48
729.514	266.38
729.956	275.78
730.399	289.08
730.841	295.58
731.283	282.58
731.726	275.78
732.168	270.88
732.61	267.08
733.053	291.38
733.495	321.58
733.937	363.78
734.379	406.88
734.821	445.58
735.263	565.08
735.705	873.38
736.148	1649.68
736.59	2629.68
737.032	3059.18
737.474	2468.58
737.916	822.58
738.357	439.18
738.799	328.68
739.241	303.78
739.683	284.28
740.125	299.18
740.567	307.98
741.008	315.18
741.45	324.58
741.892	335.08
742.334	355.88
742.775	363.88
743.217	343.18
743.658	279.58
744.1	262.08
744.542	269.38
744.983	317.48
745.425	348.48
745.866	346.98
746.307	294.18
746.749	290.88
747.19	335.88
747.632	473.48
748.073	927.88
748.514	1923.28
748.956	2893.78
749.397	3648.68
749.838	3001.38
750.279	2967.98
750.72	1508.28
751.162	556.28
751.603	333.18
752.044	257.58
752.485	223.48
752.926	213.58
753.367	208.78
753.808	201.78
754.249	201.08
754.69	196.88
755.131	189.78
755.572	187.18
756.013	182.18
756.453	191.98
756.894	193.78
757.335	194.88
757.776	200.58
758.216	198.38
758.657	205.48
759.098	207.88
759.538	232.48
759.979	268.98
760.42	389.68
760.86	744.28
761.301	1927.68
761.741	4583.18
762.182	6416.08
762.622	4495.88
763.063	1329.08
763.503	549.28
763.943	357.58
764.384	356.08
764.824	428.98
765.264	456.88
765.705	319.58
766.145	218.28
766.585	191.68
767.025	185.58
767.465	197.88
767.906	260.28
768.346	329.58
768.786	348.98
769.226	276.58
769.666	339.58
770.106	661.68
770.546	1627.58
770.986	2670.38
771.426	2356.08
771.866	806.58
772.306	334.18
772.745	212.18
773.185	179.38
773.625	180.68
774.065	171.88
774.505	206.48
774.944	325.08
775.384	696.38
775.824	1229.48
776.263	1178.48
776.703	512.28
777.142	227.98
777.582	157.98
778.021	137.38
778.461	144.58
778.9	145.88
779.34	139.58
779.779	127.08
780.219	113.88
780.658	112.68
781.097	110.58
781.537	123.38
781.976	110.18
782.415	114.38
782.855	109.08
783.294	112.58
783.733	118.48
784.172	119.88
784.611	104.58
785.05	112.58
785.489	122.28
785.928	124.68
786.367	131.68
786.806	121.08
787.245	139.28
787.684	141.88
788.123	156.68
788.562	140.78
789.001	130.18
789.44	128.18
789.879	118.18
790.317	120.58
790.756	134.68
791.195	131.58
791.634	150.08
792.072	213.38
792.511	385.98
792.95	1059.38
793.388	2169.18
793.827	1937.38
794.265	688.18
794.704	286.68
795.142	186.28
795.581	153.78
796.019	143.78
796.458	126.48
796.896	128.88
797.334	138.48
797.773	167.38
798.211	230.88
798.649	462.78
799.087	1069.78
799.526	1625.18
799.964	2052.18
800.402	2003.78
800.84	752.88
801.278	304.28
801.716	192.68
802.154	163.68
802.592	147.58
803.03	147.78
803.468	143.48
803.906	153.58
804.344	157.38
804.782	138.18
805.22	136.98
805.658	128.38
806.096	146.38
806.533	156.88
806.971	177.98
807.409	222.88
807.847	323.68
808.284	701.68
808.722	1935.48
809.16	3308.68
809.597	3202.38
810.035	5521.28
810.472	5727.18
810.91	2087.18
811.347	797.68
811.785	416.08
812.222	260.98
812.66	202.78
813.097	165.08
813.535	139.48
813.972	131.18
814.409	117.18
814.846	116.28
815.284	111.18
815.721	106.58
816.158	108.88
816.595	126.48
817.032	193.08
817.47	205.58
817.907	167.78
818.344	157.18
818.781	118.98
819.218	101.68
819.655	134.08
820.092	188.28
820.529	216.38
820.966	177.98
821.403	130.48
821.839	112.78
822.276	103.18
822.713	126.38
823.15	139.38
823.587	122.38
824.023	151.98
824.46	320.18
824.897	930.78
825.333	1345.58
825.77	572.88
826.206	236.88
826.643	144.18
827.08	100.78
827.516	83.58
827.953	81.88
828.389	86.98
828.825	71.88
829.262	73.68
829.698	68.78
830.135	68.18
830.571	68.18
831.007	63.78
831.443	64.68
831.88	68.78
832.316	68.08
832.752	61.98
833.188	70.48
833.624	72.58
834.06	71.88
834.497	74.68
834.933	68.58
835.369	73.88
835.805	70.58
836.241	73.58
836.677	85.68
837.112	95.08
837.548	108.78
837.984	130.68
838.42	210.38
838.856	524.48
839.292	1555.48
839.727	2299.68
840.163	1081.58
840.599	964.98
841.034	2065.98
841.47	2103.68
841.906	781.68
842.341	338.98
842.777	233.68
843.212	318.18
843.648	314.48
844.083	154.58
844.519	92.68
844.954	79.68
845.39	59.98
845.825	60.58
846.261	62.68
846.696	60.28
847.131	53.68
847.566	60.08
848.002	57.58
848.437	52.08
848.872	64.98
849.307	59.98
849.742	86.88
850.177	196.38
850.613	576.18
851.048	871.28
851.483	383.88
851.918	156.08
852.353	88.98
852.788	66.18
853.223	62.68
853.657	54.68
854.092	48.48
854.527	44.28
854.962	40.98
855.397	49.28
855.832	55.38
856.266	48.08
856.701	42.48
857.136	40.58
857.57	39.48
858.005	51.98
858.44	60.08
858.874	49.48
859.309	57.58
859.743	48.08
860.178	42.58
860.612	46.98
861.047	55.28
861.481	68.18
861.915	76.98
862.35	50.78
862.784	40.38
863.218	41.28
863.653	39.38
864.087	48.58
864.521	63.58
864.955	78.98
865.39	164.18
865.824	173.58
866.258	109.38
866.692	160.38
867.126	175.98
867.56	119.48
867.994	57.08
868.428	42.48
868.862	47.88
869.296	55.38
869.73	62.98
870.164	54.38
870.598	55.58
871.031	34.88
871.465	35.68
871.899	33.38
872.333	24.28
872.766	27.58
873.2	27.58
873.634	31.28
874.067	28.48
874.501	26.68
874.935	37.48
875.368	31.38
875.802	29.38
876.235	28.58
876.669	30.58
877.102	24.18
877.535	31.08
877.969	26.58
878.402	29.58
878.836	21.28
879.269	25.88
879.702	26.88
880.135	20.78
880.569	24.38
881.002	31.28
881.435	25.68
881.868	20.58
882.301	25.68
882.734	15.18
883.167	22.18
883.601	21.98
884.034	18.18
884.467	20.78
884.899	27.18
885.332	17.78
885.765	17.48
886.198	16.38
886.631	16.38
887.064	24.68
887.497	22.98
887.929	25.08
888.362	18.18
888.795	19.68
889.228	20.18
889.66	15.58
890.093	16.88
890.526	18.08
890.958	22.98
891.391	16.88
891.823	24.08
892.256	17.58
892.688	15.88
893.121	13.78
893.553	16.28
893.985	29.48
894.418	20.98
894.85	17.28
895.282	14.38
895.715	21.08
896.147	20.78
896.579	17.48
897.011	17.98
897.444	15.78
897.876	18.28
898.308	19.98
898.74	15.68
899.172	16.58
899.604	25.98
900.036	22.98
900.468	18.58
900.9	15.38
901.332	18.88
901.764	15.28
902.196	17.48
902.628	24.18
903.06	19.78
903.491	30.98
903.923	26.18
904.355	24.68
904.787	25.58
905.218	23.38
905.65	22.78
906.082	17.68
906.513	19.18
906.945	17.48
907.376	16.98
907.808	22.98
908.239	25.08
908.671	20.38
909.102	22.98
909.534	33.78
909.965	46.68
910.397	99.98
910.828	319.68
911.259	482.38
911.691	220.98
912.122	105.98
912.553	50.38
912.984	35.88
913.415	26.98
913.847	28.38
914.278	22.88
914.709	18.98
915.14	17.88
915.571	18.08
916.002	9.58
916.433	21.78
916.864	15.98
917.295	12.88
917.726	22.28
918.157	21.48
918.587	33.08
919.018	31.98
919.449	23.28
919.88	28.18
920.311	30.48
920.741	46.88
921.172	176.18
921.603	155.98
922.033	72.88
922.464	50.28
922.895	26.38
923.325	20.48
923.756	16.28
924.186	21.88
924.617	29.68
925.047	43.48
925.478	56.18
925.908	40.68
926.338	25.98
926.769	24.48
927.199	27.38
927.629	16.18
928.06	22.48
928.49	14.58
928.92	20.58
929.35	12.28
929.78	11.68
930.21	10.08
930.641	11.58
931.071	10.08
931.501	7.38
931.931	11.18
932.361	10.08
932.791	6.28
933.221	10.98
933.651	8.98
934.08	22.78
934.51	29.78
934.94	6.98
935.37	18.78
935.8	17.78
936.229	6.88
936.659	13.48
937.089	5.38
937.519	20.38
937.948	22.08
938.378	21.38
938.807	10.08
939.237	9.88
939.666	6.08
940.096	-1.62
940.525	3.68
940.955	2.78
941.384	1.38
941.814	0.48
942.243	3.98
942.672	6.18
943.102	1.28
943.531	0.68
943.96	6.58
944.39	8.98
944.819	6.58
945.248	6.08
945.677	3.98
946.106	4.88
946.535	13.78
946.964	7.88
947.393	6.88
947.822	-0.62
948.251	5.08
948.68	6.18
949.109	11.88
949.538	4.88
949.967	1.18
950.396	4.08
950.825	2.58
951.254	2.08
951.682	-4.02
952.111	7.58
952.54	8.68
952.969	-3.42
953.397	-0.82
953.826	1.38
954.254	-5.42
954.683	8.78
955.112	-3.82
955.54	0.28
955.969	1.78
956.397	8.48
956.826	-5.52
957.254	5.88
957.682	7.58
958.111	1.28
958.539	-1.92
958.967	-0.82
959.396	-0.62
959.824	7.18
960.252	6.48
960.68	-4.02
961.109	-2.72
961.537	-2.62
961.965	3.48
962.393	1.08
962.821	-1.32
963.249	0.08
963.677	-0.52
964.105	8.68
964.533	47.18
964.961	39.88
965.389	21.88
965.817	13.98
966.245	-0.22
966.672	6.48
967.1	-0.72
967.528	0.38
967.956	1.48
968.383	1.78
968.811	-4.12
969.239	4.48
969.666	-3.02
970.094	4.18
970.522	3.58
970.949	4.88
971.377	-7.32
971.804	-4.42
972.232	0.98
972.659	-0.92
973.087	3.38
973.514	1.08
973.941	0.98
974.369	7.18
974.796	5.28
975.223	-0.52
975.651	-5.12
976.078	5.48
976.505	-0.82
976.932	0.18
977.359	13.28
977.786	16.68
978.214	-0.22
978.641	0.98
979.068	3.18
979.495	-4.92
979.922	1.28
980.349	-7.42
980.776	5.88
981.202	3.88
981.629	7.08
982.056	0.68
982.483	2.08
982.91	5.78
983.337	-1.72
983.763	8.98
984.19	-3.02
984.617	-0.62
985.043	-4.92
985.47	4.98
985.897	-0.62
986.323	-7.52
986.75	9.98
987.176	6.38
987.603	0.38
988.029	-2.12
988.456	1.28
988.882	5.88
989.308	-8.52
989.735	-4.62
990.161	-4.52
990.587	-4.32
991.014	3.48
991.44	4.88
991.866	-4.82
992.292	-8.32
992.719	-3.12
993.145	7.28
993.571	-12.02
993.997	-0.72
994.423	-0.72
994.849	-0.42
995.275	0.38
995.701	-1.32
996.127	-0.32
996.553	0.88
996.979	0.98
997.405	2.38
997.83	1.88
998.256	-3.52
998.682	-7.62
999.108	-1.12
999.534	-0.82
999.959	4.48
1000.385	-4.32
1000.811	-0.22
1001.236	-8.52
1001.662	-10.12
1002.087	-5.22
1002.513	8.48
1002.938	4.18
1003.364	3.78
1003.789	7.18
1004.215	5.38
1004.64	2.58
1005.066	4.38
1005.491	4.88
1005.916	-4.92
1006.342	-5.72
1006.767	-2.82
1007.192	3.78
1007.617	-4.82
1008.042	-3.32
1008.468	-6.92
1008.893	-4.12
1009.318	-1.02
1009.743	1.78
1010.168	4.18
1010.593	4.58
1011.018	-7.82
1011.443	-7.42
1011.868	1.78
1012.293	1.38
1012.718	-6.92
1013.143	2.78
1013.567	2.18
1013.992	-0.02
1014.417	-11.62
1014.842	5.38
1015.267	-3.22
1015.691	-6.92
1016.116	2.78
1016.541	-0.02
1016.965	0.78
1017.39	4.98
1017.814	-0.72
1018.239	-0.22
1018.663	-9.52
1019.088	-12.52
1019.512	-0.62
1019.937	-0.92
1020.361	-2.02
1020.785	-6.42
1021.21	-6.82
1021.634	-4.72
1022.058	5.18
1022.483	3.38
1022.907	-3.02
1023.331	-2.22
1023.755	-0.52
1024.179	-4.12
1024.604	-5.52
1025.028	-9.72
1025.452	-6.82
1025.876	-2.12
1026.3	-1.12
1026.724	-9.32
1027.148	-5.62
1027.572	-12.42
1027.996	-1.92
1028.42	-1.32
1028.843	-3.52
1029.267	-7.22
1029.691	-5.32
1030.115	-9.62
1030.539	-7.82
1030.962	-2.52
1031.386	-10.02
1031.81	1.28
1032.233	-1.42
1032.657	2.78
1033.08	-3.92
1033.504	-5.32
1033.927	-4.22
1034.351	-0.02
1034.774	-4.92
1035.198	1.88
1035.621	-8.72
1036.045	-6.92
1036.468	1.28
1036.891	-6.62
1037.315	-4.52
1037.738	-7.52
1038.161	-0.32
1038.584	-5.32
1039.008	-7.62
1039.431	-2.82
1039.854	-6.12
1040.277	-8.42
1040.7	-5.62
1041.123	-0.62
1041.546	-7.02
1041.969	-3.52
1042.392	-7.12
1042.815	-2.82
1043.238	-1.42
1043.661	-1.22
1044.084	-8.82
1044.507	-0.12
1044.93	-5.22
1045.352	-2.22
1045.775	-2.52
1046.198	-1.62
1046.621	1.68
1047.043	-1.12
1047.466	7.88
1047.889	-1.82
1048.311	-1.82
1048.734	-1.52
1049.156	-1.72
1049.579	0.08
1050.001	-1.72
1050.424	2.58
1050.846	-2.82
1051.269	-1.92
1051.691	-4.82
1052.113	-5.02
1052.536	-5.52
1052.958	-5.92
1053.38	-9.92
1053.802	-12.32
1054.225	-1.72
1054.647	-11.82
1055.069	-5.92
1055.491	-2.12
1055.913	-5.72
1056.335	-4.42
1056.757	-1.92
1057.179	-9.52
1057.601	-5.42
1058.023	-4.62
1058.445	-4.52
1058.867	-4.42
1059.289	-1.72
1059.711	-1.02
1060.133	2.18
1060.555	-4.52
1060.976	-12.52
1061.398	-4.02
1061.82	-5.32
1062.241	-4.32
1062.663	-7.42
1063.085	-4.82
1063.506	0.18
1063.928	-3.02
1064.35	-4.82
1064.771	-9.42
1065.193	-4.42
1065.614	-5.42
1066.035	-3.72
1066.457	2.38
1066.878	1.88
1067.3	-1.42
1067.721	-6.42
1068.142	-1.92
1068.564	-0.92
1068.985	-1.02
1069.406	1.18
1069.827	-0.02
1070.248	-1.02
1070.67	-4.12
1071.091	-3.62
1071.512	0.38
1071.933	-3.62
1072.354	-2.42
1072.775	-1.12
1073.196	-10.62
1073.617	-2.02
1074.038	-9.72
1074.459	-1.12
1074.88	-6.12
1075.3	-2.92
1075.721	-2.82
1076.142	-0.72
1076.563	1.68
1076.983	-9.72
1077.404	-8.12
1077.825	-8.02
1078.246	-6.32
1078.666	-13.62
1079.087	-5.72
1079.507	0.18
1079.928	-2.52
1080.348	1.58
1080.769	-8.32
1081.189	1.38
1081.61	0.98
1082.03	-3.82
1082.451	-6.72
1082.871	-4.82
1083.291	-4.32
1083.711	-8.22
1084.132	-1.62
1084.552	-4.12
1084.972	-2.92
1085.392	-5.42
1085.813	-7.62
1086.233	-5.02
1086.653	-6.12
1087.073	-2.42
1087.493	-1.72
1087.913	-5.62
1088.333	-7.82
1088.753	-1.82
1089.173	-1.82
1089.593	-7.92
1090.013	1.58
1090.433	-4.02
1090.852	-5.92
1091.272	5.48
1091.692	-0.72
1092.112	-4.82
1092.531	-7.92
1092.951	-10.62
1093.371	-6.22
1093.79	4.58
1094.21	-6.22
1094.63	1.78
1095.049	-8.92
1095.469	-0.92
1095.888	1.68
1096.308	1.18
1096.727	4.68
1097.146	-5.22
1097.566	5.48
1097.985	0.18
1098.405	0.88
1098.824	-1.42
1099.243	-0.42
1099.662	1.08
1100.082	0.38
1100.501	-2.62
1100.92	-5.32
1101.339	-0.72
1101.758	-6.22
