Data from 20171114-ORNL-Ar_H_NY_Subt18_08-08-44-623.txt Node
Date: Tue Nov 14 08:08:44 EST 2017
User: Ender
Spectrometer: HR+D1039
Trigger mode: 0
Integration Time (sec): 2.730000E-2
Scans to average: 10
Electric dark correction enabled: true
Nonlinearity correction enabled: false
Boxcar width: 0
XAxis mode: Wavelengths
Number of Pixels in Spectrum: 2048
>>>>>Begin Spectral Data<<<<<
187.836	-1.19
188.309	-1.19
188.782	-1.19
189.255	0.11
189.728	-0.09
190.201	3.11
190.674	-1.39
191.147	5.61
191.619	-8.89
192.092	1.21
192.565	3.81
193.038	-0.49
193.511	1.31
193.984	0.81
194.456	-2.39
194.929	1.01
195.402	-0.49
195.874	-2.09
196.347	-2.39
196.82	-8.59
197.292	5.71
197.765	-2.19
198.237	-2.79
198.71	1.81
199.182	1.01
199.655	5.81
200.127	2.91
200.6	3.41
201.072	3.71
201.544	-3.79
202.017	-3.39
202.489	3.91
202.961	2.01
203.433	-1.99
203.906	-11.09
204.378	-3.99
204.85	-0.29
205.322	-9.99
205.794	-4.49
206.266	-5.59
206.739	-5.79
207.211	1.31
207.683	-6.79
208.155	-5.79
208.627	-6.99
209.099	-0.29
209.57	-7.49
210.042	-5.39
210.514	-0.19
210.986	-0.39
211.458	-11.59
211.93	-4.09
212.402	4.31
212.873	-1.29
213.345	-8.99
213.817	-17.29
214.288	-6.09
214.76	-11.19
215.232	-3.69
215.703	-6.09
216.175	-7.19
216.646	-3.69
217.118	-6.89
217.589	-6.09
218.061	-3.29
218.532	-6.79
219.004	-1.39
219.475	-4.29
219.946	-3.19
220.418	-5.99
220.889	3.11
221.36	1.31
221.832	-4.29
222.303	-8.29
222.774	-2.69
223.245	-14.19
223.717	-1.89
224.188	1.01
224.659	-9.49
225.13	-9.89
225.601	-4.99
226.072	4.81
226.543	-7.49
227.014	0.91
227.485	-0.39
227.956	-8.49
228.427	-1.59
228.898	-2.09
229.369	-5.39
229.839	-5.49
230.31	-4.09
230.781	2.81
231.252	-7.29
231.722	-6.79
232.193	-6.19
232.664	0.01
233.135	1.21
233.605	-0.99
234.076	-3.49
234.546	0.81
235.017	-2.09
235.487	-3.49
235.958	-2.99
236.428	-0.29
236.899	-4.49
237.369	1.31
237.84	-5.09
238.31	2.01
238.78	-2.19
239.251	-4.89
239.721	5.01
240.191	-1.49
240.662	1.01
241.132	-5.69
241.602	-8.89
242.072	-8.39
242.542	1.81
243.013	2.01
243.483	4.81
243.953	-4.59
244.423	-2.39
244.893	-3.39
245.363	-1.79
245.833	1.01
246.303	-1.79
246.773	4.71
247.243	-6.29
247.712	4.31
248.182	4.81
248.652	0.21
249.122	-7.59
249.592	0.91
250.061	6.61
250.531	17.01
251.001	-2.59
251.471	10.51
251.94	5.61
252.41	-4.79
252.879	-6.09
253.349	3.41
253.818	2.61
254.288	0.31
254.757	3.91
255.227	-5.59
255.696	-1.59
256.166	8.61
256.635	5.31
257.105	-0.59
257.574	-1.09
258.043	4.41
258.513	-3.99
258.982	0.51
259.451	1.31
259.92	7.21
260.389	-0.69
260.859	6.51
261.328	4.41
261.797	8.21
262.266	-0.99
262.735	2.01
263.204	4.31
263.673	1.01
264.142	4.91
264.611	-4.59
265.08	0.21
265.549	1.51
266.018	2.61
266.487	-5.79
266.955	-4.09
267.424	-3.19
267.893	-1.29
268.362	-1.59
268.83	-1.79
269.299	5.41
269.768	3.41
270.236	-0.49
270.705	3.11
271.174	3.31
271.642	1.51
272.111	3.01
272.579	3.81
273.048	6.71
273.516	7.61
273.985	9.91
274.453	10.51
274.922	5.21
275.39	8.21
275.858	0.51
276.327	5.91
276.795	13.91
277.263	4.61
277.731	18.91
278.2	13.21
278.668	16.91
279.136	13.21
279.604	5.71
280.072	9.71
280.54	11.91
281.008	1.81
281.477	3.71
281.945	8.11
282.413	8.41
282.881	9.81
283.348	-1.19
283.816	9.51
284.284	7.91
284.752	19.21
285.22	5.41
285.688	8.91
286.156	9.91
286.623	14.61
287.091	13.21
287.559	10.71
288.026	10.11
288.494	8.61
288.962	5.21
289.429	-1.99
289.897	13.21
290.364	11.61
290.832	7.11
291.3	10.11
291.767	8.91
292.234	14.41
292.702	6.11
293.169	20.71
293.637	13.21
294.104	11.61
294.571	4.01
295.039	1.11
295.506	12.41
295.973	12.31
296.44	13.91
296.908	14.31
297.375	12.31
297.842	13.21
298.309	15.21
298.776	5.01
299.243	13.41
299.71	9.81
300.177	17.61
300.644	19.21
301.111	13.61
301.578	14.81
302.045	12.61
302.512	11.21
302.979	17.31
303.446	21.71
303.913	18.71
304.379	18.81
304.846	28.81
305.313	21.21
305.78	14.61
306.246	16.51
306.713	23.11
307.18	16.21
307.646	20.61
308.113	23.11
308.579	18.31
309.046	25.51
309.512	15.31
309.979	17.61
310.445	25.91
310.912	25.81
311.378	29.31
311.845	18.71
312.311	29.81
312.777	28.81
313.244	29.51
313.71	30.51
314.176	31.41
314.642	22.61
315.109	22.11
315.575	31.71
316.041	27.11
316.507	26.21
316.973	28.41
317.439	25.51
317.905	25.41
318.371	28.91
318.837	25.01
319.303	24.91
319.769	23.01
320.235	20.51
320.701	25.31
321.167	30.41
321.633	28.21
322.099	34.31
322.564	32.61
323.03	25.91
323.496	32.21
323.962	30.01
324.427	28.31
324.893	37.31
325.359	35.01
325.824	31.41
326.29	27.81
326.755	34.81
327.221	32.01
327.686	30.61
328.152	39.41
328.617	32.31
329.083	43.61
329.548	44.41
330.014	39.91
330.479	31.01
330.944	43.91
331.41	40.51
331.875	43.81
332.34	39.11
332.805	34.21
333.271	42.81
333.736	30.91
334.201	44.81
334.666	41.51
335.131	45.11
335.596	49.31
336.061	41.81
336.526	32.01
336.991	36.91
337.456	51.61
337.921	40.61
338.386	41.51
338.851	40.51
339.316	48.31
339.781	39.61
340.246	47.51
340.711	38.31
341.175	48.91
341.64	40.51
342.105	45.61
342.569	43.91
343.034	48.51
343.499	52.41
343.963	49.01
344.428	56.51
344.893	54.31
345.357	55.51
345.822	55.61
346.286	56.11
346.751	60.31
347.215	56.61
347.679	68.81
348.144	82.31
348.608	69.51
349.073	62.81
349.537	66.41
350.001	69.71
350.465	82.21
350.93	69.61
351.394	73.41
351.858	60.01
352.322	69.01
352.786	77.31
353.25	91.91
353.715	100.71
354.179	88.11
354.643	105.21
355.107	97.21
355.571	85.31
356.035	88.61
356.498	93.41
356.962	99.51
357.426	116.91
357.89	95.31
358.354	80.51
358.818	78.41
359.281	72.11
359.745	63.71
360.209	72.11
360.673	68.11
361.136	74.31
361.6	78.81
362.064	73.71
362.527	80.21
362.991	87.71
363.454	73.11
363.918	69.21
364.381	72.51
364.845	72.31
365.308	78.51
365.772	83.31
366.235	79.31
366.698	78.01
367.162	74.91
367.625	78.61
368.088	75.81
368.552	78.01
369.015	78.61
369.478	86.61
369.941	89.31
370.404	88.11
370.867	91.81
371.331	92.41
371.794	98.21
372.257	93.21
372.72	101.01
373.183	90.91
373.646	88.51
374.109	94.01
374.572	99.91
375.035	96.31
375.497	101.01
375.96	100.31
376.423	100.31
376.886	104.11
377.349	100.71
377.811	97.91
378.274	93.21
378.737	95.21
379.199	96.11
379.662	101.81
380.125	104.71
380.587	101.61
381.05	100.91
381.512	115.21
381.975	120.61
382.437	114.81
382.9	106.21
383.362	112.51
383.825	125.81
384.287	128.21
384.75	117.21
385.212	119.41
385.674	127.61
386.136	128.01
386.599	112.41
387.061	116.71
387.523	110.21
387.985	122.21
388.447	126.41
388.91	122.11
389.372	127.01
389.834	125.01
390.296	125.81
390.758	126.51
391.22	142.61
391.682	157.81
392.144	183.01
392.606	157.51
393.068	136.21
393.529	149.91
393.991	141.01
394.453	129.71
394.915	128.51
395.377	134.11
395.838	153.71
396.3	134.91
396.762	135.81
397.224	128.81
397.685	131.41
398.147	126.81
398.608	132.41
399.07	128.91
399.531	129.41
399.993	138.81
400.454	148.81
400.916	141.01
401.377	148.81
401.839	145.41
402.3	142.91
402.762	167.41
403.223	173.71
403.684	169.61
404.145	155.31
404.607	156.31
405.068	154.81
405.529	163.21
405.99	179.51
406.451	172.31
406.913	174.71
407.374	153.01
407.835	155.41
408.296	162.81
408.757	164.71
409.218	182.91
409.679	171.01
410.14	166.21
410.601	174.21
411.062	173.51
411.522	174.51
411.983	178.01
412.444	176.71
412.905	177.71
413.366	181.31
413.826	190.11
414.287	221.61
414.748	262.71
415.208	249.91
415.669	212.01
416.13	205.61
416.59	201.61
417.051	214.21
417.511	223.91
417.972	240.01
418.432	256.01
418.893	291.31
419.353	251.11
419.814	200.11
420.274	187.01
420.734	182.31
421.195	201.61
421.655	195.31
422.115	194.21
422.576	189.71
423.036	197.21
423.496	207.41
423.956	219.01
424.416	232.51
424.876	261.11
425.336	267.21
425.797	269.41
426.257	248.41
426.717	244.41
427.177	229.01
427.637	229.71
428.097	230.81
428.556	238.01
429.016	267.51
429.476	259.41
429.936	268.11
430.396	274.91
430.856	287.81
431.315	304.51
431.775	339.51
432.235	369.41
432.694	341.71
433.154	357.01
433.614	385.21
434.073	339.41
434.533	280.81
434.993	265.01
435.452	272.61
435.912	287.91
436.371	283.81
436.83	276.11
437.29	263.91
437.749	246.91
438.209	248.41
438.668	270.21
439.127	286.21
439.587	268.91
440.046	252.61
440.505	259.31
440.964	273.31
441.424	317.91
441.883	301.01
442.342	256.41
442.801	229.11
443.26	226.11
443.719	229.01
444.178	220.61
444.637	219.11
445.096	228.91
445.555	226.21
446.014	225.01
446.473	230.61
446.932	237.91
447.391	234.81
447.849	234.51
448.308	221.81
448.767	220.31
449.226	243.21
449.685	231.51
450.143	253.71
450.602	244.21
451.061	238.91
451.519	246.51
451.978	235.11
452.436	243.11
452.895	234.91
453.353	253.91
453.812	242.91
454.27	244.81
454.729	244.71
455.187	248.61
455.646	252.11
456.104	254.01
456.562	267.21
457.021	266.01
457.479	261.11
457.937	283.31
458.395	275.71
458.854	257.01
459.312	269.71
459.77	279.71
460.228	260.51
460.686	252.71
461.144	254.41
461.602	253.41
462.06	252.71
462.518	259.61
462.976	262.81
463.434	267.11
463.892	267.01
464.35	276.51
464.808	294.71
465.266	268.91
465.724	278.51
466.181	277.01
466.639	275.11
467.097	294.71
467.555	303.11
468.012	307.11
468.47	314.51
468.928	331.61
469.385	346.11
469.843	346.81
470.3	358.71
470.758	366.31
471.215	392.01
471.673	407.41
472.13	411.61
472.588	426.01
473.045	379.71
473.503	386.81
473.96	405.21
474.417	411.81
474.875	437.11
475.332	475.01
475.789	468.71
476.246	469.41
476.704	486.41
477.161	511.21
477.618	528.51
478.075	561.91
478.532	612.61
478.989	695.81
479.446	798.71
479.903	757.51
480.36	784.41
480.817	850.11
481.274	930.41
481.731	1016.11
482.188	1103.71
482.645	1224.91
483.102	1312.41
483.558	1432.11
484.015	1469.21
484.472	1445.31
484.929	1395.81
485.385	1354.61
485.842	1332.51
486.299	1282.81
486.755	1242.31
487.212	1057.81
487.668	901.41
488.125	829.81
488.582	765.11
489.038	743.11
489.494	701.91
489.951	678.51
490.407	659.81
490.864	641.71
491.32	641.51
491.776	651.31
492.233	646.41
492.689	613.21
493.145	607.21
493.602	604.61
494.058	607.51
494.514	619.71
494.97	639.81
495.426	653.21
495.882	616.41
496.338	611.31
496.794	623.51
497.251	619.31
497.707	636.41
498.163	630.61
498.618	644.31
499.074	647.61
499.53	670.11
499.986	672.61
500.442	653.81
500.898	633.91
501.354	622.11
501.809	621.41
502.265	629.41
502.721	657.91
503.177	662.51
503.632	656.41
504.088	664.71
504.543	682.41
504.999	704.01
505.455	663.01
505.91	634.51
506.366	637.61
506.821	637.41
507.277	641.11
507.732	637.61
508.187	636.71
508.643	644.61
509.098	653.31
509.553	669.91
510.009	665.21
510.464	677.11
510.919	703.81
511.375	706.61
511.83	719.71
512.285	731.01
512.74	759.01
513.195	792.51
513.65	781.51
514.105	768.41
514.56	768.31
515.015	796.21
515.47	801.11
515.925	798.91
516.38	794.11
516.835	801.61
517.29	788.61
517.745	790.61
518.2	769.71
518.655	755.91
519.109	756.71
519.564	743.11
520.019	737.71
520.474	739.21
520.928	734.51
521.383	720.81
521.838	722.01
522.292	715.11
522.747	718.41
523.201	719.11
523.656	711.21
524.11	705.61
524.565	705.81
525.019	702.91
525.474	710.21
525.928	708.31
526.382	703.11
526.837	703.31
527.291	708.91
527.745	701.31
528.2	713.51
528.654	704.91
529.108	700.21
529.562	708.21
530.016	699.01
530.47	704.61
530.925	699.01
531.379	695.51
531.833	711.51
532.287	708.61
532.741	702.31
533.195	711.01
533.649	724.31
534.103	722.51
534.556	716.91
535.01	716.71
535.464	716.51
535.918	722.51
536.372	729.41
536.826	716.11
537.279	714.21
537.733	727.81
538.187	726.21
538.64	720.81
539.094	727.81
539.548	746.51
540.001	737.71
540.455	735.91
540.908	745.21
541.362	750.41
541.815	755.71
542.269	764.61
542.722	768.71
543.175	777.61
543.629	787.61
544.082	804.31
544.536	803.71
544.989	808.21
545.442	809.41
545.895	813.61
546.349	810.01
546.802	809.21
547.255	820.31
547.708	822.51
548.161	835.81
548.614	840.11
549.067	843.01
549.52	836.91
549.973	830.31
550.426	835.61
550.879	823.01
551.332	819.11
551.785	820.21
552.238	820.71
552.691	848.21
553.144	843.01
553.596	862.91
554.049	878.31
554.502	909.21
554.955	926.41
555.407	914.91
555.86	909.61
556.313	906.11
556.765	895.51
557.218	892.71
557.67	892.41
558.123	892.51
558.576	890.81
559.028	890.41
559.48	905.31
559.933	886.81
560.385	862.51
560.838	830.91
561.29	806.61
561.742	796.61
562.195	785.41
562.647	789.91
563.099	793.31
563.551	792.91
564.004	795.51
564.456	793.31
564.908	792.21
565.36	760.31
565.812	747.71
566.264	735.31
566.716	735.41
567.168	732.11
567.62	721.21
568.072	712.81
568.524	716.41
568.976	700.81
569.428	691.61
569.88	691.41
570.332	703.41
570.784	711.11
571.235	707.41
571.687	719.31
572.139	717.21
572.59	723.91
573.042	729.71
573.494	719.71
573.945	721.81
574.397	696.71
574.849	703.91
575.3	704.31
575.752	695.71
576.203	696.51
576.655	713.61
577.106	687.21
577.557	671.41
578.009	694.61
578.46	686.41
578.912	684.11
579.363	681.11
579.814	693.11
580.265	683.21
580.717	679.51
581.168	687.31
581.619	692.01
582.07	697.01
582.521	699.61
582.972	689.31
583.423	703.61
583.875	699.71
584.326	704.11
584.777	728.11
585.227	761.91
585.678	789.21
586.129	828.51
586.58	859.41
587.031	898.31
587.482	956.61
587.933	1018.11
588.384	963.81
588.834	850.01
589.285	797.81
589.736	789.01
590.186	791.61
590.637	789.01
591.088	767.71
591.538	752.31
591.989	753.61
592.439	743.01
592.89	734.01
593.34	723.71
593.791	731.11
594.241	716.61
594.692	725.61
595.142	706.21
595.593	709.91
596.043	728.41
596.493	728.61
596.943	731.81
597.394	739.11
597.844	738.11
598.294	748.31
598.744	781.41
599.195	789.21
599.645	840.11
600.095	879.21
600.545	948.91
600.995	991.91
601.445	1048.31
601.895	1104.81
602.345	1154.71
602.795	1138.81
603.245	1093.71
603.695	1032.11
604.145	988.21
604.594	939.91
605.044	884.81
605.494	822.71
605.944	773.61
606.393	757.21
606.843	747.01
607.293	749.11
607.743	746.41
608.192	765.11
608.642	773.41
609.091	773.21
609.541	777.11
609.99	781.51
610.44	785.01
610.889	734.71
611.339	714.11
611.788	702.41
612.238	715.41
612.687	731.61
613.136	717.71
613.586	728.61
614.035	726.41
614.484	735.11
614.933	740.41
615.383	740.51
615.832	722.81
616.281	721.81
616.73	701.21
617.179	678.21
617.628	665.41
618.077	638.31
618.526	635.31
618.975	634.21
619.424	633.21
619.873	633.81
620.322	626.21
620.771	617.61
621.22	625.31
621.669	611.31
622.118	607.61
622.567	593.11
623.015	582.81
623.464	587.41
623.913	572.11
624.361	568.71
624.81	561.31
625.259	567.41
625.707	567.81
626.156	575.51
626.604	586.71
627.053	572.11
627.501	574.01
627.95	588.21
628.398	610.01
628.847	589.11
629.295	584.01
629.744	588.91
630.192	579.91
630.64	585.31
631.089	563.01
631.537	557.11
631.985	558.31
632.433	562.21
632.881	550.11
633.33	577.41
633.778	573.41
634.226	554.61
634.674	554.91
635.122	556.71
635.57	575.41
636.018	589.61
636.466	594.41
636.914	569.61
637.362	589.01
637.81	582.21
638.258	591.81
638.705	604.21
639.153	624.01
639.601	632.51
640.049	666.11
640.497	689.71
640.944	712.81
641.392	672.31
641.84	631.41
642.287	601.91
642.735	587.81
643.182	583.81
643.63	579.71
644.078	572.01
644.525	598.91
644.973	597.81
645.42	622.01
645.867	636.11
646.315	646.91
646.762	672.71
647.21	701.61
647.657	725.41
648.104	757.71
648.551	769.31
648.999	840.91
649.446	921.81
649.893	1001.41
650.34	1153.11
650.787	1360.51
651.234	1689.61
651.682	2196.61
652.129	2966.01
652.576	4243.41
653.023	6212.61
653.47	8344.51
653.917	10293.31
654.363	11808.61
654.81	12936.71
655.257	12268.51
655.704	8163.71
656.151	4890.41
656.598	3217.01
657.044	2293.91
657.491	1796.01
657.938	1450.51
658.385	1215.61
658.831	1061.81
659.278	949.71
659.724	842.71
660.171	771.31
660.618	725.61
661.064	697.11
661.511	674.81
661.957	663.21
662.404	647.01
662.85	658.31
663.296	644.21
663.743	576.11
664.189	547.31
664.635	544.61
665.082	535.41
665.528	543.11
665.974	533.61
666.42	518.71
666.867	512.21
667.313	493.21
667.759	485.61
668.205	473.21
668.651	484.01
669.097	466.71
669.543	467.21
669.989	457.41
670.435	457.61
670.881	460.31
671.327	463.31
671.773	484.01
672.219	504.01
672.665	572.21
673.11	607.91
673.556	660.61
674.002	699.31
674.448	681.71
674.893	574.01
675.339	489.01
675.785	464.81
676.23	426.61
676.676	410.91
677.122	400.21
677.567	386.51
678.013	379.31
678.458	376.81
678.904	371.71
679.349	365.81
679.794	364.61
680.24	365.31
680.685	359.71
681.131	362.71
681.576	363.51
682.021	366.61
682.466	353.41
682.912	362.91
683.357	370.11
683.802	394.21
684.247	430.61
684.692	477.61
685.137	514.81
685.583	556.01
686.028	588.11
686.473	541.81
686.918	462.61
687.363	420.31
687.807	407.81
688.252	383.91
688.697	371.21
689.142	342.71
689.587	343.21
690.032	336.31
690.477	359.61
690.921	370.51
691.366	396.51
691.811	418.01
692.255	443.91
692.7	474.91
693.145	534.31
693.589	755.61
694.034	1222.01
694.478	1631.41
694.923	1797.61
695.367	2325.61
695.812	1248.41
696.256	518.01
696.701	381.51
697.145	360.81
697.59	348.71
698.034	324.71
698.478	339.21
698.922	337.31
699.367	335.71
699.811	352.11
700.255	368.61
700.699	404.41
701.143	447.31
701.588	505.51
702.032	546.11
702.476	523.41
702.92	516.91
703.364	519.21
703.808	687.91
704.252	1120.91
704.696	1533.31
705.14	1741.51
705.584	2204.71
706.027	1110.81
706.471	550.81
706.915	417.51
707.359	362.51
707.803	343.31
708.246	327.21
708.69	332.01
709.134	331.61
709.577	327.71
710.021	329.41
710.465	322.11
710.908	317.81
711.352	311.91
711.795	330.81
712.239	374.01
712.682	407.91
713.126	430.11
713.569	475.51
714.012	366.81
714.456	317.01
714.899	302.11
715.342	281.21
715.786	272.51
716.229	268.91
716.672	268.81
717.115	261.71
717.558	261.01
718.002	255.11
718.445	278.81
718.888	292.21
719.331	302.81
719.774	318.71
720.217	313.01
720.66	298.51
721.103	279.41
721.546	272.91
721.989	256.31
722.432	242.41
722.874	249.51
723.317	241.11
723.76	247.81
724.203	264.91
724.645	338.91
725.088	478.41
725.531	602.31
725.974	674.61
726.416	572.61
726.859	321.71
727.301	267.31
727.744	245.31
728.187	238.61
728.629	250.11
729.071	259.51
729.514	269.31
729.956	281.51
730.399	295.41
730.841	299.81
731.283	289.81
731.726	286.11
732.168	281.11
732.61	280.51
733.053	297.21
733.495	333.51
733.937	370.91
734.379	428.61
734.821	458.11
735.263	581.31
735.705	905.91
736.148	1705.11
736.59	2752.21
737.032	3137.81
737.474	2583.11
737.916	860.31
738.357	448.51
738.799	349.11
739.241	313.71
739.683	292.51
740.125	306.71
740.567	307.11
741.008	323.81
741.45	326.81
741.892	334.51
742.334	369.81
742.775	377.21
743.217	352.81
743.658	283.61
744.1	267.51
744.542	290.41
744.983	329.91
745.425	357.81
745.866	358.61
746.307	301.51
746.749	295.01
747.19	346.61
747.632	493.31
748.073	974.71
748.514	2016.51
748.956	2993.21
749.397	3776.51
749.838	3138.91
750.279	3066.81
750.72	1577.01
751.162	580.21
751.603	332.71
752.044	264.01
752.485	236.31
752.926	221.71
753.367	217.51
753.808	202.31
754.249	202.61
754.69	193.11
755.131	183.81
755.572	189.91
756.013	193.61
756.453	196.91
756.894	195.51
757.335	204.91
757.776	206.61
758.216	201.81
758.657	209.41
759.098	211.01
759.538	232.61
759.979	292.41
760.42	406.21
760.86	782.91
761.301	2028.31
761.741	4758.21
762.182	6619.91
762.622	4664.31
763.063	1384.21
763.503	578.81
763.943	349.31
764.384	308.01
764.824	300.01
765.264	305.21
765.705	245.51
766.145	193.11
766.585	192.81
767.025	182.41
767.465	187.51
767.906	206.31
768.346	241.31
768.786	248.91
769.226	244.21
769.666	331.41
770.106	684.71
770.546	1690.31
770.986	2743.01
771.426	2446.81
771.866	839.91
772.306	343.11
772.745	216.61
773.185	181.61
773.625	172.61
774.065	160.11
774.505	177.61
774.944	247.31
775.384	451.81
775.824	729.31
776.263	697.61
776.703	333.71
777.142	180.41
777.582	144.41
778.021	131.11
778.461	133.51
778.9	136.01
779.34	132.61
779.779	121.01
780.219	116.51
780.658	112.41
781.097	119.51
781.537	115.21
781.976	120.81
782.415	104.01
782.855	109.11
783.294	113.61
783.733	110.11
784.172	110.81
784.611	109.51
785.05	112.11
785.489	116.31
785.928	121.71
786.367	121.01
786.806	125.11
787.245	137.61
787.684	140.91
788.123	156.81
788.562	145.21
789.001	134.31
789.44	127.41
789.879	128.01
790.317	124.61
790.756	137.31
791.195	140.71
791.634	159.31
792.072	212.51
792.511	397.71
792.95	1098.31
793.388	2220.61
793.827	1966.01
794.265	714.01
794.704	293.71
795.142	192.41
795.581	158.81
796.019	143.31
796.458	129.71
796.896	130.01
797.334	142.01
797.773	169.11
798.211	236.11
798.649	485.31
799.087	1096.81
799.526	1698.91
799.964	2132.51
800.402	2048.71
800.84	790.51
801.278	313.41
801.716	200.81
802.154	168.61
802.592	157.61
803.03	144.31
803.468	141.91
803.906	154.01
804.344	154.71
804.782	160.21
805.22	139.91
805.658	131.01
806.096	157.31
806.533	166.01
806.971	183.61
807.409	232.91
807.847	339.61
808.284	738.21
808.722	2016.81
809.16	3435.71
809.597	3398.21
810.035	5768.31
810.472	5888.91
810.91	2173.21
811.347	847.31
811.785	430.91
812.222	268.91
812.66	206.81
813.097	175.41
813.535	150.91
813.972	135.41
814.409	127.51
814.846	115.51
815.284	118.01
815.721	108.21
816.158	113.41
816.595	119.01
817.032	164.61
817.47	192.71
817.907	134.61
818.344	114.51
818.781	108.71
819.218	104.11
819.655	128.51
820.092	193.51
820.529	227.01
820.966	177.11
821.403	131.81
821.839	103.11
822.276	100.61
822.713	126.21
823.15	144.61
823.587	122.31
824.023	160.91
824.46	337.31
824.897	970.61
825.333	1414.81
825.77	601.71
826.206	243.51
826.643	138.81
827.08	102.31
827.516	89.61
827.953	85.41
828.389	84.41
828.825	76.91
829.262	76.71
829.698	62.71
830.135	68.21
830.571	64.21
831.007	65.41
831.443	64.71
831.88	69.01
832.316	64.81
832.752	67.71
833.188	65.11
833.624	68.61
834.06	71.41
834.497	73.01
834.933	77.61
835.369	79.31
835.805	75.51
836.241	80.91
836.677	87.11
837.112	97.81
837.548	119.71
837.984	144.81
838.42	216.91
838.856	554.91
839.292	1621.61
839.727	2372.11
840.163	1125.71
840.599	1014.81
841.034	2143.51
841.47	2165.11
841.906	808.11
842.341	343.21
842.777	224.81
843.212	230.71
843.648	212.91
844.083	122.41
844.519	93.21
844.954	70.31
845.39	58.71
845.825	56.51
846.261	60.31
846.696	58.21
847.131	57.11
847.566	61.31
848.002	57.51
848.437	53.31
848.872	64.81
849.307	62.41
849.742	93.41
850.177	195.81
850.613	597.81
851.048	910.41
851.483	399.71
851.918	168.91
852.353	90.91
852.788	57.71
853.223	53.71
853.657	58.71
854.092	49.11
854.527	46.91
854.962	43.51
855.397	50.11
855.832	53.01
856.266	39.21
856.701	43.51
857.136	44.01
857.57	39.11
858.005	47.41
858.44	68.71
858.874	48.31
859.309	51.81
859.743	43.91
860.178	51.81
860.612	47.51
861.047	59.41
861.481	74.41
861.915	77.31
862.35	59.51
862.784	39.61
863.218	35.81
863.653	34.21
864.087	54.31
864.521	62.01
864.955	73.41
865.39	167.61
865.824	182.71
866.258	120.11
866.692	178.21
867.126	186.51
867.56	117.11
867.994	59.61
868.428	41.31
868.862	47.71
869.296	64.81
869.73	63.71
870.164	58.01
870.598	51.21
871.031	39.01
871.465	36.41
871.899	35.91
872.333	25.81
872.766	32.01
873.2	25.11
873.634	32.61
874.067	33.51
874.501	28.41
874.935	36.51
875.368	31.31
875.802	29.61
876.235	27.41
876.669	28.81
877.102	30.61
877.535	30.71
877.969	27.71
878.402	26.71
878.836	16.61
879.269	22.21
879.702	28.01
880.135	24.41
880.569	21.51
881.002	28.11
881.435	23.01
881.868	22.21
882.301	26.21
882.734	12.91
883.167	18.21
883.601	17.01
884.034	25.51
884.467	15.41
884.899	26.21
885.332	18.91
885.765	16.31
886.198	18.71
886.631	20.91
887.064	23.51
887.497	20.61
887.929	27.11
888.362	15.01
888.795	11.01
889.228	19.11
889.66	22.81
890.093	18.81
890.526	16.21
890.958	12.51
891.391	19.71
891.823	23.21
892.256	13.31
892.688	16.01
893.121	19.51
893.553	14.21
893.985	23.41
894.418	19.71
894.85	13.01
895.282	15.61
895.715	19.01
896.147	22.11
896.579	21.91
897.011	18.81
897.444	12.71
897.876	7.11
898.308	14.81
898.74	7.91
899.172	15.41
899.604	22.91
900.036	20.31
900.468	15.41
900.9	15.61
901.332	27.91
901.764	16.51
902.196	15.61
902.628	14.51
903.06	21.51
903.491	34.21
903.923	25.81
904.355	24.21
904.787	21.41
905.218	27.91
905.65	17.61
906.082	15.81
906.513	10.51
906.945	17.41
907.376	14.11
907.808	15.81
908.239	26.11
908.671	19.41
909.102	20.61
909.534	27.61
909.965	47.51
910.397	97.41
910.828	331.61
911.259	498.41
911.691	227.61
912.122	112.01
912.553	52.31
912.984	38.21
913.415	29.91
913.847	23.31
914.278	16.01
914.709	19.61
915.14	19.71
915.571	18.51
916.002	16.81
916.433	17.41
916.864	21.41
917.295	17.51
917.726	25.71
918.157	13.51
918.587	29.91
919.018	21.01
919.449	19.11
919.88	30.11
920.311	31.21
920.741	57.61
921.172	170.01
921.603	155.21
922.033	74.51
922.464	51.81
922.895	23.81
923.325	21.71
923.756	16.91
924.186	19.21
924.617	25.31
925.047	24.81
925.478	34.01
925.908	25.61
926.338	15.71
926.769	10.21
927.199	18.51
927.629	8.21
928.06	14.81
928.49	12.61
928.92	17.71
929.35	13.11
929.78	16.01
930.21	9.71
930.641	6.71
931.071	4.51
931.501	4.01
931.931	8.91
932.361	10.61
932.791	0.81
933.221	5.31
933.651	6.21
934.08	15.31
934.51	28.41
934.94	16.11
935.37	9.01
935.8	6.81
936.229	7.21
936.659	2.21
937.089	1.01
937.519	22.21
937.948	30.51
938.378	16.51
938.807	10.11
939.237	9.31
939.666	10.61
940.096	-4.49
940.525	1.21
940.955	3.61
941.384	4.71
941.814	1.01
942.243	0.71
942.672	2.21
943.102	-1.19
943.531	-3.69
943.96	-0.09
944.39	1.21
944.819	5.31
945.248	5.81
945.677	1.21
946.106	10.11
946.535	10.31
946.964	-5.49
947.393	4.31
947.822	6.91
948.251	-2.49
948.68	5.71
949.109	11.21
949.538	6.01
949.967	-1.89
950.396	0.21
950.825	-3.29
951.254	2.11
951.682	-6.09
952.111	1.51
952.54	7.11
952.969	2.11
953.397	-5.39
953.826	-0.69
954.254	-5.39
954.683	3.81
955.112	-4.49
955.54	0.81
955.969	4.51
956.397	5.11
956.826	-7.79
957.254	8.61
957.682	5.81
958.111	2.71
958.539	-1.09
958.967	3.61
959.396	-2.99
959.824	3.91
960.252	1.71
960.68	-3.19
961.109	-2.89
961.537	-0.69
961.965	2.41
962.393	3.91
962.821	-5.69
963.249	-0.99
963.677	4.51
964.105	9.21
964.533	49.71
964.961	46.41
965.389	25.81
965.817	9.01
966.245	-1.29
966.672	3.01
967.1	-9.79
967.528	3.11
967.956	-1.59
968.383	0.31
968.811	0.71
969.239	-0.69
969.666	-3.29
970.094	1.81
970.522	3.01
970.949	-0.79
971.377	-3.09
971.804	-0.59
972.232	-6.99
972.659	-2.99
973.087	-1.49
973.514	-6.09
973.941	-5.19
974.369	0.61
974.796	3.71
975.223	1.71
975.651	-6.99
976.078	5.41
976.505	2.61
976.932	5.11
977.359	13.61
977.786	19.21
978.214	0.21
978.641	2.21
979.068	-1.89
979.495	0.91
979.922	0.71
980.349	-1.29
980.776	3.41
981.202	3.61
981.629	4.41
982.056	7.51
982.483	-0.39
982.91	4.41
983.337	-2.29
983.763	4.61
984.19	-1.39
984.617	-1.99
985.043	-1.79
985.47	-3.09
985.897	1.71
986.323	-9.79
986.75	7.31
987.176	-4.39
987.603	0.91
988.029	2.41
988.456	-1.89
988.882	5.41
989.308	-7.79
989.735	-3.99
990.161	3.41
990.587	-7.39
991.014	-0.09
991.44	9.71
991.866	-1.69
992.292	-8.19
992.719	-3.89
993.145	3.81
993.571	-4.59
993.997	-1.09
994.423	0.71
994.849	-3.99
995.275	2.91
995.701	2.41
996.127	-0.19
996.553	1.31
996.979	-3.59
997.405	-5.29
997.83	-5.99
998.256	-7.19
998.682	-11.29
999.108	-8.39
999.534	0.51
999.959	-4.59
1000.385	-1.99
1000.811	0.21
1001.236	-8.49
1001.662	-3.39
1002.087	-10.59
1002.513	6.71
1002.938	4.31
1003.364	-1.39
1003.789	0.41
1004.215	3.41
1004.64	0.31
1005.066	5.71
1005.491	0.81
1005.916	-7.59
1006.342	-3.79
1006.767	-6.69
1007.192	5.41
1007.617	-5.79
1008.042	-5.99
1008.468	-3.19
1008.893	-0.79
1009.318	0.21
1009.743	1.61
1010.168	6.01
1010.593	1.91
1011.018	-4.39
1011.443	1.91
1011.868	-1.79
1012.293	-1.99
1012.718	-2.59
1013.143	4.81
1013.567	2.21
1013.992	-4.29
1014.417	-20.29
1014.842	-1.89
1015.267	-3.09
1015.691	-0.99
1016.116	3.41
1016.541	-3.29
1016.965	1.61
1017.39	0.91
1017.814	2.71
1018.239	-2.79
1018.663	-8.99
1019.088	-8.49
1019.512	-5.39
1019.937	-1.79
1020.361	-2.89
1020.785	-7.09
1021.21	-0.49
1021.634	3.81
1022.058	1.01
1022.483	2.31
1022.907	-8.29
1023.331	-5.79
1023.755	-2.79
1024.179	0.41
1024.604	-3.19
1025.028	-6.59
1025.452	1.51
1025.876	0.01
1026.3	2.41
1026.724	-7.49
1027.148	-1.99
1027.572	-6.69
1027.996	-6.59
1028.42	-4.99
1028.843	-6.69
1029.267	0.01
1029.691	-7.49
1030.115	-3.99
1030.539	-6.99
1030.962	-5.09
1031.386	-8.99
1031.81	-0.39
1032.233	-2.09
1032.657	4.01
1033.08	1.31
1033.504	-6.39
1033.927	-8.99
1034.351	0.61
1034.774	-9.99
1035.198	0.91
1035.621	-4.59
1036.045	-7.09
1036.468	2.51
1036.891	-8.39
1037.315	-11.29
1037.738	-2.39
1038.161	-1.79
1038.584	-3.39
1039.008	-2.59
1039.431	-0.99
1039.854	-3.39
1040.277	-12.49
1040.7	-6.29
1041.123	-0.89
1041.546	-7.39
1041.969	-9.29
1042.392	-4.89
1042.815	0.91
1043.238	-3.19
1043.661	1.71
1044.084	-9.39
1044.507	-5.89
1044.93	-8.99
1045.352	-1.69
1045.775	-1.99
1046.198	-0.99
1046.621	-2.49
1047.043	1.91
1047.466	3.21
1047.889	-3.89
1048.311	-9.69
1048.734	-5.49
1049.156	-4.49
1049.579	-4.59
1050.001	-2.69
1050.424	1.71
1050.846	2.01
1051.269	-7.09
1051.691	-4.09
1052.113	-5.59
1052.536	1.81
1052.958	-5.49
1053.38	-7.39
1053.802	-11.39
1054.225	1.51
1054.647	-8.39
1055.069	-9.39
1055.491	-1.19
1055.913	-3.89
1056.335	-2.09
1056.757	-4.39
1057.179	-11.99
1057.601	-6.69
1058.023	-4.39
1058.445	-0.59
1058.867	-2.69
1059.289	-6.09
1059.711	-9.19
1060.133	0.41
1060.555	-3.09
1060.976	-6.89
1061.398	-5.09
1061.82	-5.69
1062.241	-2.39
1062.663	-4.89
1063.085	-2.09
1063.506	-0.29
1063.928	-6.09
1064.35	-2.89
1064.771	-13.39
1065.193	-4.99
1065.614	-7.69
1066.035	-0.69
1066.457	-8.49
1066.878	1.71
1067.3	-5.39
1067.721	-3.59
1068.142	-4.49
1068.564	-6.99
1068.985	-4.69
1069.406	-4.59
1069.827	-6.99
1070.248	-3.59
1070.67	-4.69
1071.091	-3.49
1071.512	-3.09
1071.933	-4.79
1072.354	-4.99
1072.775	4.61
1073.196	-9.29
1073.617	1.61
1074.038	-5.49
1074.459	5.11
1074.88	-2.69
1075.3	-1.99
1075.721	-5.49
1076.142	-1.19
1076.563	-2.19
1076.983	-13.69
1077.404	-1.59
1077.825	-8.39
1078.246	-7.59
1078.666	-8.29
1079.087	-7.39
1079.507	0.31
1079.928	7.31
1080.348	1.71
1080.769	-3.09
1081.189	-1.29
1081.61	-5.49
1082.03	-9.69
1082.451	-10.49
1082.871	-1.49
1083.291	-5.99
1083.711	-4.89
1084.132	-1.29
1084.552	-8.29
1084.972	-0.29
1085.392	-11.49
1085.813	-12.89
1086.233	-6.59
1086.653	0.51
1087.073	3.91
1087.493	-5.69
1087.913	-3.69
1088.333	-3.89
1088.753	-4.59
1089.173	3.11
1089.593	-5.89
1090.013	0.61
1090.433	-3.09
1090.852	-6.09
1091.272	-1.09
1091.692	-4.89
1092.112	-5.19
1092.531	-5.79
1092.951	-12.59
1093.371	0.21
1093.79	0.11
1094.21	-1.39
1094.63	0.11
1095.049	0.01
1095.469	2.21
1095.888	-1.19
1096.308	7.31
1096.727	5.31
1097.146	-2.39
1097.566	0.01
1097.985	-5.79
1098.405	-3.79
1098.824	-2.89
1099.243	-6.49
1099.662	-6.89
1100.082	0.01
1100.501	-0.29
1100.92	-2.69
1101.339	-0.99
1101.758	-3.89
