Data from 20171114-ORNL-Ar_H_NY_Subt18_08-05-24-228.txt Node
Date: Tue Nov 14 08:05:24 EST 2017
User: Ender
Spectrometer: HR+D1039
Trigger mode: 0
Integration Time (sec): 2.730000E-2
Scans to average: 10
Electric dark correction enabled: true
Nonlinearity correction enabled: false
Boxcar width: 0
XAxis mode: Wavelengths
Number of Pixels in Spectrum: 2048
>>>>>Begin Spectral Data<<<<<
187.836	-2.69
188.309	-2.69
188.782	-2.69
189.255	0.71
189.728	-0.89
190.201	7.81
190.674	-2.99
191.147	8.11
191.619	-11.69
192.092	3.91
192.565	5.81
193.038	3.31
193.511	-0.09
193.984	-1.29
194.456	-3.79
194.929	-0.09
195.402	-3.09
195.874	-3.09
196.347	-0.09
196.82	-3.69
197.292	8.71
197.765	-2.59
198.237	-6.09
198.71	-0.49
199.182	-0.09
199.655	0.91
200.127	0.01
200.6	1.61
201.072	-3.29
201.544	-2.19
202.017	-3.59
202.489	-1.29
202.961	-6.79
203.433	-9.79
203.906	-8.99
204.378	-4.89
204.85	-3.49
205.322	-8.89
205.794	-4.09
206.266	-4.09
206.739	-10.59
207.211	-1.39
207.683	-9.79
208.155	-5.39
208.627	-8.99
209.099	-3.89
209.57	-13.89
210.042	-3.79
210.514	-0.99
210.986	3.81
211.458	-8.79
211.93	-2.19
212.402	0.01
212.873	-6.09
213.345	-8.99
213.817	-10.09
214.288	-3.89
214.76	-11.89
215.232	-5.49
215.703	-4.29
216.175	-4.99
216.646	-4.39
217.118	-10.89
217.589	-2.09
218.061	-0.19
218.532	-9.19
219.004	-7.39
219.475	-1.69
219.946	-6.79
220.418	-9.69
220.889	4.41
221.36	2.21
221.832	-8.29
222.303	-9.69
222.774	-2.49
223.245	-9.89
223.717	-5.89
224.188	-3.49
224.659	-7.49
225.13	-4.19
225.601	-2.59
226.072	1.21
226.543	3.61
227.014	0.01
227.485	-5.09
227.956	-6.19
228.427	-1.19
228.898	3.81
229.369	1.01
229.839	-2.59
230.31	-4.89
230.781	1.81
231.252	-7.39
231.722	-5.29
232.193	-0.39
232.664	0.51
233.135	7.51
233.605	2.21
234.076	-5.09
234.546	3.81
235.017	1.41
235.487	1.51
235.958	0.71
236.428	-5.69
236.899	0.81
237.369	-0.09
237.84	-2.09
238.31	8.71
238.78	-4.49
239.251	-3.39
239.721	0.81
240.191	0.81
240.662	-0.59
241.132	-0.29
241.602	7.71
242.072	-1.69
242.542	7.81
243.013	-2.39
243.483	5.11
243.953	3.91
244.423	-4.89
244.893	0.01
245.363	3.21
245.833	1.01
246.303	-6.99
246.773	7.71
247.243	7.41
247.712	4.21
248.182	11.01
248.652	7.91
249.122	0.91
249.592	9.61
250.061	26.81
250.531	34.81
251.001	22.91
251.471	29.21
251.94	22.31
252.41	10.31
252.879	2.31
253.349	14.31
253.818	7.11
254.288	6.61
254.757	4.31
255.227	7.11
255.696	-1.39
256.166	3.61
256.635	7.61
257.105	10.41
257.574	6.01
258.043	11.71
258.513	16.11
258.982	15.11
259.451	11.41
259.92	10.81
260.389	12.41
260.859	17.01
261.328	12.51
261.797	21.11
262.266	13.31
262.735	15.91
263.204	5.71
263.673	4.31
264.142	10.31
264.611	3.61
265.08	1.71
265.549	9.31
266.018	5.11
266.487	-0.59
266.955	-3.09
267.424	1.21
267.893	5.51
268.362	5.31
268.83	4.31
269.299	16.01
269.768	3.81
270.236	6.81
270.705	3.61
271.174	9.81
271.642	10.51
272.111	11.21
272.579	22.01
273.048	31.11
273.516	34.11
273.985	26.91
274.453	28.21
274.922	19.41
275.39	16.41
275.858	2.51
276.327	11.41
276.795	19.91
277.263	15.21
277.731	29.61
278.2	59.81
278.668	69.91
279.136	51.71
279.604	18.91
280.072	17.21
280.54	12.51
281.008	6.21
281.477	18.71
281.945	20.21
282.413	16.21
282.881	14.41
283.348	9.31
283.816	15.81
284.284	12.31
284.752	22.81
285.22	10.51
285.688	18.51
286.156	25.11
286.623	51.91
287.091	56.51
287.559	29.51
288.026	20.61
288.494	26.91
288.962	7.91
289.429	8.41
289.897	19.41
290.364	13.71
290.832	16.71
291.3	14.01
291.767	17.31
292.234	20.91
292.702	19.21
293.169	27.21
293.637	27.41
294.104	21.61
294.571	7.31
295.039	15.31
295.506	12.31
295.973	15.41
296.44	18.71
296.908	21.91
297.375	18.31
297.842	18.61
298.309	18.31
298.776	16.61
299.243	25.11
299.71	10.31
300.177	18.21
300.644	26.31
301.111	26.11
301.578	30.41
302.045	13.91
302.512	27.21
302.979	23.61
303.446	27.01
303.913	16.51
304.379	22.31
304.846	27.51
305.313	28.81
305.78	24.31
306.246	28.31
306.713	32.71
307.18	31.91
307.646	27.01
308.113	32.01
308.579	27.51
309.046	30.81
309.512	27.91
309.979	20.31
310.445	27.01
310.912	32.91
311.378	33.21
311.845	31.21
312.311	30.91
312.777	32.31
313.244	29.31
313.71	34.61
314.176	30.61
314.642	36.21
315.109	38.91
315.575	36.01
316.041	47.41
316.507	38.81
316.973	41.81
317.439	34.41
317.905	33.11
318.371	39.71
318.837	42.41
319.303	36.51
319.769	36.41
320.235	41.71
320.701	34.61
321.167	42.71
321.633	36.71
322.099	41.01
322.564	49.01
323.03	43.11
323.496	44.51
323.962	41.11
324.427	37.91
324.893	47.81
325.359	44.11
325.824	35.01
326.29	37.81
326.755	40.61
327.221	37.61
327.686	42.31
328.152	49.91
328.617	47.01
329.083	47.51
329.548	59.11
330.014	53.61
330.479	43.81
330.944	46.51
331.41	45.31
331.875	53.21
332.34	46.61
332.805	46.21
333.271	45.61
333.736	49.41
334.201	53.51
334.666	54.81
335.131	54.01
335.596	50.51
336.061	55.21
336.526	41.71
336.991	51.91
337.456	58.81
337.921	53.91
338.386	45.71
338.851	53.91
339.316	54.91
339.781	47.71
340.246	55.61
340.711	46.51
341.175	59.51
341.64	49.91
342.105	51.51
342.569	54.11
343.034	59.21
343.499	60.01
343.963	54.31
344.428	70.91
344.893	65.91
345.357	70.41
345.822	65.41
346.286	72.61
346.751	77.01
347.215	69.21
347.679	77.81
348.144	102.41
348.608	93.21
349.073	72.21
349.537	76.61
350.001	74.31
350.465	89.91
350.93	85.41
351.394	80.91
351.858	73.81
352.322	83.61
352.786	88.71
353.25	101.01
353.715	113.31
354.179	102.91
354.643	128.71
355.107	132.01
355.571	111.31
356.035	106.41
356.498	123.91
356.962	125.01
357.426	127.01
357.89	126.31
358.354	93.81
358.818	95.51
359.281	78.71
359.745	82.11
360.209	71.51
360.673	73.41
361.136	87.31
361.6	87.01
362.064	88.91
362.527	83.51
362.991	97.11
363.454	82.91
363.918	74.71
364.381	84.71
364.845	87.71
365.308	82.41
365.772	81.81
366.235	83.71
366.698	85.11
367.162	91.61
367.625	86.81
368.088	94.11
368.552	91.21
369.015	90.51
369.478	90.91
369.941	108.81
370.404	100.71
370.867	106.81
371.331	116.61
371.794	112.11
372.257	112.01
372.72	111.51
373.183	115.61
373.646	100.11
374.109	101.41
374.572	112.01
375.035	102.41
375.497	110.31
375.96	110.11
376.423	104.01
376.886	112.81
377.349	116.51
377.811	110.81
378.274	106.91
378.737	104.81
379.199	108.71
379.662	116.71
380.125	122.41
380.587	112.51
381.05	119.51
381.512	130.01
381.975	133.41
382.437	120.81
382.9	125.41
383.362	132.31
383.825	144.91
384.287	142.91
384.75	145.51
385.212	143.31
385.674	141.11
386.136	131.41
386.599	133.91
387.061	121.61
387.523	128.71
387.985	133.21
388.447	148.11
388.91	148.41
389.372	157.91
389.834	152.21
390.296	142.81
390.758	159.31
391.22	172.51
391.682	204.61
392.144	298.21
392.606	228.71
393.068	165.41
393.529	165.41
393.991	152.41
394.453	146.71
394.915	156.11
395.377	188.61
395.838	217.41
396.3	163.71
396.762	144.21
397.224	136.41
397.685	128.91
398.147	135.21
398.608	135.71
399.07	128.71
399.531	132.01
399.993	143.31
400.454	150.41
400.916	147.81
401.377	142.51
401.839	151.01
402.3	154.71
402.762	162.81
403.223	183.51
403.684	174.01
404.145	167.01
404.607	159.41
405.068	163.81
405.529	175.51
405.99	188.81
406.451	174.81
406.913	172.81
407.374	165.41
407.835	165.41
408.296	161.11
408.757	166.01
409.218	185.11
409.679	178.31
410.14	177.71
410.601	176.31
411.062	185.71
411.522	195.01
411.983	188.41
412.444	174.41
412.905	181.51
413.366	185.31
413.826	194.61
414.287	213.31
414.748	264.71
415.208	247.51
415.669	210.11
416.13	209.71
416.59	203.01
417.051	214.91
417.511	218.21
417.972	235.71
418.432	248.81
418.893	291.21
419.353	249.61
419.814	200.31
420.274	187.01
420.734	181.31
421.195	202.61
421.655	197.81
422.115	198.21
422.576	191.21
423.036	191.91
423.496	204.31
423.956	220.21
424.416	227.81
424.876	264.91
425.336	259.81
425.797	264.31
426.257	254.61
426.717	237.81
427.177	234.21
427.637	224.71
428.097	232.41
428.556	249.31
429.016	264.11
429.476	265.01
429.936	280.21
430.396	276.61
430.856	293.11
431.315	308.01
431.775	347.21
432.235	377.71
432.694	355.11
433.154	361.71
433.614	396.41
434.073	341.61
434.533	280.91
434.993	272.81
435.452	283.31
435.912	297.81
436.371	291.31
436.83	287.31
437.29	267.81
437.749	247.41
438.209	249.41
438.668	278.61
439.127	289.11
439.587	270.91
440.046	255.11
440.505	260.81
440.964	274.41
441.424	320.41
441.883	305.51
442.342	259.51
442.801	227.91
443.26	218.61
443.719	218.41
444.178	223.51
444.637	211.31
445.096	215.11
445.555	226.31
446.014	224.31
446.473	220.01
446.932	233.51
447.391	222.91
447.849	228.11
448.308	220.31
448.767	221.21
449.226	235.11
449.685	236.31
450.143	248.21
450.602	237.81
451.061	227.91
451.519	226.61
451.978	238.81
452.436	232.61
452.895	240.81
453.353	249.71
453.812	235.51
454.27	240.91
454.729	237.21
455.187	244.61
455.646	245.31
456.104	250.61
456.562	257.21
457.021	262.91
457.479	257.41
457.937	276.21
458.395	261.41
458.854	250.31
459.312	257.61
459.77	277.21
460.228	261.91
460.686	249.11
461.144	246.01
461.602	245.51
462.06	243.51
462.518	257.31
462.976	255.01
463.434	259.71
463.892	270.21
464.35	277.81
464.808	289.41
465.266	264.21
465.724	270.21
466.181	269.11
466.639	274.21
467.097	291.41
467.555	304.11
468.012	302.91
468.47	311.31
468.928	336.11
469.385	348.81
469.843	345.11
470.3	354.91
470.758	365.51
471.215	387.81
471.673	409.31
472.13	409.51
472.588	413.81
473.045	372.01
473.503	389.61
473.96	388.01
474.417	412.51
474.875	435.01
475.332	476.41
475.789	468.01
476.246	474.81
476.704	480.81
477.161	505.91
477.618	520.21
478.075	566.11
478.532	620.91
478.989	697.61
479.446	816.61
479.903	762.61
480.36	803.71
480.817	867.31
481.274	979.71
481.731	1080.21
482.188	1162.21
482.645	1312.31
483.102	1424.71
483.558	1550.71
484.015	1605.41
484.472	1580.51
484.929	1530.51
485.385	1485.51
485.842	1438.61
486.299	1369.01
486.755	1292.21
487.212	1100.31
487.668	936.61
488.125	853.41
488.582	776.71
489.038	764.71
489.494	711.61
489.951	689.21
490.407	675.21
490.864	657.81
491.32	638.91
491.776	637.01
492.233	657.91
492.689	616.41
493.145	602.81
493.602	603.51
494.058	623.91
494.514	625.51
494.97	656.81
495.426	650.01
495.882	633.71
496.338	621.11
496.794	631.11
497.251	625.81
497.707	644.91
498.163	635.91
498.618	657.11
499.074	652.11
499.53	685.41
499.986	687.81
500.442	660.11
500.898	631.11
501.354	627.11
501.809	636.21
502.265	649.51
502.721	663.71
503.177	675.01
503.632	658.81
504.088	672.41
504.543	709.91
504.999	714.91
505.455	660.31
505.91	646.91
506.366	636.21
506.821	630.21
507.277	632.11
507.732	628.51
508.187	622.11
508.643	640.41
509.098	629.91
509.553	652.71
510.009	661.61
510.464	662.91
510.919	683.21
511.375	693.51
511.83	711.91
512.285	727.41
512.74	767.01
513.195	788.01
513.65	778.81
514.105	762.11
514.56	778.41
515.015	797.11
515.47	814.41
515.925	797.71
516.38	799.91
516.835	804.41
517.29	786.91
517.745	781.61
518.2	774.81
518.655	755.41
519.109	743.41
519.564	747.91
520.019	742.21
520.474	733.31
520.928	729.91
521.383	719.11
521.838	713.61
522.292	714.41
522.747	704.91
523.201	708.41
523.656	698.91
524.11	693.01
524.565	683.81
525.019	692.51
525.474	707.91
525.928	705.71
526.382	700.11
526.837	692.51
527.291	706.31
527.745	696.01
528.2	698.21
528.654	697.41
529.108	690.21
529.562	688.41
530.016	693.61
530.47	691.91
530.925	696.21
531.379	700.31
531.833	702.31
532.287	701.41
532.741	700.11
533.195	707.51
533.649	713.11
534.103	726.91
534.556	708.61
535.01	712.61
535.464	708.51
535.918	724.01
536.372	724.21
536.826	723.91
537.279	713.11
537.733	710.31
538.187	722.01
538.64	712.71
539.094	727.31
539.548	726.31
540.001	727.21
540.455	726.61
540.908	737.31
541.362	736.81
541.815	743.61
542.269	758.31
542.722	761.71
543.175	772.21
543.629	773.31
544.082	784.51
544.536	787.91
544.989	783.01
545.442	787.31
545.895	787.61
546.349	786.51
546.802	783.91
547.255	792.11
547.708	800.41
548.161	818.01
548.614	820.31
549.067	830.81
549.52	818.91
549.973	807.71
550.426	793.61
550.879	790.41
551.332	802.81
551.785	812.61
552.238	802.71
552.691	816.51
553.144	826.31
553.596	834.31
554.049	861.31
554.502	888.81
554.955	918.31
555.407	919.61
555.86	898.61
556.313	893.31
556.765	883.51
557.218	877.71
557.67	884.71
558.123	874.11
558.576	863.41
559.028	871.41
559.48	877.71
559.933	872.51
560.385	836.01
560.838	799.91
561.29	774.41
561.742	775.91
562.195	769.51
562.647	752.61
563.099	763.41
563.551	761.81
564.004	776.21
564.456	768.81
564.908	754.01
565.36	740.91
565.812	727.31
566.264	716.11
566.716	731.81
567.168	716.41
567.62	721.01
568.072	704.01
568.524	685.61
568.976	678.21
569.428	668.51
569.88	663.11
570.332	677.31
570.784	678.91
571.235	678.21
571.687	689.81
572.139	701.51
572.59	713.81
573.042	703.01
573.494	704.51
573.945	696.61
574.397	675.11
574.849	678.81
575.3	686.81
575.752	681.81
576.203	669.31
576.655	681.41
577.106	664.51
577.557	658.01
578.009	660.51
578.46	661.81
578.912	659.01
579.363	656.41
579.814	668.61
580.265	651.71
580.717	659.21
581.168	664.41
581.619	668.41
582.07	674.21
582.521	668.31
582.972	662.71
583.423	675.61
583.875	661.61
584.326	697.61
584.777	738.61
585.227	808.01
585.678	888.31
586.129	975.81
586.58	1033.01
587.031	1123.31
587.482	1281.91
587.933	1456.11
588.384	1268.11
588.834	946.01
589.285	787.21
589.736	767.61
590.186	758.11
590.637	749.81
591.088	730.51
591.538	732.51
591.989	721.01
592.439	715.31
592.89	708.11
593.34	696.81
593.791	699.51
594.241	686.61
594.692	700.21
595.142	676.51
595.593	684.21
596.043	696.51
596.493	708.11
596.943	703.51
597.394	703.91
597.844	706.51
598.294	720.01
598.744	738.81
599.195	761.61
599.645	792.51
600.095	843.71
600.545	887.21
600.995	946.21
601.445	998.91
601.895	1062.71
602.345	1112.71
602.795	1093.91
603.245	1026.11
603.695	990.81
604.145	935.01
604.594	891.91
605.044	835.61
605.494	788.41
605.944	737.31
606.393	725.71
606.843	704.51
607.293	722.31
607.743	710.01
608.192	724.31
608.642	735.71
609.091	746.21
609.541	748.91
609.99	736.21
610.44	743.61
610.889	702.11
611.339	684.11
611.788	660.31
612.238	677.21
612.687	687.41
613.136	696.61
613.586	714.81
614.035	720.01
614.484	744.61
614.933	735.61
615.383	722.11
615.832	716.51
616.281	706.81
616.73	667.11
617.179	644.11
617.628	635.11
618.077	614.91
618.526	613.31
618.975	602.91
619.424	598.31
619.873	593.31
620.322	599.01
620.771	587.01
621.22	582.11
621.669	584.61
622.118	576.01
622.567	560.61
623.015	547.51
623.464	560.51
623.913	548.21
624.361	538.31
624.81	532.71
625.259	540.11
625.707	544.31
626.156	540.91
626.604	555.11
627.053	543.91
627.501	549.81
627.95	543.11
628.398	563.21
628.847	552.41
629.295	545.91
629.744	561.51
630.192	553.11
630.64	549.21
631.089	553.41
631.537	563.81
631.985	566.51
632.433	577.71
632.881	584.81
633.33	635.21
633.778	623.21
634.226	548.01
634.674	553.31
635.122	553.31
635.57	571.71
636.018	594.61
636.466	554.51
636.914	541.01
637.362	555.71
637.81	553.91
638.258	559.11
638.705	557.11
639.153	586.61
639.601	594.81
640.049	606.91
640.497	647.01
640.944	669.61
641.392	620.51
641.84	603.81
642.287	563.51
642.735	555.21
643.182	551.51
643.63	552.11
644.078	557.31
644.525	571.01
644.973	574.91
645.42	581.51
645.867	595.61
646.315	622.31
646.762	634.71
647.21	660.21
647.657	687.91
648.104	719.41
648.551	730.21
648.999	796.01
649.446	880.71
649.893	962.41
650.34	1110.71
650.787	1345.41
651.234	1640.51
651.682	2153.01
652.129	2931.21
652.576	4220.71
653.023	6263.41
653.47	8539.41
653.917	10789.11
654.363	12509.31
654.81	13932.51
655.257	13219.81
655.704	8636.61
656.151	5119.21
656.598	3310.71
657.044	2334.81
657.491	1798.91
657.938	1432.71
658.385	1194.61
658.831	1052.11
659.278	922.31
659.724	829.91
660.171	759.21
660.618	694.71
661.064	666.31
661.511	645.21
661.957	621.21
662.404	619.41
662.85	624.91
663.296	593.31
663.743	528.61
664.189	512.11
664.635	512.31
665.082	494.01
665.528	507.81
665.974	492.21
666.42	486.31
666.867	489.61
667.313	471.41
667.759	464.01
668.205	454.41
668.651	469.51
669.097	461.01
669.543	477.71
669.989	451.91
670.435	429.71
670.881	426.41
671.327	426.51
671.773	444.11
672.219	467.31
672.665	515.11
673.11	554.41
673.556	605.01
674.002	640.81
674.448	625.91
674.893	530.91
675.339	454.01
675.785	424.21
676.23	395.51
676.676	367.21
677.122	372.11
677.567	356.01
678.013	356.61
678.458	342.51
678.904	350.01
679.349	321.91
679.794	344.51
680.24	334.91
680.685	330.61
681.131	334.41
681.576	338.31
682.021	333.71
682.466	341.91
682.912	326.91
683.357	326.91
683.802	359.11
684.247	391.41
684.692	438.91
685.137	456.41
685.583	505.41
686.028	529.91
686.473	490.01
686.918	416.41
687.363	394.41
687.807	374.41
688.252	342.61
688.697	331.21
689.142	319.31
689.587	315.41
690.032	300.61
690.477	322.71
690.921	333.81
691.366	367.91
691.811	385.01
692.255	398.71
692.7	427.61
693.145	476.31
693.589	643.61
694.034	1045.51
694.478	1435.91
694.923	1644.51
695.367	2177.71
695.812	1132.51
696.256	477.81
696.701	355.61
697.145	319.51
697.59	314.51
698.034	300.71
698.478	307.31
698.922	313.71
699.367	316.31
699.811	326.01
700.255	341.31
700.699	364.71
701.143	403.91
701.588	447.11
702.032	476.81
702.476	486.41
702.92	463.81
703.364	470.31
703.808	589.21
704.252	951.61
704.696	1375.21
705.14	1587.91
705.584	2048.41
706.027	999.31
706.471	486.81
706.915	374.21
707.359	325.81
707.803	303.51
708.246	291.61
708.69	288.31
709.134	299.71
709.577	296.31
710.021	299.81
710.465	285.71
710.908	289.11
711.352	285.71
711.795	298.51
712.239	321.61
712.682	365.51
713.126	393.31
713.569	445.01
714.012	346.71
714.456	302.81
714.899	285.11
715.342	259.61
715.786	239.91
716.229	245.21
716.672	241.01
717.115	237.01
717.558	236.61
718.002	230.91
718.445	242.71
718.888	263.01
719.331	273.91
719.774	291.11
720.217	287.11
720.66	271.01
721.103	252.81
721.546	242.21
721.989	237.71
722.432	218.61
722.874	222.81
723.317	219.81
723.76	230.01
724.203	242.41
724.645	301.01
725.088	408.81
725.531	537.01
725.974	609.31
726.416	515.61
726.859	288.11
727.301	227.51
727.744	220.31
728.187	217.11
728.629	229.91
729.071	226.21
729.514	240.91
729.956	249.71
730.399	265.81
730.841	276.61
731.283	268.41
731.726	242.91
732.168	243.01
732.61	255.41
733.053	264.21
733.495	293.21
733.937	326.81
734.379	368.51
734.821	406.41
735.263	507.81
735.705	764.21
736.148	1459.91
736.59	2399.11
737.032	2932.51
737.474	2364.21
737.916	752.01
738.357	404.71
738.799	301.71
739.241	275.81
739.683	262.21
740.125	271.71
740.567	276.21
741.008	296.71
741.45	299.11
741.892	287.51
742.334	325.21
742.775	339.81
743.217	332.91
743.658	253.71
744.1	236.31
744.542	239.01
744.983	282.91
745.425	319.71
745.866	317.61
746.307	268.81
746.749	267.51
747.19	310.71
747.632	413.21
748.073	796.51
748.514	1715.31
748.956	2661.61
749.397	3352.51
749.838	2769.61
750.279	2812.71
750.72	1420.81
751.162	509.81
751.603	299.31
752.044	238.31
752.485	204.91
752.926	197.61
753.367	191.11
753.808	181.91
754.249	181.21
754.69	176.01
755.131	166.51
755.572	166.11
756.013	167.21
756.453	172.81
756.894	172.41
757.335	183.11
757.776	182.91
758.216	179.91
758.657	188.91
759.098	188.01
759.538	210.11
759.979	248.21
760.42	344.11
760.86	638.01
761.301	1652.71
761.741	4070.81
762.182	6146.01
762.622	4320.51
763.063	1238.71
763.503	503.71
763.943	325.41
764.384	310.81
764.824	371.31
765.264	410.01
765.705	283.71
766.145	193.11
766.585	175.61
767.025	168.81
767.465	177.01
767.906	229.41
768.346	292.81
768.786	323.91
769.226	243.31
769.666	297.31
770.106	557.01
770.546	1423.71
770.986	2491.81
771.426	2244.61
771.866	746.81
772.306	311.21
772.745	203.51
773.185	172.71
773.625	165.41
774.065	157.21
774.505	185.41
774.944	286.91
775.384	612.31
775.824	1146.71
776.263	1127.71
776.703	475.21
777.142	201.31
777.582	150.41
778.021	134.11
778.461	133.01
778.9	134.61
779.34	128.41
779.779	108.71
780.219	101.81
780.658	105.11
781.097	103.21
781.537	108.91
781.976	100.91
782.415	99.31
782.855	98.31
783.294	95.81
783.733	101.41
784.172	108.61
784.611	96.51
785.05	97.71
785.489	107.91
785.928	108.01
786.367	112.91
786.806	107.81
787.245	121.81
787.684	119.91
788.123	135.41
788.562	128.31
789.001	111.71
789.44	114.71
789.879	108.11
790.317	114.91
790.756	121.61
791.195	122.81
791.634	139.81
792.072	189.31
792.511	335.61
792.95	914.11
793.388	2021.61
793.827	1861.51
794.265	649.31
794.704	262.41
795.142	176.81
795.581	143.91
796.019	129.71
796.458	120.31
796.896	112.71
797.334	121.41
797.773	142.11
798.211	200.81
798.649	397.21
799.087	940.51
799.526	1484.11
799.964	1872.11
800.402	1925.11
800.84	714.71
801.278	279.11
801.716	173.11
802.154	140.31
802.592	138.21
803.03	134.41
803.468	127.31
803.906	134.31
804.344	140.71
804.782	135.51
805.22	122.51
805.658	123.81
806.096	135.51
806.533	144.91
806.971	161.31
807.409	201.71
807.847	292.81
808.284	597.91
808.722	1705.41
809.16	3106.61
809.597	2880.91
810.035	5059.01
810.472	5544.01
810.91	1990.61
811.347	743.81
811.785	381.81
812.222	234.41
812.66	186.51
813.097	152.61
813.535	134.51
813.972	114.91
814.409	113.01
814.846	102.91
815.284	106.31
815.721	91.21
816.158	100.61
816.595	112.21
817.032	164.01
817.47	188.11
817.907	160.01
818.344	137.21
818.781	111.01
819.218	92.71
819.655	115.21
820.092	174.41
820.529	202.61
820.966	163.51
821.403	122.21
821.839	101.01
822.276	96.91
822.713	113.31
823.15	131.41
823.587	103.11
824.023	140.71
824.46	276.51
824.897	827.91
825.333	1281.91
825.77	552.11
826.206	210.81
826.643	126.71
827.08	95.61
827.516	73.41
827.953	69.61
828.389	72.81
828.825	69.81
829.262	58.61
829.698	59.61
830.135	57.31
830.571	53.81
831.007	59.41
831.443	61.01
831.88	53.61
832.316	59.91
832.752	59.81
833.188	55.81
833.624	63.11
834.06	69.91
834.497	60.61
834.933	61.41
835.369	67.31
835.805	65.51
836.241	73.11
836.677	77.51
837.112	78.51
837.548	98.41
837.984	119.71
838.42	181.41
838.856	451.91
839.292	1386.01
839.727	2188.81
840.163	1016.11
840.599	845.61
841.034	1885.71
841.47	2039.51
841.906	727.31
842.341	312.31
842.777	217.81
843.212	294.51
843.648	288.61
844.083	141.21
844.519	84.91
844.954	69.21
845.39	54.41
845.825	54.81
846.261	56.91
846.696	49.11
847.131	56.51
847.566	54.31
848.002	51.71
848.437	53.51
848.872	51.11
849.307	56.31
849.742	77.01
850.177	160.51
850.613	511.61
851.048	834.71
851.483	355.41
851.918	143.61
852.353	84.81
852.788	57.41
853.223	53.11
853.657	46.31
854.092	47.91
854.527	43.81
854.962	38.31
855.397	48.11
855.832	45.11
856.266	35.71
856.701	39.81
857.136	35.21
857.57	35.61
858.005	52.21
858.44	55.41
858.874	40.31
859.309	45.31
859.743	37.91
860.178	44.31
860.612	37.71
861.047	46.51
861.481	60.21
861.915	68.31
862.35	52.11
862.784	30.11
863.218	35.51
863.653	34.51
864.087	47.41
864.521	47.01
864.955	67.51
865.39	141.51
865.824	168.51
866.258	105.31
866.692	156.01
867.126	167.11
867.56	100.11
867.994	48.91
868.428	38.61
868.862	43.61
869.296	46.11
869.73	61.11
870.164	47.61
870.598	41.51
871.031	39.01
871.465	32.01
871.899	26.51
872.333	23.41
872.766	23.91
873.2	24.61
873.634	27.41
874.067	22.71
874.501	21.71
874.935	28.31
875.368	32.31
875.802	24.31
876.235	17.71
876.669	23.01
877.102	20.01
877.535	26.71
877.969	23.01
878.402	23.41
878.836	15.01
879.269	20.21
879.702	26.11
880.135	19.61
880.569	28.01
881.002	25.61
881.435	13.91
881.868	6.81
882.301	23.41
882.734	16.11
883.167	19.11
883.601	15.61
884.034	17.91
884.467	14.31
884.899	18.71
885.332	16.21
885.765	13.51
886.198	16.41
886.631	16.81
887.064	19.11
887.497	22.71
887.929	19.41
888.362	13.51
888.795	9.11
889.228	18.11
889.66	20.21
890.093	16.41
890.526	16.11
890.958	15.51
891.391	17.01
891.823	17.31
892.256	19.31
892.688	13.81
893.121	11.81
893.553	15.31
893.985	27.51
894.418	18.11
894.85	8.11
895.282	19.31
895.715	16.21
896.147	16.11
896.579	13.51
897.011	6.41
897.444	17.31
897.876	6.91
898.308	12.41
898.74	8.91
899.172	9.91
899.604	21.41
900.036	22.91
900.468	13.21
900.9	18.11
901.332	16.61
901.764	12.11
902.196	17.51
902.628	22.51
903.06	12.31
903.491	31.11
903.923	16.51
904.355	19.61
904.787	24.31
905.218	21.71
905.65	21.51
906.082	13.41
906.513	6.71
906.945	13.61
907.376	14.31
907.808	11.91
908.239	16.11
908.671	17.01
909.102	23.11
909.534	21.61
909.965	38.01
910.397	77.81
910.828	292.81
911.259	455.61
911.691	199.01
912.122	99.01
912.553	45.81
912.984	31.11
913.415	27.01
913.847	26.81
914.278	22.21
914.709	12.31
915.14	18.61
915.571	17.01
916.002	18.71
916.433	21.41
916.864	18.11
917.295	7.01
917.726	13.51
918.157	14.71
918.587	22.71
919.018	21.11
919.449	15.91
919.88	23.81
920.311	27.51
920.741	37.91
921.172	154.51
921.603	137.81
922.033	74.21
922.464	38.01
922.895	25.41
923.325	15.01
923.756	11.61
924.186	15.01
924.617	30.01
925.047	36.51
925.478	48.61
925.908	45.21
926.338	23.01
926.769	13.01
927.199	16.71
927.629	7.01
928.06	13.11
928.49	4.91
928.92	11.81
929.35	13.71
929.78	13.21
930.21	10.21
930.641	5.61
931.071	12.31
931.501	6.61
931.931	8.41
932.361	11.01
932.791	6.41
933.221	7.81
933.651	1.41
934.08	12.21
934.51	32.01
934.94	11.71
935.37	6.21
935.8	13.91
936.229	0.91
936.659	6.11
937.089	0.21
937.519	16.01
937.948	15.31
938.378	16.41
938.807	3.11
939.237	5.01
939.666	3.81
940.096	1.81
940.525	3.81
940.955	5.91
941.384	-0.29
941.814	1.61
942.243	0.01
942.672	3.31
943.102	-2.89
943.531	0.61
943.96	4.91
944.39	0.61
944.819	-1.29
945.248	1.81
945.677	0.21
946.106	5.01
946.535	-0.09
946.964	5.41
947.393	5.31
947.822	3.91
948.251	-1.69
948.68	-1.49
949.109	9.11
949.538	11.51
949.967	1.11
950.396	-2.79
950.825	-1.29
951.254	4.91
951.682	-4.29
952.111	6.21
952.54	3.11
952.969	-4.49
953.397	-6.59
953.826	4.41
954.254	-3.39
954.683	4.71
955.112	-5.39
955.54	-0.09
955.969	-1.49
956.397	2.01
956.826	2.31
957.254	5.41
957.682	2.31
958.111	2.61
958.539	3.71
958.967	1.81
959.396	-2.99
959.824	3.91
960.252	6.01
960.68	-2.89
961.109	0.81
961.537	1.91
961.965	5.01
962.393	3.21
962.821	-0.59
963.249	0.01
963.677	6.31
964.105	5.91
964.533	40.81
964.961	36.61
965.389	19.31
965.817	7.71
966.245	-0.59
966.672	3.11
967.1	-4.19
967.528	2.21
967.956	-8.79
968.383	3.31
968.811	-3.89
969.239	-4.79
969.666	-1.39
970.094	0.61
970.522	3.11
970.949	3.81
971.377	-4.29
971.804	-5.09
972.232	-1.59
972.659	0.01
973.087	-3.89
973.514	-2.09
973.941	-1.79
974.369	2.01
974.796	4.21
975.223	2.41
975.651	-0.79
976.078	4.61
976.505	-2.49
976.932	4.71
977.359	19.01
977.786	14.71
978.214	2.61
978.641	-0.99
979.068	-0.59
979.495	-3.69
979.922	-4.39
980.349	-5.09
980.776	3.41
981.202	-1.99
981.629	3.91
982.056	1.91
982.483	-2.49
982.91	3.81
983.337	0.31
983.763	0.01
984.19	-2.89
984.617	0.31
985.043	-8.39
985.47	-1.29
985.897	-7.69
986.323	-2.79
986.75	7.21
987.176	0.71
987.603	-0.19
988.029	-3.09
988.456	-2.69
988.882	4.11
989.308	-6.89
989.735	-5.99
990.161	3.51
990.587	2.21
991.014	4.11
991.44	6.61
991.866	2.71
992.292	0.91
992.719	-5.99
993.145	3.91
993.571	-7.69
993.997	2.31
994.423	-4.49
994.849	-4.69
995.275	-2.59
995.701	0.81
996.127	-6.49
996.553	3.81
996.979	1.61
997.405	-3.99
997.83	-6.39
998.256	-7.49
998.682	-4.69
999.108	-6.69
999.534	1.81
999.959	-5.59
1000.385	-0.09
1000.811	4.81
1001.236	-3.29
1001.662	-3.89
1002.087	-4.19
1002.513	3.71
1002.938	-1.39
1003.364	-3.29
1003.789	-6.59
1004.215	6.01
1004.64	1.81
1005.066	3.71
1005.491	1.71
1005.916	-4.99
1006.342	-2.19
1006.767	-11.99
1007.192	1.41
1007.617	-0.19
1008.042	-1.99
1008.468	-4.79
1008.893	-6.89
1009.318	-2.39
1009.743	-3.59
1010.168	4.91
1010.593	2.41
1011.018	-10.49
1011.443	-3.49
1011.868	-2.49
1012.293	-8.69
1012.718	-11.19
1013.143	-3.79
1013.567	1.11
1013.992	2.91
1014.417	-6.89
1014.842	5.41
1015.267	-4.99
1015.691	-2.79
1016.116	4.91
1016.541	-4.69
1016.965	-0.09
1017.39	5.71
1017.814	1.11
1018.239	-5.59
1018.663	-0.19
1019.088	-5.89
1019.512	-4.99
1019.937	-2.49
1020.361	-3.99
1020.785	-9.89
1021.21	-1.89
1021.634	-2.89
1022.058	-0.39
1022.483	5.71
1022.907	-8.09
1023.331	-5.69
1023.755	-4.19
1024.179	-3.29
1024.604	-6.89
1025.028	-6.89
1025.452	-6.09
1025.876	-0.39
1026.3	-3.99
1026.724	-13.39
1027.148	-8.49
1027.572	-7.69
1027.996	-7.19
1028.42	-3.49
1028.843	-12.89
1029.267	-3.59
1029.691	-6.49
1030.115	-4.99
1030.539	-8.39
1030.962	-3.29
1031.386	-10.89
1031.81	-2.69
1032.233	2.01
1032.657	-3.99
1033.08	1.21
1033.504	-11.29
1033.927	-1.79
1034.351	-2.29
1034.774	-6.49
1035.198	5.41
1035.621	-5.09
1036.045	-2.79
1036.468	-1.09
1036.891	-14.59
1037.315	-4.99
1037.738	-9.19
1038.161	-2.09
1038.584	-1.09
1039.008	-3.49
1039.431	-9.79
1039.854	-3.59
1040.277	-11.59
1040.7	-10.59
1041.123	-2.79
1041.546	-7.29
1041.969	-1.09
1042.392	-7.39
1042.815	3.51
1043.238	-0.19
1043.661	3.01
1044.084	-2.19
1044.507	-4.99
1044.93	-3.99
1045.352	-3.49
1045.775	-3.69
1046.198	-1.19
1046.621	-0.69
1047.043	-0.19
1047.466	5.11
1047.889	-3.79
1048.311	-4.99
1048.734	-2.89
1049.156	-0.99
1049.579	0.61
1050.001	-2.29
1050.424	3.41
1050.846	2.31
1051.269	-6.59
1051.691	-5.69
1052.113	-2.09
1052.536	-0.79
1052.958	-4.99
1053.38	-2.39
1053.802	-5.19
1054.225	1.01
1054.647	-8.59
1055.069	-8.29
1055.491	3.21
1055.913	-10.99
1056.335	1.41
1056.757	-9.79
1057.179	-3.09
1057.601	-8.29
1058.023	-5.49
1058.445	-7.39
1058.867	-6.69
1059.289	-4.79
1059.711	-10.09
1060.133	-1.99
1060.555	4.01
1060.976	-4.79
1061.398	-9.59
1061.82	-4.29
1062.241	-7.59
1062.663	-6.09
1063.085	-3.69
1063.506	-0.29
1063.928	-4.09
1064.35	-1.19
1064.771	-13.19
1065.193	3.21
1065.614	-7.09
1066.035	-2.29
1066.457	-2.19
1066.878	-2.49
1067.3	-0.89
1067.721	-6.19
1068.142	-3.19
1068.564	-1.59
1068.985	-2.59
1069.406	-4.79
1069.827	-8.89
1070.248	-1.99
1070.67	-3.49
1071.091	-3.69
1071.512	-7.69
1071.933	-6.19
1072.354	-3.59
1072.775	-2.99
1073.196	-9.89
1073.617	-3.59
1074.038	-11.49
1074.459	-2.39
1074.88	-9.39
1075.3	3.41
1075.721	-1.19
1076.142	-2.69
1076.563	-0.69
1076.983	-8.79
1077.404	-9.99
1077.825	-11.69
1078.246	-2.09
1078.666	-11.99
1079.087	-3.29
1079.507	-9.69
1079.928	-1.09
1080.348	-3.29
1080.769	-9.69
1081.189	-0.79
1081.61	-0.99
1082.03	-3.89
1082.451	-4.99
1082.871	-5.49
1083.291	-7.49
1083.711	-4.69
1084.132	-2.89
1084.552	-2.59
1084.972	0.21
1085.392	-6.69
1085.813	-5.89
1086.233	-8.79
1086.653	-5.19
1087.073	-3.19
1087.493	-10.39
1087.913	-5.79
1088.333	-4.69
1088.753	-5.29
1089.173	-5.49
1089.593	-1.99
1090.013	-1.79
1090.433	-3.79
1090.852	-3.99
1091.272	-3.39
1091.692	-1.59
1092.112	-3.29
1092.531	-9.09
1092.951	-14.29
1093.371	-0.29
1093.79	-0.19
1094.21	-7.39
1094.63	-4.39
1095.049	-3.29
1095.469	-4.79
1095.888	-5.09
1096.308	1.91
1096.727	5.71
1097.146	-3.09
1097.566	-0.39
1097.985	-6.39
1098.405	-2.49
1098.824	-5.39
1099.243	-4.89
1099.662	-6.59
1100.082	-0.29
1100.501	4.21
1100.92	-8.79
1101.339	-7.69
1101.758	-3.09
