Data from 20171114-ORNL-Ar_H_NY_Subt18_08-07-00-861.txt Node
Date: Tue Nov 14 08:07:00 EST 2017
User: Ender
Spectrometer: HR+D1039
Trigger mode: 0
Integration Time (sec): 2.730000E-2
Scans to average: 10
Electric dark correction enabled: true
Nonlinearity correction enabled: false
Boxcar width: 0
XAxis mode: Wavelengths
Number of Pixels in Spectrum: 2048
>>>>>Begin Spectral Data<<<<<
187.836	-2.43
188.309	-2.43
188.782	-2.43
189.255	5.57
189.728	-1.73
190.201	2.87
190.674	-1.33
191.147	1.97
191.619	-5.93
192.092	-0.83
192.565	3.27
193.038	2.07
193.511	-1.03
193.984	2.87
194.456	-0.73
194.929	-3.93
195.402	-4.13
195.874	3.38
196.347	2.37
196.82	-6.93
197.292	4.37
197.765	-3.02
198.237	-4.73
198.71	8.77
199.182	-3.73
199.655	1.57
200.127	1.07
200.6	-4.33
201.072	-2.93
201.544	-5.73
202.017	-6.63
202.489	6.97
202.961	0.88
203.433	-1.53
203.906	-2.73
204.378	-4.12
204.85	-3.93
205.322	-11.03
205.794	1.27
206.266	-0.33
206.739	-6.53
207.211	-2.23
207.683	-7.83
208.155	-3.53
208.627	-8.13
209.099	-1.13
209.57	-10.02
210.042	-4.03
210.514	-5.23
210.986	1.57
211.458	-6.93
211.93	-0.93
212.402	0.97
212.873	-7.43
213.345	-7.03
213.817	-12.83
214.288	-2.93
214.76	-14.83
215.232	-5.62
215.703	-4.12
216.175	0.77
216.646	-1.93
217.118	-8.63
217.589	-6.62
218.061	-5.03
218.532	-5.93
219.004	-4.63
219.475	-6.93
219.946	-0.13
220.418	-5.52
220.889	2.87
221.36	-0.12
221.832	-5.13
222.303	-9.33
222.774	-4.43
223.245	-9.93
223.717	-7.53
224.188	-1.03
224.659	-10.43
225.13	-10.12
225.601	-3.33
226.072	2.47
226.543	-2.43
227.014	1.37
227.485	-6.93
227.956	-8.73
228.427	-5.12
228.898	2.27
229.369	1.77
229.839	0.17
230.31	-9.33
230.781	1.47
231.252	-2.33
231.722	-7.43
232.193	-8.33
232.664	-4.43
233.135	-2.83
233.605	-3.33
234.076	-5.83
234.546	1.27
235.017	-1.83
235.487	-1.43
235.958	-5.83
236.428	-2.33
236.899	-3.43
237.369	-1.23
237.84	-5.63
238.31	2.57
238.78	-4.12
239.251	-5.62
239.721	-1.33
240.191	-1.12
240.662	-1.62
241.132	-5.23
241.602	-4.63
242.072	-4.93
242.542	-0.23
243.013	-3.93
243.483	-2.43
243.953	0.57
244.423	-7.73
244.893	-4.73
245.363	-0.13
245.833	-0.33
246.303	-6.33
246.773	5.07
247.243	5.87
247.712	-0.13
248.182	6.07
248.652	-4.03
249.122	-7.73
249.592	-2.23
250.061	0.47
250.531	5.98
251.001	-1.93
251.471	5.77
251.94	7.47
252.41	-3.23
252.879	-9.12
253.349	5.57
253.818	4.97
254.288	-0.62
254.757	-3.93
255.227	-1.93
255.696	-2.73
256.166	2.98
256.635	1.27
257.105	2.88
257.574	-0.43
258.043	-2.83
258.513	-2.53
258.982	-1.12
259.451	-5.93
259.92	4.07
260.389	3.57
260.859	7.47
261.328	5.17
261.797	4.57
262.266	1.77
262.735	4.88
263.204	4.47
263.673	-2.63
264.142	7.77
264.611	-3.23
265.08	-3.83
265.549	-5.12
266.018	3.98
266.487	-6.53
266.955	-5.63
267.424	-4.73
267.893	4.27
268.362	0.77
268.83	1.17
269.299	7.48
269.768	-2.33
270.236	-2.62
270.705	-2.33
271.174	3.77
271.642	2.77
272.111	4.17
272.579	0.27
273.048	-1.83
273.516	-1.23
273.985	2.57
274.453	8.57
274.922	9.17
275.39	3.27
275.858	-2.73
276.327	3.17
276.795	11.47
277.263	-2.13
277.731	9.37
278.2	7.77
278.668	7.57
279.136	5.47
279.604	1.88
280.072	2.97
280.54	0.88
281.008	3.67
281.477	4.37
281.945	10.27
282.413	6.07
282.881	11.88
283.348	4.98
283.816	14.07
284.284	7.27
284.752	13.07
285.22	7.17
285.688	14.37
286.156	7.27
286.623	20.27
287.091	11.47
287.559	5.27
288.026	7.88
288.494	5.17
288.962	0.57
289.429	11.67
289.897	18.17
290.364	12.07
290.832	14.38
291.3	7.67
291.767	8.48
292.234	12.47
292.702	5.17
293.169	8.57
293.637	21.38
294.104	15.47
294.571	3.37
295.039	11.67
295.506	12.47
295.973	11.97
296.44	4.77
296.908	8.77
297.375	13.87
297.842	14.27
298.309	14.17
298.776	11.57
299.243	13.27
299.71	10.37
300.177	17.17
300.644	14.38
301.111	15.17
301.578	17.17
302.045	8.97
302.512	16.88
302.979	18.97
303.446	17.37
303.913	5.48
304.379	6.87
304.846	18.17
305.313	18.27
305.78	19.17
306.246	18.77
306.713	26.77
307.18	24.77
307.646	19.77
308.113	22.47
308.579	15.67
309.046	24.77
309.512	18.38
309.979	16.37
310.445	24.07
310.912	26.27
311.378	27.67
311.845	24.77
312.311	27.47
312.777	20.67
313.244	24.88
313.71	32.97
314.176	23.27
314.642	23.97
315.109	23.37
315.575	28.77
316.041	36.57
316.507	22.57
316.973	26.37
317.439	25.67
317.905	31.77
318.371	27.67
318.837	26.77
319.303	30.37
319.769	27.27
320.235	24.87
320.701	32.07
321.167	27.67
321.633	22.17
322.099	29.77
322.564	31.37
323.03	32.57
323.496	34.57
323.962	28.77
324.427	30.27
324.893	41.07
325.359	32.67
325.824	33.67
326.29	29.07
326.755	30.57
327.221	37.17
327.686	34.77
328.152	41.98
328.617	36.77
329.083	41.57
329.548	42.87
330.014	44.07
330.479	30.97
330.944	37.57
331.41	33.37
331.875	37.48
332.34	27.67
332.805	30.67
333.271	42.07
333.736	31.57
334.201	38.98
334.666	46.07
335.131	41.37
335.596	46.07
336.061	37.27
336.526	39.17
336.991	47.57
337.456	47.98
337.921	41.87
338.386	37.77
338.851	37.57
339.316	45.47
339.781	39.47
340.246	46.67
340.711	37.57
341.175	41.77
341.64	39.67
342.105	45.07
342.569	44.77
343.034	48.37
343.499	50.97
343.963	49.77
344.428	52.77
344.893	48.47
345.357	58.07
345.822	51.47
346.286	55.77
346.751	62.17
347.215	59.27
347.679	63.17
348.144	81.77
348.608	68.38
349.073	58.87
349.537	61.97
350.001	67.57
350.465	83.47
350.93	72.37
351.394	69.07
351.858	67.98
352.322	73.57
352.786	74.48
353.25	87.67
353.715	95.77
354.179	92.07
354.643	106.27
355.107	100.57
355.571	88.88
356.035	80.77
356.498	99.67
356.962	98.77
357.426	101.67
357.89	100.88
358.354	76.77
358.818	77.87
359.281	68.48
359.745	65.57
360.209	62.67
360.673	63.67
361.136	69.07
361.6	77.07
362.064	79.38
362.527	76.37
362.991	81.37
363.454	72.97
363.918	68.87
364.381	73.97
364.845	75.17
365.308	78.67
365.772	78.47
366.235	72.57
366.698	76.97
367.162	80.57
367.625	82.87
368.088	78.07
368.552	80.67
369.015	73.07
369.478	85.47
369.941	89.47
370.404	89.47
370.867	93.17
371.331	90.97
371.794	94.97
372.257	96.07
372.72	95.37
373.183	97.27
373.646	88.27
374.109	85.88
374.572	99.97
375.035	92.77
375.497	99.07
375.96	100.27
376.423	90.07
376.886	106.48
377.349	101.17
377.811	90.17
378.274	99.67
378.737	102.17
379.199	96.98
379.662	97.17
380.125	102.98
380.587	97.07
381.05	102.48
381.512	109.67
381.975	119.77
382.437	106.17
382.9	108.57
383.362	112.87
383.825	121.88
384.287	118.37
384.75	103.07
385.212	119.57
385.674	127.17
386.136	123.77
386.599	119.17
387.061	116.07
387.523	112.77
387.985	122.17
388.447	127.27
388.91	120.47
389.372	123.67
389.834	119.97
390.296	125.77
390.758	123.57
391.22	135.47
391.682	134.87
392.144	142.17
392.606	140.37
393.068	140.67
393.529	146.77
393.991	131.07
394.453	118.07
394.915	129.37
395.377	128.27
395.838	129.87
396.3	131.17
396.762	134.88
397.224	125.57
397.685	126.07
398.147	131.98
398.608	126.77
399.07	125.27
399.531	130.07
399.993	139.77
400.454	152.47
400.916	143.27
401.377	139.88
401.839	141.47
402.3	150.27
402.762	168.17
403.223	175.47
403.684	159.87
404.145	158.97
404.607	160.07
405.068	158.97
405.529	156.07
405.99	182.77
406.451	170.87
406.913	167.77
407.374	161.97
407.835	156.97
408.296	159.88
408.757	165.57
409.218	178.37
409.679	174.67
410.14	169.48
410.601	169.97
411.062	177.38
411.522	176.07
411.983	178.17
412.444	174.27
412.905	181.88
413.366	187.77
413.826	195.77
414.287	217.88
414.748	264.27
415.208	248.57
415.669	211.77
416.13	212.67
416.59	212.87
417.051	218.77
417.511	218.67
417.972	239.68
418.432	248.47
418.893	287.67
419.353	250.68
419.814	203.07
420.274	189.97
420.734	180.27
421.195	200.97
421.655	189.67
422.115	193.57
422.576	195.17
423.036	202.17
423.496	211.67
423.956	224.48
424.416	233.17
424.876	266.48
425.336	273.97
425.797	263.87
426.257	251.57
426.717	244.68
427.177	232.08
427.637	225.67
428.097	238.97
428.556	242.97
429.016	264.38
429.476	260.87
429.936	268.37
430.396	279.97
430.856	286.27
431.315	307.27
431.775	334.57
432.235	372.67
432.694	336.27
433.154	340.47
433.614	381.47
434.073	328.48
434.533	284.27
434.993	272.08
435.452	274.57
435.912	281.07
436.371	281.68
436.83	282.27
437.29	257.77
437.749	246.08
438.209	250.07
438.668	277.27
439.127	280.47
439.587	260.57
440.046	245.97
440.505	262.87
440.964	280.57
441.424	316.17
441.883	313.67
442.342	271.77
442.801	234.47
443.26	226.38
443.719	226.17
444.178	228.97
444.637	215.57
445.096	224.07
445.555	231.47
446.014	229.87
446.473	231.08
446.932	236.37
447.391	233.27
447.849	236.98
448.308	232.27
448.767	235.87
449.226	245.87
449.685	247.07
450.143	260.27
450.602	254.67
451.061	243.77
451.519	246.57
451.978	238.97
452.436	240.88
452.895	252.48
453.353	262.77
453.812	249.27
454.27	248.88
454.729	249.87
455.187	251.27
455.646	254.37
456.104	257.08
456.562	272.17
457.021	271.47
457.479	271.17
457.937	284.17
458.395	272.48
458.854	259.58
459.312	263.67
459.77	278.67
460.228	263.97
460.686	255.38
461.144	255.67
461.602	258.57
462.06	246.27
462.518	263.37
462.976	263.87
463.434	266.47
463.892	272.27
464.35	297.57
464.808	295.27
465.266	283.17
465.724	289.48
466.181	283.97
466.639	280.67
467.097	300.08
467.555	310.27
468.012	312.97
468.47	325.77
468.928	343.07
469.385	350.68
469.843	361.47
470.3	362.87
470.758	378.88
471.215	393.97
471.673	419.07
472.13	423.67
472.588	431.88
473.045	394.57
473.503	392.18
473.96	404.67
474.417	416.77
474.875	451.97
475.332	492.77
475.789	467.07
476.246	475.57
476.704	503.37
477.161	523.97
477.618	532.77
478.075	567.48
478.532	623.97
478.989	698.47
479.446	798.57
479.903	763.87
480.36	799.17
480.817	850.07
481.274	937.88
481.731	1034.47
482.188	1111.88
482.645	1227.67
483.102	1319.57
483.558	1442.47
484.015	1492.38
484.472	1454.97
484.929	1414.38
485.385	1371.97
485.842	1337.57
486.299	1307.37
486.755	1248.37
487.212	1073.07
487.668	919.77
488.125	847.27
488.582	779.18
489.038	753.88
489.494	718.98
489.951	702.58
490.407	685.07
490.864	662.07
491.32	657.58
491.776	657.47
492.233	667.57
492.689	638.77
493.145	628.27
493.602	622.38
494.058	641.27
494.514	630.68
494.97	661.48
495.426	673.97
495.882	642.27
496.338	634.67
496.794	639.17
497.251	637.07
497.707	658.07
498.163	650.77
498.618	661.87
499.074	666.47
499.53	684.67
499.986	690.37
500.442	669.77
500.898	645.87
501.354	649.87
501.809	642.37
502.265	643.67
502.721	654.27
503.177	659.77
503.632	670.67
504.088	670.67
504.543	691.07
504.999	711.58
505.455	679.57
505.91	657.58
506.366	666.47
506.821	666.77
507.277	662.07
507.732	665.67
508.187	662.27
508.643	666.67
509.098	672.97
509.553	687.27
510.009	691.77
510.464	699.57
510.919	719.97
511.375	733.77
511.83	743.67
512.285	755.57
512.74	801.27
513.195	813.17
513.65	798.77
514.105	798.37
514.56	818.17
515.015	821.07
515.47	844.27
515.925	814.48
516.38	816.77
516.835	821.47
517.29	812.37
517.745	813.77
518.2	794.77
518.655	778.47
519.109	791.77
519.564	778.48
520.019	763.47
520.474	761.07
520.928	763.67
521.383	752.47
521.838	746.57
522.292	746.08
522.747	736.17
523.201	737.97
523.656	724.17
524.11	718.98
524.565	731.27
525.019	719.87
525.474	724.27
525.928	735.27
526.382	728.17
526.837	735.97
527.291	735.07
527.745	733.97
528.2	730.37
528.654	727.08
529.108	726.77
529.562	722.67
530.016	720.37
530.47	721.57
530.925	723.47
531.379	721.27
531.833	741.98
532.287	732.77
532.741	726.48
533.195	733.67
533.649	742.88
534.103	753.97
534.556	738.37
535.01	744.57
535.464	740.97
535.918	758.27
536.372	761.27
536.826	745.87
537.279	744.48
537.733	751.58
538.187	750.57
538.64	750.97
539.094	757.97
539.548	761.48
540.001	756.07
540.455	764.47
540.908	765.07
541.362	774.58
541.815	784.08
542.269	789.97
542.722	800.57
543.175	799.67
543.629	809.47
544.082	830.88
544.536	828.67
544.989	826.98
545.442	830.97
545.895	834.17
546.349	824.98
546.802	842.97
547.255	847.27
547.708	852.97
548.161	866.57
548.614	859.47
549.067	873.88
549.52	860.27
549.973	849.88
550.426	842.77
550.879	839.38
551.332	844.37
551.785	855.67
552.238	856.47
552.691	861.87
553.144	879.87
553.596	889.57
554.049	908.67
554.502	935.38
554.955	960.37
555.407	952.87
555.86	938.87
556.313	939.27
556.765	924.27
557.218	921.98
557.67	931.77
558.123	914.87
558.576	919.67
559.028	916.68
559.48	936.38
559.933	916.67
560.385	891.57
560.838	857.17
561.29	825.38
561.742	829.87
562.195	805.08
562.647	820.87
563.099	822.57
563.551	805.27
564.004	818.47
564.456	815.27
564.908	797.37
565.36	784.97
565.812	757.98
566.264	760.07
566.716	762.18
567.168	742.37
567.62	750.17
568.072	729.47
568.524	736.27
568.976	720.47
569.428	709.38
569.88	704.88
570.332	727.87
570.784	719.47
571.235	723.87
571.687	735.58
572.139	741.17
572.59	746.67
573.042	745.57
573.494	744.57
573.945	744.27
574.397	729.38
574.849	728.17
575.3	724.67
575.752	715.38
576.203	710.37
576.655	716.97
577.106	699.17
577.557	709.07
578.009	706.48
578.46	701.17
578.912	696.48
579.363	697.97
579.814	695.87
580.265	702.07
580.717	705.77
581.168	709.67
581.619	707.87
582.07	713.27
582.521	707.17
582.972	699.67
583.423	714.87
583.875	709.17
584.326	711.67
584.777	739.07
585.227	741.38
585.678	756.88
586.129	787.57
586.58	794.37
587.031	823.27
587.482	850.07
587.933	876.58
588.384	859.57
588.834	824.97
589.285	800.07
589.736	809.97
590.186	800.37
590.637	800.38
591.088	771.68
591.538	776.38
591.989	762.67
592.439	759.48
592.89	748.07
593.34	740.27
593.791	731.07
594.241	725.48
594.692	724.67
595.142	734.88
595.593	722.88
596.043	730.98
596.493	738.17
596.943	736.18
597.394	758.97
597.844	753.58
598.294	755.87
598.744	793.47
599.195	810.88
599.645	863.08
600.095	898.07
600.545	961.47
600.995	1018.57
601.445	1070.27
601.895	1134.27
602.345	1190.57
602.795	1164.18
603.245	1130.28
603.695	1061.67
604.145	1002.57
604.594	964.17
605.044	896.27
605.494	835.67
605.944	795.38
606.393	783.77
606.843	760.17
607.293	760.37
607.743	762.27
608.192	780.77
608.642	783.08
609.091	785.37
609.541	791.07
609.99	798.98
610.44	793.57
610.889	740.98
611.339	731.17
611.788	716.18
612.238	724.37
612.687	721.87
613.136	723.38
613.586	738.37
614.035	730.68
614.484	733.27
614.933	728.17
615.383	737.17
615.832	731.07
616.281	725.77
616.73	705.67
617.179	683.87
617.628	667.67
618.077	653.47
618.526	642.57
618.975	641.77
619.424	634.57
619.873	633.27
620.322	641.38
620.771	630.47
621.22	626.87
621.669	612.77
622.118	607.37
622.567	601.27
623.015	590.47
623.464	593.07
623.913	582.27
624.361	567.87
624.81	567.27
625.259	577.87
625.707	579.18
626.156	580.88
626.604	591.47
627.053	580.07
627.501	585.37
627.95	591.98
628.398	604.67
628.847	597.37
629.295	596.97
629.744	596.77
630.192	590.37
630.64	571.27
631.089	565.27
631.537	567.58
631.985	550.38
632.433	553.97
632.881	546.48
633.33	549.77
633.778	548.67
634.226	547.48
634.674	557.48
635.122	550.57
635.57	569.87
636.018	581.97
636.466	592.88
636.914	577.58
637.362	585.37
637.81	595.98
638.258	599.18
638.705	603.77
639.153	626.27
639.601	649.27
640.049	673.27
640.497	678.98
640.944	715.07
641.392	672.07
641.84	634.77
642.287	609.17
642.735	585.07
643.182	573.27
643.63	592.77
644.078	589.68
644.525	598.57
644.973	597.17
645.42	611.17
645.867	627.47
646.315	656.18
646.762	668.77
647.21	699.68
647.657	726.47
648.104	758.97
648.551	779.27
648.999	840.08
649.446	903.77
649.893	993.28
650.34	1144.38
650.787	1350.27
651.234	1654.57
651.682	2125.87
652.129	2880.27
652.576	4091.88
653.023	5970.68
653.47	8101.77
653.917	10064.88
654.363	11552.18
654.81	12748.08
655.257	12091.98
655.704	8000.38
656.151	4829.07
656.598	3181.38
657.044	2287.88
657.491	1767.28
657.938	1442.88
658.385	1201.08
658.831	1071.98
659.278	951.68
659.724	844.27
660.171	778.57
660.618	724.88
661.064	692.48
661.511	668.77
661.957	670.57
662.404	652.97
662.85	662.87
663.296	628.67
663.743	569.57
664.189	557.37
664.635	551.47
665.082	543.88
665.528	547.07
665.974	535.57
666.42	530.67
666.867	510.07
667.313	505.47
667.759	483.27
668.205	454.67
668.651	459.27
669.097	460.47
669.543	457.87
669.989	458.97
670.435	461.37
670.881	462.37
671.327	463.57
671.773	485.27
672.219	515.87
672.665	562.98
673.11	604.17
673.556	656.17
674.002	691.38
674.448	675.47
674.893	572.77
675.339	492.77
675.785	456.47
676.23	445.07
676.676	418.47
677.122	395.27
677.567	383.17
678.013	380.77
678.458	377.27
678.904	372.07
679.349	365.47
679.794	369.47
680.24	371.27
680.685	365.27
681.131	362.77
681.576	367.27
682.021	368.38
682.466	368.67
682.912	367.17
683.357	373.67
683.802	397.77
684.247	433.87
684.692	479.57
685.137	517.07
685.583	562.07
686.028	591.57
686.473	544.37
686.918	471.17
687.363	429.48
687.807	402.67
688.252	382.87
688.697	363.37
689.142	353.67
689.587	341.98
690.032	342.77
690.477	364.07
690.921	374.37
691.366	403.38
691.811	416.37
692.255	445.17
692.7	479.27
693.145	521.37
693.589	725.37
694.034	1181.97
694.478	1625.37
694.923	1822.28
695.367	2370.88
695.812	1250.17
696.256	514.57
696.701	385.87
697.145	354.17
697.59	340.07
698.034	340.87
698.478	340.18
698.922	334.48
699.367	329.67
699.811	344.77
700.255	360.57
700.699	394.88
701.143	438.37
701.588	493.57
702.032	533.67
702.476	532.77
702.92	511.98
703.364	516.57
703.808	675.07
704.252	1087.38
704.696	1525.67
705.14	1744.67
705.584	2248.47
706.027	1125.27
706.471	547.87
706.915	423.67
707.359	368.27
707.803	333.27
708.246	330.87
708.69	329.57
709.134	318.97
709.577	317.47
710.021	327.48
710.465	318.98
710.908	314.07
711.352	307.08
711.795	323.07
712.239	368.77
712.682	405.77
713.126	433.17
713.569	471.97
714.012	368.17
714.456	310.27
714.899	299.47
715.342	291.07
715.786	273.08
716.229	270.87
716.672	267.77
717.115	255.97
717.558	263.37
718.002	265.67
718.445	270.97
718.888	299.27
719.331	305.87
719.774	319.38
720.217	315.88
720.66	299.57
721.103	272.98
721.546	272.18
721.989	263.07
722.432	244.08
722.874	248.27
723.317	240.08
723.76	248.07
724.203	268.87
724.645	328.77
725.088	458.97
725.531	592.98
725.974	669.17
726.416	574.87
726.859	322.07
727.301	258.47
727.744	243.18
728.187	243.77
728.629	251.57
729.071	254.88
729.514	266.17
729.956	282.67
730.399	293.38
730.841	297.07
731.283	281.48
731.726	276.27
732.168	279.77
732.61	279.27
733.053	300.27
733.495	329.27
733.937	373.27
734.379	415.17
734.821	456.08
735.263	575.87
735.705	887.47
736.148	1666.47
736.59	2735.27
737.032	3228.47
737.474	2603.88
737.916	860.58
738.357	452.47
738.799	348.67
739.241	311.07
739.683	295.17
740.125	307.38
740.567	309.47
741.008	331.17
741.45	335.08
741.892	330.77
742.334	372.48
742.775	386.07
743.217	363.57
743.658	287.17
744.1	266.48
744.542	282.47
744.983	332.97
745.425	372.87
745.866	369.77
746.307	287.38
746.749	284.58
747.19	337.27
747.632	486.98
748.073	929.38
748.514	1965.37
748.956	3000.77
749.397	3753.18
749.838	3134.88
750.279	3097.97
750.72	1574.97
751.162	571.58
751.603	336.48
752.044	266.77
752.485	227.38
752.926	222.67
753.367	211.47
753.808	205.37
754.249	199.98
754.69	195.58
755.131	190.47
755.572	189.57
756.013	186.57
756.453	197.38
756.894	191.77
757.335	201.68
757.776	207.07
758.216	208.37
758.657	205.77
759.098	215.08
759.538	235.58
759.979	279.67
760.42	384.88
760.86	743.38
761.301	1950.17
761.741	4701.48
762.182	6711.27
762.622	4764.28
763.063	1382.38
763.503	565.37
763.943	336.27
764.384	279.48
764.824	256.77
765.264	235.47
765.705	221.48
766.145	195.38
766.585	182.47
767.025	174.07
767.465	167.27
767.906	186.07
768.346	194.77
768.786	207.57
769.226	230.17
769.666	327.97
770.106	655.97
770.546	1638.67
770.986	2780.38
771.426	2480.47
771.866	842.27
772.306	344.97
772.745	215.88
773.185	184.37
773.625	163.47
774.065	158.27
774.505	167.67
774.944	216.57
775.384	371.27
775.824	613.37
776.263	598.58
776.703	290.77
777.142	168.38
777.582	140.57
778.021	128.67
778.461	130.77
778.9	137.67
779.34	124.88
779.779	115.88
780.219	112.98
780.658	112.07
781.097	109.88
781.537	118.07
781.976	113.47
782.415	112.67
782.855	109.17
783.294	105.67
783.733	108.67
784.172	115.27
784.611	102.27
785.05	116.07
785.489	114.07
785.928	117.77
786.367	122.17
786.806	124.27
787.245	129.37
787.684	139.87
788.123	156.17
788.562	131.27
789.001	133.48
789.44	126.67
789.879	119.87
790.317	125.87
790.756	131.88
791.195	130.77
791.634	153.38
792.072	207.57
792.511	388.07
792.95	1044.88
793.388	2222.17
793.827	2009.07
794.265	700.97
794.704	302.38
795.142	192.48
795.581	160.67
796.019	139.27
796.458	132.88
796.896	124.67
797.334	138.67
797.773	159.47
798.211	231.07
798.649	464.67
799.087	1069.87
799.526	1684.97
799.964	2112.88
800.402	2105.28
800.84	801.57
801.278	319.58
801.716	200.27
802.154	160.37
802.592	155.77
803.03	143.88
803.468	141.38
803.906	146.47
804.344	155.07
804.782	152.17
805.22	132.47
805.658	133.67
806.096	159.77
806.533	164.57
806.971	181.47
807.409	232.47
807.847	339.27
808.284	705.48
808.722	1969.37
809.16	3473.47
809.597	3336.57
810.035	5720.18
810.472	6072.78
810.91	2213.97
811.347	841.98
811.785	425.48
812.222	269.47
812.66	211.87
813.097	171.77
813.535	148.77
813.972	131.88
814.409	131.07
814.846	110.38
815.284	111.87
815.721	105.97
816.158	103.98
816.595	111.98
817.032	156.07
817.47	185.27
817.907	137.97
818.344	109.27
818.781	106.88
819.218	101.38
819.655	129.38
820.092	199.07
820.529	232.27
820.966	180.88
821.403	134.67
821.839	106.07
822.276	106.97
822.713	133.27
823.15	146.17
823.587	121.77
824.023	153.97
824.46	314.57
824.897	932.77
825.333	1421.47
825.77	616.37
826.206	247.37
826.643	143.47
827.08	103.88
827.516	90.48
827.953	85.97
828.389	87.17
828.825	73.97
829.262	68.27
829.698	63.17
830.135	66.88
830.571	68.77
831.007	69.47
831.443	71.37
831.88	66.27
832.316	67.07
832.752	66.57
833.188	66.88
833.624	70.17
834.06	67.27
834.497	71.17
834.933	76.27
835.369	76.97
835.805	71.57
836.241	82.87
836.677	88.67
837.112	96.57
837.548	112.77
837.984	144.47
838.42	210.48
838.856	532.07
839.292	1595.77
839.727	2412.77
840.163	1133.78
840.599	980.48
841.034	2140.07
841.47	2220.97
841.906	822.18
842.341	343.38
842.777	207.37
843.212	214.57
843.648	204.47
844.083	114.87
844.519	86.67
844.954	77.27
845.39	62.17
845.825	54.67
846.261	56.98
846.696	55.87
847.131	57.38
847.566	60.57
848.002	52.27
848.437	57.88
848.872	63.47
849.307	63.27
849.742	92.38
850.177	193.67
850.613	582.27
851.048	914.87
851.483	405.07
851.918	160.37
852.353	88.77
852.788	57.37
853.223	57.17
853.657	48.97
854.092	52.97
854.527	42.37
854.962	41.37
855.397	50.17
855.832	54.47
856.266	46.27
856.701	40.38
857.136	40.27
857.57	42.67
858.005	50.48
858.44	63.47
858.874	47.88
859.309	55.17
859.743	43.77
860.178	50.57
860.612	43.67
861.047	47.47
861.481	72.27
861.915	77.67
862.35	52.57
862.784	36.37
863.218	36.37
863.653	35.07
864.087	46.07
864.521	57.07
864.955	71.38
865.39	161.87
865.824	188.77
866.258	124.77
866.692	185.17
867.126	194.87
867.56	114.97
867.994	56.07
868.428	42.17
868.862	45.17
869.296	55.38
869.73	65.07
870.164	56.87
870.598	51.17
871.031	41.97
871.465	32.47
871.899	30.98
872.333	36.67
872.766	28.67
873.2	23.17
873.634	34.57
874.067	30.87
874.501	24.47
874.935	35.87
875.368	30.87
875.802	28.27
876.235	29.17
876.669	24.77
877.102	22.67
877.535	24.67
877.969	21.67
878.402	25.67
878.836	21.17
879.269	22.77
879.702	21.77
880.135	20.07
880.569	27.97
881.002	29.88
881.435	20.07
881.868	16.57
882.301	19.77
882.734	14.17
883.167	25.38
883.601	15.77
884.034	20.07
884.467	18.48
884.899	22.57
885.332	17.07
885.765	17.77
886.198	19.57
886.631	18.77
887.064	24.97
887.497	20.57
887.929	22.87
888.362	12.67
888.795	15.07
889.228	19.87
889.66	23.47
890.093	19.67
890.526	19.07
890.958	19.27
891.391	20.48
891.823	21.38
892.256	19.97
892.688	16.77
893.121	15.88
893.553	13.97
893.985	26.17
894.418	16.17
894.85	10.17
895.282	16.27
895.715	18.27
896.147	19.57
896.579	25.77
897.011	13.07
897.444	15.17
897.876	14.27
898.308	18.37
898.74	17.98
899.172	10.57
899.604	23.88
900.036	22.47
900.468	14.57
900.9	19.37
901.332	20.47
901.764	17.27
902.196	21.07
902.628	21.87
903.06	19.57
903.491	34.07
903.923	20.37
904.355	26.48
904.787	27.07
905.218	25.67
905.65	23.27
906.082	18.27
906.513	11.37
906.945	15.37
907.376	10.37
907.808	24.97
908.239	22.57
908.671	20.38
909.102	20.88
909.534	21.48
909.965	47.77
910.397	96.77
910.828	338.57
911.259	495.87
911.691	229.57
912.122	110.98
912.553	57.07
912.984	37.57
913.415	26.48
913.847	25.37
914.278	15.27
914.709	15.67
915.14	20.98
915.571	19.07
916.002	5.47
916.433	22.88
916.864	16.67
917.295	10.97
917.726	24.17
918.157	19.47
918.587	33.27
919.018	16.98
919.449	22.17
919.88	20.57
920.311	30.38
920.741	49.67
921.172	168.77
921.603	153.37
922.033	72.57
922.464	47.98
922.895	20.67
923.325	20.97
923.756	11.87
924.186	14.17
924.617	20.38
925.047	16.97
925.478	30.47
925.908	24.97
926.338	13.77
926.769	14.48
927.199	16.17
927.629	7.17
928.06	17.27
928.49	9.57
928.92	13.37
929.35	14.77
929.78	9.47
930.21	6.27
930.641	7.27
931.071	11.07
931.501	2.77
931.931	9.27
932.361	6.97
932.791	6.77
933.221	6.67
933.651	8.98
934.08	20.47
934.51	28.17
934.94	11.38
935.37	11.38
935.8	11.67
936.229	11.17
936.659	4.97
937.089	5.97
937.519	15.67
937.948	30.17
938.378	9.97
938.807	1.27
939.237	2.98
939.666	13.07
940.096	-3.73
940.525	11.77
940.955	2.77
941.384	4.07
941.814	-6.53
942.243	-0.43
942.672	5.57
943.102	-3.02
943.531	1.88
943.96	10.97
944.39	5.57
944.819	2.47
945.248	5.17
945.677	3.67
946.106	3.97
946.535	7.67
946.964	-4.63
947.393	1.57
947.822	4.27
948.251	-5.43
948.68	4.88
949.109	11.37
949.538	2.77
949.967	1.87
950.396	0.37
950.825	-1.23
951.254	2.48
951.682	-6.83
952.111	-0.33
952.54	10.27
952.969	-1.13
953.397	0.87
953.826	-5.73
954.254	-13.23
954.683	5.67
955.112	-3.12
955.54	-0.12
955.969	5.07
956.397	-2.03
956.826	-2.62
957.254	-0.23
957.682	1.37
958.111	9.67
958.539	-0.73
958.967	2.67
959.396	-1.83
959.824	-2.23
960.252	4.37
960.68	-4.13
961.109	-2.93
961.537	-7.83
961.965	-0.83
962.393	0.27
962.821	-3.12
963.249	-0.73
963.677	9.47
964.105	3.47
964.533	42.57
964.961	39.97
965.389	20.67
965.817	12.67
966.245	2.87
966.672	3.48
967.1	-3.12
967.528	2.27
967.956	-2.33
968.383	0.87
968.811	-2.23
969.239	-4.63
969.666	-10.73
970.094	-2.53
970.522	2.07
970.949	2.37
971.377	-2.12
971.804	-1.03
972.232	-6.43
972.659	2.07
973.087	-0.93
973.514	-9.43
973.941	-6.63
974.369	7.77
974.796	1.48
975.223	-1.03
975.651	-2.23
976.078	-1.53
976.505	2.27
976.932	5.77
977.359	12.27
977.786	12.97
978.214	-0.03
978.641	-2.33
979.068	-2.93
979.495	-2.83
979.922	0.87
980.349	-2.53
980.776	4.37
981.202	-1.33
981.629	8.47
982.056	5.57
982.483	1.97
982.91	0.27
983.337	-2.33
983.763	1.47
984.19	-2.43
984.617	-4.33
985.043	-3.43
985.47	2.57
985.897	-6.03
986.323	-7.33
986.75	1.98
987.176	-5.43
987.603	3.37
988.029	-0.93
988.456	-9.63
988.882	4.27
989.308	-6.53
989.735	-3.43
990.161	2.97
990.587	-6.63
991.014	1.67
991.44	8.17
991.866	-4.73
992.292	-2.52
992.719	-2.23
993.145	1.07
993.571	-3.12
993.997	-7.13
994.423	-0.13
994.849	-1.83
995.275	-1.33
995.701	4.37
996.127	-5.83
996.553	4.07
996.979	1.17
997.405	3.48
997.83	-3.23
998.256	-4.23
998.682	-1.73
999.108	-3.83
999.534	2.37
999.959	3.47
1000.385	-5.23
1000.811	-2.63
1001.236	-2.73
1001.662	0.67
1002.087	-9.73
1002.513	-1.53
1002.938	2.88
1003.364	0.88
1003.789	-0.23
1004.215	0.57
1004.64	-1.03
1005.066	-0.73
1005.491	-6.02
1005.916	-0.13
1006.342	0.77
1006.767	-6.33
1007.192	4.27
1007.617	-6.83
1008.042	-2.62
1008.468	-2.63
1008.893	-3.62
1009.318	-1.43
1009.743	2.27
1010.168	4.17
1010.593	1.27
1011.018	-1.62
1011.443	-1.43
1011.868	2.27
1012.293	-4.62
1012.718	-7.23
1013.143	-4.53
1013.567	-2.43
1013.992	-4.23
1014.417	-10.83
1014.842	4.17
1015.267	1.97
1015.691	-10.43
1016.116	6.57
1016.541	3.97
1016.965	6.97
1017.39	0.17
1017.814	-3.12
1018.239	-1.93
1018.663	-8.93
1019.088	-11.03
1019.512	-0.43
1019.937	1.77
1020.361	-6.13
1020.785	-13.53
1021.21	-1.73
1021.634	-3.03
1022.058	1.17
1022.483	3.87
1022.907	-1.83
1023.331	-1.93
1023.755	-5.63
1024.179	1.37
1024.604	-6.53
1025.028	-1.03
1025.452	-1.13
1025.876	0.67
1026.3	7.37
1026.724	-11.03
1027.148	-2.93
1027.572	-4.73
1027.996	-3.63
1028.42	-5.73
1028.843	-5.43
1029.267	-2.53
1029.691	-2.93
1030.115	-8.63
1030.539	-9.53
1030.962	-9.73
1031.386	-5.43
1031.81	-3.12
1032.233	6.77
1032.657	-0.23
1033.08	-2.63
1033.504	-4.23
1033.927	-7.33
1034.351	4.07
1034.774	-4.13
1035.198	-4.53
1035.621	-6.62
1036.045	-8.43
1036.468	1.37
1036.891	-10.33
1037.315	-10.73
1037.738	-7.53
1038.161	-3.33
1038.584	-2.43
1039.008	-6.83
1039.431	-4.43
1039.854	-4.53
1040.277	-8.62
1040.7	-5.73
1041.123	0.87
1041.546	-9.43
1041.969	-2.93
1042.392	-5.73
1042.815	3.47
1043.238	2.97
1043.661	-1.63
1044.084	-4.93
1044.507	-3.23
1044.93	0.17
1045.352	-2.33
1045.775	0.27
1046.198	-6.62
1046.621	-0.02
1047.043	0.27
1047.466	1.88
1047.889	-3.03
1048.311	-4.03
1048.734	1.57
1049.156	-0.73
1049.579	0.87
1050.001	-4.12
1050.424	1.07
1050.846	-4.53
1051.269	3.38
1051.691	-5.23
1052.113	-4.23
1052.536	-8.12
1052.958	-0.63
1053.38	-0.53
1053.802	-10.63
1054.225	1.77
1054.647	-3.63
1055.069	-6.63
1055.491	3.38
1055.913	-11.33
1056.335	0.07
1056.757	-0.43
1057.179	-7.93
1057.601	-8.53
1058.023	-8.83
1058.445	-4.23
1058.867	-10.13
1059.289	-3.93
1059.711	-5.33
1060.133	0.67
1060.555	-0.93
1060.976	-7.63
1061.398	-4.03
1061.82	-4.53
1062.241	-5.33
1062.663	-4.03
1063.085	-0.23
1063.506	-0.62
1063.928	-2.63
1064.35	-1.43
1064.771	-15.43
1065.193	-3.73
1065.614	-7.13
1066.035	-2.43
1066.457	-2.43
1066.878	-0.03
1067.3	-1.83
1067.721	0.37
1068.142	-4.63
1068.564	-3.93
1068.985	-9.73
1069.406	-6.73
1069.827	-8.23
1070.248	-2.33
1070.67	-7.33
1071.091	-7.83
1071.512	-2.23
1071.933	-0.93
1072.354	-8.73
1072.775	-1.43
1073.196	-4.62
1073.617	-2.63
1074.038	-5.12
1074.459	-0.02
1074.88	-8.23
1075.3	-1.03
1075.721	-5.93
1076.142	-3.52
1076.563	-0.03
1076.983	-7.83
1077.404	-2.23
1077.825	-6.33
1078.246	-5.53
1078.666	-16.63
1079.087	-10.93
1079.507	-7.73
1079.928	3.37
1080.348	0.67
1080.769	-0.03
1081.189	-1.33
1081.61	-2.73
1082.03	0.17
1082.451	-6.43
1082.871	-2.23
1083.291	-10.23
1083.711	-4.83
1084.132	-7.12
1084.552	-5.23
1084.972	-4.12
1085.392	-11.33
1085.813	-10.63
1086.233	-6.53
1086.653	-4.43
1087.073	-5.03
1087.493	-11.83
1087.913	-7.03
1088.333	-8.63
1088.753	-6.63
1089.173	3.37
1089.593	-2.23
1090.013	2.37
1090.433	2.87
1090.852	-2.33
1091.272	-3.93
1091.692	-0.13
1092.112	-1.43
1092.531	-9.03
1092.951	-15.23
1093.371	-3.03
1093.79	0.67
1094.21	-8.53
1094.63	-3.93
1095.049	-3.73
1095.469	-4.43
1095.888	-3.83
1096.308	5.17
1096.727	-2.03
1097.146	-7.62
1097.566	-2.23
1097.985	-8.33
1098.405	-4.93
1098.824	-7.33
1099.243	-5.73
1099.662	-9.13
1100.082	-1.23
1100.501	-0.43
1100.92	-6.33
1101.339	-0.93
1101.758	-9.12
