Data from 20171114-ORNL-Ar_H_NY_Subt18_08-09-25-598.txt Node
Date: Tue Nov 14 08:09:25 EST 2017
User: Ender
Spectrometer: HR+D1039
Trigger mode: 0
Integration Time (sec): 2.730000E-2
Scans to average: 10
Electric dark correction enabled: true
Nonlinearity correction enabled: false
Boxcar width: 0
XAxis mode: Wavelengths
Number of Pixels in Spectrum: 2048
>>>>>Begin Spectral Data<<<<<
187.836	-4.04
188.309	-4.04
188.782	-4.04
189.255	4.16
189.728	0.06
190.201	2.76
190.674	4.76
191.147	1.36
191.619	-2.94
192.092	1.06
192.565	-2.64
193.038	1.06
193.511	-1.14
193.984	1.76
194.456	-3.64
194.929	-0.44
195.402	0.66
195.874	-2.74
196.347	-2.44
196.82	-13.64
197.292	1.76
197.765	0.56
198.237	-7.54
198.71	-1.94
199.182	-3.34
199.655	-2.04
200.127	5.16
200.6	0.56
201.072	-3.24
201.544	-2.74
202.017	-5.14
202.489	3.96
202.961	-2.34
203.433	-0.54
203.906	-8.04
204.378	-7.44
204.85	-1.44
205.322	-13.54
205.794	-3.14
206.266	-3.04
206.739	-10.44
207.211	1.16
207.683	-7.34
208.155	-9.94
208.627	-5.74
209.099	-5.14
209.57	-6.54
210.042	-7.44
210.514	-4.74
210.986	-4.34
211.458	-12.94
211.93	-4.54
212.402	1.96
212.873	-2.04
213.345	-10.94
213.817	-8.44
214.288	-3.24
214.76	-14.94
215.232	-2.04
215.703	-3.14
216.175	-1.84
216.646	-5.14
217.118	-3.24
217.589	-2.04
218.061	-4.44
218.532	-4.04
219.004	-3.84
219.475	-3.74
219.946	-5.44
220.418	-3.84
220.889	2.06
221.36	-4.44
221.832	-5.64
222.303	-10.64
222.774	0.56
223.245	-5.14
223.717	-4.74
224.188	-4.14
224.659	-7.94
225.13	-2.04
225.601	-4.94
226.072	-0.84
226.543	-1.24
227.014	-0.14
227.485	-3.54
227.956	-6.44
228.427	-0.84
228.898	-2.84
229.369	1.26
229.839	-6.84
230.31	-11.84
230.781	1.16
231.252	-4.04
231.722	-11.74
232.193	-8.84
232.664	-6.54
233.135	-3.74
233.605	3.16
234.076	-9.84
234.546	-3.44
235.017	-0.24
235.487	-1.94
235.958	0.86
236.428	-7.24
236.899	-4.94
237.369	0.46
237.84	-10.64
238.31	0.06
238.78	-0.44
239.251	-6.64
239.721	-7.04
240.191	-2.94
240.662	-5.04
241.132	-3.24
241.602	-4.24
242.072	-5.24
242.542	5.46
243.013	-6.44
243.483	4.76
243.953	1.56
244.423	-1.84
244.893	-9.84
245.363	-2.44
245.833	-1.94
246.303	-8.64
246.773	2.26
247.243	-1.04
247.712	-2.54
248.182	2.86
248.652	4.56
249.122	-12.84
249.592	3.46
250.061	4.66
250.531	4.96
251.001	-0.04
251.471	3.46
251.94	1.16
252.41	-3.64
252.879	-4.84
253.349	12.46
253.818	3.76
254.288	-2.04
254.757	-2.04
255.227	-8.24
255.696	-3.14
256.166	-0.54
256.635	-2.44
257.105	1.96
257.574	-3.24
258.043	-1.64
258.513	-6.34
258.982	-1.34
259.451	-2.44
259.92	-2.74
260.389	-5.84
260.859	9.06
261.328	2.16
261.797	7.26
262.266	-3.44
262.735	8.16
263.204	3.06
263.673	-10.74
264.142	-2.84
264.611	-14.24
265.08	-5.54
265.549	-4.24
266.018	1.26
266.487	-1.74
266.955	-5.14
267.424	-1.64
267.893	-1.34
268.362	0.96
268.83	5.96
269.299	4.86
269.768	5.96
270.236	-1.64
270.705	4.16
271.174	3.16
271.642	-7.84
272.111	3.36
272.579	1.86
273.048	-1.74
273.516	-1.84
273.985	5.76
274.453	5.96
274.922	10.26
275.39	1.96
275.858	-9.44
276.327	4.56
276.795	8.56
277.263	0.56
277.731	10.56
278.2	3.26
278.668	3.76
279.136	9.26
279.604	3.86
280.072	5.76
280.54	3.56
281.008	1.86
281.477	8.56
281.945	2.56
282.413	7.56
282.881	7.16
283.348	3.36
283.816	5.86
284.284	5.46
284.752	12.56
285.22	8.66
285.688	5.86
286.156	2.56
286.623	18.56
287.091	4.56
287.559	7.46
288.026	4.96
288.494	2.56
288.962	-6.04
289.429	2.56
289.897	10.26
290.364	5.36
290.832	13.86
291.3	8.16
291.767	9.06
292.234	13.86
292.702	3.86
293.169	6.36
293.637	8.86
294.104	7.26
294.571	0.76
295.039	3.46
295.506	9.66
295.973	10.16
296.44	5.36
296.908	10.06
297.375	13.46
297.842	14.56
298.309	10.16
298.776	5.06
299.243	12.76
299.71	1.16
300.177	17.16
300.644	10.16
301.111	6.66
301.578	14.36
302.045	2.76
302.512	11.76
302.979	13.26
303.446	14.86
303.913	12.46
304.379	8.96
304.846	17.26
305.313	15.16
305.78	14.66
306.246	22.16
306.713	13.16
307.18	12.96
307.646	16.46
308.113	16.46
308.579	10.06
309.046	15.86
309.512	15.96
309.979	9.86
310.445	17.86
310.912	21.96
311.378	24.16
311.845	21.06
312.311	22.26
312.777	20.46
313.244	23.66
313.71	23.06
314.176	24.76
314.642	18.46
315.109	22.16
315.575	20.76
316.041	23.66
316.507	16.86
316.973	20.66
317.439	21.86
317.905	25.36
318.371	23.76
318.837	22.36
319.303	23.96
319.769	25.26
320.235	26.36
320.701	25.86
321.167	26.46
321.633	25.46
322.099	23.36
322.564	27.06
323.03	28.16
323.496	18.56
323.962	30.96
324.427	24.76
324.893	39.46
325.359	33.56
325.824	27.46
326.29	21.96
326.755	29.16
327.221	29.06
327.686	25.36
328.152	35.36
328.617	26.96
329.083	31.96
329.548	41.26
330.014	35.16
330.479	23.56
330.944	28.86
331.41	26.06
331.875	34.86
332.34	31.96
332.805	27.66
333.271	37.36
333.736	29.96
334.201	38.06
334.666	30.66
335.131	36.26
335.596	40.46
336.061	39.86
336.526	26.86
336.991	33.46
337.456	42.96
337.921	36.06
338.386	31.46
338.851	28.76
339.316	36.66
339.781	38.66
340.246	36.46
340.711	38.16
341.175	40.36
341.64	30.26
342.105	42.36
342.569	42.16
343.034	44.96
343.499	44.06
343.963	38.86
344.428	53.76
344.893	48.06
345.357	47.86
345.822	43.76
346.286	53.46
346.751	58.06
347.215	46.66
347.679	51.86
348.144	72.86
348.608	65.06
349.073	58.36
349.537	61.06
350.001	60.76
350.465	69.86
350.93	66.26
351.394	63.36
351.858	55.66
352.322	67.96
352.786	67.26
353.25	71.16
353.715	79.66
354.179	76.16
354.643	92.76
355.107	90.46
355.571	85.36
356.035	73.06
356.498	89.46
356.962	84.16
357.426	97.66
357.89	89.56
358.354	74.96
358.818	65.06
359.281	59.76
359.745	65.06
360.209	61.56
360.673	62.26
361.136	69.96
361.6	70.16
362.064	64.66
362.527	64.16
362.991	74.16
363.454	65.56
363.918	57.26
364.381	66.06
364.845	70.76
365.308	74.26
365.772	68.46
366.235	70.66
366.698	69.16
367.162	68.96
367.625	72.86
368.088	71.76
368.552	67.66
369.015	70.56
369.478	75.36
369.941	84.56
370.404	71.66
370.867	81.86
371.331	87.76
371.794	89.86
372.257	78.26
372.72	87.16
373.183	86.46
373.646	84.96
374.109	79.96
374.572	85.46
375.035	85.36
375.497	93.66
375.96	91.56
376.423	78.06
376.886	95.76
377.349	90.36
377.811	82.96
378.274	89.06
378.737	85.66
379.199	94.16
379.662	90.16
380.125	89.76
380.587	90.96
381.05	93.66
381.512	99.56
381.975	107.26
382.437	104.56
382.9	100.26
383.362	112.16
383.825	118.66
384.287	114.16
384.75	106.76
385.212	107.76
385.674	120.36
386.136	113.36
386.599	102.56
387.061	108.06
387.523	109.26
387.985	113.56
388.447	118.56
388.91	117.06
389.372	117.26
389.834	115.46
390.296	115.96
390.758	114.86
391.22	116.36
391.682	130.86
392.144	147.06
392.606	132.56
393.068	127.86
393.529	134.96
393.991	120.96
394.453	123.76
394.915	118.16
395.377	116.16
395.838	131.66
396.3	129.86
396.762	129.26
397.224	123.86
397.685	120.86
398.147	121.66
398.608	122.76
399.07	118.76
399.531	127.06
399.993	127.76
400.454	140.76
400.916	136.36
401.377	131.06
401.839	146.66
402.3	143.76
402.762	157.36
403.223	166.36
403.684	154.06
404.145	152.66
404.607	143.16
405.068	149.46
405.529	154.96
405.99	166.76
406.451	164.46
406.913	162.56
407.374	153.66
407.835	149.76
408.296	151.06
408.757	153.36
409.218	168.86
409.679	166.26
410.14	163.76
410.601	162.56
411.062	174.46
411.522	168.96
411.983	165.66
412.444	164.26
412.905	174.26
413.366	173.96
413.826	188.96
414.287	208.56
414.748	252.16
415.208	234.56
415.669	204.06
416.13	201.46
416.59	200.96
417.051	206.56
417.511	214.06
417.972	237.06
418.432	251.66
418.893	284.46
419.353	248.56
419.814	199.76
420.274	177.56
420.734	174.46
421.195	183.56
421.655	183.06
422.115	185.36
422.576	190.66
423.036	198.96
423.496	208.76
423.956	211.76
424.416	227.16
424.876	255.36
425.336	256.36
425.797	256.46
426.257	244.46
426.717	229.96
427.177	226.66
427.637	217.76
428.097	229.76
428.556	233.96
429.016	258.06
429.476	247.36
429.936	263.06
430.396	263.16
430.856	275.66
431.315	295.56
431.775	321.96
432.235	351.46
432.694	337.46
433.154	343.46
433.614	361.06
434.073	312.66
434.533	273.16
434.993	258.36
435.452	261.96
435.912	275.56
436.371	263.06
436.83	271.56
437.29	251.36
437.749	239.26
438.209	239.16
438.668	258.26
439.127	272.96
439.587	250.06
440.046	239.96
440.505	250.86
440.964	267.96
441.424	305.36
441.883	291.16
442.342	254.56
442.801	222.56
443.26	225.36
443.719	223.16
444.178	223.26
444.637	213.46
445.096	223.56
445.555	219.96
446.014	229.86
446.473	228.36
446.932	229.86
447.391	225.96
447.849	231.16
448.308	215.96
448.767	221.56
449.226	234.96
449.685	239.56
450.143	246.46
450.602	239.66
451.061	226.56
451.519	231.56
451.978	234.26
452.436	241.16
452.895	234.76
453.353	251.46
453.812	243.16
454.27	242.16
454.729	240.26
455.187	245.36
455.646	246.96
456.104	238.06
456.562	262.56
457.021	269.16
457.479	260.66
457.937	266.36
458.395	266.36
458.854	243.96
459.312	249.16
459.77	276.76
460.228	256.86
460.686	244.86
461.144	247.26
461.602	249.06
462.06	249.06
462.518	260.36
462.976	255.36
463.434	258.76
463.892	266.66
464.35	271.96
464.808	286.36
465.266	260.56
465.724	274.76
466.181	274.96
466.639	267.66
467.097	297.56
467.555	304.06
468.012	310.26
468.47	313.26
468.928	321.56
469.385	343.16
469.843	341.96
470.3	342.76
470.758	362.96
471.215	377.66
471.673	405.66
472.13	404.26
472.588	412.36
473.045	375.76
473.503	377.56
473.96	398.76
474.417	412.46
474.875	431.56
475.332	474.86
475.789	466.06
476.246	469.86
476.704	483.96
477.161	496.86
477.618	519.56
478.075	548.46
478.532	605.86
478.989	674.86
479.446	767.96
479.903	739.46
480.36	775.26
480.817	817.86
481.274	915.16
481.731	992.76
482.188	1065.66
482.645	1183.56
483.102	1271.96
483.558	1393.66
484.015	1439.76
484.472	1409.46
484.929	1368.66
485.385	1316.96
485.842	1285.06
486.299	1247.36
486.755	1211.26
487.212	1031.86
487.668	880.06
488.125	816.16
488.582	755.16
489.038	736.36
489.494	696.76
489.951	669.86
490.407	665.66
490.864	640.36
491.32	630.76
491.776	636.86
492.233	639.36
492.689	619.66
493.145	602.76
493.602	606.06
494.058	613.66
494.514	613.96
494.97	631.76
495.426	640.76
495.882	612.76
496.338	622.36
496.794	621.26
497.251	611.06
497.707	628.66
498.163	626.26
498.618	633.86
499.074	636.36
499.53	667.16
499.986	659.66
500.442	647.66
500.898	629.66
501.354	609.66
501.809	617.86
502.265	625.66
502.721	627.96
503.177	638.56
503.632	643.86
504.088	659.76
504.543	666.76
504.999	686.66
505.455	658.46
505.91	637.46
506.366	639.96
506.821	643.26
507.277	640.76
507.732	641.86
508.187	635.96
508.643	645.76
509.098	644.96
509.553	664.36
510.009	682.06
510.464	686.96
510.919	704.16
511.375	711.26
511.83	720.36
512.285	727.06
512.74	762.96
513.195	782.66
513.65	776.96
514.105	770.16
514.56	773.86
515.015	795.76
515.47	800.46
515.925	770.56
516.38	786.46
516.835	812.96
517.29	788.66
517.745	788.76
518.2	788.06
518.655	762.06
519.109	754.26
519.564	741.56
520.019	741.56
520.474	730.46
520.928	732.06
521.383	723.76
521.838	714.66
522.292	710.66
522.747	724.16
523.201	713.36
523.656	707.66
524.11	708.26
524.565	706.16
525.019	703.26
525.474	707.46
525.928	692.46
526.382	700.16
526.837	705.66
527.291	712.06
527.745	704.26
528.2	711.46
528.654	696.66
529.108	696.66
529.562	697.96
530.016	697.26
530.47	693.56
530.925	697.16
531.379	701.26
531.833	706.16
532.287	714.56
532.741	706.86
533.195	699.16
533.649	715.26
534.103	726.86
534.556	705.76
535.01	723.76
535.464	711.96
535.918	726.16
536.372	721.16
536.826	725.46
537.279	704.36
537.733	716.96
538.187	721.16
538.64	725.86
539.094	739.66
539.548	741.56
540.001	745.36
540.455	741.96
540.908	742.66
541.362	751.26
541.815	753.56
542.269	775.66
542.722	759.86
543.175	776.86
543.629	786.56
544.082	798.06
544.536	798.76
544.989	808.16
545.442	808.76
545.895	799.66
546.349	813.86
546.802	815.76
547.255	817.16
547.708	816.76
548.161	837.36
548.614	838.96
549.067	838.36
549.52	837.06
549.973	829.86
550.426	824.66
550.879	805.56
551.332	815.36
551.785	815.26
552.238	830.16
552.691	827.76
553.144	848.76
553.596	867.16
554.049	883.96
554.502	925.66
554.955	927.26
555.407	928.56
555.86	919.96
556.313	913.26
556.765	902.26
557.218	898.66
557.67	905.66
558.123	891.86
558.576	887.56
559.028	897.46
559.48	908.46
559.933	895.16
560.385	872.96
560.838	831.06
561.29	807.66
561.742	806.76
562.195	794.56
562.647	788.76
563.099	808.26
563.551	795.36
564.004	803.16
564.456	786.56
564.908	772.16
565.36	749.96
565.812	745.76
566.264	736.56
566.716	735.16
567.168	723.26
567.62	734.16
568.072	715.76
568.524	710.76
568.976	698.76
569.428	693.66
569.88	707.86
570.332	697.46
570.784	710.86
571.235	703.36
571.687	718.26
572.139	722.26
572.59	729.36
573.042	731.86
573.494	735.26
573.945	721.46
574.397	703.36
574.849	715.66
575.3	711.16
575.752	695.36
576.203	691.06
576.655	699.16
577.106	684.56
577.557	685.96
578.009	690.46
578.46	684.66
578.912	681.76
579.363	692.36
579.814	687.76
580.265	683.06
580.717	682.76
581.168	678.76
581.619	689.66
582.07	698.56
582.521	692.16
582.972	681.96
583.423	691.16
583.875	688.66
584.326	710.26
584.777	717.86
585.227	732.86
585.678	756.16
586.129	765.56
586.58	797.66
587.031	813.66
587.482	843.06
587.933	883.66
588.384	862.96
588.834	808.36
589.285	803.46
589.736	789.86
590.186	790.66
590.637	786.46
591.088	756.56
591.538	765.76
591.989	748.86
592.439	746.06
592.89	748.06
593.34	733.66
593.791	731.56
594.241	714.26
594.692	714.86
595.142	722.56
595.593	717.96
596.043	715.26
596.493	733.56
596.943	731.66
597.394	755.16
597.844	731.16
598.294	759.26
598.744	782.76
599.195	804.06
599.645	848.66
600.095	889.76
600.545	956.16
600.995	997.16
601.445	1059.56
601.895	1120.76
602.345	1171.86
602.795	1158.26
603.245	1109.16
603.695	1043.16
604.145	985.46
604.594	948.16
605.044	884.96
605.494	822.66
605.944	780.76
606.393	767.06
606.843	745.16
607.293	758.16
607.743	750.46
608.192	760.06
608.642	770.86
609.091	782.36
609.541	787.36
609.99	788.56
610.44	772.56
610.889	735.76
611.339	715.06
611.788	703.96
612.238	717.56
612.687	721.76
613.136	721.76
613.586	726.26
614.035	723.76
614.484	737.96
614.933	725.16
615.383	727.16
615.832	727.86
616.281	721.86
616.73	694.96
617.179	676.66
617.628	663.66
618.077	650.36
618.526	635.26
618.975	629.36
619.424	630.96
619.873	630.26
620.322	641.66
620.771	632.06
621.22	616.26
621.669	612.96
622.118	613.46
622.567	591.06
623.015	590.46
623.464	586.16
623.913	577.36
624.361	573.36
624.81	579.26
625.259	573.36
625.707	569.46
626.156	574.16
626.604	586.56
627.053	581.36
627.501	584.66
627.95	582.36
628.398	599.36
628.847	587.56
629.295	586.96
629.744	592.26
630.192	593.06
630.64	580.46
631.089	557.96
631.537	561.36
631.985	546.76
632.433	556.06
632.881	539.96
633.33	546.76
633.778	543.66
634.226	552.26
634.674	559.96
635.122	555.56
635.57	570.36
636.018	582.16
636.466	573.26
636.914	571.46
637.362	599.66
637.81	588.26
638.258	602.56
638.705	606.96
639.153	625.66
639.601	639.16
640.049	667.56
640.497	702.56
640.944	715.76
641.392	660.86
641.84	630.46
642.287	597.26
642.735	589.36
643.182	579.56
643.63	577.06
644.078	577.66
644.525	584.16
644.973	595.86
645.42	602.66
645.867	627.86
646.315	653.36
646.762	674.46
647.21	696.46
647.657	724.46
648.104	751.96
648.551	765.46
648.999	833.26
649.446	908.16
649.893	995.56
650.34	1135.76
650.787	1352.86
651.234	1665.16
651.682	2149.06
652.129	2951.16
652.576	4212.06
653.023	6120.56
653.47	8257.26
653.917	10128.16
654.363	11582.26
654.81	12701.16
655.257	12056.96
655.704	7950.76
656.151	4793.66
656.598	3164.76
657.044	2259.06
657.491	1760.46
657.938	1432.56
658.385	1202.56
658.831	1052.16
659.278	939.56
659.724	852.06
660.171	788.36
660.618	713.86
661.064	694.66
661.511	673.66
661.957	657.16
662.404	646.56
662.85	659.26
663.296	627.86
663.743	578.26
664.189	549.16
664.635	549.36
665.082	548.16
665.528	547.86
665.974	534.36
666.42	528.76
666.867	529.36
667.313	508.56
667.759	488.16
668.205	479.86
668.651	468.36
669.097	456.56
669.543	456.76
669.989	458.26
670.435	469.96
670.881	460.76
671.327	477.06
671.773	487.46
672.219	520.16
672.665	575.06
673.11	617.16
673.556	660.86
674.002	693.96
674.448	686.16
674.893	574.56
675.339	493.76
675.785	461.16
676.23	434.06
676.676	408.86
677.122	396.36
677.567	385.06
678.013	378.46
678.458	377.96
678.904	376.46
679.349	353.36
679.794	364.86
680.24	367.66
680.685	359.26
681.131	361.66
681.576	365.26
682.021	370.46
682.466	366.26
682.912	365.96
683.357	370.66
683.802	397.96
684.247	433.96
684.692	478.56
685.137	519.86
685.583	558.76
686.028	585.06
686.473	542.56
686.918	467.56
687.363	442.06
687.807	415.86
688.252	389.96
688.697	369.96
689.142	351.96
689.587	347.66
690.032	341.16
690.477	360.46
690.921	373.96
691.366	399.76
691.811	419.06
692.255	445.56
692.7	481.16
693.145	541.96
693.589	764.06
694.034	1230.86
694.478	1650.56
694.923	1812.66
695.367	2335.96
695.812	1261.26
696.256	519.36
696.701	389.06
697.145	355.96
697.59	331.56
698.034	327.26
698.478	338.36
698.922	333.96
699.367	337.06
699.811	350.56
700.255	366.16
700.699	408.76
701.143	440.86
701.588	501.36
702.032	534.66
702.476	538.96
702.92	522.66
703.364	525.36
703.808	694.46
704.252	1126.46
704.696	1585.16
705.14	1757.76
705.584	2225.36
706.027	1124.36
706.471	557.16
706.915	423.56
707.359	372.76
707.803	341.86
708.246	325.96
708.69	328.26
709.134	330.96
709.577	326.66
710.021	330.76
710.465	319.26
710.908	308.96
711.352	313.06
711.795	330.76
712.239	371.66
712.682	411.36
713.126	433.06
713.569	473.96
714.012	377.96
714.456	322.26
714.899	300.96
715.342	287.06
715.786	273.46
716.229	267.36
716.672	265.36
717.115	261.46
717.558	261.16
718.002	259.66
718.445	270.96
718.888	296.96
719.331	313.66
719.774	327.76
720.217	321.76
720.66	292.06
721.103	281.06
721.546	271.16
721.989	264.16
722.432	241.96
722.874	247.26
723.317	244.86
723.76	248.26
724.203	271.06
724.645	348.06
725.088	471.76
725.531	602.16
725.974	661.96
726.416	571.46
726.859	325.46
727.301	258.06
727.744	250.46
728.187	244.36
728.629	261.36
729.071	254.06
729.514	286.26
729.956	284.06
730.399	303.06
730.841	303.36
731.283	287.26
731.726	275.56
732.168	278.46
732.61	285.36
733.053	307.06
733.495	333.26
733.937	378.26
734.379	427.66
734.821	469.86
735.263	584.56
735.705	935.46
736.148	1757.46
736.59	2803.66
737.032	3196.36
737.474	2615.46
737.916	876.06
738.357	462.86
738.799	356.16
739.241	309.16
739.683	300.66
740.125	314.36
740.567	322.36
741.008	330.66
741.45	333.06
741.892	337.56
742.334	372.96
742.775	387.96
743.217	369.16
743.658	295.26
744.1	272.86
744.542	285.06
744.983	342.26
745.425	363.86
745.866	367.56
746.307	294.76
746.749	295.26
747.19	352.26
747.632	510.46
748.073	1002.36
748.514	2055.96
748.956	3049.46
749.397	3857.46
749.838	3200.46
750.279	3080.86
750.72	1591.66
751.162	592.56
751.603	344.16
752.044	264.16
752.485	223.96
752.926	231.46
753.367	217.86
753.808	207.76
754.249	205.36
754.69	200.96
755.131	192.06
755.572	189.86
756.013	191.56
756.453	193.56
756.894	198.76
757.335	198.56
757.776	202.26
758.216	213.36
758.657	207.56
759.098	216.46
759.538	243.76
759.979	286.86
760.42	413.16
760.86	799.56
761.301	2113.06
761.741	4895.06
762.182	6719.86
762.622	4732.46
763.063	1407.96
763.503	578.26
763.943	350.66
764.384	293.46
764.824	259.26
765.264	247.26
765.705	216.56
766.145	192.96
766.585	183.06
767.025	179.96
767.465	177.86
767.906	189.56
768.346	205.06
768.786	221.96
769.226	236.06
769.666	332.76
770.106	694.66
770.546	1744.96
770.986	2794.16
771.426	2455.66
771.866	843.96
772.306	347.86
772.745	217.96
773.185	170.76
773.625	162.46
774.065	155.06
774.505	172.16
774.944	219.76
775.384	394.46
775.824	632.76
776.263	590.16
776.703	296.46
777.142	167.76
777.582	137.96
778.021	125.06
778.461	130.06
778.9	131.16
779.34	130.56
779.779	120.06
780.219	110.36
780.658	110.36
781.097	110.36
781.537	116.46
781.976	114.86
782.415	103.76
782.855	107.96
783.294	114.76
783.733	110.06
784.172	121.26
784.611	104.86
785.05	116.46
785.489	116.56
785.928	124.26
786.367	124.26
786.806	122.46
787.245	137.36
787.684	141.76
788.123	149.96
788.562	139.46
789.001	138.16
789.44	127.06
789.879	121.96
790.317	127.86
790.756	127.06
791.195	136.36
791.634	157.26
792.072	223.96
792.511	412.66
792.95	1128.56
793.388	2249.56
793.827	1972.06
794.265	718.36
794.704	300.16
795.142	194.66
795.581	159.36
796.019	138.06
796.458	129.56
796.896	130.26
797.334	143.36
797.773	166.46
798.211	239.86
798.649	501.46
799.087	1116.26
799.526	1729.46
799.964	2184.26
800.402	2087.46
800.84	808.26
801.278	318.96
801.716	195.66
802.154	165.26
802.592	160.36
803.03	144.76
803.468	140.26
803.906	156.26
804.344	165.76
804.782	144.96
805.22	140.16
805.658	135.16
806.096	161.96
806.533	165.56
806.971	192.16
807.409	239.16
807.847	353.06
808.284	755.76
808.722	2080.86
809.16	3493.56
809.597	3504.76
810.035	5920.66
810.472	5993.06
810.91	2225.26
811.347	863.76
811.785	439.16
812.222	273.86
812.66	209.06
813.097	172.26
813.535	152.86
813.972	132.66
814.409	120.96
814.846	115.06
815.284	121.16
815.721	110.26
816.158	112.86
816.595	121.26
817.032	162.26
817.47	183.36
817.907	126.16
818.344	113.36
818.781	102.16
819.218	103.76
819.655	136.46
820.092	209.16
820.529	224.96
820.966	181.56
821.403	133.36
821.839	108.26
822.276	102.56
822.713	128.66
823.15	138.06
823.587	124.96
824.023	169.76
824.46	344.76
824.897	991.16
825.333	1405.06
825.77	617.56
826.206	243.86
826.643	144.56
827.08	112.16
827.516	94.86
827.953	83.36
828.389	86.46
828.825	75.66
829.262	73.06
829.698	61.86
830.135	69.36
830.571	64.16
831.007	71.36
831.443	69.06
831.88	69.56
832.316	62.56
832.752	67.76
833.188	66.96
833.624	66.56
834.06	75.36
834.497	66.66
834.933	72.76
835.369	83.06
835.805	73.46
836.241	79.26
836.677	86.56
837.112	91.66
837.548	115.76
837.984	143.26
838.42	217.56
838.856	564.96
839.292	1665.36
839.727	2421.86
840.163	1147.86
840.599	1053.66
841.034	2211.26
841.47	2185.56
841.906	819.56
842.341	360.66
842.777	220.26
843.212	219.96
843.648	198.16
844.083	121.46
844.519	88.66
844.954	75.46
845.39	64.36
845.825	58.36
846.261	54.36
846.696	52.36
847.131	55.16
847.566	60.36
848.002	58.96
848.437	57.16
848.872	66.26
849.307	62.26
849.742	91.96
850.177	208.76
850.613	617.86
851.048	924.86
851.483	399.16
851.918	166.66
852.353	89.06
852.788	59.96
853.223	53.56
853.657	58.86
854.092	49.06
854.527	38.46
854.962	41.96
855.397	48.76
855.832	55.26
856.266	41.76
856.701	49.76
857.136	42.16
857.57	44.16
858.005	51.06
858.44	62.86
858.874	47.96
859.309	57.86
859.743	44.56
860.178	50.46
860.612	44.36
861.047	60.76
861.481	80.96
861.915	76.06
862.35	52.66
862.784	39.66
863.218	45.46
863.653	39.86
864.087	53.46
864.521	53.76
864.955	76.06
865.39	167.76
865.824	181.66
866.258	129.96
866.692	185.06
867.126	192.06
867.56	113.16
867.994	56.06
868.428	41.26
868.862	51.76
869.296	60.96
869.73	65.76
870.164	57.46
870.598	50.96
871.031	38.96
871.465	35.76
871.899	30.26
872.333	22.16
872.766	24.66
873.2	24.06
873.634	28.06
874.067	26.26
874.501	26.06
874.935	39.56
875.368	34.06
875.802	29.06
876.235	31.06
876.669	24.36
877.102	26.66
877.535	28.76
877.969	23.66
878.402	30.06
878.836	22.46
879.269	24.06
879.702	25.36
880.135	27.46
880.569	18.76
881.002	27.16
881.435	19.86
881.868	24.66
882.301	24.46
882.734	15.56
883.167	24.86
883.601	20.36
884.034	21.96
884.467	14.46
884.899	21.16
885.332	21.86
885.765	16.96
886.198	15.26
886.631	19.86
887.064	19.86
887.497	23.96
887.929	23.56
888.362	15.66
888.795	10.06
889.228	17.66
889.66	21.56
890.093	17.96
890.526	21.16
890.958	16.66
891.391	14.46
891.823	26.46
892.256	15.46
892.688	15.86
893.121	16.46
893.553	14.56
893.985	20.36
894.418	10.26
894.85	12.46
895.282	15.96
895.715	22.16
896.147	18.86
896.579	13.46
897.011	11.66
897.444	22.36
897.876	15.36
898.308	15.26
898.74	16.16
899.172	13.56
899.604	24.96
900.036	16.86
900.468	20.86
900.9	12.96
901.332	19.76
901.764	15.16
902.196	20.36
902.628	20.16
903.06	14.26
903.491	26.26
903.923	20.26
904.355	23.46
904.787	24.46
905.218	17.16
905.65	22.26
906.082	16.96
906.513	18.46
906.945	17.96
907.376	15.06
907.808	22.86
908.239	24.06
908.671	19.66
909.102	24.36
909.534	24.66
909.965	48.36
910.397	105.86
910.828	338.76
911.259	492.36
911.691	234.56
912.122	118.56
912.553	56.36
912.984	34.56
913.415	32.36
913.847	25.56
914.278	20.36
914.709	14.96
915.14	18.86
915.571	16.26
916.002	14.86
916.433	22.66
916.864	21.76
917.295	13.46
917.726	22.86
918.157	21.46
918.587	29.96
919.018	28.96
919.449	16.66
919.88	21.56
920.311	41.86
920.741	58.66
921.172	180.36
921.603	156.76
922.033	76.36
922.464	51.66
922.895	24.16
923.325	21.46
923.756	18.66
924.186	12.46
924.617	21.46
925.047	25.86
925.478	26.76
925.908	25.56
926.338	14.96
926.769	15.16
927.199	25.16
927.629	11.96
928.06	12.86
928.49	19.76
928.92	14.26
929.35	11.46
929.78	14.06
930.21	1.96
930.641	11.06
931.071	11.96
931.501	4.36
931.931	12.56
932.361	8.46
932.791	1.36
933.221	6.96
933.651	3.46
934.08	20.36
934.51	35.26
934.94	14.16
935.37	13.06
935.8	11.16
936.229	8.06
936.659	9.86
937.089	0.56
937.519	11.96
937.948	23.16
938.378	21.16
938.807	1.76
939.237	3.06
939.666	6.56
940.096	-6.54
940.525	-0.54
940.955	3.36
941.384	4.86
941.814	-4.74
942.243	-0.14
942.672	4.96
943.102	-0.24
943.531	4.36
943.96	4.66
944.39	4.56
944.819	-4.84
945.248	6.46
945.677	2.36
946.106	9.16
946.535	0.66
946.964	0.06
947.393	1.16
947.822	3.86
948.251	-6.74
948.68	10.66
949.109	8.56
949.538	8.86
949.967	2.86
950.396	5.76
950.825	0.96
951.254	2.46
951.682	-6.34
952.111	7.46
952.54	6.36
952.969	-4.24
953.397	-1.04
953.826	4.46
954.254	-9.24
954.683	-2.04
955.112	-0.54
955.54	3.66
955.969	1.56
956.397	4.26
956.826	2.06
957.254	1.56
957.682	0.56
958.111	7.46
958.539	-1.24
958.967	3.06
959.396	-3.54
959.824	-1.14
960.252	4.56
960.68	-3.04
961.109	1.96
961.537	-0.64
961.965	-0.04
962.393	5.76
962.821	-4.64
963.249	1.06
963.677	3.76
964.105	11.06
964.533	42.96
964.961	43.26
965.389	18.86
965.817	8.96
966.245	6.86
966.672	-0.44
967.1	-7.84
967.528	-2.74
967.956	-0.34
968.383	0.96
968.811	-1.64
969.239	0.56
969.666	-6.94
970.094	2.36
970.522	1.16
970.949	5.36
971.377	1.86
971.804	-6.04
972.232	2.46
972.659	-3.14
973.087	-1.24
973.514	0.86
973.941	-4.74
974.369	8.76
974.796	5.16
975.223	0.56
975.651	2.46
976.078	1.76
976.505	-3.54
976.932	10.16
977.359	13.46
977.786	15.56
978.214	6.16
978.641	-4.04
979.068	0.76
979.495	-1.94
979.922	1.16
980.349	3.66
980.776	-0.44
981.202	0.66
981.629	6.76
982.056	2.16
982.483	-1.74
982.91	3.46
983.337	-1.34
983.763	2.66
984.19	-4.74
984.617	-3.24
985.043	-4.34
985.47	3.56
985.897	-2.54
986.323	-8.54
986.75	7.66
987.176	0.16
987.603	-2.34
988.029	-7.14
988.456	-3.84
988.882	0.96
989.308	-4.84
989.735	-3.94
990.161	2.56
990.587	-7.04
991.014	-1.64
991.44	7.46
991.866	-0.84
992.292	-4.04
992.719	1.66
993.145	6.96
993.571	-5.64
993.997	-2.04
994.423	-4.24
994.849	-3.94
995.275	-0.34
995.701	-1.64
996.127	-4.14
996.553	-0.44
996.979	-2.34
997.405	-3.14
997.83	-4.64
998.256	-7.04
998.682	-6.04
999.108	-8.14
999.534	-0.54
999.959	4.76
1000.385	-1.34
1000.811	5.66
1001.236	-5.14
1001.662	-5.04
1002.087	-10.74
1002.513	3.26
1002.938	-0.54
1003.364	-2.64
1003.789	-1.04
1004.215	9.26
1004.64	-1.64
1005.066	-0.04
1005.491	-0.84
1005.916	-2.04
1006.342	3.56
1006.767	-10.34
1007.192	0.76
1007.617	-8.84
1008.042	-1.74
1008.468	-7.94
1008.893	-1.94
1009.318	-2.24
1009.743	-0.74
1010.168	8.06
1010.593	2.16
1011.018	-4.34
1011.443	-1.24
1011.868	4.06
1012.293	-2.54
1012.718	-13.44
1013.143	-1.04
1013.567	-4.44
1013.992	-0.44
1014.417	-10.54
1014.842	0.86
1015.267	-4.34
1015.691	-2.84
1016.116	6.46
1016.541	-0.84
1016.965	2.26
1017.39	6.46
1017.814	0.66
1018.239	-2.44
1018.663	-8.54
1019.088	-9.14
1019.512	-4.84
1019.937	2.86
1020.361	-7.14
1020.785	-5.34
1021.21	-2.94
1021.634	0.66
1022.058	2.16
1022.483	6.16
1022.907	2.26
1023.331	-3.24
1023.755	-0.84
1024.179	-5.14
1024.604	-6.64
1025.028	-5.74
1025.452	2.06
1025.876	-4.54
1026.3	9.46
1026.724	-8.04
1027.148	0.76
1027.572	-1.74
1027.996	-5.34
1028.42	2.26
1028.843	-3.24
1029.267	-0.84
1029.691	2.16
1030.115	-4.24
1030.539	-6.04
1030.962	-6.94
1031.386	-8.94
1031.81	-2.84
1032.233	-2.64
1032.657	-8.04
1033.08	-4.44
1033.504	-5.64
1033.927	-7.84
1034.351	-6.24
1034.774	-4.04
1035.198	-1.74
1035.621	-4.24
1036.045	-3.64
1036.468	4.16
1036.891	-4.94
1037.315	-6.54
1037.738	-2.04
1038.161	0.06
1038.584	-9.54
1039.008	-0.94
1039.431	0.66
1039.854	2.66
1040.277	-9.44
1040.7	-7.74
1041.123	3.16
1041.546	-2.54
1041.969	-1.94
1042.392	-5.54
1042.815	-2.54
1043.238	-4.74
1043.661	0.06
1044.084	-3.44
1044.507	-2.74
1044.93	-9.14
1045.352	1.86
1045.775	0.46
1046.198	0.96
1046.621	-3.94
1047.043	-3.54
1047.466	8.06
1047.889	-6.34
1048.311	-3.04
1048.734	-2.64
1049.156	-6.04
1049.579	-3.94
1050.001	-4.94
1050.424	-2.04
1050.846	-1.94
1051.269	1.26
1051.691	-5.84
1052.113	1.86
1052.536	-2.04
1052.958	0.06
1053.38	-3.94
1053.802	-15.84
1054.225	-0.84
1054.647	-3.94
1055.069	-4.54
1055.491	3.36
1055.913	-1.04
1056.335	-4.74
1056.757	2.56
1057.179	-8.34
1057.601	-8.04
1058.023	0.46
1058.445	-4.34
1058.867	-5.24
1059.289	-1.74
1059.711	-5.64
1060.133	-1.44
1060.555	-4.84
1060.976	-5.14
1061.398	-7.34
1061.82	-10.44
1062.241	-3.54
1062.663	-6.74
1063.085	-2.34
1063.506	1.96
1063.928	-5.04
1064.35	-5.74
1064.771	-13.04
1065.193	-3.74
1065.614	-11.04
1066.035	-3.34
1066.457	1.66
1066.878	2.36
1067.3	-3.14
1067.721	-3.74
1068.142	-5.84
1068.564	-2.34
1068.985	-6.24
1069.406	-4.84
1069.827	-5.74
1070.248	-0.04
1070.67	-9.24
1071.091	-6.64
1071.512	-7.44
1071.933	-9.24
1072.354	-4.44
1072.775	-5.14
1073.196	-5.04
1073.617	-3.24
1074.038	-9.24
1074.459	-0.74
1074.88	-4.94
1075.3	1.36
1075.721	-4.54
1076.142	-0.64
1076.563	1.26
1076.983	-6.84
1077.404	-4.74
1077.825	-5.04
1078.246	-7.44
1078.666	-8.44
1079.087	-8.04
1079.507	-3.34
1079.928	-1.64
1080.348	1.96
1080.769	-11.74
1081.189	-1.34
1081.61	-2.84
1082.03	-5.94
1082.451	-5.74
1082.871	-4.24
1083.291	-7.64
1083.711	-8.74
1084.132	-6.94
1084.552	-6.14
1084.972	-1.14
1085.392	-7.24
1085.813	-13.14
1086.233	-12.64
1086.653	-7.54
1087.073	6.76
1087.493	-3.84
1087.913	-3.34
1088.333	-8.34
1088.753	-1.34
1089.173	6.26
1089.593	-1.54
1090.013	-3.54
1090.433	0.16
1090.852	1.66
1091.272	0.06
1091.692	1.16
1092.112	-2.74
1092.531	-12.54
1092.951	-10.84
1093.371	-1.84
1093.79	-5.54
1094.21	-3.24
1094.63	-5.34
1095.049	-11.94
1095.469	-6.34
1095.888	-2.74
1096.308	1.36
1096.727	0.06
1097.146	-6.74
1097.566	-0.54
1097.985	-3.54
1098.405	0.16
1098.824	-4.14
1099.243	-11.54
1099.662	-6.64
1100.082	-1.54
1100.501	-0.04
1100.92	-7.34
1101.339	-7.34
1101.758	-8.44
