Data from 20171114-ORNL-Ar_H_NY_Subt18_08-03-58-787.txt Node
Date: Tue Nov 14 08:03:58 EST 2017
User: Ender
Spectrometer: HR+D1039
Trigger mode: 0
Integration Time (sec): 2.730000E-2
Scans to average: 10
Electric dark correction enabled: true
Nonlinearity correction enabled: false
Boxcar width: 0
XAxis mode: Wavelengths
Number of Pixels in Spectrum: 2048
>>>>>Begin Spectral Data<<<<<
187.836	-3.78
188.309	-3.78
188.782	-3.78
189.255	-0.58
189.728	-2.08
190.201	8.82
190.674	-3.08
191.147	2.82
191.619	-8.58
192.092	-1.88
192.565	4.02
193.038	-3.58
193.511	2.32
193.984	4.82
194.456	-1.08
194.929	-1.58
195.402	-1.28
195.874	4.62
196.347	1.22
196.82	-2.68
197.292	11.22
197.765	7.32
198.237	-4.58
198.71	5.02
199.182	-2.08
199.655	5.12
200.127	1.72
200.6	-7.48
201.072	-4.28
201.544	-3.58
202.017	-7.98
202.489	0.32
202.961	-0.48
203.433	-3.18
203.906	-7.58
204.378	-5.38
204.85	-2.68
205.322	-7.78
205.794	-3.18
206.266	-3.98
206.739	-7.08
207.211	-0.68
207.683	-9.18
208.155	-3.08
208.627	-0.58
209.099	-2.08
209.57	-6.77
210.042	-7.98
210.514	-2.88
210.986	0.22
211.458	-4.28
211.93	-1.18
212.402	-0.18
212.873	1.62
213.345	-7.18
213.817	-9.38
214.288	-1.68
214.76	-11.08
215.232	2.52
215.703	-4.38
216.175	-3.18
216.646	-3.08
217.118	-6.88
217.589	-3.27
218.061	-2.28
218.532	-6.58
219.004	-4.28
219.475	-1.48
219.946	0.52
220.418	-1.58
220.889	1.92
221.36	2.42
221.832	-6.48
222.303	-8.88
222.774	0.32
223.245	-9.58
223.717	-5.48
224.188	-6.58
224.659	-0.88
225.13	-3.77
225.601	-1.68
226.072	-1.18
226.543	5.82
227.014	2.62
227.485	-3.88
227.956	-3.58
228.427	-2.88
228.898	-3.08
229.369	1.12
229.839	-6.18
230.31	-11.28
230.781	-5.68
231.252	-0.58
231.722	-4.38
232.193	-4.88
232.664	1.62
233.135	-0.08
233.605	-4.27
234.076	-8.68
234.546	-0.28
235.017	8.62
235.487	5.12
235.958	-1.38
236.428	-6.48
236.899	-1.88
237.369	1.23
237.84	-5.28
238.31	4.62
238.78	-4.18
239.251	-4.18
239.721	-4.68
240.191	-8.38
240.662	-1.58
241.132	-6.18
241.602	-2.48
242.072	-1.58
242.542	5.12
243.013	-0.28
243.483	1.22
243.953	1.73
244.423	1.02
244.893	-7.08
245.363	1.42
245.833	4.92
246.303	-5.98
246.773	1.12
247.243	-1.48
247.712	0.32
248.182	6.92
248.652	4.42
249.122	-8.08
249.592	-2.18
250.061	8.12
250.531	17.23
251.001	-2.27
251.471	6.82
251.94	7.72
252.41	1.82
252.879	-1.88
253.349	10.02
253.818	5.12
254.288	-0.48
254.757	-2.68
255.227	-5.18
255.696	1.02
256.166	3.52
256.635	11.22
257.105	3.23
257.574	-0.08
258.043	2.62
258.513	6.42
258.982	3.42
259.451	-2.58
259.92	7.42
260.389	-0.48
260.859	6.82
261.328	0.62
261.797	3.23
262.266	3.52
262.735	6.62
263.204	-1.78
263.673	-2.28
264.142	6.23
264.611	-5.48
265.08	-2.98
265.549	-1.77
266.018	4.62
266.487	-5.38
266.955	-5.38
267.424	-3.08
267.893	2.52
268.362	0.92
268.83	3.22
269.299	10.62
269.768	-1.68
270.236	-0.08
270.705	-0.38
271.174	1.73
271.642	3.82
272.111	-1.28
272.579	2.82
273.048	7.12
273.516	6.22
273.985	10.72
274.453	12.62
274.922	9.72
275.39	0.52
275.858	-2.58
276.327	5.72
276.795	10.92
277.263	0.62
277.731	14.12
278.2	25.22
278.668	28.52
279.136	16.42
279.604	9.62
280.072	11.72
280.54	7.62
281.008	-1.18
281.477	13.72
281.945	4.02
282.413	10.02
282.881	10.32
283.348	-3.98
283.816	5.72
284.284	5.82
284.752	12.12
285.22	5.62
285.688	12.12
286.156	6.82
286.623	21.32
287.091	19.92
287.559	17.02
288.026	12.62
288.494	10.72
288.962	-0.88
289.429	6.12
289.897	15.32
290.364	10.32
290.832	6.42
291.3	7.02
291.767	12.92
292.234	11.02
292.702	1.92
293.169	8.02
293.637	12.22
294.104	13.42
294.571	2.32
295.039	9.72
295.506	5.92
295.973	13.72
296.44	4.72
296.908	10.42
297.375	10.32
297.842	15.02
298.309	10.32
298.776	7.52
299.243	17.52
299.71	6.82
300.177	18.62
300.644	15.02
301.111	12.32
301.578	20.82
302.045	7.52
302.512	15.12
302.979	17.92
303.446	20.02
303.913	11.42
304.379	12.02
304.846	22.42
305.313	11.22
305.78	16.72
306.246	17.12
306.713	19.82
307.18	14.73
307.646	18.12
308.113	14.22
308.579	14.02
309.046	18.92
309.512	17.12
309.979	10.92
310.445	25.72
310.912	17.22
311.378	26.12
311.845	20.42
312.311	20.22
312.777	22.32
313.244	21.62
313.71	31.12
314.176	25.82
314.642	20.52
315.109	17.72
315.575	25.12
316.041	34.02
316.507	26.42
316.973	23.52
317.439	24.22
317.905	31.02
318.371	30.12
318.837	22.32
319.303	20.82
319.769	22.62
320.235	23.92
320.701	23.72
321.167	25.52
321.633	20.12
322.099	21.72
322.564	33.62
323.03	26.02
323.496	26.42
323.962	30.32
324.427	21.82
324.893	31.12
325.359	29.82
325.824	24.52
326.29	25.12
326.755	27.72
327.221	31.42
327.686	29.62
328.152	38.23
328.617	34.02
329.083	32.52
329.548	38.62
330.014	36.12
330.479	30.32
330.944	32.02
331.41	34.52
331.875	37.02
332.34	33.32
332.805	33.32
333.271	31.42
333.736	31.52
334.201	43.52
334.666	39.62
335.131	42.42
335.596	41.62
336.061	39.82
336.526	32.02
336.991	33.32
337.456	39.02
337.921	35.82
338.386	31.92
338.851	40.52
339.316	40.12
339.781	36.42
340.246	40.52
340.711	36.32
341.175	41.32
341.64	32.02
342.105	40.52
342.569	49.42
343.034	52.32
343.499	46.12
343.963	38.42
344.428	57.23
344.893	49.22
345.357	48.82
345.822	49.52
346.286	52.02
346.751	56.62
347.215	53.12
347.679	55.52
348.144	64.32
348.608	63.02
349.073	52.52
349.537	57.82
350.001	61.92
350.465	63.02
350.93	59.12
351.394	63.72
351.858	57.32
352.322	73.82
352.786	61.02
353.25	75.92
353.715	83.42
354.179	76.52
354.643	92.92
355.107	92.32
355.571	82.12
356.035	78.02
356.498	86.92
356.962	89.62
357.426	95.12
357.89	85.72
358.354	73.12
358.818	70.92
359.281	71.23
359.745	63.02
360.209	71.52
360.673	67.23
361.136	63.82
361.6	71.92
362.064	71.92
362.527	71.82
362.991	85.92
363.454	75.22
363.918	66.92
364.381	70.62
364.845	74.62
365.308	71.82
365.772	80.12
366.235	80.52
366.698	72.92
367.162	74.72
367.625	69.22
368.088	73.12
368.552	84.92
369.015	78.32
369.478	77.72
369.941	87.02
370.404	79.32
370.867	87.02
371.331	90.22
371.794	94.02
372.257	87.92
372.72	97.62
373.183	86.92
373.646	85.92
374.109	86.02
374.572	93.92
375.035	89.62
375.497	87.92
375.96	90.42
376.423	92.52
376.886	90.62
377.349	94.32
377.811	87.72
378.274	91.62
378.737	97.12
379.199	101.73
379.662	97.92
380.125	105.12
380.587	103.42
381.05	99.73
381.512	112.42
381.975	118.92
382.437	112.82
382.9	104.82
383.362	114.12
383.825	118.92
384.287	122.02
384.75	115.72
385.212	113.72
385.674	121.02
386.136	121.82
386.599	109.42
387.061	116.62
387.523	109.42
387.985	118.82
388.447	124.52
388.91	113.12
389.372	137.82
389.834	128.22
390.296	123.32
390.758	134.32
391.22	135.82
391.682	162.62
392.144	211.83
392.606	165.02
393.068	140.92
393.529	142.82
393.991	128.72
394.453	127.62
394.915	135.02
395.377	154.12
395.838	161.52
396.3	137.92
396.762	133.82
397.224	121.52
397.685	124.22
398.147	123.23
398.608	120.22
399.07	120.52
399.531	125.82
399.993	123.82
400.454	129.02
400.916	130.22
401.377	127.12
401.839	137.72
402.3	137.82
402.762	153.72
403.223	162.02
403.684	155.52
404.145	150.62
404.607	149.02
405.068	143.92
405.529	149.62
405.99	159.92
406.451	156.22
406.913	158.62
407.374	147.52
407.835	151.62
408.296	153.12
408.757	160.02
409.218	163.72
409.679	165.23
410.14	163.02
410.601	165.42
411.062	176.92
411.522	172.52
411.983	171.62
412.444	160.82
412.905	170.23
413.366	169.62
413.826	192.52
414.287	206.33
414.748	248.12
415.208	235.92
415.669	196.12
416.13	201.62
416.59	189.42
417.051	205.42
417.511	211.72
417.972	221.12
418.432	239.62
418.893	275.22
419.353	234.82
419.814	198.52
420.274	174.62
420.734	169.72
421.195	182.42
421.655	178.23
422.115	177.62
422.576	181.72
423.036	179.42
423.496	195.32
423.956	205.02
424.416	216.82
424.876	246.12
425.336	242.12
425.797	247.73
426.257	231.23
426.717	219.52
427.177	216.72
427.637	205.62
428.097	217.52
428.556	220.92
429.016	244.32
429.476	249.12
429.936	248.12
430.396	247.52
430.856	266.12
431.315	282.22
431.775	304.12
432.235	341.22
432.694	314.02
433.154	328.83
433.614	334.02
434.073	295.42
434.533	256.23
434.993	242.33
435.452	255.22
435.912	253.52
436.371	252.12
436.83	233.73
437.29	238.02
437.749	220.02
438.209	226.12
438.668	240.72
439.127	242.12
439.587	235.43
440.046	214.92
440.505	225.52
440.964	237.12
441.424	261.42
441.883	263.73
442.342	223.52
442.801	206.22
443.26	204.42
443.719	204.33
444.178	210.32
444.637	201.52
445.096	204.23
445.555	210.12
446.014	208.92
446.473	212.52
446.932	213.32
447.391	204.02
447.849	211.52
448.308	205.02
448.767	206.12
449.226	222.32
449.685	223.02
450.143	233.62
450.602	216.22
451.061	209.52
451.519	219.93
451.978	223.42
452.436	212.12
452.895	221.73
453.353	220.82
453.812	212.62
454.27	216.82
454.729	217.93
455.187	212.52
455.646	219.92
456.104	221.52
456.562	236.92
457.021	237.42
457.479	225.92
457.937	234.73
458.395	237.32
458.854	230.83
459.312	228.42
459.77	245.62
460.228	229.62
460.686	227.52
461.144	238.32
461.602	224.02
462.06	225.82
462.518	231.73
462.976	239.52
463.434	236.92
463.892	238.12
464.35	251.22
464.808	256.02
465.266	254.52
465.724	249.82
466.181	256.02
466.639	252.42
467.097	269.12
467.555	273.83
468.012	280.12
468.47	279.33
468.928	293.82
469.385	303.43
469.843	313.22
470.3	310.82
470.758	318.02
471.215	335.52
471.673	351.72
472.13	351.52
472.588	362.92
473.045	344.32
473.503	350.32
473.96	356.42
474.417	361.52
474.875	380.32
475.332	413.72
475.789	407.82
476.246	420.72
476.704	427.52
477.161	444.92
477.618	451.52
478.075	494.62
478.532	531.22
478.989	594.33
479.446	666.43
479.903	663.12
480.36	704.52
480.817	752.22
481.274	833.02
481.731	938.42
482.188	1001.92
482.645	1119.43
483.102	1213.62
483.558	1306.72
484.015	1368.03
484.472	1345.12
484.929	1320.22
485.385	1261.32
485.842	1243.32
486.299	1180.52
486.755	1100.12
487.212	944.03
487.668	820.92
488.125	758.32
488.582	698.62
489.038	669.02
489.494	628.42
489.951	616.62
490.407	592.62
490.864	578.62
491.32	571.02
491.776	555.52
492.233	561.42
492.689	537.52
493.145	543.02
493.602	527.62
494.058	542.62
494.514	539.32
494.97	551.12
495.426	555.52
495.882	539.92
496.338	539.62
496.794	550.02
497.251	534.32
497.707	549.52
498.163	546.82
498.618	549.22
499.074	552.12
499.53	573.42
499.986	572.42
500.442	562.62
500.898	550.62
501.354	541.22
501.809	542.02
502.265	560.72
502.721	560.42
503.177	574.73
503.632	565.62
504.088	584.12
504.543	592.42
504.999	597.62
505.455	573.92
505.91	559.62
506.366	560.52
506.821	557.72
507.277	554.82
507.732	555.62
508.187	555.62
508.643	568.42
509.098	559.42
509.553	565.62
510.009	586.32
510.464	586.62
510.919	603.42
511.375	602.12
511.83	610.32
512.285	616.52
512.74	652.62
513.195	665.52
513.65	661.32
514.105	663.32
514.56	667.42
515.015	676.73
515.47	695.02
515.925	677.73
516.38	683.02
516.835	684.02
517.29	680.43
517.745	675.43
518.2	670.92
518.655	653.42
519.109	648.32
519.564	642.23
520.019	631.12
520.474	621.43
520.928	619.23
521.383	614.42
521.838	621.42
522.292	622.42
522.747	621.02
523.201	613.32
523.656	609.12
524.11	598.43
524.565	601.83
525.019	595.92
525.474	601.72
525.928	584.43
526.382	595.02
526.837	594.52
527.291	599.22
527.745	599.82
528.2	594.82
528.654	589.62
529.108	587.62
529.562	588.32
530.016	584.23
530.47	572.22
530.925	585.62
531.379	587.33
531.833	592.73
532.287	591.12
532.741	593.43
533.195	598.12
533.649	600.62
534.103	601.72
534.556	593.02
535.01	596.02
535.464	585.62
535.918	598.62
536.372	598.32
536.826	598.12
537.279	596.92
537.733	596.83
538.187	591.72
538.64	599.92
539.094	601.83
539.548	609.92
540.001	598.42
540.455	599.92
540.908	616.32
541.362	618.62
541.815	633.12
542.269	642.72
542.722	633.02
543.175	644.52
543.629	641.82
544.082	669.22
544.536	648.33
544.989	643.52
545.442	664.52
545.895	659.32
546.349	660.32
546.802	661.42
547.255	652.62
547.708	667.92
548.161	666.52
548.614	680.42
549.067	695.72
549.52	686.02
549.973	679.72
550.426	670.82
550.879	662.62
551.332	659.82
551.785	668.72
552.238	667.22
552.691	678.23
553.144	677.72
553.596	698.23
554.049	713.52
554.502	741.62
554.955	742.52
555.407	742.22
555.86	729.42
556.313	733.12
556.765	712.73
557.218	724.32
557.67	706.62
558.123	709.82
558.576	704.72
559.028	714.73
559.48	708.42
559.933	715.12
560.385	684.22
560.838	660.42
561.29	634.82
561.742	639.23
562.195	621.12
562.647	617.93
563.099	620.92
563.551	623.62
564.004	630.32
564.456	613.82
564.908	613.42
565.36	601.22
565.812	593.32
566.264	579.52
566.716	569.93
567.168	563.92
567.62	574.23
568.072	560.33
568.524	551.32
568.976	552.02
569.428	538.52
569.88	542.52
570.332	548.02
570.784	550.52
571.235	551.32
571.687	555.02
572.139	559.12
572.59	562.52
573.042	566.82
573.494	558.12
573.945	565.22
574.397	542.92
574.849	545.82
575.3	546.72
575.752	538.42
576.203	537.02
576.655	540.22
577.106	523.12
577.557	526.93
578.009	532.43
578.46	521.23
578.912	519.12
579.363	521.42
579.814	514.72
580.265	511.92
580.717	526.02
581.168	519.82
581.619	525.52
582.07	536.52
582.521	529.52
582.972	523.92
583.423	519.42
583.875	530.42
584.326	539.72
584.777	564.92
585.227	606.02
585.678	644.42
586.129	691.73
586.58	744.02
587.031	788.92
587.482	883.02
587.933	987.42
588.384	882.92
588.834	702.42
589.285	617.02
589.736	600.72
590.186	606.22
590.637	595.92
591.088	574.02
591.538	571.62
591.989	571.83
592.439	560.42
592.89	553.32
593.34	532.82
593.791	547.02
594.241	532.42
594.692	537.12
595.142	530.92
595.593	533.92
596.043	538.52
596.493	544.02
596.943	532.43
597.394	542.83
597.844	541.42
598.294	550.12
598.744	576.62
599.195	594.22
599.645	621.02
600.095	652.23
600.545	691.02
600.995	735.52
601.445	771.82
601.895	829.32
602.345	871.12
602.795	844.42
603.245	817.12
603.695	763.73
604.145	726.72
604.594	701.43
605.044	656.42
605.494	608.32
605.944	575.22
606.393	568.23
606.843	543.92
607.293	546.93
607.743	555.42
608.192	547.92
608.642	563.83
609.091	565.52
609.541	575.72
609.99	560.62
610.44	567.73
610.889	538.82
611.339	521.52
611.788	519.73
612.238	514.82
612.687	528.22
613.136	531.02
613.586	540.12
614.035	539.93
614.484	547.22
614.933	544.92
615.383	539.42
615.832	538.62
616.281	523.82
616.73	508.72
617.179	492.52
617.628	488.12
618.077	469.02
618.526	460.62
618.975	458.82
619.424	464.62
619.873	448.62
620.322	456.62
620.771	446.92
621.22	450.12
621.669	435.32
622.118	434.42
622.567	434.23
623.015	420.82
623.464	420.22
623.913	413.23
624.361	407.22
624.81	410.52
625.259	409.82
625.707	415.73
626.156	416.32
626.604	413.12
627.053	411.22
627.501	410.42
627.95	421.43
628.398	428.02
628.847	422.73
629.295	415.22
629.744	420.42
630.192	417.62
630.64	409.12
631.089	409.32
631.537	402.42
631.985	403.42
632.433	407.33
632.881	406.02
633.33	425.82
633.778	416.42
634.226	391.12
634.674	399.23
635.122	388.73
635.57	416.82
636.018	417.42
636.466	417.62
636.914	400.22
637.362	415.02
637.81	416.62
638.258	420.23
638.705	418.82
639.153	431.72
639.601	446.22
640.049	466.32
640.497	488.62
640.944	509.73
641.392	474.52
641.84	443.82
642.287	425.52
642.735	408.82
643.182	417.82
643.63	414.12
644.078	407.93
644.525	418.92
644.973	427.02
645.42	434.02
645.867	440.92
646.315	461.02
646.762	473.82
647.21	495.73
647.657	503.22
648.104	527.42
648.551	539.92
648.999	586.42
649.446	643.72
649.893	691.42
650.34	791.92
650.787	941.82
651.234	1173.12
651.682	1510.72
652.129	2043.42
652.576	2887.53
653.023	4282.23
653.47	5957.62
653.917	7525.33
654.363	8883.43
654.81	10080.62
655.257	9582.33
655.704	6268.13
656.151	3673.62
656.598	2385.82
657.044	1685.22
657.491	1309.12
657.938	1038.32
658.385	872.82
658.831	754.52
659.278	677.32
659.724	595.02
660.171	559.82
660.618	506.22
661.064	477.12
661.511	465.33
661.957	449.32
662.404	432.82
662.85	443.73
663.296	422.02
663.743	397.72
664.189	385.82
664.635	377.02
665.082	369.92
665.528	369.62
665.974	361.72
666.42	356.73
666.867	351.92
667.313	335.62
667.759	323.32
668.205	326.73
668.651	332.73
669.097	337.12
669.543	340.32
669.989	327.32
670.435	320.52
670.881	316.93
671.327	318.72
671.773	342.42
672.219	347.12
672.665	387.23
673.11	417.32
673.556	446.62
674.002	484.52
674.448	468.62
674.893	389.02
675.339	343.92
675.785	314.42
676.23	298.52
676.676	273.12
677.122	271.02
677.567	265.72
678.013	256.12
678.458	252.02
678.904	257.73
679.349	242.33
679.794	249.52
680.24	245.12
680.685	245.02
681.131	243.92
681.576	244.72
682.021	242.22
682.466	243.92
682.912	242.62
683.357	244.72
683.802	267.62
684.247	278.42
684.692	318.02
685.137	343.32
685.583	380.32
686.028	398.52
686.473	366.92
686.918	316.52
687.363	294.23
687.807	288.62
688.252	251.12
688.697	256.32
689.142	237.02
689.587	227.92
690.032	224.12
690.477	239.62
690.921	249.42
691.366	266.52
691.811	279.42
692.255	302.02
692.7	329.72
693.145	346.12
693.589	470.23
694.034	772.42
694.478	1068.23
694.923	1264.03
695.367	1691.62
695.812	874.92
696.256	352.62
696.701	255.52
697.145	246.12
697.59	226.92
698.034	222.92
698.478	228.52
698.922	226.23
699.367	221.52
699.811	236.02
700.255	240.23
700.699	273.12
701.143	297.12
701.588	337.12
702.032	369.52
702.476	360.23
702.92	336.62
703.364	336.72
703.808	432.42
704.252	701.52
704.696	1014.33
705.14	1212.62
705.584	1578.22
706.027	771.52
706.471	385.22
706.915	279.52
707.359	244.82
707.803	214.72
708.246	211.62
708.69	220.92
709.134	220.22
709.577	219.83
710.021	222.73
710.465	215.82
710.908	210.42
711.352	208.92
711.795	215.82
712.239	247.42
712.682	269.22
713.126	291.92
713.569	324.62
714.012	248.83
714.456	225.12
714.899	212.52
715.342	187.23
715.786	177.52
716.229	182.42
716.672	183.82
717.115	175.92
717.558	177.12
718.002	176.62
718.445	180.92
718.888	197.23
719.331	201.93
719.774	222.02
720.217	215.52
720.66	197.92
721.103	179.32
721.546	179.73
721.989	174.82
722.432	163.32
722.874	166.82
723.317	165.22
723.76	162.82
724.203	174.42
724.645	215.52
725.088	301.92
725.531	389.52
725.974	461.42
726.416	394.12
726.859	211.73
727.301	169.22
727.744	164.23
728.187	167.12
728.629	163.82
729.071	168.22
729.514	179.02
729.956	187.02
730.399	197.72
730.841	206.73
731.283	191.43
731.726	188.02
732.168	178.82
732.61	186.32
733.053	191.73
733.495	217.02
733.937	238.02
734.379	282.02
734.821	301.12
735.263	369.62
735.705	569.82
736.148	1070.43
736.59	1794.92
737.032	2265.43
737.474	1854.32
737.916	590.02
738.357	299.72
738.799	225.42
739.241	207.42
739.683	196.52
740.125	205.42
740.567	211.22
741.008	230.42
741.45	221.62
741.892	225.42
742.334	247.62
742.775	255.62
743.217	248.92
743.658	192.12
744.1	181.23
744.542	184.22
744.983	223.02
745.425	243.12
745.866	261.72
746.307	198.92
746.749	189.92
747.19	224.43
747.632	308.62
748.073	584.12
748.514	1265.12
748.956	2025.62
749.397	2541.12
749.838	2137.82
750.279	2201.22
750.72	1101.72
751.162	397.42
751.603	229.42
752.044	181.82
752.485	151.32
752.926	145.12
753.367	137.42
753.808	132.62
754.249	130.32
754.69	127.72
755.131	124.32
755.572	131.42
756.013	127.82
756.453	131.72
756.894	125.82
757.335	134.92
757.776	132.52
758.216	127.82
758.657	135.62
759.098	132.32
759.538	158.42
759.979	181.92
760.42	242.52
760.86	476.22
761.301	1229.02
761.741	3123.92
762.182	4886.33
762.622	3472.42
763.063	961.92
763.503	386.82
763.943	237.02
764.384	220.02
764.824	238.32
765.264	257.72
765.705	191.73
766.145	129.92
766.585	133.22
767.025	123.52
767.465	121.02
767.906	154.32
768.346	195.92
768.786	205.52
769.226	166.62
769.666	218.92
770.106	409.02
770.546	1054.32
770.986	1929.42
771.426	1773.12
771.866	580.32
772.306	227.72
772.745	147.42
773.185	118.22
773.625	122.82
774.065	104.32
774.505	120.62
774.944	176.42
775.384	364.62
775.824	682.12
776.263	695.02
776.703	295.73
777.142	135.12
777.582	98.32
778.021	95.42
778.461	90.12
778.9	91.12
779.34	90.42
779.779	77.82
780.219	75.32
780.658	72.32
781.097	71.02
781.537	76.62
781.976	75.02
782.415	74.52
782.855	65.52
783.294	60.42
783.733	71.22
784.172	64.82
784.611	65.42
785.05	73.72
785.489	78.23
785.928	77.72
786.367	81.12
786.806	80.52
787.245	87.32
787.684	94.12
788.123	103.62
788.562	89.82
789.001	93.73
789.44	89.12
789.879	81.92
790.317	83.32
790.756	87.92
791.195	88.23
791.634	93.12
792.072	140.73
792.511	242.23
792.95	670.52
793.388	1550.72
793.827	1464.62
794.265	488.52
794.704	200.02
795.142	130.92
795.581	114.12
796.019	102.12
796.458	89.32
796.896	83.02
797.334	88.22
797.773	109.82
798.211	151.02
798.649	290.12
799.087	703.62
799.526	1134.93
799.964	1455.42
800.402	1520.92
800.84	554.92
801.278	207.92
801.716	128.22
802.154	109.52
802.592	102.82
803.03	101.32
803.468	91.62
803.906	102.02
804.344	102.12
804.782	94.52
805.22	96.12
805.658	89.82
806.096	103.12
806.533	106.42
806.971	119.02
807.409	149.52
807.847	214.52
808.284	458.52
808.722	1293.12
809.16	2420.03
809.597	2240.43
810.035	3996.72
810.472	4568.53
810.91	1607.42
811.347	583.62
811.785	289.32
812.222	185.72
812.66	136.32
813.097	117.32
813.535	101.42
813.972	93.02
814.409	83.82
814.846	73.73
815.284	77.52
815.721	66.82
816.158	73.32
816.595	79.12
817.032	126.82
817.47	142.32
817.907	117.72
818.344	89.82
818.781	70.42
819.218	65.72
819.655	87.32
820.092	141.92
820.529	161.92
820.966	122.92
821.403	92.32
821.839	65.62
822.276	66.82
822.713	92.42
823.15	96.73
823.587	80.22
824.023	96.92
824.46	196.82
824.897	622.12
825.333	1007.72
825.77	437.52
826.206	158.02
826.643	102.02
827.08	75.62
827.516	51.12
827.953	51.72
828.389	58.82
828.825	43.32
829.262	41.72
829.698	42.42
830.135	42.22
830.571	45.02
831.007	46.42
831.443	46.62
831.88	39.32
832.316	43.02
832.752	46.52
833.188	39.73
833.624	41.02
834.06	49.42
834.497	45.32
834.933	45.52
835.369	54.22
835.805	48.92
836.241	51.52
836.677	55.02
837.112	63.32
837.548	72.22
837.984	92.22
838.42	135.12
838.856	335.22
839.292	1080.53
839.727	1761.83
840.163	802.52
840.599	644.92
841.034	1488.12
841.47	1650.62
841.906	581.62
842.341	237.32
842.777	155.23
843.212	188.92
843.648	192.82
844.083	94.02
844.519	65.02
844.954	53.23
845.39	35.42
845.825	42.32
846.261	42.62
846.696	36.52
847.131	35.62
847.566	35.82
848.002	31.82
848.437	35.42
848.872	43.32
849.307	38.42
849.742	60.82
850.177	111.32
850.613	388.82
851.048	647.42
851.483	276.23
851.918	106.42
852.353	59.02
852.788	41.42
853.223	38.22
853.657	34.22
854.092	29.32
854.527	29.72
854.962	22.02
855.397	31.62
855.832	38.32
856.266	27.52
856.701	25.42
857.136	24.32
857.57	26.82
858.005	39.12
858.44	45.42
858.874	30.92
859.309	44.62
859.743	23.52
860.178	26.32
860.612	24.82
861.047	37.22
861.481	46.12
861.915	49.82
862.35	37.72
862.784	22.22
863.218	26.92
863.653	20.12
864.087	35.82
864.521	41.22
864.955	48.62
865.39	109.12
865.824	118.92
866.258	86.73
866.692	129.62
867.126	137.12
867.56	86.42
867.994	36.02
868.428	28.12
868.862	38.32
869.296	42.32
869.73	41.52
870.164	38.32
870.598	34.12
871.031	28.32
871.465	22.72
871.899	24.32
872.333	18.82
872.766	18.12
873.2	11.32
873.634	21.52
874.067	17.02
874.501	21.42
874.935	22.72
875.368	26.12
875.802	17.02
876.235	16.02
876.669	14.42
877.102	17.32
877.535	20.82
877.969	8.92
878.402	15.52
878.836	8.32
879.269	14.73
879.702	17.32
880.135	15.22
880.569	15.62
881.002	21.12
881.435	15.72
881.868	8.32
882.301	17.92
882.734	12.12
883.167	14.72
883.601	11.92
884.034	16.92
884.467	7.82
884.899	11.72
885.332	12.42
885.765	9.92
886.198	12.02
886.631	11.12
887.064	14.02
887.497	13.72
887.929	17.32
888.362	8.62
888.795	7.12
889.228	11.32
889.66	19.42
890.093	16.32
890.526	3.52
890.958	11.42
891.391	14.12
891.823	10.82
892.256	8.92
892.688	12.32
893.121	6.82
893.553	9.52
893.985	13.62
894.418	11.32
894.85	3.12
895.282	10.12
895.715	11.12
896.147	14.32
896.579	9.62
897.011	8.32
897.444	7.82
897.876	9.52
898.308	11.62
898.74	8.82
899.172	7.62
899.604	16.92
900.036	15.42
900.468	12.12
900.9	13.72
901.332	10.22
901.764	9.32
902.196	11.52
902.628	9.52
903.06	11.52
903.491	20.92
903.923	9.72
904.355	19.52
904.787	17.52
905.218	14.42
905.65	17.12
906.082	6.22
906.513	5.12
906.945	12.02
907.376	9.02
907.808	13.62
908.239	11.32
908.671	10.52
909.102	17.12
909.534	16.42
909.965	32.22
910.397	61.92
910.828	229.62
911.259	362.02
911.691	168.42
912.122	78.52
912.553	38.12
912.984	26.82
913.415	21.23
913.847	20.22
914.278	13.32
914.709	15.02
915.14	10.82
915.571	16.52
916.002	12.62
916.433	16.52
916.864	9.82
917.295	10.42
917.726	22.32
918.157	12.02
918.587	20.42
919.018	16.62
919.449	16.02
919.88	19.32
920.311	21.32
920.741	26.12
921.172	125.22
921.603	113.82
922.033	51.82
922.464	28.52
922.895	10.32
923.325	18.62
923.756	11.42
924.186	12.73
924.617	11.92
925.047	18.82
925.478	25.22
925.908	27.32
926.338	12.02
926.769	12.23
927.199	13.23
927.629	-0.78
928.06	11.42
928.49	13.42
928.92	8.82
929.35	6.23
929.78	12.02
930.21	11.42
930.641	4.32
931.071	7.92
931.501	2.32
931.931	1.92
932.361	5.12
932.791	-2.98
933.221	4.02
933.651	-2.08
934.08	12.22
934.51	22.62
934.94	5.32
935.37	6.82
935.8	11.72
936.229	10.62
936.659	5.32
937.089	3.62
937.519	12.62
937.948	16.72
938.378	13.42
938.807	5.02
939.237	1.32
939.666	9.62
940.096	1.12
940.525	4.02
940.955	5.52
941.384	2.82
941.814	-1.78
942.243	1.02
942.672	6.82
943.102	-3.08
943.531	2.72
943.96	5.92
944.39	2.72
944.819	-0.58
945.248	8.52
945.677	4.02
946.106	4.52
946.535	1.62
946.964	-3.08
947.393	8.02
947.822	0.62
948.251	-3.48
948.68	0.52
949.109	5.52
949.538	8.62
949.967	0.92
950.396	2.22
950.825	-2.58
951.254	1.52
951.682	-4.18
952.111	6.22
952.54	8.32
952.969	-8.58
953.397	-5.78
953.826	1.82
954.254	-6.98
954.683	-3.98
955.112	-3.58
955.54	-0.98
955.969	0.92
956.397	-3.88
956.826	-3.78
957.254	1.52
957.682	3.32
958.111	6.02
958.539	2.52
958.967	6.02
959.396	-2.28
959.824	6.92
960.252	9.02
960.68	-3.08
961.109	-3.48
961.537	-6.48
961.965	0.52
962.393	-1.18
962.821	-3.98
963.249	-3.78
963.677	3.32
964.105	0.52
964.533	26.42
964.961	32.82
965.389	5.92
965.817	6.32
966.245	4.82
966.672	3.62
967.1	-5.08
967.528	1.52
967.956	-2.08
968.383	1.32
968.811	-2.48
969.239	-2.78
969.666	-5.08
970.094	-1.58
970.522	-2.38
970.949	-8.28
971.377	-7.68
971.804	-2.78
972.232	0.52
972.659	0.12
973.087	1.62
973.514	-4.38
973.941	-4.28
974.369	5.82
974.796	5.32
975.223	-2.28
975.651	-3.58
976.078	2.12
976.505	-4.38
976.932	2.52
977.359	10.42
977.786	8.22
978.214	3.92
978.641	3.12
979.068	-3.88
979.495	-6.88
979.922	-1.48
980.349	-2.38
980.776	4.42
981.202	-8.68
981.629	8.32
982.056	5.22
982.483	-1.68
982.91	0.12
983.337	-5.98
983.763	1.32
984.19	-4.28
984.617	-4.78
985.043	-4.88
985.47	1.72
985.897	1.02
986.323	-1.98
986.75	6.12
987.176	4.12
987.603	-0.78
988.029	-1.78
988.456	-0.88
988.882	4.12
989.308	-4.38
989.735	-4.38
990.161	0.72
990.587	-3.18
991.014	-7.18
991.44	5.92
991.866	2.73
992.292	-7.18
992.719	-1.08
993.145	4.12
993.571	-3.58
993.997	-3.08
994.423	-1.18
994.849	-6.28
995.275	-1.77
995.701	-2.58
996.127	-5.18
996.553	-1.38
996.979	-1.28
997.405	-4.58
997.83	-7.08
998.256	-6.18
998.682	-3.38
999.108	-6.38
999.534	0.52
999.959	-4.18
1000.385	-6.58
1000.811	-1.98
1001.236	-7.88
1001.662	-9.48
1002.087	-5.38
1002.513	-0.38
1002.938	1.42
1003.364	-5.58
1003.789	1.42
1004.215	2.42
1004.64	4.02
1005.066	4.52
1005.491	1.82
1005.916	-4.38
1006.342	-7.68
1006.767	-6.18
1007.192	0.72
1007.617	-0.58
1008.042	-0.68
1008.468	-7.38
1008.893	-2.18
1009.318	-5.88
1009.743	3.82
1010.168	-0.28
1010.593	3.72
1011.018	-7.08
1011.443	-2.48
1011.868	4.62
1012.293	3.62
1012.718	-2.77
1013.143	-0.28
1013.567	2.72
1013.992	-0.88
1014.417	-16.88
1014.842	-1.18
1015.267	-6.48
1015.691	2.52
1016.116	6.42
1016.541	4.92
1016.965	-1.58
1017.39	3.32
1017.814	0.82
1018.239	-2.08
1018.663	-3.18
1019.088	-15.88
1019.512	-4.18
1019.937	3.82
1020.361	0.82
1020.785	-6.48
1021.21	-1.38
1021.634	1.42
1022.058	-0.98
1022.483	-1.18
1022.907	0.02
1023.331	-2.27
1023.755	-1.78
1024.179	2.32
1024.604	-1.38
1025.028	-3.38
1025.452	-1.98
1025.876	-4.98
1026.3	-1.18
1026.724	-9.38
1027.148	-7.38
1027.572	-8.98
1027.996	-8.78
1028.42	-8.18
1028.843	-4.18
1029.267	-4.28
1029.691	-5.08
1030.115	-6.08
1030.539	-6.88
1030.962	-7.58
1031.386	-11.68
1031.81	-3.08
1032.233	4.52
1032.657	-3.77
1033.08	-2.08
1033.504	-0.78
1033.927	0.62
1034.351	-1.38
1034.774	-3.08
1035.198	-1.08
1035.621	-4.88
1036.045	-6.88
1036.468	1.42
1036.891	-5.38
1037.315	-12.68
1037.738	-11.68
1038.161	7.02
1038.584	-1.08
1039.008	-7.88
1039.431	-6.38
1039.854	-0.38
1040.277	-5.58
1040.7	-13.88
1041.123	-2.28
1041.546	-10.77
1041.969	-9.78
1042.392	-3.68
1042.815	-2.58
1043.238	-1.78
1043.661	1.92
1044.084	-8.08
1044.507	-5.98
1044.93	-7.68
1045.352	-10.78
1045.775	1.52
1046.198	1.62
1046.621	-4.48
1047.043	-6.08
1047.466	7.92
1047.889	-1.08
1048.311	-1.78
1048.734	-4.58
1049.156	-5.58
1049.579	-3.08
1050.001	1.62
1050.424	0.92
1050.846	-2.68
1051.269	-5.08
1051.691	-4.48
1052.113	-4.68
1052.536	0.82
1052.958	-0.28
1053.38	-4.38
1053.802	-9.88
1054.225	-3.78
1054.647	-4.48
1055.069	-4.68
1055.491	-0.98
1055.913	-7.68
1056.335	2.02
1056.757	-5.98
1057.179	-0.58
1057.601	-2.18
1058.023	0.02
1058.445	-4.88
1058.867	-5.48
1059.289	1.32
1059.711	-5.48
1060.133	-3.48
1060.555	-1.98
1060.976	-9.08
1061.398	-5.18
1061.82	-6.38
1062.241	-7.38
1062.663	-5.98
1063.085	-1.58
1063.506	-3.08
1063.928	-4.58
1064.35	0.62
1064.771	-10.48
1065.193	-0.98
1065.614	-6.98
1066.035	-2.48
1066.457	-4.38
1066.878	-0.88
1067.3	-10.18
1067.721	-5.68
1068.142	-2.08
1068.564	-0.88
1068.985	-4.08
1069.406	-6.68
1069.827	-11.58
1070.248	-5.58
1070.67	-8.58
1071.091	-3.18
1071.512	0.52
1071.933	-2.28
1072.354	-2.38
1072.775	-4.08
1073.196	-4.28
1073.617	1.92
1074.038	-8.98
1074.459	-4.27
1074.88	-7.78
1075.3	-0.58
1075.721	-8.08
1076.142	0.92
1076.563	-3.88
1076.983	-8.58
1077.404	-6.48
1077.825	-6.18
1078.246	-9.88
1078.666	-7.18
1079.087	-0.98
1079.507	-3.38
1079.928	-1.28
1080.348	0.62
1080.769	-5.28
1081.189	2.92
1081.61	-1.98
1082.03	-3.98
1082.451	-5.88
1082.871	-3.48
1083.291	-6.58
1083.711	-4.98
1084.132	-9.58
1084.552	-5.28
1084.972	-0.08
1085.392	-10.98
1085.813	-11.38
1086.233	-3.28
1086.653	-3.18
1087.073	0.62
1087.493	-3.98
1087.913	-8.48
1088.333	-4.38
1088.753	-6.08
1089.173	3.52
1089.593	0.82
1090.013	1.62
1090.433	3.02
1090.852	2.72
1091.272	3.52
1091.692	-0.28
1092.112	0.42
1092.531	-4.58
1092.951	-10.58
1093.371	-7.18
1093.79	-4.68
1094.21	-3.58
1094.63	-1.68
1095.049	-6.98
1095.469	-4.28
1095.888	-1.38
1096.308	5.82
1096.727	0.32
1097.146	1.52
1097.566	1.72
1097.985	-5.98
1098.405	-0.68
1098.824	-4.68
1099.243	-5.08
1099.662	-9.28
1100.082	0.73
1100.501	1.12
1100.92	-1.98
1101.339	-0.68
1101.758	-1.98
