Data from 20171114-ORNL-Ar_H_NY_Subt18_08-06-44-756.txt Node
Date: Tue Nov 14 08:06:44 EST 2017
User: Ender
Spectrometer: HR+D1039
Trigger mode: 0
Integration Time (sec): 2.730000E-2
Scans to average: 10
Electric dark correction enabled: true
Nonlinearity correction enabled: false
Boxcar width: 0
XAxis mode: Wavelengths
Number of Pixels in Spectrum: 2048
>>>>>Begin Spectral Data<<<<<
187.836	-1.73
188.309	-1.73
188.782	-1.73
189.255	0.77
189.728	0.27
190.201	5.37
190.674	-0.13
191.147	2.47
191.619	-12.33
192.092	4.67
192.565	3.67
193.038	0.07
193.511	-1.73
193.984	0.07
194.456	-5.43
194.929	3.17
195.402	-0.63
195.874	1.47
196.347	-5.43
196.82	-6.83
197.292	7.27
197.765	1.67
198.237	-1.73
198.71	-0.33
199.182	0.57
199.655	-1.23
200.127	5.87
200.6	2.97
201.072	-2.73
201.544	-1.63
202.017	-3.53
202.489	5.77
202.961	-1.23
203.433	-1.73
203.906	-5.33
204.378	1.47
204.85	1.07
205.322	-4.23
205.794	-1.43
206.266	-9.33
206.739	-5.43
207.211	0.07
207.683	-5.23
208.155	-2.83
208.627	-6.73
209.099	0.87
209.57	-2.83
210.042	-0.53
210.514	-6.73
210.986	-4.93
211.458	-8.13
211.93	-1.93
212.402	-5.33
212.873	-7.13
213.345	-3.83
213.817	-10.63
214.288	-6.13
214.76	-15.33
215.232	-2.93
215.703	-3.03
216.175	-1.93
216.646	-3.63
217.118	-0.33
217.589	-4.03
218.061	-3.03
218.532	-5.03
219.004	0.07
219.475	-3.33
219.946	-6.83
220.418	-6.13
220.889	3.07
221.36	-0.33
221.832	-3.43
222.303	-8.13
222.774	4.77
223.245	0.67
223.717	-3.13
224.188	-4.83
224.659	-7.73
225.13	-4.43
225.601	4.37
226.072	-2.73
226.543	1.07
227.014	0.87
227.485	-5.63
227.956	-7.13
228.427	-5.83
228.898	4.57
229.369	-0.73
229.839	-4.13
230.31	-2.03
230.781	6.27
231.252	-8.93
231.722	-4.63
232.193	-5.43
232.664	-2.03
233.135	-3.33
233.605	-3.33
234.076	-5.33
234.546	-3.63
235.017	-0.53
235.487	-7.73
235.958	-1.43
236.428	-3.33
236.899	-2.73
237.369	-1.33
237.84	-8.63
238.31	-2.33
238.78	2.87
239.251	-1.33
239.721	-2.33
240.191	2.77
240.662	-3.73
241.132	-0.53
241.602	0.27
242.072	-0.63
242.542	1.27
243.013	-3.23
243.483	-3.03
243.953	-0.43
244.423	-1.83
244.893	-5.83
245.363	4.07
245.833	-1.53
246.303	-7.03
246.773	5.97
247.243	3.57
247.712	3.67
248.182	4.07
248.652	3.97
249.122	-5.63
249.592	0.77
250.061	5.57
250.531	14.67
251.001	-1.73
251.471	4.77
251.94	7.77
252.41	-3.73
252.879	-6.83
253.349	8.07
253.818	6.87
254.288	0.87
254.757	4.27
255.227	-4.03
255.696	3.07
256.166	8.67
256.635	4.57
257.105	2.67
257.574	6.77
258.043	2.17
258.513	-1.33
258.982	-3.13
259.451	-0.33
259.92	0.77
260.389	1.87
260.859	13.07
261.328	5.37
261.797	14.07
262.266	-1.83
262.735	14.17
263.204	3.77
263.673	1.47
264.142	6.27
264.611	-2.33
265.08	-2.63
265.549	-3.43
266.018	1.97
266.487	1.97
266.955	0.57
267.424	-4.63
267.893	10.47
268.362	4.17
268.83	6.87
269.299	10.47
269.768	9.67
270.236	7.67
270.705	4.67
271.174	1.87
271.642	5.77
272.111	7.67
272.579	6.47
273.048	8.77
273.516	6.57
273.985	7.87
274.453	8.97
274.922	16.27
275.39	8.67
275.858	3.07
276.327	7.07
276.795	16.37
277.263	8.07
277.731	18.57
278.2	9.77
278.668	11.77
279.136	19.07
279.604	7.67
280.072	9.77
280.54	16.57
281.008	14.17
281.477	13.87
281.945	6.77
282.413	15.37
282.881	15.67
283.348	4.87
283.816	16.17
284.284	10.17
284.752	16.07
285.22	15.27
285.688	16.37
286.156	11.77
286.623	25.97
287.091	12.57
287.559	16.67
288.026	11.17
288.494	15.97
288.962	3.37
289.429	8.47
289.897	18.37
290.364	11.47
290.832	14.77
291.3	15.27
291.767	14.37
292.234	18.67
292.702	14.57
293.169	17.77
293.637	19.47
294.104	19.07
294.571	8.17
295.039	16.57
295.506	15.87
295.973	19.27
296.44	18.87
296.908	13.37
297.375	12.77
297.842	16.97
298.309	21.07
298.776	12.17
299.243	19.67
299.71	14.67
300.177	23.87
300.644	22.27
301.111	16.27
301.578	19.97
302.045	9.17
302.512	23.27
302.979	20.87
303.446	20.87
303.913	22.57
304.379	21.57
304.846	24.77
305.313	27.17
305.78	22.47
306.246	21.17
306.713	29.67
307.18	25.17
307.646	24.27
308.113	29.87
308.579	30.17
309.046	28.27
309.512	31.67
309.979	24.17
310.445	25.67
310.912	26.87
311.378	29.37
311.845	27.17
312.311	36.57
312.777	30.57
313.244	28.37
313.71	37.07
314.176	33.67
314.642	31.27
315.109	28.67
315.575	33.37
316.041	40.67
316.507	24.77
316.973	35.47
317.439	29.27
317.905	33.57
318.371	32.07
318.837	30.27
319.303	32.77
319.769	33.67
320.235	29.77
320.701	33.57
321.167	31.07
321.633	34.57
322.099	35.67
322.564	44.37
323.03	34.87
323.496	36.27
323.962	43.57
324.427	35.57
324.893	40.57
325.359	33.07
325.824	35.07
326.29	44.37
326.755	40.97
327.221	38.27
327.686	37.07
328.152	37.57
328.617	44.57
329.083	49.87
329.548	55.27
330.014	47.27
330.479	41.07
330.944	42.17
331.41	41.37
331.875	41.87
332.34	39.27
332.805	44.57
333.271	42.37
333.736	41.47
334.201	52.27
334.666	50.27
335.131	52.57
335.596	51.47
336.061	48.67
336.526	41.17
336.991	50.07
337.456	53.67
337.921	50.27
338.386	42.27
338.851	54.17
339.316	50.27
339.781	51.57
340.246	62.27
340.711	49.07
341.175	52.77
341.64	47.57
342.105	57.57
342.569	61.37
343.034	57.47
343.499	57.87
343.963	49.47
344.428	67.87
344.893	58.67
345.357	61.87
345.822	62.77
346.286	69.17
346.751	68.57
347.215	66.97
347.679	64.47
348.144	92.17
348.608	88.27
349.073	64.77
349.537	79.47
350.001	79.17
350.465	90.67
350.93	85.07
351.394	82.27
351.858	73.07
352.322	89.97
352.786	77.67
353.25	101.87
353.715	113.27
354.179	102.77
354.643	121.17
355.107	120.47
355.571	99.17
356.035	97.67
356.498	115.87
356.962	121.17
357.426	119.77
357.89	112.57
358.354	93.57
358.818	81.47
359.281	79.87
359.745	74.17
360.209	78.37
360.673	71.77
361.136	76.57
361.6	84.27
362.064	80.37
362.527	89.87
362.991	91.07
363.454	84.87
363.918	81.27
364.381	78.07
364.845	90.97
365.308	91.67
365.772	91.37
366.235	87.07
366.698	80.87
367.162	91.37
367.625	91.57
368.088	88.87
368.552	87.67
369.015	94.27
369.478	91.17
369.941	102.87
370.404	99.77
370.867	100.77
371.331	111.07
371.794	109.97
372.257	103.37
372.72	108.87
373.183	106.87
373.646	92.87
374.109	100.17
374.572	103.77
375.035	100.87
375.497	109.77
375.96	108.87
376.423	105.47
376.886	111.67
377.349	111.77
377.811	109.47
378.274	102.47
378.737	111.57
379.199	111.67
379.662	112.67
380.125	112.57
380.587	103.97
381.05	111.37
381.512	114.97
381.975	131.47
382.437	124.57
382.9	118.37
383.362	129.07
383.825	134.77
384.287	138.97
384.75	126.67
385.212	126.37
385.674	138.27
386.136	134.97
386.599	123.37
387.061	122.77
387.523	126.17
387.985	135.27
388.447	132.37
388.91	131.17
389.372	136.17
389.834	131.67
390.296	130.57
390.758	132.97
391.22	140.27
391.682	159.77
392.144	165.27
392.606	151.57
393.068	148.07
393.529	155.17
393.991	142.37
394.453	140.87
394.915	141.67
395.377	145.27
395.838	147.47
396.3	141.47
396.762	146.57
397.224	142.57
397.685	131.87
398.147	134.47
398.608	139.67
399.07	141.87
399.531	137.07
399.993	148.07
400.454	161.67
400.916	158.07
401.377	154.87
401.839	156.47
402.3	160.57
402.762	171.37
403.223	183.27
403.684	176.47
404.145	171.57
404.607	171.67
405.068	171.07
405.529	176.07
405.99	201.17
406.451	185.17
406.913	181.67
407.374	176.87
407.835	170.37
408.296	175.67
408.757	177.97
409.218	194.27
409.679	182.17
410.14	187.47
410.601	184.67
411.062	193.17
411.522	190.87
411.983	184.77
412.444	187.67
412.905	191.97
413.366	195.87
413.826	207.77
414.287	225.27
414.748	283.77
415.208	271.47
415.669	235.97
416.13	227.07
416.59	219.67
417.051	230.17
417.511	229.47
417.972	254.27
418.432	269.57
418.893	310.77
419.353	271.17
419.814	214.67
420.274	201.97
420.734	192.57
421.195	202.07
421.655	204.37
422.115	202.27
422.576	205.27
423.036	220.37
423.496	223.97
423.956	238.37
424.416	256.67
424.876	287.47
425.336	281.87
425.797	282.57
426.257	273.27
426.717	254.37
427.177	249.47
427.637	237.27
428.097	239.47
428.556	255.67
429.016	283.67
429.476	277.57
429.936	288.47
430.396	297.97
430.856	300.97
431.315	327.87
431.775	361.37
432.235	392.77
432.694	362.27
433.154	374.77
433.614	408.47
434.073	347.37
434.533	298.87
434.993	277.57
435.452	290.07
435.912	309.97
436.371	311.17
436.83	293.37
437.29	277.97
437.749	265.17
438.209	260.17
438.668	286.57
439.127	303.97
439.587	286.27
440.046	267.47
440.505	275.57
440.964	292.47
441.424	340.07
441.883	327.67
442.342	284.07
442.801	246.17
443.26	239.07
443.719	244.07
444.178	241.27
444.637	230.57
445.096	241.27
445.555	236.67
446.014	238.87
446.473	246.37
446.932	255.17
447.391	247.07
447.849	247.77
448.308	232.87
448.767	240.47
449.226	250.97
449.685	257.67
450.143	273.07
450.602	266.47
451.061	250.07
451.519	252.57
451.978	255.47
452.436	257.97
452.895	263.87
453.353	275.27
453.812	264.17
454.27	260.97
454.729	267.47
455.187	256.07
455.646	262.27
456.104	267.57
456.562	280.77
457.021	283.67
457.479	278.77
457.937	299.07
458.395	291.07
458.854	272.77
459.312	277.57
459.77	291.47
460.228	282.47
460.686	265.37
461.144	274.17
461.602	266.97
462.06	271.07
462.518	279.37
462.976	279.17
463.434	276.27
463.892	284.57
464.35	295.27
464.808	320.77
465.266	292.27
465.724	292.77
466.181	294.67
466.639	295.87
467.097	314.47
467.555	336.77
468.012	329.67
468.47	339.57
468.928	348.77
469.385	367.17
469.843	376.87
470.3	386.37
470.758	385.57
471.215	416.57
471.673	434.97
472.13	444.47
472.588	454.07
473.045	402.47
473.503	410.77
473.96	429.77
474.417	442.77
474.875	466.67
475.332	508.67
475.789	503.97
476.246	501.37
476.704	518.47
477.161	550.57
477.618	560.47
478.075	601.47
478.532	642.67
478.989	726.27
479.446	834.97
479.903	803.57
480.36	827.77
480.817	874.87
481.274	985.57
481.731	1066.47
482.188	1145.67
482.645	1278.27
483.102	1364.17
483.558	1502.97
484.015	1542.97
484.472	1514.17
484.929	1466.47
485.385	1428.87
485.842	1396.97
486.299	1345.17
486.755	1315.47
487.212	1111.07
487.668	949.97
488.125	879.67
488.582	807.37
489.038	785.57
489.494	756.57
489.951	727.37
490.407	710.77
490.864	690.17
491.32	688.47
491.776	684.07
492.233	702.77
492.689	659.27
493.145	650.77
493.602	646.77
494.058	659.47
494.514	654.57
494.97	676.17
495.426	692.37
495.882	668.37
496.338	658.67
496.794	670.87
497.251	667.27
497.707	683.77
498.163	672.77
498.618	685.67
499.074	692.07
499.53	722.47
499.986	720.17
500.442	683.77
500.898	664.47
501.354	656.37
501.809	668.17
502.265	666.67
502.721	670.67
503.177	679.87
503.632	686.27
504.088	697.57
504.543	716.37
504.999	731.77
505.455	711.47
505.91	680.77
506.366	684.77
506.821	684.87
507.277	678.17
507.732	689.27
508.187	682.67
508.643	687.37
509.098	690.47
509.553	712.77
510.009	716.67
510.464	734.67
510.919	746.47
511.375	753.17
511.83	766.67
512.285	785.77
512.74	832.27
513.195	835.17
513.65	833.67
514.105	816.27
514.56	827.27
515.015	850.77
515.47	864.47
515.925	849.57
516.38	849.67
516.835	844.37
517.29	826.27
517.745	829.07
518.2	818.07
518.655	815.27
519.109	818.97
519.564	805.67
520.019	792.87
520.474	786.27
520.928	791.97
521.383	772.47
521.838	783.47
522.292	757.27
522.747	765.07
523.201	755.37
523.656	749.87
524.11	741.77
524.565	742.57
525.019	745.97
525.474	751.27
525.928	758.97
526.382	751.87
526.837	752.67
527.291	745.07
527.745	748.67
528.2	748.87
528.654	747.47
529.108	738.17
529.562	735.97
530.016	741.47
530.47	742.07
530.925	737.97
531.379	745.37
531.833	754.47
532.287	757.47
532.741	748.77
533.195	748.87
533.649	761.27
534.103	771.57
534.556	757.97
535.01	757.97
535.464	753.27
535.918	769.07
536.372	772.07
536.826	771.77
537.279	759.77
537.733	761.77
538.187	772.47
538.64	768.37
539.094	770.97
539.548	784.27
540.001	777.07
540.455	778.47
540.908	788.37
541.362	787.37
541.815	800.27
542.269	808.67
542.722	812.27
543.175	824.97
543.629	820.07
544.082	850.67
544.536	847.57
544.989	844.47
545.442	858.27
545.895	857.57
546.349	854.17
546.802	844.17
547.255	856.97
547.708	861.57
548.161	870.07
548.614	886.77
549.067	888.17
549.52	874.97
549.973	872.47
550.426	872.07
550.879	863.57
551.332	867.77
551.785	868.77
552.238	884.07
552.691	889.67
553.144	904.07
553.596	912.67
554.049	944.37
554.502	951.37
554.955	970.07
555.407	978.87
555.86	967.17
556.313	961.67
556.765	950.57
557.218	942.87
557.67	954.67
558.123	941.17
558.576	941.37
559.028	950.97
559.48	958.97
559.933	944.57
560.385	902.57
560.838	880.17
561.29	845.57
561.742	842.37
562.195	822.47
562.647	826.67
563.099	835.47
563.551	829.57
564.004	850.57
564.456	830.47
564.908	821.87
565.36	800.37
565.812	788.87
566.264	765.97
566.716	766.07
567.168	760.67
567.62	761.67
568.072	757.87
568.524	756.57
568.976	744.77
569.428	737.07
569.88	722.17
570.332	732.77
570.784	732.37
571.235	740.87
571.687	755.77
572.139	762.17
572.59	769.87
573.042	774.97
573.494	760.57
573.945	762.07
574.397	732.77
574.849	742.07
575.3	739.87
575.752	725.07
576.203	735.87
576.655	735.37
577.106	724.37
577.557	715.07
578.009	722.97
578.46	715.07
578.912	710.47
579.363	711.67
579.814	717.87
580.265	707.97
580.717	712.07
581.168	714.87
581.619	723.07
582.07	731.27
582.521	729.67
582.972	713.17
583.423	727.07
583.875	727.97
584.326	732.57
584.777	743.27
585.227	771.27
585.678	788.27
586.129	806.27
586.58	826.37
587.031	842.57
587.482	882.27
587.933	921.27
588.384	902.07
588.834	851.97
589.285	818.27
589.736	819.67
590.186	821.97
590.637	811.87
591.088	796.47
591.538	783.07
591.989	777.47
592.439	787.67
592.89	761.77
593.34	755.37
593.791	745.47
594.241	740.57
594.692	739.97
595.142	738.37
595.593	743.07
596.043	741.77
596.493	758.17
596.943	752.07
597.394	758.07
597.844	767.87
598.294	785.67
598.744	797.77
599.195	835.67
599.645	878.07
600.095	919.37
600.545	976.17
600.995	1037.47
601.445	1093.17
601.895	1148.47
602.345	1208.47
602.795	1184.57
603.245	1141.27
603.695	1079.87
604.145	1024.77
604.594	971.47
605.044	930.27
605.494	855.37
605.944	807.67
606.393	798.97
606.843	773.27
607.293	783.77
607.743	774.57
608.192	786.17
608.642	792.97
609.091	799.57
609.541	804.87
609.99	813.37
610.44	806.27
610.889	759.17
611.339	724.37
611.788	708.47
612.238	729.67
612.687	738.57
613.136	734.27
613.586	753.77
614.035	742.77
614.484	756.87
614.933	754.57
615.383	747.97
615.832	747.17
616.281	739.37
616.73	715.87
617.179	693.27
617.628	680.37
618.077	660.07
618.526	664.77
618.975	648.07
619.424	646.97
619.873	649.77
620.322	654.97
620.771	640.17
621.22	632.67
621.669	630.77
622.118	619.77
622.567	615.87
623.015	606.87
623.464	598.57
623.913	594.47
624.361	574.17
624.81	586.77
625.259	585.37
625.707	583.97
626.156	590.67
626.604	597.77
627.053	594.07
627.501	597.17
627.95	598.67
628.398	621.57
628.847	606.17
629.295	605.37
629.744	619.77
630.192	606.17
630.64	593.37
631.089	582.37
631.537	571.67
631.985	552.77
632.433	571.17
632.881	560.27
633.33	571.27
633.778	560.27
634.226	550.87
634.674	565.37
635.122	567.97
635.57	585.17
636.018	596.67
636.466	595.87
636.914	591.77
637.362	606.17
637.81	604.67
638.258	615.17
638.705	619.97
639.153	640.27
639.601	641.47
640.049	680.07
640.497	718.07
640.944	728.77
641.392	682.47
641.84	640.97
642.287	611.67
642.735	592.97
643.182	595.47
643.63	596.27
644.078	603.97
644.525	602.77
644.973	607.87
645.42	622.97
645.867	649.57
646.315	657.07
646.762	694.67
647.21	712.97
647.657	728.77
648.104	761.57
648.551	784.97
648.999	854.47
649.446	926.17
649.893	1021.67
650.34	1139.57
650.787	1377.77
651.234	1683.47
651.682	2165.07
652.129	2934.37
652.576	4148.17
653.023	6051.87
653.47	8197.17
653.917	10196.97
654.363	11741.97
654.81	12989.57
655.257	12307.87
655.704	8133.77
656.151	4935.77
656.598	3232.17
657.044	2323.37
657.491	1813.37
657.938	1449.47
658.385	1235.27
658.831	1073.47
659.278	972.67
659.724	866.87
660.171	798.77
660.618	741.87
661.064	699.57
661.511	687.87
661.957	676.27
662.404	666.37
662.85	672.07
663.296	647.57
663.743	583.57
664.189	562.17
664.635	561.77
665.082	549.47
665.528	550.67
665.974	545.87
666.42	539.17
666.867	524.07
667.313	516.67
667.759	493.77
668.205	472.07
668.651	477.97
669.097	474.07
669.543	474.87
669.989	466.27
670.435	466.97
670.881	466.67
671.327	475.57
671.773	495.37
672.219	515.97
672.665	576.47
673.11	628.07
673.556	664.97
674.002	703.97
674.448	687.97
674.893	582.87
675.339	510.27
675.785	468.57
676.23	445.77
676.676	416.17
677.122	402.57
677.567	392.37
678.013	389.97
678.458	387.77
678.904	384.07
679.349	369.77
679.794	375.47
680.24	380.47
680.685	369.87
681.131	376.57
681.576	364.57
682.021	365.57
682.466	372.37
682.912	367.87
683.357	371.07
683.802	404.77
684.247	434.87
684.692	480.07
685.137	523.67
685.583	575.07
686.028	606.17
686.473	544.77
686.918	474.57
687.363	439.87
687.807	414.87
688.252	382.57
688.697	384.17
689.142	354.47
689.587	354.77
690.032	347.67
690.477	366.37
690.921	373.87
691.366	406.27
691.811	425.07
692.255	446.57
692.7	487.77
693.145	534.37
693.589	739.37
694.034	1199.87
694.478	1620.67
694.923	1837.77
695.367	2419.17
695.812	1276.77
696.256	529.47
696.701	389.07
697.145	365.27
697.59	343.27
698.034	343.87
698.478	350.87
698.922	345.47
699.367	345.37
699.811	359.77
700.255	370.17
700.699	407.07
701.143	452.67
701.588	496.87
702.032	542.47
702.476	544.87
702.92	523.87
703.364	521.17
703.808	671.77
704.252	1097.17
704.696	1550.07
705.14	1781.67
705.584	2252.87
706.027	1126.87
706.471	565.97
706.915	427.07
707.359	373.67
707.803	344.67
708.246	334.47
708.69	324.77
709.134	330.07
709.577	328.87
710.021	336.27
710.465	317.67
710.908	319.17
711.352	313.37
711.795	326.87
712.239	375.47
712.682	411.77
713.126	436.27
713.569	474.97
714.012	380.17
714.456	321.07
714.899	302.27
715.342	290.17
715.786	280.37
716.229	270.47
716.672	268.97
717.115	259.97
717.558	261.27
718.002	271.67
718.445	279.67
718.888	295.27
719.331	311.57
719.774	325.37
720.217	317.47
720.66	300.37
721.103	284.27
721.546	264.57
721.989	261.37
722.432	243.57
722.874	247.67
723.317	242.87
723.76	246.87
724.203	269.07
724.645	334.07
725.088	465.57
725.531	605.87
725.974	683.57
726.416	577.67
726.859	319.67
727.301	257.97
727.744	250.97
728.187	247.57
728.629	252.07
729.071	255.67
729.514	276.27
729.956	282.47
730.399	299.47
730.841	309.47
731.283	295.07
731.726	279.67
732.168	271.67
732.61	290.17
733.053	309.17
733.495	338.97
733.937	367.57
734.379	421.47
734.821	464.17
735.263	567.67
735.705	892.57
736.148	1668.87
736.59	2745.97
737.032	3254.77
737.474	2653.77
737.916	868.87
738.357	462.77
738.799	353.97
739.241	315.77
739.683	304.07
740.125	310.27
740.567	314.57
741.008	337.77
741.45	332.77
741.892	333.77
742.334	370.97
742.775	388.77
743.217	368.07
743.658	289.47
744.1	273.27
744.542	286.17
744.983	344.77
745.425	371.57
745.866	375.17
746.307	291.17
746.749	291.97
747.19	347.47
747.632	487.97
748.073	931.57
748.514	1977.77
748.956	3021.17
749.397	3818.37
749.838	3150.07
750.279	3136.27
750.72	1598.47
751.162	589.07
751.603	347.27
752.044	268.07
752.485	227.97
752.926	224.47
753.367	210.27
753.808	207.57
754.249	204.07
754.69	195.47
755.131	193.07
755.572	191.57
756.013	192.27
756.453	199.67
756.894	198.17
757.335	199.57
757.776	211.87
758.216	204.57
758.657	210.77
759.098	207.87
759.538	236.57
759.979	288.37
760.42	398.57
760.86	746.17
761.301	1952.57
761.741	4710.67
762.182	6829.27
762.622	4829.07
763.063	1409.57
763.503	572.17
763.943	353.37
764.384	289.67
764.824	269.67
765.264	258.57
765.705	222.67
766.145	198.77
766.585	189.57
767.025	183.27
767.465	180.07
767.906	196.07
768.346	203.87
768.786	219.27
769.226	223.77
769.666	321.97
770.106	652.17
770.546	1646.47
770.986	2800.17
771.426	2518.57
771.866	837.17
772.306	341.97
772.745	214.07
773.185	177.77
773.625	172.77
774.065	163.87
774.505	174.37
774.944	214.37
775.384	376.97
775.824	628.17
776.263	624.67
776.703	302.17
777.142	165.87
777.582	130.17
778.021	130.07
778.461	137.27
778.9	130.97
779.34	130.17
779.779	124.47
780.219	122.07
780.658	114.37
781.097	112.37
781.537	114.77
781.976	109.97
782.415	110.77
782.855	106.67
783.294	107.07
783.733	112.77
784.172	114.77
784.611	107.87
785.05	118.77
785.489	119.97
785.928	125.07
786.367	120.87
786.806	130.27
787.245	143.07
787.684	137.27
788.123	155.67
788.562	145.77
789.001	133.27
789.44	129.67
789.879	128.57
790.317	134.77
790.756	133.47
791.195	135.07
791.634	158.37
792.072	215.37
792.511	385.37
792.95	1048.17
793.388	2257.47
793.827	2028.47
794.265	706.97
794.704	293.57
795.142	193.57
795.581	157.97
796.019	136.97
796.458	139.87
796.896	132.17
797.334	145.07
797.773	164.87
798.211	235.57
798.649	467.47
799.087	1093.07
799.526	1692.77
799.964	2137.17
800.402	2125.97
800.84	805.97
801.278	320.87
801.716	191.17
802.154	166.87
802.592	157.17
803.03	151.47
803.468	144.47
803.906	152.67
804.344	156.47
804.782	147.47
805.22	142.17
805.658	141.07
806.096	149.47
806.533	167.57
806.971	180.97
807.409	234.57
807.847	338.57
808.284	706.47
808.722	1978.47
809.16	3485.07
809.597	3319.87
810.035	5771.87
810.472	6130.27
810.91	2239.17
811.347	845.47
811.785	431.67
812.222	262.97
812.66	205.97
813.097	178.37
813.535	156.17
813.972	131.97
814.409	125.57
814.846	123.67
815.284	116.37
815.721	113.87
816.158	111.07
816.595	119.47
817.032	160.07
817.47	189.57
817.907	146.27
818.344	115.37
818.781	102.67
819.218	96.57
819.655	126.07
820.092	203.77
820.529	229.37
820.966	182.67
821.403	127.77
821.839	107.97
822.276	99.87
822.713	128.37
823.15	142.57
823.587	125.47
824.023	154.27
824.46	323.17
824.897	940.77
825.333	1421.47
825.77	614.47
826.206	240.77
826.643	141.27
827.08	112.77
827.516	93.37
827.953	91.87
828.389	82.97
828.825	67.97
829.262	67.27
829.698	66.57
830.135	69.17
830.571	69.17
831.007	64.17
831.443	66.07
831.88	62.27
832.316	62.07
832.752	71.07
833.188	67.57
833.624	71.67
834.06	77.17
834.497	75.37
834.933	79.07
835.369	78.77
835.805	74.27
836.241	79.77
836.677	87.17
837.112	91.77
837.548	104.47
837.984	140.37
838.42	217.47
838.856	529.77
839.292	1598.57
839.727	2433.57
840.163	1137.17
840.599	978.57
841.034	2132.97
841.47	2248.17
841.906	825.67
842.341	355.07
842.777	214.47
843.212	218.27
843.648	205.27
844.083	117.57
844.519	91.07
844.954	74.27
845.39	59.77
845.825	53.47
846.261	59.47
846.696	59.47
847.131	51.97
847.566	58.87
848.002	54.27
848.437	57.87
848.872	69.57
849.307	62.07
849.742	87.57
850.177	191.67
850.613	577.17
851.048	924.27
851.483	405.47
851.918	167.77
852.353	90.07
852.788	61.57
853.223	51.37
853.657	55.07
854.092	52.87
854.527	43.07
854.962	43.37
855.397	48.87
855.832	54.27
856.266	44.47
856.701	43.17
857.136	39.37
857.57	47.57
858.005	49.97
858.44	62.47
858.874	52.37
859.309	57.17
859.743	46.07
860.178	49.87
860.612	42.87
861.047	57.07
861.481	74.57
861.915	78.17
862.35	54.37
862.784	38.77
863.218	36.87
863.653	36.27
864.087	50.67
864.521	55.57
864.955	73.07
865.39	165.57
865.824	187.77
866.258	123.87
866.692	184.97
867.126	196.37
867.56	114.87
867.994	57.37
868.428	38.47
868.862	49.37
869.296	57.37
869.73	61.17
870.164	56.67
870.598	54.27
871.031	41.57
871.465	35.27
871.899	33.67
872.333	32.17
872.766	31.07
873.2	19.27
873.634	35.27
874.067	27.57
874.501	28.67
874.935	33.57
875.368	27.37
875.802	27.67
876.235	29.67
876.669	29.57
877.102	23.37
877.535	30.17
877.969	24.67
878.402	29.87
878.836	23.57
879.269	27.27
879.702	29.57
880.135	26.27
880.569	20.97
881.002	26.27
881.435	23.17
881.868	18.17
882.301	27.57
882.734	18.87
883.167	25.37
883.601	21.37
884.034	20.57
884.467	19.57
884.899	24.47
885.332	17.27
885.765	17.47
886.198	20.37
886.631	19.17
887.064	18.77
887.497	22.17
887.929	22.07
888.362	12.17
888.795	13.77
889.228	22.77
889.66	20.67
890.093	21.67
890.526	18.27
890.958	15.37
891.391	14.37
891.823	22.97
892.256	16.27
892.688	18.07
893.121	18.17
893.553	16.77
893.985	26.07
894.418	20.27
894.85	13.17
895.282	21.07
895.715	15.17
896.147	19.27
896.579	17.07
897.011	15.47
897.444	19.77
897.876	12.97
898.308	12.67
898.74	11.27
899.172	17.27
899.604	25.87
900.036	19.17
900.468	13.97
900.9	12.07
901.332	21.97
901.764	14.47
902.196	20.57
902.628	16.57
903.06	18.77
903.491	31.37
903.923	27.37
904.355	21.27
904.787	24.97
905.218	22.87
905.65	25.87
906.082	14.67
906.513	10.67
906.945	15.97
907.376	13.17
907.808	24.17
908.239	21.77
908.671	18.37
909.102	21.07
909.534	24.47
909.965	48.27
910.397	96.57
910.828	331.67
911.259	502.97
911.691	229.47
912.122	118.57
912.553	57.57
912.984	34.87
913.415	26.77
913.847	30.87
914.278	21.37
914.709	16.67
915.14	15.37
915.571	21.47
916.002	15.27
916.433	26.37
916.864	17.67
917.295	17.27
917.726	22.57
918.157	24.27
918.587	29.47
919.018	23.37
919.449	26.97
919.88	25.37
920.311	36.37
920.741	49.97
921.172	167.87
921.603	160.27
922.033	79.97
922.464	44.07
922.895	20.77
923.325	19.17
923.756	15.67
924.186	21.27
924.617	23.17
925.047	20.87
925.478	25.07
925.908	21.67
926.338	16.27
926.769	9.77
927.199	19.87
927.629	8.17
928.06	18.77
928.49	11.97
928.92	14.17
929.35	9.57
929.78	6.27
930.21	9.47
930.641	7.87
931.071	15.37
931.501	5.27
931.931	7.87
932.361	9.87
932.791	4.17
933.221	8.77
933.651	11.07
934.08	23.17
934.51	29.57
934.94	15.87
935.37	9.77
935.8	13.47
936.229	7.97
936.659	12.17
937.089	6.97
937.519	16.47
937.948	23.97
938.378	18.77
938.807	4.57
939.237	5.47
939.666	10.67
940.096	-3.83
940.525	4.17
940.955	5.07
941.384	-0.43
941.814	-6.13
942.243	3.47
942.672	1.47
943.102	-2.63
943.531	-1.13
943.96	6.17
944.39	11.07
944.819	1.37
945.248	5.47
945.677	6.57
946.106	2.37
946.535	4.67
946.964	3.37
947.393	1.97
947.822	-1.63
948.251	-6.03
948.68	11.07
949.109	9.17
949.538	7.77
949.967	-1.33
950.396	2.27
950.825	-2.13
951.254	6.97
951.682	-5.43
952.111	1.47
952.54	11.87
952.969	-1.23
953.397	-5.93
953.826	1.87
954.254	-3.83
954.683	1.97
955.112	-7.63
955.54	5.67
955.969	3.57
956.397	5.17
956.826	-1.63
957.254	8.37
957.682	1.97
958.111	4.27
958.539	2.87
958.967	9.17
959.396	1.67
959.824	5.27
960.252	1.27
960.68	-4.53
961.109	-4.43
961.537	-5.73
961.965	-1.23
962.393	-0.33
962.821	-1.63
963.249	1.77
963.677	2.67
964.105	9.37
964.533	53.17
964.961	44.57
965.389	19.27
965.817	11.57
966.245	-0.83
966.672	1.37
967.1	-6.03
967.528	3.17
967.956	-5.53
968.383	3.87
968.811	-2.03
969.239	2.17
969.666	0.77
970.094	2.47
970.522	6.17
970.949	-1.03
971.377	-4.03
971.804	-2.53
972.232	-0.23
972.659	-2.23
973.087	0.97
973.514	-6.43
973.941	-1.83
974.369	6.57
974.796	5.37
975.223	1.87
975.651	-2.33
976.078	6.57
976.505	2.27
976.932	1.97
977.359	13.97
977.786	16.47
978.214	5.97
978.641	-0.03
979.068	-0.23
979.495	-5.33
979.922	-3.03
980.349	-1.13
980.776	3.87
981.202	-3.13
981.629	5.77
982.056	6.27
982.483	-5.73
982.91	3.87
983.337	-9.23
983.763	-1.83
984.19	-0.63
984.617	-1.83
985.043	-4.33
985.47	4.37
985.897	2.47
986.323	-3.23
986.75	4.77
987.176	-3.93
987.603	-4.43
988.029	2.07
988.456	-3.63
988.882	1.67
989.308	-7.83
989.735	-0.43
990.161	-1.03
990.587	-8.33
991.014	1.47
991.44	4.67
991.866	-1.83
992.292	-4.13
992.719	-4.33
993.145	5.37
993.571	-6.83
993.997	-2.53
994.423	4.17
994.849	-6.23
995.275	4.47
995.701	1.47
996.127	0.87
996.553	1.27
996.979	-1.63
997.405	2.77
997.83	-5.73
998.256	-9.43
998.682	-2.13
999.108	-1.43
999.534	-0.93
999.959	-2.03
1000.385	-0.43
1000.811	0.87
1001.236	-11.93
1001.662	-8.93
1002.087	-11.13
1002.513	-4.33
1002.938	2.27
1003.364	-0.73
1003.789	1.97
1004.215	5.07
1004.64	-2.93
1005.066	3.07
1005.491	2.27
1005.916	-1.33
1006.342	-1.23
1006.767	-3.93
1007.192	6.87
1007.617	-3.33
1008.042	1.57
1008.468	-5.83
1008.893	-2.33
1009.318	-3.63
1009.743	-2.43
1010.168	4.07
1010.593	0.67
1011.018	-5.03
1011.443	2.07
1011.868	-0.53
1012.293	-0.63
1012.718	-8.23
1013.143	2.87
1013.567	3.57
1013.992	-3.03
1014.417	-12.73
1014.842	0.87
1015.267	-1.73
1015.691	-4.83
1016.116	2.37
1016.541	-0.83
1016.965	3.97
1017.39	-2.23
1017.814	3.87
1018.239	2.07
1018.663	-6.03
1019.088	-10.43
1019.512	-0.63
1019.937	-0.73
1020.361	-1.93
1020.785	-6.53
1021.21	-4.23
1021.634	-1.03
1022.058	3.77
1022.483	4.07
1022.907	0.67
1023.331	-6.63
1023.755	-1.73
1024.179	1.07
1024.604	-6.23
1025.028	-4.43
1025.452	-4.63
1025.876	-0.03
1026.3	0.17
1026.724	-9.43
1027.148	0.77
1027.572	-4.93
1027.996	0.37
1028.42	-4.63
1028.843	-2.83
1029.267	-5.53
1029.691	0.47
1030.115	-5.33
1030.539	-5.63
1030.962	-10.33
1031.386	-6.13
1031.81	3.17
1032.233	3.87
1032.657	5.37
1033.08	1.07
1033.504	0.07
1033.927	-0.83
1034.351	0.07
1034.774	-1.73
1035.198	-3.63
1035.621	-4.33
1036.045	-5.03
1036.468	-0.43
1036.891	-14.53
1037.315	-7.33
1037.738	-7.13
1038.161	2.77
1038.584	-5.13
1039.008	-5.53
1039.431	-2.63
1039.854	2.27
1040.277	-7.63
1040.7	-7.53
1041.123	0.27
1041.546	-7.93
1041.969	-4.83
1042.392	-5.73
1042.815	-6.93
1043.238	2.97
1043.661	-2.73
1044.084	-8.13
1044.507	-3.63
1044.93	1.17
1045.352	-6.03
1045.775	-4.73
1046.198	-2.13
1046.621	-4.93
1047.043	0.37
1047.466	0.17
1047.889	-5.23
1048.311	-9.13
1048.734	0.87
1049.156	-0.83
1049.579	-4.33
1050.001	-4.93
1050.424	-0.23
1050.846	-3.03
1051.269	-4.83
1051.691	-8.83
1052.113	-7.43
1052.536	-1.83
1052.958	1.07
1053.38	-4.03
1053.802	-10.93
1054.225	-3.33
1054.647	-12.93
1055.069	-1.53
1055.491	-2.53
1055.913	-8.63
1056.335	0.37
1056.757	-1.63
1057.179	-7.03
1057.601	-5.63
1058.023	-3.93
1058.445	-1.53
1058.867	-5.53
1059.289	-2.93
1059.711	-3.93
1060.133	0.37
1060.555	-4.03
1060.976	-11.83
1061.398	-7.63
1061.82	-4.23
1062.241	-11.43
1062.663	-12.03
1063.085	-2.13
1063.506	2.07
1063.928	-3.33
1064.35	-1.93
1064.771	-8.53
1065.193	-1.93
1065.614	-9.83
1066.035	-6.83
1066.457	-2.03
1066.878	0.17
1067.3	-2.33
1067.721	-3.73
1068.142	-8.83
1068.564	-6.63
1068.985	-4.13
1069.406	-11.03
1069.827	-6.73
1070.248	-1.13
1070.67	-3.93
1071.091	-4.33
1071.512	-3.43
1071.933	-3.23
1072.354	-1.43
1072.775	-1.33
1073.196	-5.53
1073.617	-2.23
1074.038	-8.13
1074.459	5.07
1074.88	-6.83
1075.3	0.27
1075.721	-3.33
1076.142	-2.03
1076.563	-0.43
1076.983	-7.03
1077.404	-7.03
1077.825	-11.13
1078.246	-5.33
1078.666	-11.33
1079.087	-5.93
1079.507	-4.13
1079.928	0.07
1080.348	-1.63
1080.769	-5.63
1081.189	-1.93
1081.61	-5.43
1082.03	-6.83
1082.451	-8.63
1082.871	1.97
1083.291	-10.73
1083.711	-5.73
1084.132	-4.23
1084.552	-6.53
1084.972	0.07
1085.392	-8.03
1085.813	-10.43
1086.233	-9.83
1086.653	-3.53
1087.073	2.07
1087.493	-5.83
1087.913	-4.43
1088.333	-6.33
1088.753	-4.33
1089.173	2.77
1089.593	-4.53
1090.013	-0.23
1090.433	-1.23
1090.852	-4.33
1091.272	-3.33
1091.692	-8.03
1092.112	-4.93
1092.531	-14.33
1092.951	-9.33
1093.371	-4.73
1093.79	-1.03
1094.21	-5.73
1094.63	-7.63
1095.049	-1.03
1095.469	-3.93
1095.888	-2.03
1096.308	2.87
1096.727	5.57
1097.146	-7.43
1097.566	-4.53
1097.985	-5.13
1098.405	-3.63
1098.824	-7.73
1099.243	-6.83
1099.662	-6.43
1100.082	-6.03
1100.501	-1.03
1100.92	-5.43
1101.339	-0.83
1101.758	-8.33
