Data from 20171114-ORNL-Ar_H_NY_Subt18_08-08-50-353.txt Node
Date: Tue Nov 14 08:08:50 EST 2017
User: Ender
Spectrometer: HR+D1039
Trigger mode: 0
Integration Time (sec): 2.730000E-2
Scans to average: 10
Electric dark correction enabled: true
Nonlinearity correction enabled: false
Boxcar width: 0
XAxis mode: Wavelengths
Number of Pixels in Spectrum: 2048
>>>>>Begin Spectral Data<<<<<
187.836	-3.54
188.309	-3.54
188.782	-3.54
189.255	-2.74
189.728	-3.74
190.201	5.66
190.674	3.36
191.147	2.56
191.619	-7.84
192.092	0.86
192.565	9.16
193.038	-1.24
193.511	-2.14
193.984	5.06
194.456	-0.44
194.929	-1.14
195.402	-3.94
195.874	0.16
196.347	-5.04
196.82	-5.54
197.292	3.26
197.765	-1.64
198.237	-8.84
198.71	1.56
199.182	-2.64
199.655	-0.44
200.127	1.86
200.6	-1.74
201.072	-1.14
201.544	-4.84
202.017	-8.14
202.489	2.56
202.961	-1.34
203.433	1.06
203.906	-4.34
204.378	-4.04
204.85	2.16
205.322	-6.04
205.794	-2.94
206.266	-3.54
206.739	-8.14
207.211	5.66
207.683	-6.84
208.155	-1.94
208.627	-6.64
209.099	-13.14
209.57	-4.64
210.042	-4.84
210.514	-1.04
210.986	-5.24
211.458	-10.84
211.93	-4.84
212.402	-2.34
212.873	-5.84
213.345	-7.24
213.817	-10.74
214.288	-5.54
214.76	-3.04
215.232	-3.14
215.703	-7.74
216.175	1.66
216.646	-2.34
217.118	-9.64
217.589	-4.74
218.061	-1.94
218.532	-4.34
219.004	-7.44
219.475	-0.64
219.946	-4.74
220.418	-11.24
220.889	2.46
221.36	-1.24
221.832	-1.44
222.303	-7.14
222.774	6.06
223.245	-8.54
223.717	-11.84
224.188	-2.34
224.659	-5.44
225.13	-9.54
225.601	-4.84
226.072	-4.74
226.543	4.76
227.014	2.46
227.485	-2.14
227.956	-3.94
228.427	-3.64
228.898	-1.14
229.369	3.36
229.839	-4.94
230.31	-4.74
230.781	-0.94
231.252	-3.24
231.722	-6.94
232.193	-11.14
232.664	-2.34
233.135	-1.34
233.605	-1.44
234.076	-10.44
234.546	2.46
235.017	6.66
235.487	2.06
235.958	0.66
236.428	-8.84
236.899	-3.04
237.369	1.96
237.84	-5.84
238.31	-1.74
238.78	-9.54
239.251	-11.84
239.721	-7.24
240.191	-6.44
240.662	1.56
241.132	-1.74
241.602	-10.64
242.072	-3.84
242.542	3.16
243.013	-1.44
243.483	0.16
243.953	-0.74
244.423	-3.94
244.893	-4.84
245.363	-1.04
245.833	-5.34
246.303	-7.24
246.773	2.16
247.243	-5.44
247.712	-1.24
248.182	2.76
248.652	-4.04
249.122	-11.14
249.592	-3.04
250.061	1.56
250.531	11.86
251.001	-5.64
251.471	1.16
251.94	-0.34
252.41	-4.24
252.879	-2.34
253.349	6.36
253.818	5.16
254.288	1.26
254.757	3.26
255.227	-1.04
255.696	-1.94
256.166	2.46
256.635	-0.54
257.105	4.06
257.574	2.66
258.043	-0.94
258.513	-0.94
258.982	5.26
259.451	-8.34
259.92	2.36
260.389	0.26
260.859	7.96
261.328	-0.74
261.797	4.66
262.266	7.06
262.735	5.96
263.204	1.76
263.673	-0.94
264.142	2.06
264.611	-4.04
265.08	-0.54
265.549	-3.34
266.018	-1.24
266.487	-8.84
266.955	-6.04
267.424	-1.94
267.893	3.56
268.362	-0.34
268.83	-3.14
269.299	6.16
269.768	2.76
270.236	2.96
270.705	-4.04
271.174	0.66
271.642	-2.34
272.111	-0.84
272.579	3.26
273.048	3.46
273.516	4.56
273.985	0.56
274.453	3.66
274.922	13.36
275.39	1.96
275.858	0.16
276.327	4.56
276.795	14.36
277.263	4.36
277.731	8.66
278.2	13.86
278.668	7.16
279.136	9.36
279.604	1.56
280.072	1.86
280.54	-2.54
281.008	3.16
281.477	8.16
281.945	4.66
282.413	10.76
282.881	4.06
283.348	3.66
283.816	9.46
284.284	7.16
284.752	13.96
285.22	2.56
285.688	9.46
286.156	6.66
286.623	14.46
287.091	4.26
287.559	3.76
288.026	5.16
288.494	8.16
288.962	3.86
289.429	1.16
289.897	11.36
290.364	9.06
290.832	13.86
291.3	8.26
291.767	11.76
292.234	12.26
292.702	10.96
293.169	9.16
293.637	13.76
294.104	7.36
294.571	4.16
295.039	7.56
295.506	6.66
295.973	6.06
296.44	6.26
296.908	5.16
297.375	8.46
297.842	14.66
298.309	10.66
298.776	9.26
299.243	12.36
299.71	7.76
300.177	12.06
300.644	14.66
301.111	10.76
301.578	12.36
302.045	8.26
302.512	9.86
302.979	13.16
303.446	17.56
303.913	16.46
304.379	12.46
304.846	11.96
305.313	21.16
305.78	5.96
306.246	14.16
306.713	20.06
307.18	16.56
307.646	19.96
308.113	13.36
308.579	16.16
309.046	16.06
309.512	20.06
309.979	9.66
310.445	18.06
310.912	25.06
311.378	21.16
311.845	21.46
312.311	23.76
312.777	25.36
313.244	22.06
313.71	30.76
314.176	23.86
314.642	24.26
315.109	17.06
315.575	25.16
316.041	23.56
316.507	22.06
316.973	23.76
317.439	23.96
317.905	24.06
318.371	29.06
318.837	26.96
319.303	24.66
319.769	22.86
320.235	24.86
320.701	24.76
321.167	22.06
321.633	21.96
322.099	29.26
322.564	35.76
323.03	29.16
323.496	29.26
323.962	34.66
324.427	28.96
324.893	28.26
325.359	30.56
325.824	29.96
326.29	29.86
326.755	33.86
327.221	31.16
327.686	26.56
328.152	36.16
328.617	30.96
329.083	39.16
329.548	40.66
330.014	30.26
330.479	29.26
330.944	39.06
331.41	31.86
331.875	41.86
332.34	38.06
332.805	39.16
333.271	40.16
333.736	32.76
334.201	40.46
334.666	38.16
335.131	46.46
335.596	44.66
336.061	38.76
336.526	33.16
336.991	33.76
337.456	49.46
337.921	39.86
338.386	35.56
338.851	40.06
339.316	44.06
339.781	44.86
340.246	44.66
340.711	35.96
341.175	44.46
341.64	34.46
342.105	43.86
342.569	45.86
343.034	46.06
343.499	44.56
343.963	43.56
344.428	48.46
344.893	55.06
345.357	52.66
345.822	51.36
346.286	49.96
346.751	54.26
347.215	54.06
347.679	60.36
348.144	80.66
348.608	68.76
349.073	61.06
349.537	60.06
350.001	62.66
350.465	75.46
350.93	69.86
351.394	70.06
351.858	55.66
352.322	74.46
352.786	70.96
353.25	87.96
353.715	86.76
354.179	82.86
354.643	102.86
355.107	96.76
355.571	81.76
356.035	83.96
356.498	96.66
356.962	94.36
357.426	106.56
357.89	92.56
358.354	70.86
358.818	73.36
359.281	65.66
359.745	62.26
360.209	60.96
360.673	64.36
361.136	72.16
361.6	72.76
362.064	66.96
362.527	68.26
362.991	80.56
363.454	69.66
363.918	64.46
364.381	62.16
364.845	70.66
365.308	72.76
365.772	76.26
366.235	77.56
366.698	68.36
367.162	70.06
367.625	80.26
368.088	74.86
368.552	74.16
369.015	72.96
369.478	85.06
369.941	87.66
370.404	82.16
370.867	84.46
371.331	86.46
371.794	93.46
372.257	88.06
372.72	90.66
373.183	93.86
373.646	91.56
374.109	87.96
374.572	86.56
375.035	89.16
375.497	94.06
375.96	97.66
376.423	92.96
376.886	91.46
377.349	98.96
377.811	97.66
378.274	92.36
378.737	93.76
379.199	94.36
379.662	93.66
380.125	100.86
380.587	94.46
381.05	101.26
381.512	101.86
381.975	111.16
382.437	114.06
382.9	106.66
383.362	113.06
383.825	116.76
384.287	116.66
384.75	104.36
385.212	113.46
385.674	119.36
386.136	119.66
386.599	111.96
387.061	112.76
387.523	111.46
387.985	105.46
388.447	116.46
388.91	119.26
389.372	121.66
389.834	125.76
390.296	124.76
390.758	121.96
391.22	126.16
391.682	141.56
392.144	148.76
392.606	138.96
393.068	133.16
393.529	135.26
393.991	136.96
394.453	121.46
394.915	116.86
395.377	125.86
395.838	125.66
396.3	126.16
396.762	126.06
397.224	124.26
397.685	116.66
398.147	121.16
398.608	120.96
399.07	123.36
399.531	125.46
399.993	138.16
400.454	141.46
400.916	139.06
401.377	140.46
401.839	141.46
402.3	145.56
402.762	146.06
403.223	166.16
403.684	156.76
404.145	150.66
404.607	149.16
405.068	161.36
405.529	162.56
405.99	174.96
406.451	164.46
406.913	163.66
407.374	156.46
407.835	151.46
408.296	157.96
408.757	159.76
409.218	168.76
409.679	166.86
410.14	164.46
410.601	164.46
411.062	174.36
411.522	175.16
411.983	170.36
412.444	168.96
412.905	176.56
413.366	179.06
413.826	196.76
414.287	217.66
414.748	245.56
415.208	236.96
415.669	208.06
416.13	204.56
416.59	200.76
417.051	208.06
417.511	224.26
417.972	230.86
418.432	242.76
418.893	289.26
419.353	239.86
419.814	194.46
420.274	179.26
420.734	180.66
421.195	193.26
421.655	189.06
422.115	188.06
422.576	187.66
423.036	201.56
423.496	209.76
423.956	214.86
424.416	217.86
424.876	263.86
425.336	248.26
425.797	258.96
426.257	255.06
426.717	233.06
427.177	226.66
427.637	224.26
428.097	229.16
428.556	228.16
429.016	257.06
429.476	252.26
429.936	256.76
430.396	266.56
430.856	271.56
431.315	300.76
431.775	329.76
432.235	373.36
432.694	336.46
433.154	349.56
433.614	374.36
434.073	318.16
434.533	273.86
434.993	268.56
435.452	270.66
435.912	281.56
436.371	275.16
436.83	268.86
437.29	257.56
437.749	242.46
438.209	242.26
438.668	266.76
439.127	277.36
439.587	254.56
440.046	239.56
440.505	257.16
440.964	269.36
441.424	312.36
441.883	303.46
442.342	255.46
442.801	230.86
443.26	225.56
443.719	229.16
444.178	219.66
444.637	212.86
445.096	228.26
445.555	228.76
446.014	231.96
446.473	225.06
446.932	227.56
447.391	228.66
447.849	235.16
448.308	222.06
448.767	222.76
449.226	238.06
449.685	234.06
450.143	253.56
450.602	240.06
451.061	230.26
451.519	235.36
451.978	230.56
452.436	241.56
452.895	243.96
453.353	250.96
453.812	245.96
454.27	237.46
454.729	246.76
455.187	239.76
455.646	244.06
456.104	244.76
456.562	257.56
457.021	273.86
457.479	265.26
457.937	276.26
458.395	257.56
458.854	255.86
459.312	251.76
459.77	277.46
460.228	254.86
460.686	246.16
461.144	251.66
461.602	250.86
462.06	247.26
462.518	261.56
462.976	259.16
463.434	261.16
463.892	261.56
464.35	278.26
464.808	290.16
465.266	265.56
465.724	266.76
466.181	278.86
466.639	277.56
467.097	296.06
467.555	306.36
468.012	298.76
468.47	315.46
468.928	332.36
469.385	347.56
469.843	345.76
470.3	351.36
470.758	355.76
471.215	385.76
471.673	407.56
472.13	409.76
472.588	413.66
473.045	377.96
473.503	378.16
473.96	392.86
474.417	409.56
474.875	438.16
475.332	477.96
475.789	464.26
476.246	471.96
476.704	487.66
477.161	494.96
477.618	522.76
478.075	550.56
478.532	611.46
478.989	670.86
479.446	797.36
479.903	750.66
480.36	774.06
480.817	823.46
481.274	905.96
481.731	1011.66
482.188	1084.16
482.645	1203.96
483.102	1268.66
483.558	1386.26
484.015	1430.26
484.472	1400.96
484.929	1374.56
485.385	1329.46
485.842	1295.16
486.299	1259.96
486.755	1211.56
487.212	1042.16
487.668	897.46
488.125	825.76
488.582	762.06
489.038	733.46
489.494	698.86
489.951	672.46
490.407	656.96
490.864	645.86
491.32	642.96
491.776	635.86
492.233	644.86
492.689	619.66
493.145	609.26
493.602	605.96
494.058	617.06
494.514	618.06
494.97	635.36
495.426	643.46
495.882	627.86
496.338	605.86
496.794	620.66
497.251	617.56
497.707	631.16
498.163	632.16
498.618	644.26
499.074	635.16
499.53	670.16
499.986	663.06
500.442	641.76
500.898	629.46
501.354	620.86
501.809	629.86
502.265	626.86
502.721	635.06
503.177	630.36
503.632	645.86
504.088	661.06
504.543	673.96
504.999	691.36
505.455	655.06
505.91	639.06
506.366	641.46
506.821	639.46
507.277	647.96
507.732	634.46
508.187	634.66
508.643	648.86
509.098	656.56
509.553	668.86
510.009	667.66
510.464	677.26
510.919	705.86
511.375	705.76
511.83	714.56
512.285	734.56
512.74	763.86
513.195	788.06
513.65	771.96
514.105	767.86
514.56	779.86
515.015	787.56
515.47	817.06
515.925	780.86
516.38	795.96
516.835	806.16
517.29	797.36
517.745	779.26
518.2	772.26
518.655	753.36
519.109	743.76
519.564	746.36
520.019	741.66
520.474	738.56
520.928	732.16
521.383	737.66
521.838	719.66
522.292	719.66
522.747	728.46
523.201	724.56
523.656	712.46
524.11	698.66
524.565	705.86
525.019	707.76
525.474	714.66
525.928	702.36
526.382	713.36
526.837	707.06
527.291	714.96
527.745	703.36
528.2	703.66
528.654	703.76
529.108	691.76
529.562	700.36
530.016	700.76
530.47	710.26
530.925	696.16
531.379	697.46
531.833	718.86
532.287	705.26
532.741	706.56
533.195	705.46
533.649	715.46
534.103	719.16
534.556	721.06
535.01	718.16
535.464	715.86
535.918	724.56
536.372	725.76
536.826	721.16
537.279	712.56
537.733	717.56
538.187	728.26
538.64	720.76
539.094	729.06
539.548	735.96
540.001	731.86
540.455	730.36
540.908	741.86
541.362	752.26
541.815	755.46
542.269	764.86
542.722	771.46
543.175	778.36
543.629	790.16
544.082	812.26
544.536	798.36
544.989	798.86
545.442	806.96
545.895	808.26
546.349	804.46
546.802	807.16
547.255	815.26
547.708	816.66
548.161	823.26
548.614	833.66
549.067	848.66
549.52	826.16
549.973	834.16
550.426	813.96
550.879	810.06
551.332	814.06
551.785	820.86
552.238	831.96
552.691	834.56
553.144	859.26
553.596	858.06
554.049	889.86
554.502	913.56
554.955	923.26
555.407	938.06
555.86	906.46
556.313	911.96
556.765	902.36
557.218	900.36
557.67	895.66
558.123	895.76
558.576	892.96
559.028	890.36
559.48	899.76
559.933	881.86
560.385	857.86
560.838	830.76
561.29	799.16
561.742	798.56
562.195	780.56
562.647	786.06
563.099	802.76
563.551	794.56
564.004	802.66
564.456	783.56
564.908	776.36
565.36	763.06
565.812	745.16
566.264	742.56
566.716	735.76
567.168	723.56
567.62	727.56
568.072	718.66
568.524	716.56
568.976	709.56
569.428	700.66
569.88	687.96
570.332	708.76
570.784	708.46
571.235	702.66
571.687	706.86
572.139	731.66
572.59	742.06
573.042	731.36
573.494	727.06
573.945	726.56
574.397	702.86
574.849	708.66
575.3	712.86
575.752	697.26
576.203	694.36
576.655	706.36
577.106	690.56
577.557	685.46
578.009	685.16
578.46	680.66
578.912	672.86
579.363	682.66
579.814	677.26
580.265	672.56
580.717	674.16
581.168	686.66
581.619	690.86
582.07	685.56
582.521	692.56
582.972	681.16
583.423	688.76
583.875	689.56
584.326	698.16
584.777	715.86
585.227	743.06
585.678	763.16
586.129	780.66
586.58	808.86
587.031	829.56
587.482	865.66
587.933	910.16
588.384	875.26
588.834	819.46
589.285	799.96
589.736	790.96
590.186	791.26
590.637	792.96
591.088	766.46
591.538	751.96
591.989	747.66
592.439	748.66
592.89	739.96
593.34	729.06
593.791	725.46
594.241	714.16
594.692	722.26
595.142	714.96
595.593	709.76
596.043	718.86
596.493	724.96
596.943	730.46
597.394	739.66
597.844	744.96
598.294	763.46
598.744	780.26
599.195	800.86
599.645	843.46
600.095	896.16
600.545	948.96
600.995	1002.06
601.445	1057.76
601.895	1109.46
602.345	1163.66
602.795	1135.36
603.245	1085.06
603.695	1049.46
604.145	989.86
604.594	944.86
605.044	877.96
605.494	830.06
605.944	771.06
606.393	763.66
606.843	743.56
607.293	759.96
607.743	742.66
608.192	757.96
608.642	776.76
609.091	776.46
609.541	772.06
609.99	774.26
610.44	781.06
610.889	737.66
611.339	721.46
611.788	692.46
612.238	708.56
612.687	720.06
613.136	722.86
613.586	729.86
614.035	724.06
614.484	732.66
614.933	731.26
615.383	728.56
615.832	724.56
616.281	729.66
616.73	691.86
617.179	671.16
617.628	656.06
618.077	651.36
618.526	633.16
618.975	635.36
619.424	637.16
619.873	630.06
620.322	638.66
620.771	624.16
621.22	623.06
621.669	608.16
622.118	600.26
622.567	594.46
623.015	580.86
623.464	587.06
623.913	577.46
624.361	566.86
624.81	561.36
625.259	576.06
625.707	581.86
626.156	571.06
626.604	577.96
627.053	575.06
627.501	574.76
627.95	589.06
628.398	604.36
628.847	582.76
629.295	577.76
629.744	598.96
630.192	589.06
630.64	588.56
631.089	561.66
631.537	554.16
631.985	545.76
632.433	545.56
632.881	545.16
633.33	552.06
633.778	541.96
634.226	534.86
634.674	555.96
635.122	554.66
635.57	566.06
636.018	588.06
636.466	571.46
636.914	581.56
637.362	595.26
637.81	596.16
638.258	601.36
638.705	610.46
639.153	630.26
639.601	626.16
640.049	660.06
640.497	688.76
640.944	712.16
641.392	654.46
641.84	631.06
642.287	597.46
642.735	582.76
643.182	584.36
643.63	589.46
644.078	582.66
644.525	585.26
644.973	600.36
645.42	601.76
645.867	639.26
646.315	651.06
646.762	676.96
647.21	700.36
647.657	720.36
648.104	749.16
648.551	772.66
648.999	835.36
649.446	909.36
649.893	995.56
650.34	1134.46
650.787	1356.86
651.234	1668.06
651.682	2145.56
652.129	2909.86
652.576	4160.06
653.023	6087.36
653.47	8189.36
653.917	10089.86
654.363	11551.86
654.81	12654.46
655.257	11990.66
655.704	7962.76
656.151	4805.16
656.598	3177.66
657.044	2275.16
657.491	1779.16
657.938	1435.16
658.385	1199.36
658.831	1057.06
659.278	934.86
659.724	846.16
660.171	792.06
660.618	723.66
661.064	684.56
661.511	670.76
661.957	661.16
662.404	645.96
662.85	657.26
663.296	629.36
663.743	571.36
664.189	550.06
664.635	551.86
665.082	538.26
665.528	541.36
665.974	527.96
666.42	524.76
666.867	512.76
667.313	500.36
667.759	480.26
668.205	467.06
668.651	473.96
669.097	462.16
669.543	456.96
669.989	466.46
670.435	461.56
670.881	462.16
671.327	462.46
671.773	488.46
672.219	516.36
672.665	573.36
673.11	607.56
673.556	650.06
674.002	682.06
674.448	687.76
674.893	574.66
675.339	499.36
675.785	471.06
676.23	433.66
676.676	408.96
677.122	403.46
677.567	389.56
678.013	387.66
678.458	378.36
678.904	379.56
679.349	363.36
679.794	369.86
680.24	371.26
680.685	367.16
681.131	358.26
681.576	368.76
682.021	371.06
682.466	356.56
682.912	358.56
683.357	364.56
683.802	401.36
684.247	435.36
684.692	468.86
685.137	516.16
685.583	561.36
686.028	585.86
686.473	547.56
686.918	474.46
687.363	441.76
687.807	407.36
688.252	387.26
688.697	368.66
689.142	355.56
689.587	354.76
690.032	341.96
690.477	358.86
690.921	367.86
691.366	406.16
691.811	416.56
692.255	454.36
692.7	481.36
693.145	528.46
693.589	752.56
694.034	1226.86
694.478	1636.56
694.923	1809.56
695.367	2350.16
695.812	1256.56
696.256	524.56
696.701	388.96
697.145	360.46
697.59	338.86
698.034	329.66
698.478	330.26
698.922	338.06
699.367	340.76
699.811	351.56
700.255	364.46
700.699	401.76
701.143	444.46
701.588	492.76
702.032	543.46
702.476	543.26
702.92	509.66
703.364	529.26
703.808	697.76
704.252	1123.96
704.696	1564.26
705.14	1739.76
705.584	2225.26
706.027	1119.26
706.471	553.56
706.915	419.76
707.359	366.56
707.803	335.46
708.246	319.06
708.69	328.06
709.134	325.46
709.577	323.46
710.021	332.96
710.465	321.06
710.908	321.66
711.352	311.26
711.795	324.56
712.239	371.46
712.682	398.66
713.126	428.26
713.569	471.16
714.012	375.66
714.456	318.46
714.899	296.86
715.342	282.96
715.786	266.56
716.229	271.36
716.672	266.26
717.115	260.76
717.558	259.16
718.002	268.86
718.445	275.46
718.888	294.36
719.331	300.46
719.774	325.36
720.217	315.26
720.66	296.76
721.103	280.96
721.546	262.06
721.989	261.26
722.432	239.96
722.874	247.86
723.317	243.06
723.76	250.26
724.203	272.36
724.645	334.86
725.088	472.46
725.531	596.46
725.974	671.06
726.416	567.96
726.859	322.26
727.301	259.96
727.744	249.86
728.187	239.36
728.629	246.06
729.071	262.56
729.514	274.06
729.956	287.26
730.399	294.86
730.841	302.86
731.283	279.36
731.726	277.16
732.168	278.46
732.61	284.96
733.053	303.76
733.495	337.76
733.937	377.36
734.379	421.76
734.821	466.76
735.263	583.26
735.705	916.16
736.148	1725.76
736.59	2771.16
737.032	3194.16
737.474	2596.86
737.916	867.06
738.357	454.66
738.799	349.16
739.241	318.56
739.683	293.66
740.125	300.36
740.567	310.46
741.008	335.36
741.45	328.76
741.892	334.56
742.334	370.06
742.775	374.96
743.217	369.26
743.658	284.36
744.1	271.36
744.542	287.86
744.983	338.16
745.425	362.76
745.866	358.96
746.307	290.36
746.749	294.46
747.19	345.96
747.632	504.36
748.073	975.76
748.514	2047.26
748.956	3022.66
749.397	3810.76
749.838	3151.46
750.279	3061.76
750.72	1579.36
751.162	582.96
751.603	337.06
752.044	266.56
752.485	226.56
752.926	224.56
753.367	211.16
753.808	206.16
754.249	205.66
754.69	194.76
755.131	190.96
755.572	193.16
756.013	195.86
756.453	198.86
756.894	196.46
757.335	206.26
757.776	208.06
758.216	201.76
758.657	218.36
759.098	212.66
759.538	232.86
759.979	284.66
760.42	410.46
760.86	785.96
761.301	2038.86
761.741	4819.96
762.182	6661.96
762.622	4736.36
763.063	1392.96
763.503	574.26
763.943	343.66
764.384	291.46
764.824	271.76
765.264	264.56
765.705	231.36
766.145	191.56
766.585	182.46
767.025	178.86
767.465	176.26
767.906	194.16
768.346	213.06
768.786	227.56
769.226	236.26
769.666	337.46
770.106	684.16
770.546	1708.16
770.986	2762.56
771.426	2456.36
771.866	832.16
772.306	351.66
772.745	222.96
773.185	173.96
773.625	171.26
774.065	157.36
774.505	172.16
774.944	221.26
775.384	403.76
775.824	635.56
776.263	607.96
776.703	300.26
777.142	165.36
777.582	136.86
778.021	130.56
778.461	133.66
778.9	131.06
779.34	129.06
779.779	118.56
780.219	112.26
780.658	110.16
781.097	116.36
781.537	119.26
781.976	114.96
782.415	105.46
782.855	111.76
783.294	108.66
783.733	111.16
784.172	113.06
784.611	106.76
785.05	108.76
785.489	114.66
785.928	125.66
786.367	128.86
786.806	124.46
787.245	131.26
787.684	139.46
788.123	154.06
788.562	139.56
789.001	132.96
789.44	125.36
789.879	114.96
790.317	122.46
790.756	133.66
791.195	130.96
791.634	153.16
792.072	212.86
792.511	403.26
792.95	1118.86
793.388	2234.86
793.827	1978.46
794.265	707.96
794.704	290.86
795.142	190.46
795.581	161.06
796.019	137.76
796.458	138.66
796.896	129.96
797.334	143.16
797.773	162.96
798.211	231.56
798.649	487.76
799.087	1107.26
799.526	1709.16
799.964	2157.76
800.402	2076.76
800.84	803.06
801.278	328.96
801.716	203.16
802.154	165.36
802.592	152.86
803.03	152.86
803.468	143.86
803.906	158.66
804.344	156.46
804.782	150.46
805.22	144.16
805.658	139.66
806.096	156.56
806.533	165.56
806.971	184.26
807.409	238.86
807.847	345.06
808.284	740.66
808.722	2049.16
809.16	3460.46
809.597	3430.06
810.035	5791.96
810.472	5942.86
810.91	2205.46
811.347	866.66
811.785	425.86
812.222	275.66
812.66	206.76
813.097	173.26
813.535	153.66
813.972	139.66
814.409	121.26
814.846	109.56
815.284	113.16
815.721	102.26
816.158	106.26
816.595	118.46
817.032	163.26
817.47	188.36
817.907	126.36
818.344	102.56
818.781	103.46
819.218	104.16
819.655	138.76
820.092	197.56
820.529	223.56
820.966	179.16
821.403	132.86
821.839	102.36
822.276	100.66
822.713	131.56
823.15	142.46
823.587	125.76
824.023	159.36
824.46	340.16
824.897	971.56
825.333	1399.86
825.77	608.26
826.206	245.36
826.643	142.46
827.08	110.96
827.516	85.26
827.953	82.86
828.389	86.06
828.825	73.96
829.262	66.66
829.698	68.26
830.135	63.96
830.571	63.36
831.007	65.06
831.443	64.96
831.88	62.16
832.316	64.66
832.752	67.36
833.188	65.46
833.624	64.86
834.06	69.86
834.497	68.66
834.933	69.36
835.369	72.06
835.805	70.56
836.241	76.96
836.677	85.56
837.112	90.66
837.548	111.56
837.984	146.76
838.42	221.46
838.856	557.86
839.292	1635.96
839.727	2375.26
840.163	1131.66
840.599	1028.46
841.034	2180.06
841.47	2192.16
841.906	821.06
842.341	356.96
842.777	216.96
843.212	218.16
843.648	202.96
844.083	123.56
844.519	87.26
844.954	77.96
845.39	59.56
845.825	58.86
846.261	59.66
846.696	57.96
847.131	63.66
847.566	57.96
848.002	57.36
848.437	51.86
848.872	64.76
849.307	64.86
849.742	84.66
850.177	196.96
850.613	608.76
851.048	915.06
851.483	393.56
851.918	160.06
852.353	87.86
852.788	60.26
853.223	49.46
853.657	54.26
854.092	51.56
854.527	44.86
854.962	45.06
855.397	48.76
855.832	52.86
856.266	46.66
856.701	35.26
857.136	38.16
857.57	42.16
858.005	54.66
858.44	59.96
858.874	54.66
859.309	55.16
859.743	43.36
860.178	47.06
860.612	43.76
861.047	55.06
861.481	72.86
861.915	72.46
862.35	51.86
862.784	40.76
863.218	44.86
863.653	35.06
864.087	45.46
864.521	54.76
864.955	77.16
865.39	163.56
865.824	181.76
866.258	124.36
866.692	178.46
867.126	186.86
867.56	115.46
867.994	63.86
868.428	40.16
868.862	52.96
869.296	57.76
869.73	61.46
870.164	56.26
870.598	50.16
871.031	34.66
871.465	39.06
871.899	31.46
872.333	23.26
872.766	26.66
873.2	23.96
873.634	29.26
874.067	24.46
874.501	25.46
874.935	35.26
875.368	28.66
875.802	28.56
876.235	24.36
876.669	26.46
877.102	21.66
877.535	26.76
877.969	21.96
878.402	20.46
878.836	24.26
879.269	25.56
879.702	28.66
880.135	23.06
880.569	25.66
881.002	24.36
881.435	21.66
881.868	22.36
882.301	22.86
882.734	9.86
883.167	21.86
883.601	20.56
884.034	25.06
884.467	13.56
884.899	15.66
885.332	15.16
885.765	13.46
886.198	17.76
886.631	19.66
887.064	22.36
887.497	19.26
887.929	27.16
888.362	15.06
888.795	19.06
889.228	21.66
889.66	19.46
890.093	20.56
890.526	21.46
890.958	18.56
891.391	21.26
891.823	19.76
892.256	9.26
892.688	15.66
893.121	17.36
893.553	15.76
893.985	22.16
894.418	19.86
894.85	9.66
895.282	14.76
895.715	15.96
896.147	16.86
896.579	12.56
897.011	13.86
897.444	18.96
897.876	18.16
898.308	21.36
898.74	13.66
899.172	10.16
899.604	20.86
900.036	22.46
900.468	12.86
900.9	17.36
901.332	22.26
901.764	12.86
902.196	21.36
902.628	24.16
903.06	14.76
903.491	31.76
903.923	19.96
904.355	23.56
904.787	26.76
905.218	17.36
905.65	27.36
906.082	12.86
906.513	17.76
906.945	14.96
907.376	13.16
907.808	21.76
908.239	22.76
908.671	20.66
909.102	19.46
909.534	28.06
909.965	50.86
910.397	101.16
910.828	342.16
911.259	495.66
911.691	225.06
912.122	115.86
912.553	56.46
912.984	34.56
913.415	24.86
913.847	24.76
914.278	17.26
914.709	16.66
915.14	19.66
915.571	14.86
916.002	14.86
916.433	17.36
916.864	14.66
917.295	10.46
917.726	22.46
918.157	19.16
918.587	29.76
919.018	18.86
919.449	23.76
919.88	27.36
920.311	39.46
920.741	52.46
921.172	171.76
921.603	153.06
922.033	78.96
922.464	47.46
922.895	26.96
923.325	18.96
923.756	12.06
924.186	13.16
924.617	17.36
925.047	28.56
925.478	29.46
925.908	23.86
926.338	10.66
926.769	10.16
927.199	18.16
927.629	7.46
928.06	19.16
928.49	14.46
928.92	13.06
929.35	10.56
929.78	11.36
930.21	6.96
930.641	4.66
931.071	7.86
931.501	2.86
931.931	8.76
932.361	8.76
932.791	-0.14
933.221	10.96
933.651	5.96
934.08	20.56
934.51	32.96
934.94	7.56
935.37	12.06
935.8	9.66
936.229	8.16
936.659	7.86
937.089	5.66
937.519	16.56
937.948	22.26
938.378	12.26
938.807	1.06
939.237	4.66
939.666	7.16
940.096	-9.74
940.525	-0.54
940.955	3.56
941.384	6.16
941.814	-6.04
942.243	2.96
942.672	7.56
943.102	2.46
943.531	-0.84
943.96	0.06
944.39	0.26
944.819	1.56
945.248	-1.64
945.677	2.16
946.106	7.46
946.535	3.66
946.964	0.16
947.393	0.76
947.822	-5.14
948.251	-4.04
948.68	2.46
949.109	5.86
949.538	2.06
949.967	1.96
950.396	0.56
950.825	-1.14
951.254	-1.84
951.682	-8.94
952.111	5.26
952.54	1.16
952.969	-6.74
953.397	-4.74
953.826	4.46
954.254	-7.84
954.683	3.16
955.112	-0.24
955.54	-0.04
955.969	0.66
956.397	-4.64
956.826	-1.64
957.254	2.86
957.682	1.26
958.111	3.86
958.539	-1.14
958.967	3.76
959.396	1.56
959.824	-0.04
960.252	-1.14
960.68	-2.84
961.109	-0.94
961.537	-2.34
961.965	3.26
962.393	3.96
962.821	-4.14
963.249	6.26
963.677	11.16
964.105	3.16
964.533	49.06
964.961	36.76
965.389	19.56
965.817	15.06
966.245	-1.54
966.672	-2.54
967.1	-8.54
967.528	0.26
967.956	-2.64
968.383	2.76
968.811	-6.64
969.239	2.46
969.666	-4.14
970.094	5.36
970.522	1.06
970.949	-0.94
971.377	1.16
971.804	0.86
972.232	-0.44
972.659	-5.34
973.087	-9.44
973.514	-7.34
973.941	-3.44
974.369	9.66
974.796	2.66
975.223	-4.94
975.651	-5.74
976.078	1.66
976.505	-1.74
976.932	3.46
977.359	19.86
977.786	13.46
978.214	1.36
978.641	-5.14
979.068	0.06
979.495	-3.74
979.922	0.06
980.349	-4.64
980.776	-0.04
981.202	-4.04
981.629	4.96
982.056	6.16
982.483	-2.74
982.91	1.36
983.337	-11.44
983.763	-1.64
984.19	-6.54
984.617	-0.94
985.043	-5.44
985.47	-5.24
985.897	-5.04
986.323	-0.44
986.75	0.86
987.176	-2.94
987.603	1.06
988.029	-4.94
988.456	-4.84
988.882	0.16
989.308	-3.64
989.735	-8.24
990.161	0.86
990.587	-4.64
991.014	0.56
991.44	9.66
991.866	-5.74
992.292	-2.84
992.719	-4.34
993.145	1.86
993.571	-10.34
993.997	-3.74
994.423	-1.34
994.849	-7.34
995.275	3.46
995.701	-2.64
996.127	1.86
996.553	-0.24
996.979	0.46
997.405	-1.14
997.83	-2.44
998.256	-2.34
998.682	-6.04
999.108	-7.04
999.534	-0.14
999.959	1.06
1000.385	-8.14
1000.811	2.76
1001.236	-9.44
1001.662	-5.94
1002.087	-5.44
1002.513	-5.34
1002.938	0.26
1003.364	-2.94
1003.789	-2.04
1004.215	6.46
1004.64	-2.84
1005.066	1.06
1005.491	-4.64
1005.916	-3.84
1006.342	-1.84
1006.767	-7.34
1007.192	1.86
1007.617	-0.84
1008.042	-10.84
1008.468	-4.04
1008.893	-5.14
1009.318	-1.34
1009.743	0.56
1010.168	10.06
1010.593	1.86
1011.018	-7.74
1011.443	3.66
1011.868	-1.04
1012.293	-8.34
1012.718	-11.04
1013.143	-2.34
1013.567	-2.14
1013.992	-9.44
1014.417	-9.14
1014.842	5.86
1015.267	-6.04
1015.691	-6.04
1016.116	12.26
1016.541	1.76
1016.965	3.86
1017.39	4.96
1017.814	-1.44
1018.239	-1.24
1018.663	-10.64
1019.088	-10.74
1019.512	-4.74
1019.937	-2.54
1020.361	-2.34
1020.785	-7.44
1021.21	-4.44
1021.634	-1.84
1022.058	-1.74
1022.483	3.06
1022.907	-4.94
1023.331	-4.74
1023.755	-0.84
1024.179	-1.24
1024.604	-11.24
1025.028	-2.14
1025.452	-6.34
1025.876	-7.34
1026.3	-7.44
1026.724	-14.14
1027.148	-6.24
1027.572	-7.94
1027.996	-3.94
1028.42	-7.14
1028.843	-5.94
1029.267	-4.04
1029.691	-2.44
1030.115	-7.94
1030.539	-7.04
1030.962	-9.04
1031.386	-11.64
1031.81	-6.14
1032.233	2.06
1032.657	-4.34
1033.08	-0.44
1033.504	-6.44
1033.927	-2.84
1034.351	-0.54
1034.774	-3.74
1035.198	-3.14
1035.621	-5.44
1036.045	-9.24
1036.468	-2.44
1036.891	-12.04
1037.315	-11.44
1037.738	-10.14
1038.161	2.66
1038.584	-6.24
1039.008	-5.24
1039.431	-6.34
1039.854	-5.24
1040.277	-16.24
1040.7	-7.34
1041.123	0.46
1041.546	-9.44
1041.969	-10.44
1042.392	-4.44
1042.815	-1.04
1043.238	-1.54
1043.661	3.66
1044.084	-12.44
1044.507	-2.34
1044.93	-9.44
1045.352	-2.74
1045.775	-1.54
1046.198	-8.14
1046.621	-4.34
1047.043	0.06
1047.466	-1.14
1047.889	-4.74
1048.311	-8.84
1048.734	-1.24
1049.156	-3.04
1049.579	-4.94
1050.001	-6.84
1050.424	-0.54
1050.846	-4.64
1051.269	-4.64
1051.691	-11.54
1052.113	-7.64
1052.536	1.46
1052.958	-0.84
1053.38	-7.14
1053.802	-11.94
1054.225	-4.64
1054.647	-13.84
1055.069	-6.54
1055.491	-7.34
1055.913	-13.34
1056.335	-3.24
1056.757	-5.24
1057.179	-7.84
1057.601	-7.44
1058.023	-4.24
1058.445	-3.04
1058.867	1.06
1059.289	-5.04
1059.711	-9.14
1060.133	-5.64
1060.555	-3.14
1060.976	-9.64
1061.398	-12.24
1061.82	-2.84
1062.241	-9.74
1062.663	-12.54
1063.085	-7.24
1063.506	-1.94
1063.928	-5.14
1064.35	-4.44
1064.771	-17.24
1065.193	-7.04
1065.614	-8.54
1066.035	-4.14
1066.457	-0.94
1066.878	-0.84
1067.3	-6.34
1067.721	-4.74
1068.142	-3.24
1068.564	-3.94
1068.985	-9.54
1069.406	-6.74
1069.827	-7.84
1070.248	-2.34
1070.67	-8.04
1071.091	-11.24
1071.512	-5.64
1071.933	-7.64
1072.354	-4.84
1072.775	-7.14
1073.196	-6.84
1073.617	-4.24
1074.038	-13.14
1074.459	-0.24
1074.88	-7.44
1075.3	-3.84
1075.721	-5.64
1076.142	-2.74
1076.563	-4.14
1076.983	-10.54
1077.404	-5.04
1077.825	-10.54
1078.246	-8.04
1078.666	-11.94
1079.087	-4.54
1079.507	-10.64
1079.928	-0.04
1080.348	-4.34
1080.769	-6.24
1081.189	-3.34
1081.61	-7.44
1082.03	-6.34
1082.451	-5.14
1082.871	-3.04
1083.291	-8.24
1083.711	-6.94
1084.132	-0.84
1084.552	-6.34
1084.972	0.56
1085.392	-8.94
1085.813	-16.04
1086.233	-5.34
1086.653	-6.94
1087.073	-7.34
1087.493	-6.64
1087.913	-5.44
1088.333	-4.54
1088.753	0.36
1089.173	3.76
1089.593	-7.44
1090.013	-1.04
1090.433	-2.04
1090.852	-6.94
1091.272	-3.14
1091.692	-4.44
1092.112	-6.74
1092.531	-7.94
1092.951	-12.44
1093.371	-1.34
1093.79	-0.94
1094.21	-5.94
1094.63	-6.44
1095.049	-0.84
1095.469	-3.94
1095.888	-6.64
1096.308	-3.04
1096.727	0.66
1097.146	-6.34
1097.566	4.76
1097.985	-4.84
1098.405	-7.14
1098.824	-4.34
1099.243	-10.54
1099.662	-6.44
1100.082	-2.44
1100.501	-4.74
1100.92	-6.54
1101.339	-7.14
1101.758	-5.94
