Data from 20171114-ORNL-Ar_H_NY_Subt18_08-06-30-288.txt Node
Date: Tue Nov 14 08:06:30 EST 2017
User: Ender
Spectrometer: HR+D1039
Trigger mode: 0
Integration Time (sec): 2.730000E-2
Scans to average: 10
Electric dark correction enabled: true
Nonlinearity correction enabled: false
Boxcar width: 0
XAxis mode: Wavelengths
Number of Pixels in Spectrum: 2048
>>>>>Begin Spectral Data<<<<<
187.836	-4.59
188.309	-4.59
188.782	-4.59
189.255	3.81
189.728	-0.39
190.201	6.41
190.674	-1.19
191.147	3.91
191.619	-4.09
192.092	0.51
192.565	2.71
193.038	1.11
193.511	-0.89
193.984	1.41
194.456	-1.69
194.929	1.11
195.402	-4.19
195.874	-3.89
196.347	-2.79
196.82	-3.59
197.292	4.91
197.765	-2.79
198.237	-4.39
198.71	3.71
199.182	-4.09
199.655	1.51
200.127	-0.39
200.6	-2.19
201.072	-5.59
201.544	-5.29
202.017	0.61
202.489	1.61
202.961	-4.19
203.433	-5.89
203.906	-3.69
204.378	-7.09
204.85	-0.39
205.322	-6.29
205.794	-0.69
206.266	-4.49
206.739	-8.49
207.211	4.91
207.683	-11.89
208.155	0.51
208.627	-11.59
209.099	-6.89
209.57	-10.99
210.042	-6.79
210.514	-1.09
210.986	1.21
211.458	-0.99
211.93	-5.09
212.402	3.01
212.873	-8.39
213.345	-17.59
213.817	-10.59
214.288	-3.19
214.76	-16.49
215.232	-1.69
215.703	-2.59
216.175	-4.69
216.646	-1.49
217.118	-9.69
217.589	0.01
218.061	1.61
218.532	-3.99
219.004	-0.59
219.475	-4.29
219.946	-2.49
220.418	-4.49
220.889	0.21
221.36	-2.19
221.832	-9.29
222.303	-7.79
222.774	1.91
223.245	-4.99
223.717	-6.99
224.188	-2.89
224.659	-5.19
225.13	-8.69
225.601	-1.09
226.072	7.91
226.543	-1.99
227.014	-2.29
227.485	-1.79
227.956	-9.89
228.427	-1.89
228.898	-1.69
229.369	2.11
229.839	-2.99
230.31	-8.49
230.781	-0.49
231.252	-4.59
231.722	-1.49
232.193	-5.49
232.664	-0.89
233.135	1.11
233.605	-4.89
234.076	-4.99
234.546	5.81
235.017	6.71
235.487	-7.99
235.958	-0.59
236.428	-3.39
236.899	-2.79
237.369	1.11
237.84	1.41
238.31	9.11
238.78	3.61
239.251	-0.99
239.721	4.71
240.191	3.21
240.662	-4.79
241.132	-0.19
241.602	-5.49
242.072	4.21
242.542	6.31
243.013	0.71
243.483	2.01
243.953	1.71
244.423	-2.09
244.893	-2.39
245.363	2.81
245.833	2.11
246.303	-4.49
246.773	5.71
247.243	0.21
247.712	3.61
248.182	9.01
248.652	6.71
249.122	-3.49
249.592	5.21
250.061	19.11
250.531	35.71
251.001	8.81
251.471	19.31
251.94	14.51
252.41	3.91
252.879	-1.99
253.349	10.41
253.818	5.71
254.288	1.01
254.757	5.91
255.227	3.01
255.696	2.01
256.166	2.61
256.635	6.11
257.105	8.71
257.574	10.21
258.043	4.71
258.513	9.61
258.982	20.41
259.451	1.41
259.92	17.51
260.389	0.61
260.859	14.71
261.328	13.81
261.797	17.71
262.266	10.61
262.735	9.61
263.204	-0.19
263.673	-2.19
264.142	9.01
264.611	-8.79
265.08	-1.79
265.549	-1.29
266.018	8.11
266.487	3.01
266.955	-4.79
267.424	2.81
267.893	8.51
268.362	-3.69
268.83	4.41
269.299	15.31
269.768	3.31
270.236	6.61
270.705	8.51
271.174	5.71
271.642	3.61
272.111	12.71
272.579	23.41
273.048	20.11
273.516	28.71
273.985	24.41
274.453	28.61
274.922	14.71
275.39	10.41
275.858	6.21
276.327	10.81
276.795	22.81
277.263	14.81
277.731	32.61
278.2	51.01
278.668	60.61
279.136	48.21
279.604	14.61
280.072	11.61
280.54	13.01
281.008	7.61
281.477	14.31
281.945	13.11
282.413	15.71
282.881	16.61
283.348	11.81
283.816	17.51
284.284	14.01
284.752	22.81
285.22	16.41
285.688	15.51
286.156	22.71
286.623	45.81
287.091	53.31
287.559	30.51
288.026	18.41
288.494	17.51
288.962	7.01
289.429	10.11
289.897	14.21
290.364	19.81
290.832	17.61
291.3	14.81
291.767	19.11
292.234	22.11
292.702	13.41
293.169	16.41
293.637	25.31
294.104	16.01
294.571	9.51
295.039	10.71
295.506	12.31
295.973	19.21
296.44	15.01
296.908	19.01
297.375	18.81
297.842	17.71
298.309	13.41
298.776	16.11
299.243	19.61
299.71	12.71
300.177	21.71
300.644	16.61
301.111	21.71
301.578	27.81
302.045	23.01
302.512	21.31
302.979	31.11
303.446	26.21
303.913	22.81
304.379	18.01
304.846	23.81
305.313	27.01
305.78	23.41
306.246	22.81
306.713	31.01
307.18	29.81
307.646	23.71
308.113	23.01
308.579	21.31
309.046	24.91
309.512	22.71
309.979	19.11
310.445	29.81
310.912	30.71
311.378	36.61
311.845	26.21
312.311	36.41
312.777	28.91
313.244	35.31
313.71	40.31
314.176	33.21
314.642	35.81
315.109	34.41
315.575	38.01
316.041	38.91
316.507	38.21
316.973	38.81
317.439	31.31
317.905	38.31
318.371	37.91
318.837	36.01
319.303	35.81
319.769	36.71
320.235	29.71
320.701	34.81
321.167	32.81
321.633	36.91
322.099	39.51
322.564	50.31
323.03	36.31
323.496	35.31
323.962	43.91
324.427	39.61
324.893	40.71
325.359	33.81
325.824	48.81
326.29	45.21
326.755	38.21
327.221	40.51
327.686	38.51
328.152	46.01
328.617	41.21
329.083	45.81
329.548	45.91
330.014	46.21
330.479	41.21
330.944	46.81
331.41	44.51
331.875	43.31
332.34	51.11
332.805	42.01
333.271	48.41
333.736	50.11
334.201	60.91
334.666	47.01
335.131	54.71
335.596	51.31
336.061	56.51
336.526	49.21
336.991	48.31
337.456	57.91
337.921	45.41
338.386	43.81
338.851	42.81
339.316	54.31
339.781	43.51
340.246	56.01
340.711	50.71
341.175	52.71
341.64	52.31
342.105	47.61
342.569	53.41
343.034	59.31
343.499	57.81
343.963	57.61
344.428	63.51
344.893	55.81
345.357	65.91
345.822	64.51
346.286	69.01
346.751	79.01
347.215	69.91
347.679	77.61
348.144	98.61
348.608	83.81
349.073	73.91
349.537	78.31
350.001	82.61
350.465	90.41
350.93	85.81
351.394	80.71
351.858	78.91
352.322	90.11
352.786	80.51
353.25	102.61
353.715	108.01
354.179	102.91
354.643	122.61
355.107	132.41
355.571	113.11
356.035	109.71
356.498	117.61
356.962	127.31
357.426	135.11
357.89	120.61
358.354	95.11
358.818	78.71
359.281	83.41
359.745	80.71
360.209	77.31
360.673	81.91
361.136	74.11
361.6	84.71
362.064	87.21
362.527	91.31
362.991	86.41
363.454	89.11
363.918	77.81
364.381	82.31
364.845	81.71
365.308	87.81
365.772	81.11
366.235	86.81
366.698	84.41
367.162	89.91
367.625	93.81
368.088	91.71
368.552	89.01
369.015	86.01
369.478	101.91
369.941	99.11
370.404	99.91
370.867	103.31
371.331	116.51
371.794	126.41
372.257	117.41
372.72	125.81
373.183	119.61
373.646	112.41
374.109	107.61
374.572	112.21
375.035	119.41
375.497	110.51
375.96	106.31
376.423	103.91
376.886	121.11
377.349	112.41
377.811	108.51
378.274	111.21
378.737	112.61
379.199	112.81
379.662	120.51
380.125	122.51
380.587	120.41
381.05	126.01
381.512	136.41
381.975	141.51
382.437	140.91
382.9	130.61
383.362	135.81
383.825	142.61
384.287	155.11
384.75	140.01
385.212	142.81
385.674	136.21
386.136	149.81
386.599	123.71
387.061	128.41
387.523	132.01
387.985	134.11
388.447	148.21
388.91	146.91
389.372	168.61
389.834	159.21
390.296	157.11
390.758	162.91
391.22	179.01
391.682	226.61
392.144	306.61
392.606	239.61
393.068	178.01
393.529	173.31
393.991	158.31
394.453	156.21
394.915	163.11
395.377	206.11
395.838	227.81
396.3	165.01
396.762	145.71
397.224	143.01
397.685	129.11
398.147	132.41
398.608	139.51
399.07	132.51
399.531	145.41
399.993	149.91
400.454	158.21
400.916	155.81
401.377	156.51
401.839	157.31
402.3	153.51
402.762	169.21
403.223	190.71
403.684	184.61
404.145	172.11
404.607	174.11
405.068	177.61
405.529	180.61
405.99	195.51
406.451	189.71
406.913	181.91
407.374	172.11
407.835	167.61
408.296	178.51
408.757	180.61
409.218	194.41
409.679	190.91
410.14	185.91
410.601	179.01
411.062	191.31
411.522	205.31
411.983	202.61
412.444	186.31
412.905	191.31
413.366	193.11
413.826	207.71
414.287	230.31
414.748	274.71
415.208	262.11
415.669	218.21
416.13	213.71
416.59	209.81
417.051	227.31
417.511	227.21
417.972	245.71
418.432	261.01
418.893	299.11
419.353	265.31
419.814	209.71
420.274	192.71
420.734	196.31
421.195	208.31
421.655	202.01
422.115	203.31
422.576	204.71
423.036	209.41
423.496	219.61
423.956	226.41
424.416	243.31
424.876	271.71
425.336	275.41
425.797	269.41
426.257	266.21
426.717	253.41
427.177	243.61
427.637	239.01
428.097	253.11
428.556	259.41
429.016	284.41
429.476	273.61
429.936	292.31
430.396	296.31
430.856	310.91
431.315	342.21
431.775	372.01
432.235	400.71
432.694	368.81
433.154	375.61
433.614	413.31
434.073	357.51
434.533	305.81
434.993	277.51
435.452	300.61
435.912	309.11
436.371	294.01
436.83	291.51
437.29	281.21
437.749	259.71
438.209	259.81
438.668	288.41
439.127	302.81
439.587	276.11
440.046	266.01
440.505	269.41
440.964	295.31
441.424	327.61
441.883	329.51
442.342	273.41
442.801	238.11
443.26	233.91
443.719	231.21
444.178	231.51
444.637	220.11
445.096	235.51
445.555	235.41
446.014	242.91
446.473	241.41
446.932	248.51
447.391	239.61
447.849	237.51
448.308	228.91
448.767	233.21
449.226	251.11
449.685	257.71
450.143	259.51
450.602	245.71
451.061	242.11
451.519	243.21
451.978	244.31
452.436	239.61
452.895	249.51
453.353	268.51
453.812	254.51
454.27	247.41
454.729	248.71
455.187	252.61
455.646	257.91
456.104	260.01
456.562	271.41
457.021	281.51
457.479	280.11
457.937	287.51
458.395	282.41
458.854	258.41
459.312	258.91
459.77	287.31
460.228	269.81
460.686	263.81
461.144	265.51
461.602	260.01
462.06	246.91
462.518	264.11
462.976	268.01
463.434	269.01
463.892	279.21
464.35	290.01
464.808	303.31
465.266	284.51
465.724	283.71
466.181	285.61
466.639	282.91
467.097	304.91
467.555	321.31
468.012	312.61
468.47	332.81
468.928	342.11
469.385	360.91
469.843	361.61
470.3	359.51
470.758	380.11
471.215	403.41
471.673	428.01
472.13	423.91
472.588	439.91
473.045	391.11
473.503	400.71
473.96	416.01
474.417	427.61
474.875	457.11
475.332	497.41
475.789	485.21
476.246	485.01
476.704	506.31
477.161	524.71
477.618	555.81
478.075	591.51
478.532	640.01
478.989	723.11
479.446	847.01
479.903	809.91
480.36	844.01
480.817	908.41
481.274	1017.21
481.731	1118.91
482.188	1222.91
482.645	1355.61
483.102	1476.41
483.558	1610.61
484.015	1672.81
484.472	1635.61
484.929	1588.41
485.385	1535.41
485.842	1496.11
486.299	1418.11
486.755	1351.11
487.212	1143.91
487.668	971.11
488.125	897.81
488.582	799.31
489.038	780.31
489.494	743.41
489.951	712.91
490.407	703.71
490.864	686.51
491.32	673.31
491.776	674.01
492.233	676.11
492.689	640.41
493.145	639.71
493.602	621.71
494.058	640.81
494.514	643.51
494.97	663.41
495.426	661.71
495.882	644.21
496.338	647.51
496.794	658.91
497.251	644.31
497.707	659.31
498.163	669.21
498.618	665.01
499.074	671.01
499.53	698.11
499.986	704.21
500.442	682.41
500.898	651.71
501.354	652.31
501.809	658.81
502.265	656.61
502.721	686.61
503.177	697.21
503.632	692.81
504.088	706.81
504.543	746.61
504.999	731.71
505.455	681.11
505.91	662.01
506.366	657.81
506.821	662.61
507.277	656.01
507.732	651.11
508.187	649.31
508.643	664.01
509.098	659.51
509.553	695.21
510.009	687.91
510.464	700.51
510.919	710.01
511.375	718.91
511.83	729.71
512.285	748.11
512.74	789.61
513.195	820.21
513.65	808.31
514.105	786.51
514.56	786.51
515.015	829.41
515.47	840.01
515.925	816.41
516.38	815.11
516.835	817.21
517.29	813.01
517.745	806.21
518.2	800.01
518.655	777.81
519.109	770.91
519.564	770.91
520.019	756.71
520.474	749.31
520.928	754.11
521.383	743.11
521.838	743.51
522.292	732.61
522.747	732.51
523.201	735.81
523.656	722.11
524.11	721.01
524.565	718.91
525.019	718.01
525.474	728.91
525.928	727.61
526.382	727.51
526.837	722.01
527.291	738.71
527.745	722.71
528.2	718.01
528.654	716.71
529.108	724.11
529.562	712.11
530.016	725.81
530.47	715.81
530.925	727.21
531.379	712.31
531.833	741.51
532.287	736.81
532.741	729.51
533.195	728.11
533.649	744.91
534.103	754.21
534.556	739.21
535.01	738.81
535.464	727.71
535.918	747.41
536.372	760.81
536.826	753.61
537.279	734.91
537.733	737.61
538.187	739.21
538.64	750.01
539.094	749.21
539.548	756.01
540.001	750.61
540.455	747.91
540.908	759.31
541.362	775.31
541.815	774.41
542.269	795.11
542.722	789.71
543.175	802.81
543.629	799.01
544.082	820.11
544.536	817.51
544.989	816.51
545.442	823.11
545.895	814.61
546.349	824.31
546.802	826.31
547.255	823.01
547.708	828.71
548.161	847.61
548.614	857.61
549.067	862.31
549.52	856.71
549.973	839.71
550.426	839.51
550.879	828.61
551.332	828.21
551.785	836.71
552.238	833.21
552.691	850.71
553.144	865.31
553.596	879.41
554.049	891.71
554.502	925.51
554.955	940.31
555.407	952.91
555.86	938.61
556.313	922.81
556.765	922.41
557.218	919.71
557.67	914.11
558.123	911.61
558.576	898.61
559.028	908.41
559.48	914.51
559.933	899.01
560.385	873.21
560.838	841.41
561.29	824.31
561.742	817.71
562.195	790.81
562.647	806.71
563.099	802.21
563.551	794.71
564.004	807.31
564.456	811.21
564.908	798.21
565.36	781.31
565.812	759.11
566.264	752.91
566.716	753.61
567.168	735.41
567.62	746.01
568.072	735.31
568.524	732.61
568.976	710.21
569.428	703.51
569.88	696.71
570.332	705.61
570.784	707.81
571.235	701.11
571.687	725.51
572.139	728.01
572.59	737.91
573.042	734.81
573.494	728.41
573.945	730.01
574.397	711.71
574.849	716.91
575.3	709.91
575.752	715.11
576.203	704.21
576.655	706.11
577.106	697.11
577.557	682.61
578.009	697.21
578.46	689.71
578.912	690.01
579.363	681.81
579.814	690.01
580.265	681.51
580.717	692.61
581.168	690.31
581.619	701.31
582.07	708.21
582.521	695.01
582.972	700.61
583.423	700.21
583.875	707.81
584.326	738.21
584.777	771.61
585.227	858.51
585.678	955.71
586.129	1033.71
586.58	1114.31
587.031	1190.21
587.482	1368.01
587.933	1545.71
588.384	1338.41
588.834	1005.41
589.285	830.61
589.736	822.81
590.186	803.61
590.637	788.11
591.088	770.91
591.538	772.21
591.989	755.01
592.439	757.01
592.89	750.31
593.34	736.81
593.791	738.41
594.241	723.61
594.692	732.81
595.142	727.51
595.593	724.81
596.043	738.01
596.493	744.11
596.943	738.91
597.394	746.01
597.844	740.61
598.294	749.21
598.744	779.11
599.195	807.21
599.645	843.91
600.095	883.31
600.545	941.31
600.995	999.01
601.445	1048.41
601.895	1123.61
602.345	1173.51
602.795	1149.51
603.245	1102.31
603.695	1041.51
604.145	984.91
604.594	939.61
605.044	879.31
605.494	822.11
605.944	781.61
606.393	765.81
606.843	744.41
607.293	761.11
607.743	751.61
608.192	767.21
608.642	792.11
609.091	796.51
609.541	790.31
609.99	792.11
610.44	798.11
610.889	755.91
611.339	717.31
611.788	705.91
612.238	727.21
612.687	741.81
613.136	750.11
613.586	762.11
614.035	766.61
614.484	773.81
614.933	785.91
615.383	783.71
615.832	766.91
616.281	751.91
616.73	714.21
617.179	687.61
617.628	671.51
618.077	657.71
618.526	639.41
618.975	639.91
619.424	633.11
619.873	636.11
620.322	629.71
620.771	619.41
621.22	624.71
621.669	610.91
622.118	611.21
622.567	598.21
623.015	588.21
623.464	585.11
623.913	572.71
624.361	579.11
624.81	566.31
625.259	575.91
625.707	567.41
626.156	572.91
626.604	582.91
627.053	579.61
627.501	580.31
627.95	577.71
628.398	603.61
628.847	589.11
629.295	595.31
629.744	589.01
630.192	585.71
630.64	584.11
631.089	586.61
631.537	594.11
631.985	595.61
632.433	621.41
632.881	628.31
633.33	684.11
633.778	651.01
634.226	591.81
634.674	579.31
635.122	604.11
635.57	616.91
636.018	642.51
636.466	587.61
636.914	573.81
637.362	590.41
637.81	599.31
638.258	595.21
638.705	587.61
639.153	623.71
639.601	638.91
640.049	664.51
640.497	690.61
640.944	713.31
641.392	655.71
641.84	629.51
642.287	601.01
642.735	577.91
643.182	590.91
643.63	597.71
644.078	599.81
644.525	603.11
644.973	615.11
645.42	622.31
645.867	633.01
646.315	661.61
646.762	683.01
647.21	710.81
647.657	739.61
648.104	770.61
648.551	796.41
648.999	866.11
649.446	951.41
649.893	1026.21
650.34	1199.41
650.787	1432.91
651.234	1795.11
651.682	2321.21
652.129	3181.41
652.576	4567.51
653.023	6750.01
653.47	9291.41
653.917	11611.71
654.363	13379.91
654.81	14723.21
655.257	13993.21
655.704	9225.11
656.151	5456.01
656.598	3524.91
657.044	2503.31
657.491	1920.41
657.938	1546.51
658.385	1283.21
658.831	1102.41
659.278	994.61
659.724	874.31
660.171	815.11
660.618	742.41
661.064	699.81
661.511	684.41
661.957	672.91
662.404	656.81
662.85	663.71
663.296	647.21
663.743	575.51
664.189	550.31
664.635	554.91
665.082	543.91
665.528	533.81
665.974	533.81
666.42	533.71
666.867	518.31
667.313	505.11
667.759	495.51
668.205	489.91
668.651	501.61
669.097	502.41
669.543	521.11
669.989	485.01
670.435	464.01
670.881	460.11
671.327	462.71
671.773	485.91
672.219	504.71
672.665	563.01
673.11	595.21
673.556	643.81
674.002	678.21
674.448	674.71
674.893	559.11
675.339	485.01
675.785	444.01
676.23	429.91
676.676	402.61
677.122	399.81
677.567	381.71
678.013	376.31
678.458	373.91
678.904	372.31
679.349	360.41
679.794	357.01
680.24	363.61
680.685	363.11
681.131	361.11
681.576	358.71
682.021	364.21
682.466	352.91
682.912	357.21
683.357	360.41
683.802	392.61
684.247	418.21
684.692	459.91
685.137	503.11
685.583	544.61
686.028	569.61
686.473	524.91
686.918	458.71
687.363	430.41
687.807	402.01
688.252	379.01
688.697	357.41
689.142	344.21
689.587	340.31
690.032	332.81
690.477	353.51
690.921	353.81
691.366	400.61
691.811	412.91
692.255	446.61
692.7	468.81
693.145	522.31
693.589	705.41
694.034	1151.41
694.478	1575.81
694.923	1758.71
695.367	2302.41
695.812	1220.61
696.256	514.91
696.701	377.31
697.145	356.01
697.59	339.11
698.034	326.11
698.478	339.01
698.922	322.11
699.367	337.41
699.811	347.21
700.255	361.91
700.699	389.11
701.143	433.81
701.588	482.11
702.032	524.91
702.476	521.61
702.92	499.11
703.364	509.41
703.808	655.31
704.252	1056.11
704.696	1476.71
705.14	1712.81
705.584	2179.81
706.027	1080.01
706.471	525.41
706.915	400.11
707.359	357.51
707.803	322.91
708.246	316.41
708.69	318.11
709.134	318.71
709.577	310.51
710.021	332.01
710.465	318.21
710.908	307.11
711.352	303.41
711.795	320.31
712.239	361.51
712.682	385.61
713.126	423.61
713.569	468.71
714.012	378.01
714.456	326.81
714.899	303.61
715.342	275.01
715.786	263.91
716.229	264.31
716.672	260.11
717.115	264.61
717.558	254.91
718.002	257.61
718.445	260.31
718.888	293.41
719.331	304.31
719.774	311.71
720.217	310.81
720.66	283.81
721.103	280.91
721.546	261.31
721.989	252.21
722.432	234.31
722.874	250.31
723.317	242.81
723.76	245.01
724.203	266.01
724.645	322.91
725.088	453.01
725.531	580.01
725.974	652.61
726.416	553.81
726.859	315.21
727.301	257.91
727.744	246.01
728.187	240.61
728.629	246.71
729.071	247.41
729.514	261.91
729.956	277.91
730.399	289.31
730.841	292.01
731.283	276.91
731.726	270.61
732.168	265.01
732.61	264.61
733.053	294.71
733.495	328.11
733.937	363.61
734.379	404.31
734.821	447.01
735.263	558.51
735.705	844.11
736.148	1597.01
736.59	2622.41
737.032	3105.21
737.474	2507.61
737.916	814.01
738.357	430.71
738.799	334.11
739.241	302.11
739.683	293.01
740.125	294.11
740.567	297.91
741.008	320.11
741.45	316.41
741.892	320.01
742.334	355.51
742.775	374.01
743.217	352.81
743.658	281.41
744.1	257.11
744.542	265.21
744.983	325.31
745.425	351.41
745.866	354.81
746.307	287.81
746.749	290.31
747.19	326.71
747.632	466.91
748.073	892.51
748.514	1877.31
748.956	2907.11
749.397	3625.01
749.838	3013.71
750.279	2999.11
750.72	1517.21
751.162	552.71
751.603	326.71
752.044	259.71
752.485	223.51
752.926	213.51
753.367	210.71
753.808	201.91
754.249	196.11
754.69	192.71
755.131	182.01
755.572	186.11
756.013	179.71
756.453	187.31
756.894	201.51
757.335	194.51
757.776	203.11
758.216	207.41
758.657	204.21
759.098	200.31
759.538	230.51
759.979	272.11
760.42	375.51
760.86	719.41
761.301	1859.11
761.741	4497.61
762.182	6531.31
762.622	4583.81
763.063	1318.71
763.503	552.41
763.943	350.91
764.384	348.11
764.824	409.81
765.264	453.31
765.705	310.11
766.145	216.21
766.585	192.61
767.025	184.11
767.465	189.61
767.906	249.51
768.346	326.01
768.786	351.81
769.226	269.01
769.666	325.61
770.106	624.51
770.546	1573.61
770.986	2693.71
771.426	2409.01
771.866	799.21
772.306	337.61
772.745	211.81
773.185	178.91
773.625	171.31
774.065	169.11
774.505	197.71
774.944	313.01
775.384	684.81
775.824	1240.51
776.263	1218.01
776.703	513.01
777.142	221.61
777.582	155.01
778.021	134.21
778.461	145.81
778.9	139.81
779.34	138.01
779.779	124.81
780.219	114.71
780.658	112.31
781.097	116.41
781.537	121.31
781.976	118.21
782.415	109.81
782.855	105.61
783.294	106.21
783.733	107.31
784.172	116.81
784.611	105.61
785.05	109.51
785.489	111.51
785.928	119.21
786.367	124.61
786.806	119.01
787.245	129.01
787.684	135.51
788.123	156.81
788.562	137.31
789.001	134.71
789.44	124.71
789.879	124.21
790.317	123.01
790.756	128.81
791.195	124.31
791.634	150.01
792.072	206.51
792.511	364.41
792.95	1014.11
793.388	2178.01
793.827	1969.11
794.265	685.21
794.704	287.31
795.142	187.91
795.581	152.21
796.019	145.01
796.458	123.01
796.896	123.51
797.334	131.51
797.773	153.01
798.211	223.41
798.649	450.81
799.087	1010.11
799.526	1616.91
799.964	2039.01
800.402	2040.41
800.84	762.01
801.278	303.91
801.716	190.21
802.154	152.71
802.592	142.41
803.03	141.51
803.468	134.41
803.906	152.41
804.344	154.41
804.782	144.91
805.22	137.21
805.658	133.01
806.096	148.41
806.533	160.41
806.971	177.61
807.409	218.41
807.847	321.61
808.284	667.01
808.722	1892.41
809.16	3337.61
809.597	3155.01
810.035	5472.21
810.472	5849.11
810.91	2112.51
811.347	798.71
811.785	417.11
812.222	253.91
812.66	196.61
813.097	166.61
813.535	147.11
813.972	132.61
814.409	118.21
814.846	113.91
815.284	112.11
815.721	101.81
816.158	110.61
816.595	122.61
817.032	184.81
817.47	202.01
817.907	180.71
818.344	160.31
818.781	117.61
819.218	101.01
819.655	123.41
820.092	183.71
820.529	216.11
820.966	178.51
821.403	137.71
821.839	107.51
822.276	106.51
822.713	125.81
823.15	132.01
823.587	116.21
824.023	152.51
824.46	304.71
824.897	902.61
825.333	1372.81
825.77	595.01
826.206	234.91
826.643	142.51
827.08	102.11
827.516	85.71
827.953	76.71
828.389	87.91
828.825	70.71
829.262	65.81
829.698	59.81
830.135	68.61
830.571	62.31
831.007	62.21
831.443	62.21
831.88	60.71
832.316	70.11
832.752	62.51
833.188	68.71
833.624	61.11
834.06	66.51
834.497	75.01
834.933	74.11
835.369	79.61
835.805	67.11
836.241	75.01
836.677	76.61
837.112	95.81
837.548	108.31
837.984	142.61
838.42	206.11
838.856	502.61
839.292	1532.01
839.727	2322.31
840.163	1084.81
840.599	938.21
841.034	2054.31
841.47	2150.91
841.906	779.31
842.341	335.61
842.777	233.71
843.212	331.21
843.648	316.21
844.083	159.81
844.519	96.51
844.954	82.31
845.39	56.11
845.825	59.01
846.261	62.81
846.696	53.41
847.131	58.31
847.566	55.71
848.002	50.21
848.437	60.91
848.872	61.51
849.307	62.11
849.742	85.21
850.177	181.91
850.613	563.61
851.048	891.61
851.483	381.21
851.918	154.91
852.353	90.61
852.788	70.01
853.223	53.21
853.657	55.91
854.092	53.51
854.527	44.31
854.962	44.71
855.397	45.41
855.832	51.61
856.266	44.21
856.701	41.91
857.136	39.11
857.57	46.31
858.005	49.81
858.44	62.01
858.874	47.11
859.309	53.81
859.743	42.31
860.178	43.91
860.612	45.01
861.047	57.11
861.481	64.11
861.915	71.31
862.35	52.61
862.784	30.41
863.218	34.71
863.653	31.71
864.087	54.41
864.521	53.71
864.955	73.51
865.39	159.81
865.824	180.11
866.258	116.21
866.692	166.01
867.126	172.41
867.56	106.91
867.994	55.61
868.428	39.61
868.862	49.81
869.296	59.21
869.73	59.01
870.164	52.51
870.598	50.71
871.031	39.21
871.465	32.01
871.899	26.91
872.333	23.21
872.766	24.41
873.2	22.91
873.634	31.51
874.067	29.11
874.501	19.61
874.935	33.11
875.368	31.71
875.802	30.21
876.235	17.81
876.669	21.81
877.102	31.31
877.535	25.91
877.969	21.51
878.402	26.31
878.836	16.51
879.269	26.21
879.702	25.21
880.135	22.41
880.569	15.51
881.002	28.81
881.435	18.61
881.868	19.31
882.301	20.71
882.734	19.41
883.167	23.41
883.601	17.11
884.034	21.11
884.467	7.51
884.899	22.91
885.332	17.11
885.765	13.11
886.198	18.31
886.631	18.61
887.064	20.81
887.497	23.71
887.929	23.61
888.362	16.91
888.795	15.41
889.228	18.71
889.66	18.81
890.093	18.01
890.526	13.31
890.958	18.91
891.391	22.71
891.823	21.61
892.256	18.61
892.688	14.31
893.121	15.21
893.553	18.41
893.985	25.01
894.418	21.31
894.85	6.71
895.282	12.61
895.715	15.61
896.147	18.41
896.579	14.61
897.011	14.11
897.444	21.31
897.876	17.51
898.308	21.61
898.74	12.81
899.172	14.61
899.604	29.71
900.036	17.21
900.468	16.61
900.9	8.41
901.332	18.21
901.764	16.61
902.196	18.21
902.628	18.21
903.06	18.31
903.491	30.71
903.923	26.21
904.355	25.21
904.787	19.01
905.218	16.71
905.65	16.21
906.082	17.91
906.513	12.51
906.945	13.81
907.376	12.31
907.808	15.31
908.239	23.31
908.671	24.01
909.102	27.41
909.534	24.41
909.965	51.01
910.397	96.31
910.828	325.21
911.259	480.51
911.691	219.11
912.122	111.21
912.553	48.61
912.984	34.81
913.415	22.61
913.847	22.01
914.278	17.61
914.709	15.01
915.14	19.91
915.571	22.01
916.002	15.11
916.433	21.31
916.864	17.21
917.295	13.81
917.726	23.41
918.157	9.31
918.587	25.31
919.018	22.01
919.449	22.81
919.88	25.71
920.311	27.51
920.741	44.31
921.172	171.51
921.603	149.61
922.033	71.51
922.464	44.91
922.895	23.11
923.325	22.31
923.756	16.71
924.186	17.11
924.617	27.01
925.047	37.11
925.478	57.61
925.908	47.61
926.338	24.81
926.769	18.01
927.199	22.51
927.629	12.51
928.06	9.81
928.49	16.51
928.92	8.61
929.35	9.81
929.78	12.61
930.21	5.31
930.641	9.61
931.071	12.11
931.501	13.41
931.931	11.11
932.361	8.21
932.791	5.71
933.221	9.21
933.651	4.41
934.08	12.91
934.51	30.71
934.94	8.21
935.37	8.81
935.8	12.51
936.229	9.21
936.659	10.41
937.089	-1.79
937.519	12.31
937.948	20.31
938.378	16.81
938.807	8.41
939.237	4.71
939.666	9.41
940.096	-4.89
940.525	-5.49
940.955	5.91
941.384	3.51
941.814	-1.59
942.243	-4.69
942.672	2.21
943.102	-4.19
943.531	0.21
943.96	10.61
944.39	4.11
944.819	1.31
945.248	3.31
945.677	0.91
946.106	2.51
946.535	0.91
946.964	1.81
947.393	1.31
947.822	-3.39
948.251	-7.19
948.68	3.91
949.109	4.71
949.538	9.31
949.967	1.51
950.396	7.11
950.825	2.61
951.254	-0.29
951.682	-2.09
952.111	4.41
952.54	7.61
952.969	-6.79
953.397	-4.39
953.826	-2.59
954.254	-1.79
954.683	1.11
955.112	-5.49
955.54	-0.49
955.969	-6.99
956.397	4.91
956.826	-4.49
957.254	11.21
957.682	-1.19
958.111	6.11
958.539	-4.59
958.967	6.11
959.396	0.81
959.824	-4.59
960.252	-0.59
960.68	-10.29
961.109	-1.89
961.537	-2.79
961.965	-3.69
962.393	-1.59
962.821	-0.19
963.249	3.81
963.677	4.81
964.105	2.91
964.533	48.71
964.961	42.41
965.389	16.61
965.817	4.41
966.245	1.81
966.672	-3.29
967.1	-4.89
967.528	1.61
967.956	-4.09
968.383	-4.39
968.811	-2.19
969.239	-5.89
969.666	-3.19
970.094	-4.19
970.522	-2.29
970.949	0.21
971.377	-1.09
971.804	-2.99
972.232	-1.69
972.659	-1.19
973.087	0.71
973.514	-1.99
973.941	-4.89
974.369	2.11
974.796	-3.29
975.223	1.01
975.651	5.41
976.078	1.81
976.505	-0.69
976.932	0.71
977.359	14.91
977.786	13.51
978.214	-0.79
978.641	0.21
979.068	-10.09
979.495	-10.79
979.922	-4.59
980.349	-1.69
980.776	-3.89
981.202	-5.79
981.629	3.71
982.056	4.71
982.483	-3.09
982.91	3.61
983.337	-7.09
983.763	-0.09
984.19	-4.09
984.617	-3.19
985.043	0.51
985.47	-3.79
985.897	-7.59
986.323	-4.39
986.75	4.41
987.176	-0.09
987.603	-0.19
988.029	-1.99
988.456	-6.29
988.882	8.51
989.308	-10.19
989.735	-4.59
990.161	-4.19
990.587	-3.49
991.014	1.11
991.44	1.91
991.866	-5.89
992.292	-5.09
992.719	-1.49
993.145	4.11
993.571	-2.19
993.997	0.01
994.423	-3.69
994.849	-5.19
995.275	-2.39
995.701	1.41
996.127	-4.19
996.553	3.01
996.979	-8.89
997.405	-4.49
997.83	-6.69
998.256	-9.19
998.682	-2.99
999.108	-9.39
999.534	-0.89
999.959	-8.29
1000.385	-0.79
1000.811	-1.89
1001.236	-2.29
1001.662	-9.49
1002.087	-7.49
1002.513	-1.89
1002.938	0.01
1003.364	0.21
1003.789	-3.39
1004.215	0.71
1004.64	-7.59
1005.066	7.61
1005.491	5.31
1005.916	-2.39
1006.342	-7.09
1006.767	-8.39
1007.192	2.81
1007.617	-5.19
1008.042	1.21
1008.468	-7.99
1008.893	-6.89
1009.318	-9.09
1009.743	-1.39
1010.168	7.81
1010.593	-0.09
1011.018	-10.59
1011.443	-1.89
1011.868	-0.09
1012.293	-10.29
1012.718	-5.09
1013.143	1.31
1013.567	1.91
1013.992	-1.69
1014.417	-14.49
1014.842	5.11
1015.267	-6.09
1015.691	-6.59
1016.116	6.51
1016.541	-1.59
1016.965	-0.69
1017.39	2.31
1017.814	-3.49
1018.239	-2.59
1018.663	-7.59
1019.088	-10.89
1019.512	-5.99
1019.937	-4.19
1020.361	-5.99
1020.785	-8.39
1021.21	-10.79
1021.634	-6.19
1022.058	1.01
1022.483	-1.49
1022.907	2.91
1023.331	-3.09
1023.755	-9.59
1024.179	-0.79
1024.604	-5.59
1025.028	-5.19
1025.452	-4.39
1025.876	-7.39
1026.3	-0.29
1026.724	-2.19
1027.148	-8.19
1027.572	-12.99
1027.996	-4.79
1028.42	-1.79
1028.843	-4.19
1029.267	-6.69
1029.691	-2.89
1030.115	-1.29
1030.539	-6.19
1030.962	-5.69
1031.386	-12.89
1031.81	2.71
1032.233	-2.69
1032.657	-1.09
1033.08	-6.59
1033.504	-3.79
1033.927	-6.19
1034.351	1.21
1034.774	-6.59
1035.198	-12.19
1035.621	-6.49
1036.045	-12.69
1036.468	4.61
1036.891	-12.89
1037.315	-12.79
1037.738	-6.79
1038.161	-0.39
1038.584	-2.19
1039.008	-10.59
1039.431	-3.79
1039.854	-9.39
1040.277	-8.59
1040.7	-12.49
1041.123	3.81
1041.546	-9.19
1041.969	-5.69
1042.392	-3.99
1042.815	-1.99
1043.238	3.01
1043.661	3.01
1044.084	-5.19
1044.507	-4.79
1044.93	-5.39
1045.352	-6.39
1045.775	-5.49
1046.198	-3.59
1046.621	-1.79
1047.043	-0.69
1047.466	4.21
1047.889	-3.29
1048.311	-9.09
1048.734	-4.99
1049.156	-4.09
1049.579	-2.19
1050.001	-2.49
1050.424	1.51
1050.846	-6.59
1051.269	-5.79
1051.691	-8.19
1052.113	-8.19
1052.536	1.11
1052.958	-0.89
1053.38	-5.09
1053.802	-18.09
1054.225	2.71
1054.647	-8.19
1055.069	-13.09
1055.491	-1.69
1055.913	-9.89
1056.335	-3.39
1056.757	1.31
1057.179	-7.69
1057.601	-7.79
1058.023	-4.09
1058.445	-5.49
1058.867	-6.49
1059.289	2.41
1059.711	-7.49
1060.133	-2.59
1060.555	-7.69
1060.976	-10.49
1061.398	-9.79
1061.82	-4.99
1062.241	-11.29
1062.663	-3.59
1063.085	-4.79
1063.506	-0.79
1063.928	-4.19
1064.35	-3.39
1064.771	-11.79
1065.193	-5.89
1065.614	-13.49
1066.035	1.71
1066.457	-5.99
1066.878	-1.39
1067.3	-0.89
1067.721	-7.09
1068.142	-7.09
1068.564	-5.59
1068.985	-4.19
1069.406	-5.19
1069.827	-3.09
1070.248	-1.19
1070.67	-1.89
1071.091	-7.59
1071.512	3.61
1071.933	-9.69
1072.354	-5.19
1072.775	-5.79
1073.196	-6.39
1073.617	-4.19
1074.038	-13.89
1074.459	-2.59
1074.88	-8.79
1075.3	0.71
1075.721	-11.19
1076.142	-0.59
1076.563	-1.49
1076.983	-10.69
1077.404	-6.09
1077.825	-8.09
1078.246	-5.69
1078.666	-11.99
1079.087	-1.49
1079.507	-9.49
1079.928	2.11
1080.348	1.41
1080.769	-11.29
1081.189	-2.29
1081.61	-7.89
1082.03	-5.89
1082.451	-6.99
1082.871	0.11
1083.291	-8.09
1083.711	-7.89
1084.132	-9.49
1084.552	-5.29
1084.972	-5.49
1085.392	-8.49
1085.813	-12.09
1086.233	-8.29
1086.653	-0.49
1087.073	-2.89
1087.493	-9.39
1087.913	-10.39
1088.333	-9.49
1088.753	-10.79
1089.173	2.71
1089.593	-2.59
1090.013	-3.69
1090.433	1.11
1090.852	-3.39
1091.272	-4.69
1091.692	-5.09
1092.112	-6.79
1092.531	-4.19
1092.951	-9.79
1093.371	-3.89
1093.79	-1.19
1094.21	-4.19
1094.63	-9.99
1095.049	-11.19
1095.469	-3.49
1095.888	-7.49
1096.308	3.01
1096.727	-0.39
1097.146	-3.39
1097.566	-1.49
1097.985	-3.39
1098.405	-8.59
1098.824	-7.09
1099.243	-3.59
1099.662	-7.99
1100.082	0.71
1100.501	-1.39
1100.92	-3.39
1101.339	-2.09
1101.758	-4.99
