Data from 20171114-ORNL-Ar_H_NY_Subt18_08-07-02-499.txt Node
Date: Tue Nov 14 08:07:02 EST 2017
User: Ender
Spectrometer: HR+D1039
Trigger mode: 0
Integration Time (sec): 2.730000E-2
Scans to average: 10
Electric dark correction enabled: true
Nonlinearity correction enabled: false
Boxcar width: 0
XAxis mode: Wavelengths
Number of Pixels in Spectrum: 2048
>>>>>Begin Spectral Data<<<<<
187.836	-6.73
188.309	-6.73
188.782	-6.73
189.255	-1.63
189.728	0.07
190.201	1.77
190.674	0.47
191.147	2.67
191.619	-10.73
192.092	1.87
192.565	6.47
193.038	-1.73
193.511	-0.03
193.984	5.07
194.456	-1.03
194.929	2.77
195.402	1.57
195.874	-0.83
196.347	-3.33
196.82	-9.23
197.292	3.87
197.765	0.47
198.237	-6.43
198.71	0.87
199.182	-1.43
199.655	4.87
200.127	-0.23
200.6	-0.13
201.072	-6.23
201.544	-7.33
202.017	0.07
202.489	1.87
202.961	-3.43
203.433	-3.13
203.906	-3.83
204.378	-7.03
204.85	-3.33
205.322	-9.33
205.794	-4.03
206.266	-3.93
206.739	-2.63
207.211	2.17
207.683	-3.53
208.155	-6.33
208.627	-4.53
209.099	-2.43
209.57	-11.13
210.042	-5.53
210.514	-6.13
210.986	-0.43
211.458	-5.03
211.93	-0.13
212.402	1.57
212.873	-5.93
213.345	-0.43
213.817	-11.53
214.288	-5.93
214.76	-10.43
215.232	-4.33
215.703	-5.43
216.175	-4.33
216.646	-5.03
217.118	-5.23
217.589	-4.53
218.061	0.87
218.532	-6.13
219.004	-0.33
219.475	-5.43
219.946	-3.73
220.418	-6.33
220.889	6.27
221.36	0.87
221.832	-0.83
222.303	-6.63
222.774	2.47
223.245	-5.73
223.717	-4.53
224.188	-6.33
224.659	-8.83
225.13	-0.73
225.601	-2.23
226.072	4.87
226.543	-2.23
227.014	3.27
227.485	-3.43
227.956	-7.33
228.427	-3.23
228.898	0.97
229.369	1.67
229.839	-3.23
230.31	-9.93
230.781	-2.63
231.252	-1.53
231.722	-7.13
232.193	-6.93
232.664	-3.43
233.135	-5.83
233.605	-4.03
234.076	-9.73
234.546	-0.23
235.017	-4.73
235.487	0.27
235.958	-8.63
236.428	-7.33
236.899	-1.93
237.369	-0.73
237.84	-11.13
238.31	0.87
238.78	-1.03
239.251	-6.93
239.721	-3.93
240.191	-5.63
240.662	-3.03
241.132	-2.53
241.602	-3.13
242.072	-9.53
242.542	3.27
243.013	-2.53
243.483	-0.03
243.953	1.77
244.423	-0.83
244.893	-11.23
245.363	-1.63
245.833	0.07
246.303	-2.23
246.773	4.57
247.243	2.97
247.712	-0.13
248.182	0.77
248.652	-0.83
249.122	-12.23
249.592	-1.53
250.061	-0.43
250.531	7.27
251.001	-5.03
251.471	3.07
251.94	12.17
252.41	-3.43
252.879	-5.53
253.349	-1.63
253.818	-5.63
254.288	0.47
254.757	-3.83
255.227	-0.13
255.696	-2.13
256.166	-0.73
256.635	1.07
257.105	-0.23
257.574	-2.03
258.043	-5.03
258.513	-4.13
258.982	2.87
259.451	-2.33
259.92	-6.23
260.389	-1.63
260.859	10.77
261.328	1.87
261.797	5.47
262.266	-1.13
262.735	4.17
263.204	0.37
263.673	-3.13
264.142	3.77
264.611	-4.13
265.08	-1.23
265.549	-5.23
266.018	3.37
266.487	-3.73
266.955	-5.13
267.424	-1.93
267.893	0.87
268.362	-5.53
268.83	1.57
269.299	4.27
269.768	-2.83
270.236	0.27
270.705	-0.63
271.174	5.37
271.642	-5.33
272.111	1.37
272.579	4.27
273.048	0.57
273.516	2.87
273.985	5.67
274.453	3.37
274.922	12.77
275.39	11.07
275.858	-2.53
276.327	10.97
276.795	12.67
277.263	2.77
277.731	8.07
278.2	12.27
278.668	4.57
279.136	14.17
279.604	0.27
280.072	6.37
280.54	9.87
281.008	5.67
281.477	10.47
281.945	9.07
282.413	12.67
282.881	13.27
283.348	2.17
283.816	10.27
284.284	9.27
284.752	14.27
285.22	11.77
285.688	13.17
286.156	11.67
286.623	19.47
287.091	5.07
287.559	10.77
288.026	7.77
288.494	15.07
288.962	-2.23
289.429	5.37
289.897	9.87
290.364	13.07
290.832	15.97
291.3	12.57
291.767	7.17
292.234	9.57
292.702	4.57
293.169	10.87
293.637	10.27
294.104	12.67
294.571	6.27
295.039	6.47
295.506	4.67
295.973	10.67
296.44	9.07
296.908	11.87
297.375	12.47
297.842	14.67
298.309	14.67
298.776	9.17
299.243	16.37
299.71	6.97
300.177	19.57
300.644	17.17
301.111	11.97
301.578	20.67
302.045	11.37
302.512	23.37
302.979	26.77
303.446	12.37
303.913	14.97
304.379	8.37
304.846	19.87
305.313	20.97
305.78	18.17
306.246	14.37
306.713	23.27
307.18	19.47
307.646	16.97
308.113	22.87
308.579	20.37
309.046	22.67
309.512	21.87
309.979	15.37
310.445	24.07
310.912	21.37
311.378	30.87
311.845	22.57
312.311	29.27
312.777	25.37
313.244	27.47
313.71	29.07
314.176	19.57
314.642	17.17
315.109	25.87
315.575	27.97
316.041	30.87
316.507	25.67
316.973	37.57
317.439	21.97
317.905	26.67
318.371	28.77
318.837	25.67
319.303	27.67
319.769	26.97
320.235	27.17
320.701	29.77
321.167	35.57
321.633	27.97
322.099	33.07
322.564	33.07
323.03	33.47
323.496	27.17
323.962	32.77
324.427	33.77
324.893	41.47
325.359	30.97
325.824	30.97
326.29	28.07
326.755	31.47
327.221	31.57
327.686	34.87
328.152	41.07
328.617	31.97
329.083	40.07
329.548	41.57
330.014	43.77
330.479	39.97
330.944	37.97
331.41	33.47
331.875	41.97
332.34	35.77
332.805	40.27
333.271	37.47
333.736	38.27
334.201	43.27
334.666	40.67
335.131	48.97
335.596	41.17
336.061	37.57
336.526	31.67
336.991	42.47
337.456	47.57
337.921	39.07
338.386	31.07
338.851	46.37
339.316	41.27
339.781	37.77
340.246	47.47
340.711	42.57
341.175	45.57
341.64	39.27
342.105	41.27
342.569	45.77
343.034	48.37
343.499	43.57
343.963	44.97
344.428	55.57
344.893	54.77
345.357	50.17
345.822	45.57
346.286	62.67
346.751	63.37
347.215	54.77
347.679	68.87
348.144	76.57
348.608	74.27
349.073	57.17
349.537	67.77
350.001	66.37
350.465	73.37
350.93	72.17
351.394	70.67
351.858	68.27
352.322	77.97
352.786	72.27
353.25	83.97
353.715	89.77
354.179	84.87
354.643	102.57
355.107	101.57
355.571	90.67
356.035	84.37
356.498	87.87
356.962	94.27
357.426	104.57
357.89	100.07
358.354	74.47
358.818	76.67
359.281	70.87
359.745	73.07
360.209	73.57
360.673	70.27
361.136	72.77
361.6	73.57
362.064	72.07
362.527	76.07
362.991	79.67
363.454	68.77
363.918	63.87
364.381	77.17
364.845	80.27
365.308	84.57
365.772	77.77
366.235	74.27
366.698	79.27
367.162	74.67
367.625	74.87
368.088	78.67
368.552	77.87
369.015	81.27
369.478	90.27
369.941	89.07
370.404	83.07
370.867	93.17
371.331	94.17
371.794	95.67
372.257	94.67
372.72	99.97
373.183	93.77
373.646	87.27
374.109	92.47
374.572	94.67
375.035	92.07
375.497	95.57
375.96	97.37
376.423	98.97
376.886	102.17
377.349	103.07
377.811	101.77
378.274	92.17
378.737	102.47
379.199	101.57
379.662	109.97
380.125	104.17
380.587	104.67
381.05	105.07
381.512	112.37
381.975	116.37
382.437	116.27
382.9	103.07
383.362	121.97
383.825	120.37
384.287	117.07
384.75	107.77
385.212	115.27
385.674	123.17
386.136	130.87
386.599	116.87
387.061	117.97
387.523	112.77
387.985	116.27
388.447	130.57
388.91	122.87
389.372	120.37
389.834	123.47
390.296	119.57
390.758	130.07
391.22	124.97
391.682	135.37
392.144	142.47
392.606	132.67
393.068	128.57
393.529	147.77
393.991	137.97
394.453	132.17
394.915	129.77
395.377	125.47
395.838	134.77
396.3	136.07
396.762	133.77
397.224	135.47
397.685	130.57
398.147	128.97
398.608	131.37
399.07	124.17
399.531	133.77
399.993	140.77
400.454	158.37
400.916	147.17
401.377	153.07
401.839	156.27
402.3	152.27
402.762	169.57
403.223	182.57
403.684	170.37
404.145	153.17
404.607	162.97
405.068	153.07
405.529	163.77
405.99	183.97
406.451	177.17
406.913	165.57
407.374	163.87
407.835	158.87
408.296	163.77
408.757	172.77
409.218	187.47
409.679	176.57
410.14	182.57
410.601	172.97
411.062	176.67
411.522	183.97
411.983	182.77
412.444	175.37
412.905	180.37
413.366	180.97
413.826	198.47
414.287	219.77
414.748	272.47
415.208	256.47
415.669	221.47
416.13	212.47
416.59	208.77
417.051	216.27
417.511	225.07
417.972	261.27
418.432	255.57
418.893	296.47
419.353	262.57
419.814	210.57
420.274	192.67
420.734	189.87
421.195	196.87
421.655	190.57
422.115	199.07
422.576	199.27
423.036	205.97
423.496	211.07
423.956	224.77
424.416	235.07
424.876	270.77
425.336	264.97
425.797	270.37
426.257	264.27
426.717	245.07
427.177	238.07
427.637	226.47
428.097	239.37
428.556	246.87
429.016	275.57
429.476	262.27
429.936	272.07
430.396	276.37
430.856	285.57
431.315	311.17
431.775	340.37
432.235	374.47
432.694	358.57
433.154	356.47
433.614	384.67
434.073	336.47
434.533	285.77
434.993	267.57
435.452	282.57
435.912	289.47
436.371	282.87
436.83	279.97
437.29	266.57
437.749	250.77
438.209	247.67
438.668	276.17
439.127	296.77
439.587	265.87
440.046	260.17
440.505	274.67
440.964	280.77
441.424	324.37
441.883	316.77
442.342	272.87
442.801	236.67
443.26	224.57
443.719	236.67
444.178	226.77
444.637	226.27
445.096	237.17
445.555	231.87
446.014	236.47
446.473	238.87
446.932	244.77
447.391	234.37
447.849	239.77
448.308	231.97
448.767	233.67
449.226	251.87
449.685	256.17
450.143	263.37
450.602	254.47
451.061	243.47
451.519	239.77
451.978	242.17
452.436	244.07
452.895	251.97
453.353	265.17
453.812	250.27
454.27	257.17
454.729	252.27
455.187	255.97
455.646	257.47
456.104	255.67
456.562	273.27
457.021	282.37
457.479	275.77
457.937	287.57
458.395	272.17
458.854	261.67
459.312	266.97
459.77	288.07
460.228	267.57
460.686	263.17
461.144	271.27
461.602	262.47
462.06	265.97
462.518	276.07
462.976	272.67
463.434	275.07
463.892	270.57
464.35	293.17
464.808	302.17
465.266	288.07
465.724	296.27
466.181	297.67
466.639	287.57
467.097	308.17
467.555	315.97
468.012	316.47
468.47	329.97
468.928	352.77
469.385	359.77
469.843	364.97
470.3	369.47
470.758	385.27
471.215	415.97
471.673	430.67
472.13	419.97
472.588	441.27
473.045	391.57
473.503	399.87
473.96	417.57
474.417	426.37
474.875	457.27
475.332	496.87
475.789	486.67
476.246	493.27
476.704	507.97
477.161	535.37
477.618	546.87
478.075	579.77
478.532	644.77
478.989	710.77
479.446	818.17
479.903	775.77
480.36	817.47
480.817	870.17
481.274	955.27
481.731	1052.47
482.188	1127.07
482.645	1256.47
483.102	1342.67
483.558	1472.57
484.015	1516.57
484.472	1482.67
484.929	1438.27
485.385	1396.37
485.842	1356.27
486.299	1315.67
486.755	1275.67
487.212	1090.47
487.668	923.67
488.125	859.17
488.582	798.87
489.038	768.17
489.494	737.17
489.951	715.07
490.407	690.77
490.864	673.57
491.32	667.87
491.776	674.67
492.233	684.47
492.689	659.47
493.145	649.67
493.602	629.37
494.058	640.57
494.514	645.17
494.97	670.67
495.426	683.27
495.882	648.47
496.338	645.07
496.794	658.07
497.251	645.47
497.707	667.17
498.163	668.17
498.618	679.67
499.074	677.67
499.53	701.67
499.986	710.67
500.442	671.87
500.898	658.47
501.354	640.67
501.809	655.37
502.265	661.27
502.721	669.97
503.177	664.17
503.632	684.57
504.088	684.97
504.543	704.07
504.999	717.37
505.455	689.47
505.91	671.57
506.366	681.07
506.821	678.37
507.277	675.47
507.732	675.27
508.187	676.07
508.643	690.87
509.098	676.87
509.553	703.87
510.009	709.37
510.464	713.77
510.919	729.57
511.375	738.67
511.83	754.77
512.285	775.87
512.74	812.87
513.195	821.97
513.65	820.07
514.105	814.97
514.56	820.17
515.015	839.27
515.47	843.37
515.925	817.77
516.38	828.07
516.835	833.77
517.29	818.77
517.745	827.77
518.2	809.27
518.655	799.67
519.109	792.07
519.564	788.37
520.019	783.17
520.474	771.87
520.928	768.57
521.383	763.87
521.838	754.77
522.292	757.47
522.747	754.27
523.201	751.27
523.656	746.87
524.11	747.77
524.565	744.87
525.019	738.27
525.474	743.17
525.928	750.67
526.382	738.57
526.837	747.37
527.291	749.27
527.745	738.27
528.2	745.67
528.654	734.27
529.108	724.87
529.562	738.27
530.016	730.97
530.47	736.37
530.925	729.07
531.379	733.57
531.833	746.87
532.287	743.97
532.741	749.37
533.195	749.37
533.649	750.57
534.103	760.17
534.556	760.17
535.01	758.47
535.464	750.57
535.918	757.17
536.372	758.67
536.826	767.87
537.279	752.27
537.733	766.47
538.187	755.27
538.64	755.47
539.094	773.47
539.548	772.27
540.001	765.97
540.455	776.27
540.908	776.97
541.362	789.17
541.815	797.27
542.269	804.97
542.722	808.07
543.175	820.17
543.629	828.37
544.082	838.07
544.536	836.57
544.989	838.77
545.442	851.97
545.895	845.17
546.349	846.57
546.802	839.07
547.255	854.27
547.708	859.37
548.161	868.77
548.614	884.37
549.067	877.37
549.52	874.27
549.973	862.87
550.426	862.17
550.879	852.17
551.332	858.77
551.785	870.17
552.238	864.87
552.691	880.97
553.144	889.97
553.596	902.77
554.049	924.57
554.502	958.17
554.955	973.47
555.407	957.97
555.86	959.37
556.313	951.57
556.765	938.57
557.218	938.37
557.67	935.57
558.123	935.47
558.576	925.07
559.028	938.37
559.48	952.87
559.933	928.97
560.385	893.97
560.838	870.67
561.29	833.67
561.742	841.27
562.195	823.87
562.647	815.47
563.099	818.97
563.551	829.57
564.004	832.37
564.456	827.27
564.908	804.87
565.36	790.37
565.812	775.37
566.264	766.47
566.716	762.97
567.168	754.57
567.62	760.37
568.072	746.87
568.524	747.27
568.976	736.67
569.428	712.17
569.88	717.47
570.332	729.07
570.784	724.47
571.235	729.87
571.687	743.57
572.139	749.77
572.59	761.57
573.042	752.47
573.494	749.97
573.945	755.07
574.397	725.27
574.849	747.57
575.3	737.57
575.752	733.77
576.203	722.17
576.655	735.37
577.106	716.57
577.557	717.37
578.009	708.07
578.46	715.27
578.912	707.77
579.363	722.27
579.814	709.77
580.265	702.47
580.717	708.67
581.168	715.27
581.619	712.77
582.07	729.67
582.521	716.17
582.972	710.87
583.423	724.97
583.875	712.27
584.326	725.67
584.777	736.47
585.227	752.57
585.678	770.27
586.129	770.97
586.58	809.07
587.031	821.37
587.482	855.27
587.933	875.07
588.384	865.37
588.834	834.97
589.285	818.57
589.736	817.57
590.186	813.97
590.637	811.37
591.088	789.27
591.538	783.97
591.989	773.37
592.439	766.37
592.89	762.87
593.34	751.67
593.791	756.27
594.241	742.67
594.692	736.47
595.142	743.87
595.593	738.07
596.043	741.17
596.493	740.47
596.943	751.27
597.394	755.37
597.844	754.97
598.294	776.87
598.744	802.87
599.195	826.07
599.645	877.47
600.095	928.67
600.545	976.37
600.995	1028.57
601.445	1084.17
601.895	1153.97
602.345	1207.87
602.795	1164.97
603.245	1129.87
603.695	1076.77
604.145	1022.17
604.594	973.07
605.044	915.17
605.494	841.07
605.944	804.07
606.393	791.17
606.843	768.87
607.293	765.87
607.743	768.47
608.192	779.27
608.642	786.77
609.091	787.97
609.541	808.87
609.99	809.47
610.44	799.47
610.889	762.17
611.339	735.07
611.788	713.47
612.238	732.07
612.687	746.07
613.136	739.17
613.586	741.17
614.035	733.67
614.484	752.27
614.933	749.37
615.383	737.67
615.832	742.57
616.281	728.77
616.73	705.77
617.179	691.67
617.628	680.47
618.077	654.27
618.526	650.27
618.975	659.27
619.424	640.87
619.873	646.27
620.322	654.47
620.771	637.17
621.22	631.27
621.669	619.57
622.118	619.17
622.567	619.67
623.015	600.97
623.464	601.77
623.913	584.17
624.361	577.27
624.81	574.27
625.259	592.87
625.707	577.57
626.156	584.27
626.604	603.77
627.053	589.77
627.501	596.67
627.95	602.37
628.398	611.67
628.847	609.17
629.295	611.27
629.744	603.87
630.192	601.87
630.64	602.87
631.089	580.77
631.537	564.27
631.985	550.17
632.433	557.47
632.881	552.27
633.33	563.07
633.778	554.17
634.226	552.87
634.674	561.87
635.122	565.97
635.57	579.87
636.018	583.17
636.466	584.47
636.914	585.67
637.362	606.67
637.81	603.07
638.258	606.27
638.705	612.07
639.153	639.27
639.601	649.87
640.049	670.97
640.497	694.37
640.944	723.97
641.392	679.97
641.84	643.87
642.287	623.87
642.735	588.67
643.182	591.97
643.63	590.27
644.078	584.07
644.525	598.47
644.973	606.47
645.42	616.27
645.867	656.37
646.315	658.17
646.762	678.47
647.21	713.97
647.657	731.47
648.104	756.77
648.551	789.47
648.999	844.47
649.446	915.17
649.893	1015.67
650.34	1154.07
650.787	1341.37
651.234	1667.77
651.682	2170.47
652.129	2904.27
652.576	4133.07
653.023	6052.77
653.47	8188.27
653.917	10172.37
654.363	11713.57
654.81	12941.77
655.257	12240.87
655.704	8096.07
656.151	4868.07
656.598	3215.07
657.044	2303.27
657.491	1781.97
657.938	1455.27
658.385	1220.17
658.831	1073.87
659.278	957.57
659.724	856.27
660.171	798.07
660.618	728.87
661.064	692.17
661.511	678.07
661.957	676.27
662.404	651.47
662.85	663.67
663.296	636.87
663.743	578.07
664.189	562.67
664.635	552.47
665.082	548.57
665.528	550.37
665.974	536.47
666.42	532.87
666.867	515.57
667.313	504.77
667.759	478.87
668.205	469.67
668.651	481.47
669.097	466.07
669.543	456.97
669.989	454.97
670.435	463.97
670.881	466.57
671.327	463.17
671.773	487.27
672.219	510.07
672.665	567.37
673.11	608.27
673.556	666.47
674.002	701.87
674.448	693.87
674.893	583.07
675.339	507.47
675.785	468.67
676.23	452.57
676.676	419.27
677.122	406.27
677.567	401.17
678.013	386.57
678.458	379.87
678.904	382.07
679.349	371.47
679.794	373.97
680.24	368.87
680.685	367.37
681.131	369.37
681.576	367.77
682.021	375.27
682.466	366.97
682.912	363.87
683.357	365.67
683.802	405.87
684.247	431.07
684.692	476.27
685.137	524.87
685.583	559.07
686.028	587.37
686.473	547.17
686.918	470.47
687.363	444.77
687.807	418.57
688.252	382.67
688.697	372.37
689.142	356.77
689.587	363.67
690.032	343.27
690.477	358.97
690.921	370.07
691.366	398.17
691.811	426.57
692.255	455.97
692.7	487.37
693.145	532.87
693.589	737.27
694.034	1201.47
694.478	1651.27
694.923	1844.27
695.367	2414.17
695.812	1264.87
696.256	528.07
696.701	390.17
697.145	359.17
697.59	342.87
698.034	342.07
698.478	342.67
698.922	335.27
699.367	333.67
699.811	350.77
700.255	367.17
700.699	405.67
701.143	438.77
701.588	502.67
702.032	538.47
702.476	544.07
702.92	519.27
703.364	528.57
703.808	679.37
704.252	1107.97
704.696	1544.97
705.14	1783.17
705.584	2257.37
706.027	1133.97
706.471	563.97
706.915	419.97
707.359	373.67
707.803	338.07
708.246	321.77
708.69	325.97
709.134	333.27
709.577	321.67
710.021	334.37
710.465	319.07
710.908	323.57
711.352	316.57
711.795	333.37
712.239	373.97
712.682	407.37
713.126	433.87
713.569	486.87
714.012	376.67
714.456	324.27
714.899	303.87
715.342	291.87
715.786	270.07
716.229	278.17
716.672	268.27
717.115	260.07
717.558	265.47
718.002	260.77
718.445	282.77
718.888	293.37
719.331	310.37
719.774	316.77
720.217	328.37
720.66	295.37
721.103	285.47
721.546	263.07
721.989	264.47
722.432	241.17
722.874	257.87
723.317	240.37
723.76	250.27
724.203	271.67
724.645	338.47
725.088	472.87
725.531	596.57
725.974	675.07
726.416	574.17
726.859	321.67
727.301	261.97
727.744	248.87
728.187	241.07
728.629	248.67
729.071	253.37
729.514	277.17
729.956	289.47
730.399	301.87
730.841	300.47
731.283	285.77
731.726	279.67
732.168	268.17
732.61	290.77
733.053	303.67
733.495	337.97
733.937	367.87
734.379	415.17
734.821	464.47
735.263	580.67
735.705	902.57
736.148	1704.07
736.59	2767.17
737.032	3257.37
737.474	2666.87
737.916	867.07
738.357	456.67
738.799	349.27
739.241	315.77
739.683	299.47
740.125	310.37
740.567	317.37
741.008	329.47
741.45	334.27
741.892	333.07
742.334	373.37
742.775	387.77
743.217	366.37
743.658	288.17
744.1	270.27
744.542	283.37
744.983	345.97
745.425	375.67
745.866	360.37
746.307	290.37
746.749	294.07
747.19	345.57
747.632	480.67
748.073	946.17
748.514	2005.57
748.956	3039.27
749.397	3829.57
749.838	3185.97
750.279	3147.07
750.72	1597.37
751.162	587.87
751.603	344.27
752.044	265.97
752.485	232.37
752.926	216.67
753.367	210.57
753.808	199.77
754.249	202.77
754.69	197.07
755.131	192.87
755.572	191.97
756.013	193.07
756.453	194.67
756.894	193.47
757.335	197.27
757.776	201.97
758.216	205.77
758.657	211.67
759.098	214.27
759.538	238.87
759.979	277.07
760.42	394.37
760.86	761.37
761.301	1976.87
761.741	4753.17
762.182	6850.37
762.622	4830.87
763.063	1411.37
763.503	569.87
763.943	349.27
764.384	279.17
764.824	250.47
765.264	243.47
765.705	222.57
766.145	190.47
766.585	191.87
767.025	179.17
767.465	170.47
767.906	192.07
768.346	196.97
768.786	207.97
769.226	232.17
769.666	326.17
770.106	662.87
770.546	1680.37
770.986	2840.17
771.426	2534.77
771.866	844.17
772.306	342.77
772.745	217.77
773.185	179.47
773.625	166.47
774.065	157.07
774.505	162.37
774.944	209.37
775.384	365.57
775.824	607.67
776.263	587.37
776.703	296.37
777.142	162.47
777.582	136.87
778.021	130.37
778.461	136.57
778.9	133.47
779.34	127.57
779.779	122.57
780.219	115.17
780.658	111.27
781.097	121.77
781.537	117.07
781.976	109.07
782.415	108.27
782.855	109.27
783.294	108.37
783.733	105.47
784.172	115.97
784.611	109.97
785.05	118.17
785.489	111.17
785.928	122.27
786.367	127.87
786.806	122.47
787.245	139.07
787.684	138.27
788.123	152.37
788.562	142.57
789.001	139.87
789.44	131.47
789.879	131.57
790.317	124.77
790.756	134.27
791.195	135.87
791.634	157.07
792.072	219.87
792.511	379.07
792.95	1073.67
793.388	2255.07
793.827	2025.97
794.265	709.47
794.704	297.57
795.142	193.57
795.581	166.57
796.019	144.47
796.458	132.97
796.896	131.97
797.334	138.47
797.773	165.47
798.211	232.77
798.649	468.77
799.087	1091.17
799.526	1702.47
799.964	2153.57
800.402	2137.97
800.84	815.17
801.278	320.77
801.716	195.27
802.154	159.27
802.592	154.17
803.03	143.37
803.468	143.37
803.906	143.57
804.344	153.17
804.782	147.97
805.22	137.87
805.658	140.67
806.096	155.97
806.533	168.97
806.971	185.67
807.409	231.17
807.847	342.37
808.284	713.97
808.722	2020.17
809.16	3529.97
809.597	3371.77
810.035	5816.57
810.472	6161.17
810.91	2235.87
811.347	850.67
811.785	429.07
812.222	279.87
812.66	213.87
813.097	179.77
813.535	146.87
813.972	142.17
814.409	123.57
814.846	116.27
815.284	119.27
815.721	105.27
816.158	102.47
816.595	112.17
817.032	157.67
817.47	197.37
817.907	139.77
818.344	103.67
818.781	104.07
819.218	106.77
819.655	129.37
820.092	192.67
820.529	227.07
820.966	177.67
821.403	128.77
821.839	102.87
822.276	105.57
822.713	126.67
823.15	146.57
823.587	125.67
824.023	158.37
824.46	320.27
824.897	945.47
825.333	1433.97
825.77	623.47
826.206	245.57
826.643	144.07
827.08	108.17
827.516	88.77
827.953	78.97
828.389	88.37
828.825	73.97
829.262	68.27
829.698	71.67
830.135	60.87
830.571	65.47
831.007	67.27
831.443	63.87
831.88	63.77
832.316	60.67
832.752	68.07
833.188	67.67
833.624	63.87
834.06	69.37
834.497	67.27
834.933	70.67
835.369	73.97
835.805	75.37
836.241	79.87
836.677	87.07
837.112	94.87
837.548	108.47
837.984	140.97
838.42	215.27
838.856	536.07
839.292	1628.37
839.727	2458.57
840.163	1152.77
840.599	990.77
841.034	2166.87
841.47	2251.67
841.906	838.27
842.341	351.77
842.777	207.37
843.212	209.87
843.648	196.97
844.083	111.17
844.519	84.27
844.954	78.17
845.39	61.07
845.825	59.27
846.261	57.57
846.696	60.77
847.131	54.07
847.566	57.47
848.002	60.07
848.437	48.87
848.872	67.67
849.307	64.67
849.742	88.67
850.177	197.97
850.613	600.47
851.048	938.07
851.483	403.37
851.918	157.37
852.353	86.07
852.788	53.97
853.223	51.77
853.657	53.27
854.092	55.17
854.527	44.57
854.962	37.17
855.397	49.87
855.832	51.87
856.266	47.27
856.701	40.97
857.136	39.47
857.57	40.37
858.005	52.57
858.44	61.17
858.874	41.67
859.309	54.07
859.743	46.97
860.178	52.07
860.612	43.77
861.047	60.97
861.481	78.07
861.915	80.27
862.35	52.97
862.784	39.07
863.218	39.47
863.653	35.57
864.087	45.97
864.521	53.87
864.955	68.37
865.39	168.47
865.824	185.67
866.258	120.67
866.692	175.67
867.126	193.17
867.56	116.27
867.994	59.37
868.428	39.77
868.862	52.37
869.296	59.27
869.73	61.87
870.164	56.67
870.598	48.97
871.031	36.77
871.465	36.07
871.899	31.27
872.333	23.67
872.766	32.47
873.2	25.37
873.634	33.57
874.067	25.47
874.501	26.67
874.935	36.17
875.368	32.67
875.802	31.27
876.235	25.27
876.669	25.77
877.102	19.47
877.535	27.97
877.969	21.87
878.402	24.47
878.836	25.67
879.269	26.47
879.702	22.07
880.135	22.27
880.569	25.97
881.002	26.77
881.435	24.37
881.868	15.47
882.301	22.17
882.734	16.97
883.167	18.17
883.601	21.47
884.034	20.97
884.467	12.67
884.899	20.87
885.332	21.37
885.765	18.57
886.198	15.17
886.631	20.97
887.064	19.57
887.497	25.77
887.929	27.47
888.362	11.67
888.795	16.97
889.228	19.27
889.66	22.17
890.093	16.67
890.526	19.97
890.958	20.67
891.391	12.47
891.823	25.27
892.256	15.17
892.688	11.67
893.121	17.97
893.553	17.77
893.985	24.57
894.418	17.97
894.85	8.47
895.282	13.17
895.715	13.47
896.147	14.77
896.579	17.97
897.011	16.07
897.444	18.47
897.876	16.37
898.308	19.47
898.74	16.87
899.172	16.57
899.604	26.47
900.036	18.17
900.468	18.47
900.9	16.27
901.332	15.67
901.764	6.97
902.196	16.57
902.628	16.87
903.06	23.97
903.491	30.87
903.923	21.77
904.355	22.07
904.787	23.17
905.218	23.07
905.65	19.67
906.082	16.57
906.513	13.57
906.945	17.77
907.376	12.27
907.808	21.37
908.239	17.07
908.671	16.87
909.102	20.77
909.534	22.07
909.965	52.67
910.397	96.17
910.828	332.17
911.259	494.07
911.691	234.87
912.122	117.37
912.553	56.67
912.984	37.27
913.415	26.17
913.847	34.77
914.278	19.27
914.709	19.27
915.14	13.07
915.571	14.47
916.002	16.97
916.433	23.37
916.864	13.77
917.295	15.17
917.726	20.47
918.157	20.67
918.587	33.87
919.018	21.17
919.449	20.77
919.88	25.87
920.311	28.57
920.741	54.07
921.172	174.37
921.603	155.77
922.033	79.27
922.464	48.67
922.895	32.97
923.325	24.67
923.756	11.27
924.186	13.67
924.617	19.77
925.047	17.37
925.478	27.67
925.908	20.47
926.338	8.37
926.769	11.17
927.199	13.87
927.629	7.07
928.06	12.57
928.49	17.17
928.92	11.77
929.35	11.77
929.78	10.37
930.21	7.87
930.641	3.77
931.071	9.47
931.501	4.97
931.931	7.77
932.361	11.27
932.791	0.37
933.221	3.27
933.651	12.17
934.08	18.27
934.51	27.57
934.94	12.17
935.37	12.97
935.8	14.67
936.229	8.77
936.659	9.37
937.089	2.17
937.519	8.07
937.948	25.47
938.378	14.57
938.807	4.07
939.237	10.07
939.666	9.27
940.096	-8.63
940.525	1.17
940.955	1.07
941.384	6.87
941.814	-7.33
942.243	2.37
942.672	1.77
943.102	-4.83
943.531	3.17
943.96	6.87
944.39	-0.33
944.819	-0.33
945.248	3.47
945.677	0.37
946.106	7.57
946.535	-0.73
946.964	1.47
947.393	7.77
947.822	5.87
948.251	-3.23
948.68	5.97
949.109	6.27
949.538	5.97
949.967	-0.53
950.396	7.17
950.825	-0.83
951.254	-7.93
951.682	-6.93
952.111	-1.03
952.54	5.67
952.969	-1.13
953.397	-6.23
953.826	2.07
954.254	-5.93
954.683	-1.33
955.112	-9.23
955.54	0.87
955.969	3.77
956.397	4.17
956.826	4.37
957.254	7.37
957.682	5.07
958.111	1.57
958.539	3.97
958.967	-0.73
959.396	-0.13
959.824	-1.43
960.252	-3.33
960.68	-5.83
961.109	-0.93
961.537	-2.53
961.965	-5.33
962.393	1.67
962.821	-4.53
963.249	-0.43
963.677	4.67
964.105	3.27
964.533	45.97
964.961	38.47
965.389	20.67
965.817	7.27
966.245	6.17
966.672	-0.23
967.1	-2.53
967.528	4.07
967.956	1.37
968.383	0.77
968.811	4.57
969.239	-0.53
969.666	-7.43
970.094	-0.13
970.522	-1.63
970.949	-0.73
971.377	-5.53
971.804	-0.23
972.232	-1.43
972.659	-4.83
973.087	-0.63
973.514	-3.13
973.941	-2.03
974.369	2.07
974.796	4.77
975.223	-4.13
975.651	-2.13
976.078	-0.63
976.505	2.87
976.932	5.87
977.359	17.37
977.786	16.47
978.214	1.97
978.641	-4.03
979.068	-3.43
979.495	-5.83
979.922	-3.83
980.349	-5.03
980.776	4.57
981.202	2.37
981.629	3.57
982.056	6.17
982.483	-2.43
982.91	0.77
983.337	-6.33
983.763	4.07
984.19	-5.83
984.617	-4.73
985.043	-2.13
985.47	-5.53
985.897	-1.63
986.323	-6.73
986.75	3.07
987.176	-1.23
987.603	0.37
988.029	-4.53
988.456	-2.03
988.882	3.47
989.308	-6.03
989.735	-4.73
990.161	0.57
990.587	-0.43
991.014	2.07
991.44	13.97
991.866	-5.03
992.292	-9.83
992.719	-5.43
993.145	-0.43
993.571	-7.43
993.997	-2.13
994.423	-0.33
994.849	-6.23
995.275	-2.83
995.701	-0.63
996.127	-5.23
996.553	3.37
996.979	2.57
997.405	3.87
997.83	-4.83
998.256	-9.03
998.682	-6.33
999.108	-6.33
999.534	2.07
999.959	-2.93
1000.385	-3.63
1000.811	-2.53
1001.236	-6.43
1001.662	-7.03
1002.087	-10.83
1002.513	-2.53
1002.938	1.77
1003.364	-2.63
1003.789	2.77
1004.215	2.67
1004.64	-2.63
1005.066	5.87
1005.491	1.27
1005.916	-5.53
1006.342	-6.03
1006.767	-6.73
1007.192	3.67
1007.617	-8.53
1008.042	-6.73
1008.468	-7.73
1008.893	-3.63
1009.318	-6.23
1009.743	0.87
1010.168	3.57
1010.593	-0.93
1011.018	-9.83
1011.443	0.77
1011.868	0.57
1012.293	4.77
1012.718	-2.33
1013.143	-1.93
1013.567	6.07
1013.992	3.47
1014.417	-17.23
1014.842	2.67
1015.267	-9.43
1015.691	-1.13
1016.116	11.87
1016.541	-3.73
1016.965	-1.83
1017.39	-0.33
1017.814	3.57
1018.239	-0.63
1018.663	-6.33
1019.088	-7.83
1019.512	-7.23
1019.937	-7.43
1020.361	-9.53
1020.785	-13.43
1021.21	-0.83
1021.634	-2.03
1022.058	-6.43
1022.483	0.07
1022.907	-4.33
1023.331	-2.73
1023.755	-6.13
1024.179	-7.63
1024.604	-3.43
1025.028	-2.83
1025.452	-2.23
1025.876	-0.83
1026.3	1.67
1026.724	-10.63
1027.148	-2.53
1027.572	-7.23
1027.996	-3.83
1028.42	-1.13
1028.843	-9.83
1029.267	-3.43
1029.691	-3.43
1030.115	-4.93
1030.539	-6.93
1030.962	-1.73
1031.386	-16.13
1031.81	-0.63
1032.233	4.67
1032.657	-2.73
1033.08	-4.23
1033.504	-7.23
1033.927	-0.03
1034.351	-2.93
1034.774	-2.03
1035.198	-0.33
1035.621	-5.13
1036.045	-9.63
1036.468	-1.03
1036.891	-6.23
1037.315	-8.23
1037.738	-7.13
1038.161	0.07
1038.584	-8.43
1039.008	-2.33
1039.431	-3.93
1039.854	-3.63
1040.277	-11.73
1040.7	-9.63
1041.123	0.07
1041.546	-2.23
1041.969	-4.63
1042.392	-5.93
1042.815	-3.63
1043.238	-2.03
1043.661	0.87
1044.084	-7.43
1044.507	-9.03
1044.93	-5.63
1045.352	-6.13
1045.775	-5.63
1046.198	-4.73
1046.621	-0.43
1047.043	0.97
1047.466	6.47
1047.889	0.47
1048.311	-1.83
1048.734	-4.23
1049.156	-3.33
1049.579	1.17
1050.001	-6.13
1050.424	5.97
1050.846	1.17
1051.269	-6.13
1051.691	-0.63
1052.113	1.17
1052.536	-9.43
1052.958	2.77
1053.38	-1.73
1053.802	-4.93
1054.225	-2.63
1054.647	-15.33
1055.069	-9.63
1055.491	0.47
1055.913	-10.53
1056.335	-1.53
1056.757	-1.33
1057.179	-10.93
1057.601	-8.63
1058.023	-7.93
1058.445	-6.53
1058.867	-4.43
1059.289	-8.53
1059.711	-2.13
1060.133	-6.23
1060.555	-7.23
1060.976	-5.13
1061.398	-3.53
1061.82	-2.93
1062.241	-2.83
1062.663	-7.03
1063.085	-5.93
1063.506	-2.43
1063.928	-11.23
1064.35	-4.13
1064.771	-11.63
1065.193	-4.53
1065.614	-9.03
1066.035	-3.93
1066.457	-3.93
1066.878	-0.43
1067.3	-7.53
1067.721	-3.33
1068.142	-10.03
1068.564	-5.33
1068.985	-5.33
1069.406	-4.13
1069.827	-2.83
1070.248	0.87
1070.67	-5.63
1071.091	-8.23
1071.512	-4.63
1071.933	-12.23
1072.354	-7.33
1072.775	-6.93
1073.196	-5.53
1073.617	-2.13
1074.038	-7.33
1074.459	-4.93
1074.88	-5.13
1075.3	-7.83
1075.721	-12.23
1076.142	-4.63
1076.563	-3.73
1076.983	-9.93
1077.404	-7.33
1077.825	-8.53
1078.246	-5.83
1078.666	-8.13
1079.087	-0.33
1079.507	-1.23
1079.928	3.67
1080.348	-2.63
1080.769	-3.13
1081.189	0.47
1081.61	-3.73
1082.03	-12.23
1082.451	-4.53
1082.871	-0.03
1083.291	-4.53
1083.711	-7.73
1084.132	-8.43
1084.552	-11.33
1084.972	0.27
1085.392	-9.23
1085.813	-8.53
1086.233	-5.83
1086.653	-2.93
1087.073	-5.73
1087.493	-14.03
1087.913	-8.53
1088.333	-13.83
1088.753	-4.93
1089.173	2.07
1089.593	-0.73
1090.013	2.37
1090.433	-0.13
1090.852	-3.33
1091.272	-2.93
1091.692	1.47
1092.112	-1.43
1092.531	-15.73
1092.951	-14.63
1093.371	-3.03
1093.79	0.67
1094.21	-10.23
1094.63	-10.13
1095.049	-6.93
1095.469	-8.43
1095.888	-1.63
1096.308	0.07
1096.727	-0.63
1097.146	-8.23
1097.566	-3.23
1097.985	-7.53
1098.405	-2.23
1098.824	-3.33
1099.243	-4.23
1099.662	-11.73
1100.082	-6.83
1100.501	-6.53
1100.92	-4.73
1101.339	-2.13
1101.758	-5.13
