Data from 20171114-ORNL-Ar_H_NY_Subt18_08-04-45-738.txt Node
Date: Tue Nov 14 08:04:45 EST 2017
User: Ender
Spectrometer: HR+D1039
Trigger mode: 0
Integration Time (sec): 2.730000E-2
Scans to average: 10
Electric dark correction enabled: true
Nonlinearity correction enabled: false
Boxcar width: 0
XAxis mode: Wavelengths
Number of Pixels in Spectrum: 2048
>>>>>Begin Spectral Data<<<<<
187.836	-7.94
188.309	-7.94
188.782	-7.94
189.255	0.36
189.728	-3.34
190.201	1.46
190.674	0.46
191.147	4.56
191.619	-8.94
192.092	0.36
192.565	-1.14
193.038	-0.64
193.511	1.76
193.984	3.16
194.456	0.76
194.929	2.86
195.402	2.86
195.874	3.46
196.347	-2.94
196.82	-7.04
197.292	5.06
197.765	-0.24
198.237	-8.14
198.71	-1.14
199.182	-3.44
199.655	2.36
200.127	2.06
200.6	-3.34
201.072	-3.74
201.544	-2.84
202.017	-1.04
202.489	7.96
202.961	0.56
203.433	-4.34
203.906	-9.64
204.378	-4.34
204.85	-4.44
205.322	-7.94
205.794	-2.24
206.266	3.76
206.739	-7.04
207.211	1.76
207.683	-8.24
208.155	-7.04
208.627	-6.24
209.099	-7.64
209.57	-4.24
210.042	-5.44
210.514	0.96
210.986	-3.14
211.458	-4.84
211.93	-0.74
212.402	4.16
212.873	-0.94
213.345	-6.24
213.817	-14.14
214.288	-2.34
214.76	-10.74
215.232	-3.64
215.703	-5.84
216.175	-5.74
216.646	-3.24
217.118	-5.04
217.589	-7.64
218.061	4.16
218.532	-1.34
219.004	2.26
219.475	2.66
219.946	-4.54
220.418	-3.84
220.889	3.06
221.36	3.26
221.832	-1.54
222.303	-8.44
222.774	-0.34
223.245	-2.14
223.717	-5.84
224.188	-5.64
224.659	-5.84
225.13	-7.94
225.601	-5.24
226.072	-2.74
226.543	-1.64
227.014	4.96
227.485	-2.14
227.956	-6.14
228.427	2.26
228.898	3.46
229.369	5.96
229.839	-0.34
230.31	-4.74
230.781	1.26
231.252	-3.24
231.722	-3.44
232.193	0.16
232.664	-1.24
233.135	4.76
233.605	-1.84
234.076	-7.84
234.546	2.66
235.017	6.16
235.487	3.66
235.958	1.46
236.428	-2.84
236.899	5.56
237.369	6.86
237.84	-0.44
238.31	13.06
238.78	3.36
239.251	3.96
239.721	4.46
240.191	2.86
240.662	2.26
241.132	3.86
241.602	1.86
242.072	1.66
242.542	10.46
243.013	2.26
243.483	6.46
243.953	5.46
244.423	3.36
244.893	2.16
245.363	8.66
245.833	-1.94
246.303	3.46
246.773	10.66
247.243	5.56
247.712	10.26
248.182	9.96
248.652	6.56
249.122	4.26
249.592	13.56
250.061	21.26
250.531	38.86
251.001	25.96
251.471	22.46
251.94	18.36
252.41	8.26
252.879	2.66
253.349	11.86
253.818	10.46
254.288	12.06
254.757	3.46
255.227	3.66
255.696	8.46
256.166	5.96
256.635	4.96
257.105	11.26
257.574	7.16
258.043	7.56
258.513	10.06
258.982	15.36
259.451	10.06
259.92	21.66
260.389	17.86
260.859	15.06
261.328	18.36
261.797	19.46
262.266	11.06
262.735	10.86
263.204	10.16
263.673	3.26
264.142	8.76
264.611	-1.44
265.08	4.66
265.549	-1.94
266.018	11.96
266.487	1.26
266.955	0.76
267.424	0.66
267.893	8.76
268.362	-0.84
268.83	4.26
269.299	21.06
269.768	6.06
270.236	18.06
270.705	7.86
271.174	8.26
271.642	8.96
272.111	17.26
272.579	18.46
273.048	23.56
273.516	29.56
273.985	30.36
274.453	22.66
274.922	21.76
275.39	16.66
275.858	5.26
276.327	18.56
276.795	24.96
277.263	13.26
277.731	37.76
278.2	61.76
278.668	69.66
279.136	45.96
279.604	21.86
280.072	16.76
280.54	17.06
281.008	10.76
281.477	19.26
281.945	18.66
282.413	21.16
282.881	18.26
283.348	13.16
283.816	18.96
284.284	12.96
284.752	21.66
285.22	16.36
285.688	18.96
286.156	23.26
286.623	48.96
287.091	57.26
287.559	32.76
288.026	20.26
288.494	21.16
288.962	6.66
289.429	16.76
289.897	15.66
290.364	19.36
290.832	17.96
291.3	17.56
291.767	16.86
292.234	19.86
292.702	19.06
293.169	16.46
293.637	27.16
294.104	29.16
294.571	4.66
295.039	15.16
295.506	18.76
295.973	20.56
296.44	17.26
296.908	23.76
297.375	21.66
297.842	17.46
298.309	23.86
298.776	20.46
299.243	24.26
299.71	16.76
300.177	31.46
300.644	30.46
301.111	23.06
301.578	27.86
302.045	18.86
302.512	29.86
302.979	27.36
303.446	23.96
303.913	20.66
304.379	23.86
304.846	29.76
305.313	30.96
305.78	26.76
306.246	31.26
306.713	29.16
307.18	26.56
307.646	29.06
308.113	31.16
308.579	23.76
309.046	30.96
309.512	28.26
309.979	19.86
310.445	33.56
310.912	33.36
311.378	33.76
311.845	29.46
312.311	37.36
312.777	33.56
313.244	36.86
313.71	41.46
314.176	31.56
314.642	34.16
315.109	37.76
315.575	32.46
316.041	40.76
316.507	31.46
316.973	45.06
317.439	39.46
317.905	38.06
318.371	34.96
318.837	34.76
319.303	37.16
319.769	37.26
320.235	36.96
320.701	36.46
321.167	37.56
321.633	29.36
322.099	40.76
322.564	45.56
323.03	42.36
323.496	37.36
323.962	39.26
324.427	39.76
324.893	40.96
325.359	37.66
325.824	37.86
326.29	40.96
326.755	37.96
327.221	40.96
327.686	41.36
328.152	51.36
328.617	41.86
329.083	46.56
329.548	55.56
330.014	48.26
330.479	40.26
330.944	48.96
331.41	45.86
331.875	46.46
332.34	46.46
332.805	45.36
333.271	50.26
333.736	49.76
334.201	49.86
334.666	56.26
335.131	52.16
335.596	51.26
336.061	52.16
336.526	39.86
336.991	54.56
337.456	55.76
337.921	52.96
338.386	46.76
338.851	44.96
339.316	53.36
339.781	46.36
340.246	53.16
340.711	52.46
341.175	54.66
341.64	50.86
342.105	58.46
342.569	55.06
343.034	62.86
343.499	59.06
343.963	55.26
344.428	58.46
344.893	61.36
345.357	59.76
345.822	65.36
346.286	75.06
346.751	74.16
347.215	72.06
347.679	75.96
348.144	98.56
348.608	84.16
349.073	73.86
349.537	74.36
350.001	79.66
350.465	94.06
350.93	82.06
351.394	75.46
351.858	73.46
352.322	84.46
352.786	84.76
353.25	106.86
353.715	109.46
354.179	101.66
354.643	119.26
355.107	125.46
355.571	109.56
356.035	103.26
356.498	120.16
356.962	125.06
357.426	133.16
357.89	116.96
358.354	87.96
358.818	82.46
359.281	81.46
359.745	76.76
360.209	84.36
360.673	73.56
361.136	85.36
361.6	84.46
362.064	87.16
362.527	77.56
362.991	91.56
363.454	82.36
363.918	74.76
364.381	82.66
364.845	80.46
365.308	88.36
365.772	86.06
366.235	80.36
366.698	87.96
367.162	83.76
367.625	90.06
368.088	87.86
368.552	89.46
369.015	90.86
369.478	100.76
369.941	94.56
370.404	93.86
370.867	107.36
371.331	107.06
371.794	116.66
372.257	110.96
372.72	108.46
373.183	101.26
373.646	97.66
374.109	102.56
374.572	105.96
375.035	102.26
375.497	111.16
375.96	106.56
376.423	99.86
376.886	112.06
377.349	109.76
377.811	101.76
378.274	103.46
378.737	110.56
379.199	108.26
379.662	107.76
380.125	111.26
380.587	117.66
381.05	112.66
381.512	133.36
381.975	132.26
382.437	122.76
382.9	130.16
383.362	131.26
383.825	135.16
384.287	142.06
384.75	132.06
385.212	138.26
385.674	143.66
386.136	139.06
386.599	126.06
387.061	126.06
387.523	121.66
387.985	125.26
388.447	137.06
388.91	131.86
389.372	148.06
389.834	144.06
390.296	138.76
390.758	142.26
391.22	162.46
391.682	200.06
392.144	272.46
392.606	215.56
393.068	151.96
393.529	158.16
393.991	149.16
394.453	144.86
394.915	155.86
395.377	184.46
395.838	205.66
396.3	154.46
396.762	136.26
397.224	131.96
397.685	121.56
398.147	123.36
398.608	129.16
399.07	123.56
399.531	123.56
399.993	127.36
400.454	144.26
400.916	139.56
401.377	142.76
401.839	147.16
402.3	144.96
402.762	155.86
403.223	170.76
403.684	165.96
404.145	152.36
404.607	154.76
405.068	162.06
405.529	162.86
405.99	180.26
406.451	167.06
406.913	163.16
407.374	154.26
407.835	156.26
408.296	157.06
408.757	165.36
409.218	176.76
409.679	169.26
410.14	166.56
410.601	166.76
411.062	178.16
411.522	176.76
411.983	183.26
412.444	169.96
412.905	175.06
413.366	174.76
413.826	185.46
414.287	208.36
414.748	251.26
415.208	233.26
415.669	202.06
416.13	200.66
416.59	197.36
417.051	199.26
417.511	207.06
417.972	221.96
418.432	237.26
418.893	274.76
419.353	242.06
419.814	188.66
420.274	174.76
420.734	173.16
421.195	184.66
421.655	188.96
422.115	185.36
422.576	178.46
423.036	190.16
423.496	204.16
423.956	212.86
424.416	222.16
424.876	248.26
425.336	251.16
425.797	253.16
426.257	238.86
426.717	229.96
427.177	216.16
427.637	211.16
428.097	224.86
428.556	234.86
429.016	259.26
429.476	248.56
429.936	263.06
430.396	264.26
430.856	273.76
431.315	299.06
431.775	333.16
432.235	354.86
432.694	328.96
433.154	345.26
433.614	359.26
434.073	318.86
434.533	268.56
434.993	259.76
435.452	263.36
435.912	274.76
436.371	266.26
436.83	271.76
437.29	251.86
437.749	231.26
438.209	225.76
438.668	260.66
439.127	273.66
439.587	247.46
440.046	232.26
440.505	246.76
440.964	261.66
441.424	305.26
441.883	299.26
442.342	248.46
442.801	214.46
443.26	207.26
443.719	208.86
444.178	205.76
444.637	195.66
445.096	203.96
445.555	209.36
446.014	208.06
446.473	212.26
446.932	221.26
447.391	206.76
447.849	206.36
448.308	198.86
448.767	208.36
449.226	219.96
449.685	225.46
450.143	237.76
450.602	225.26
451.061	217.16
451.519	216.86
451.978	217.36
452.436	226.76
452.895	220.06
453.353	242.16
453.812	226.76
454.27	222.66
454.729	228.76
455.187	229.96
455.646	224.86
456.104	237.36
456.562	246.86
457.021	247.96
457.479	239.96
457.937	255.86
458.395	247.86
458.854	236.06
459.312	236.76
459.77	260.36
460.228	243.06
460.686	228.56
461.144	238.76
461.602	225.46
462.06	228.96
462.518	236.56
462.976	237.36
463.434	244.36
463.892	254.26
464.35	261.76
464.808	281.36
465.266	246.76
465.724	249.06
466.181	257.46
466.639	260.66
467.097	275.76
467.555	282.26
468.012	274.96
468.47	297.76
468.928	306.66
469.385	323.76
469.843	332.06
470.3	328.36
470.758	345.56
471.215	369.76
471.673	385.66
472.13	384.86
472.588	391.26
473.045	350.36
473.503	352.56
473.96	372.26
474.417	380.86
474.875	416.56
475.332	446.06
475.789	431.76
476.246	440.86
476.704	459.76
477.161	478.56
477.618	484.16
478.075	527.36
478.532	576.76
478.989	645.56
479.446	759.56
479.903	723.66
480.36	762.96
480.817	816.56
481.274	922.56
481.731	1021.76
482.188	1106.76
482.645	1231.76
483.102	1329.36
483.558	1469.86
484.015	1525.96
484.472	1500.86
484.929	1453.56
485.385	1398.76
485.842	1356.76
486.299	1290.86
486.755	1223.36
487.212	1031.26
487.668	875.76
488.125	811.76
488.582	737.46
489.038	713.06
489.494	679.96
489.951	651.36
490.407	645.76
490.864	613.46
491.32	609.16
491.776	599.06
492.233	615.76
492.689	570.96
493.145	571.96
493.602	565.76
494.058	571.56
494.514	583.56
494.97	608.96
495.426	610.76
495.882	592.86
496.338	586.06
496.794	599.56
497.251	591.56
497.707	602.86
498.163	604.66
498.618	605.36
499.074	608.06
499.53	641.96
499.986	644.36
500.442	619.96
500.898	603.26
501.354	587.76
501.809	596.46
502.265	601.86
502.721	625.56
503.177	628.46
503.632	626.76
504.088	632.06
504.543	664.36
504.999	667.46
505.455	621.96
505.91	603.96
506.366	607.06
506.821	595.46
507.277	588.76
507.732	587.06
508.187	586.66
508.643	602.36
509.098	597.76
509.553	613.36
510.009	627.86
510.464	630.86
510.919	651.76
511.375	659.36
511.83	674.76
512.285	687.26
512.74	719.96
513.195	738.46
513.65	729.46
514.105	739.96
514.56	733.66
515.015	749.56
515.47	765.46
515.925	758.66
516.38	747.86
516.835	750.66
517.29	736.76
517.745	730.06
518.2	722.56
518.655	708.26
519.109	710.36
519.564	701.06
520.019	691.36
520.474	686.76
520.928	691.16
521.383	688.36
521.838	672.46
522.292	670.06
522.747	661.96
523.201	665.26
523.656	649.06
524.11	647.76
524.565	651.56
525.019	655.46
525.474	651.96
525.928	659.16
526.382	647.76
526.837	652.76
527.291	662.16
527.745	654.46
528.2	660.66
528.654	648.96
529.108	641.16
529.562	650.66
530.016	650.36
530.47	646.76
530.925	651.76
531.379	664.66
531.833	666.76
532.287	661.06
532.741	664.26
533.195	670.36
533.649	669.86
534.103	694.16
534.556	671.16
535.01	672.46
535.464	660.06
535.918	678.26
536.372	668.16
536.826	671.36
537.279	663.46
537.733	675.76
538.187	675.76
538.64	671.16
539.094	681.16
539.548	686.76
540.001	680.16
540.455	673.36
540.908	686.16
541.362	691.56
541.815	697.86
542.269	702.06
542.722	717.86
543.175	713.66
543.629	714.26
544.082	731.76
544.536	730.86
544.989	739.26
545.442	737.46
545.895	730.66
546.349	735.96
546.802	740.56
547.255	734.76
547.708	760.06
548.161	753.06
548.614	752.96
549.067	776.56
549.52	768.86
549.973	758.76
550.426	751.36
550.879	736.06
551.332	741.56
551.785	741.16
552.238	754.36
552.691	760.56
553.144	768.56
553.596	791.86
554.049	805.46
554.502	826.76
554.955	848.36
555.407	842.06
555.86	839.96
556.313	832.96
556.765	816.76
557.218	817.06
557.67	823.96
558.123	815.56
558.576	813.66
559.028	813.76
559.48	814.56
559.933	802.76
560.385	778.86
560.838	750.66
561.29	724.76
561.742	720.56
562.195	708.86
562.647	709.26
563.099	715.86
563.551	719.66
564.004	729.06
564.456	717.96
564.908	713.36
565.36	695.56
565.812	675.86
566.264	667.36
566.716	678.26
567.168	654.36
567.62	666.36
568.072	652.86
568.524	644.06
568.976	632.26
569.428	619.46
569.88	618.96
570.332	629.16
570.784	628.96
571.235	628.16
571.687	638.86
572.139	640.76
572.59	651.26
573.042	652.56
573.494	651.16
573.945	656.86
574.397	633.46
574.849	638.36
575.3	639.26
575.752	630.56
576.203	624.26
576.655	630.96
577.106	617.76
577.557	607.76
578.009	608.36
578.46	611.66
578.912	602.86
579.363	602.86
579.814	606.66
580.265	612.26
580.717	619.26
581.168	609.86
581.619	617.26
582.07	631.76
582.521	618.36
582.972	616.16
583.423	619.56
583.875	617.86
584.326	640.26
584.777	688.56
585.227	753.96
585.678	834.66
586.129	922.06
586.58	985.06
587.031	1051.56
587.482	1218.16
587.933	1386.56
588.384	1196.96
588.834	883.86
589.285	732.66
589.736	718.76
590.186	716.86
590.637	699.96
591.088	669.66
591.538	671.16
591.989	664.16
592.439	658.56
592.89	652.06
593.34	638.66
593.791	655.76
594.241	638.76
594.692	646.66
595.142	644.06
595.593	639.76
596.043	642.36
596.493	653.56
596.943	646.66
597.394	655.16
597.844	643.86
598.294	656.26
598.744	685.56
599.195	701.86
599.645	736.26
600.095	771.66
600.545	833.76
600.995	873.76
601.445	928.46
601.895	986.06
602.345	1028.46
602.795	1002.46
603.245	962.56
603.695	913.56
604.145	862.76
604.594	817.26
605.044	774.06
605.494	714.46
605.944	677.26
606.393	669.26
606.843	656.06
607.293	656.86
607.743	655.16
608.192	678.76
608.642	685.56
609.091	691.46
609.541	690.26
609.99	703.56
610.44	688.66
610.889	651.16
611.339	621.46
611.788	611.46
612.238	629.66
612.687	650.36
613.136	640.36
613.586	650.06
614.035	654.96
614.484	669.96
614.933	679.26
615.383	672.06
615.832	658.26
616.281	649.06
616.73	616.36
617.179	600.26
617.628	585.96
618.077	575.56
618.526	555.86
618.975	545.56
619.424	550.06
619.873	540.56
620.322	557.06
620.771	542.26
621.22	540.96
621.669	531.66
622.118	524.56
622.567	522.56
623.015	510.26
623.464	512.16
623.913	501.06
624.361	495.56
624.81	498.46
625.259	498.96
625.707	490.26
626.156	488.66
626.604	511.96
627.053	505.66
627.501	498.56
627.95	504.36
628.398	520.16
628.847	503.66
629.295	507.26
629.744	504.96
630.192	503.46
630.64	514.36
631.089	501.16
631.537	516.56
631.985	512.16
632.433	529.06
632.881	533.66
633.33	589.46
633.778	564.96
634.226	503.86
634.674	506.86
635.122	509.16
635.57	523.36
636.018	552.26
636.466	518.76
636.914	491.76
637.362	505.36
637.81	513.36
638.258	514.96
638.705	503.16
639.153	529.76
639.601	537.46
640.049	559.56
640.497	592.86
640.944	606.36
641.392	565.56
641.84	539.76
642.287	510.36
642.735	492.96
643.182	511.26
643.63	512.66
644.078	517.56
644.525	519.06
644.973	523.76
645.42	530.86
645.867	543.66
646.315	568.06
646.762	583.26
647.21	611.46
647.657	626.76
648.104	661.06
648.551	678.76
648.999	741.86
649.446	806.06
649.893	882.26
650.34	1013.16
650.787	1213.56
651.234	1500.36
651.682	1954.36
652.129	2668.96
652.576	3838.16
653.023	5679.56
653.47	7845.26
653.917	9896.56
654.363	11585.56
654.81	12935.76
655.257	12312.36
655.704	7984.66
656.151	4697.86
656.598	3040.56
657.044	2151.96
657.491	1646.16
657.938	1319.46
658.385	1113.36
658.831	963.86
659.278	846.36
659.724	751.06
660.171	697.26
660.618	629.36
661.064	609.46
661.511	583.66
661.957	563.96
662.404	564.06
662.85	564.36
663.296	543.16
663.743	497.66
664.189	468.36
664.635	468.86
665.082	461.56
665.528	462.16
665.974	450.66
666.42	444.66
666.867	444.46
667.313	426.96
667.759	418.26
668.205	419.66
668.651	428.96
669.097	424.06
669.543	450.86
669.989	413.36
670.435	390.66
670.881	388.26
671.327	387.66
671.773	404.36
672.219	420.46
672.665	476.96
673.11	500.26
673.556	548.06
674.002	582.76
674.448	573.86
674.893	478.46
675.339	412.36
675.785	383.56
676.23	366.36
676.676	338.86
677.122	332.16
677.567	325.16
678.013	313.86
678.458	313.36
678.904	318.56
679.349	298.16
679.794	309.76
680.24	310.06
680.685	308.36
681.131	297.16
681.576	300.96
682.021	311.36
682.466	309.36
682.912	298.16
683.357	297.76
683.802	331.26
684.247	353.46
684.692	388.66
685.137	433.36
685.583	477.36
686.028	487.26
686.473	449.46
686.918	378.56
687.363	363.76
687.807	335.16
688.252	319.56
688.697	309.26
689.142	288.46
689.587	287.56
690.032	275.56
690.477	298.26
690.921	297.96
691.366	322.56
691.811	349.96
692.255	372.86
692.7	401.36
693.145	428.46
693.589	570.06
694.034	949.16
694.478	1325.36
694.923	1512.16
695.367	2007.56
695.812	1052.06
696.256	438.06
696.701	324.36
697.145	298.56
697.59	283.26
698.034	279.76
698.478	290.36
698.922	280.36
699.367	274.56
699.811	290.76
700.255	308.16
700.699	336.36
701.143	361.56
701.588	402.16
702.032	444.16
702.476	436.46
702.92	423.16
703.364	426.76
703.808	538.16
704.252	859.66
704.696	1234.16
705.14	1461.36
705.584	1872.16
706.027	924.16
706.471	452.76
706.915	345.96
707.359	299.46
707.803	274.06
708.246	273.86
708.69	267.36
709.134	269.26
709.577	267.46
710.021	278.06
710.465	266.76
710.908	251.86
711.352	262.76
711.795	268.56
712.239	291.46
712.682	322.46
713.126	360.16
713.569	402.56
714.012	319.86
714.456	277.56
714.899	263.46
715.342	242.26
715.786	228.46
716.229	223.46
716.672	221.06
717.115	204.76
717.558	216.46
718.002	213.66
718.445	223.16
718.888	247.36
719.331	260.16
719.774	269.16
720.217	263.96
720.66	238.26
721.103	232.06
721.546	222.66
721.989	218.96
722.432	199.66
722.874	203.46
723.317	200.96
723.76	202.36
724.203	220.36
724.645	264.26
725.088	378.66
725.531	491.46
725.974	570.76
726.416	473.16
726.859	260.46
727.301	210.06
727.744	205.56
728.187	192.46
728.629	203.56
729.071	206.76
729.514	226.66
729.956	229.96
730.399	235.86
730.841	241.86
731.283	238.56
731.726	230.66
732.168	224.46
732.61	221.96
733.053	236.76
733.495	265.46
733.937	297.26
734.379	341.66
734.821	370.16
735.263	456.06
735.705	699.36
736.148	1320.66
736.59	2191.56
737.032	2683.66
737.474	2189.86
737.916	702.56
738.357	371.06
738.799	280.96
739.241	263.96
739.683	243.46
740.125	252.76
740.567	263.96
741.008	278.96
741.45	273.76
741.892	269.96
742.334	298.26
742.775	313.26
743.217	289.56
743.658	236.16
744.1	213.56
744.542	221.56
744.983	269.26
745.425	300.66
745.866	304.26
746.307	246.66
746.749	240.56
747.19	277.76
747.632	376.76
748.073	723.56
748.514	1552.76
748.956	2465.56
749.397	3052.36
749.838	2531.86
750.279	2593.86
750.72	1307.16
751.162	470.56
751.603	265.86
752.044	211.86
752.485	177.76
752.926	178.86
753.367	171.06
753.808	168.16
754.249	162.96
754.69	157.56
755.131	157.06
755.572	164.16
756.013	156.46
756.453	152.56
756.894	157.86
757.335	164.26
757.776	161.76
758.216	169.76
758.657	161.66
759.098	165.86
759.538	192.46
759.979	228.26
760.42	314.06
760.86	578.26
761.301	1505.96
761.741	3714.36
762.182	5689.96
762.622	4000.26
763.063	1140.36
763.503	463.26
763.943	292.06
764.384	296.06
764.824	344.86
765.264	378.66
765.705	257.36
766.145	180.96
766.585	163.16
767.025	151.96
767.465	154.36
767.906	200.26
768.346	277.86
768.786	290.36
769.226	218.56
769.666	272.16
770.106	505.56
770.546	1281.26
770.986	2298.36
771.426	2096.26
771.866	683.56
772.306	280.96
772.745	171.36
773.185	150.86
773.625	143.46
774.065	142.56
774.505	164.66
774.944	255.96
775.384	569.76
775.824	1073.36
776.263	1063.16
776.703	441.76
777.142	188.46
777.582	133.76
778.021	117.16
778.461	122.76
778.9	120.76
779.34	118.76
779.779	100.56
780.219	94.26
780.658	93.06
781.097	86.86
781.537	97.86
781.976	90.46
782.415	94.06
782.855	86.76
783.294	85.66
783.733	92.76
784.172	97.06
784.611	88.96
785.05	94.66
785.489	93.36
785.928	99.66
786.367	106.06
786.806	108.46
787.245	115.06
787.684	117.26
788.123	120.16
788.562	113.46
789.001	110.16
789.44	103.36
789.879	103.06
790.317	101.96
790.756	114.56
791.195	109.36
791.634	121.16
792.072	172.76
792.511	300.56
792.95	831.16
793.388	1856.86
793.827	1715.36
794.265	584.46
794.704	239.66
795.142	152.96
795.581	127.86
796.019	114.56
796.458	107.36
796.896	100.76
797.334	108.66
797.773	134.66
798.211	186.76
798.649	353.76
799.087	866.26
799.526	1367.46
799.964	1717.76
800.402	1790.66
800.84	653.26
801.278	260.46
801.716	160.96
802.154	131.46
802.592	128.96
803.03	120.66
803.468	113.06
803.906	122.36
804.344	127.66
804.782	119.16
805.22	117.36
805.658	111.76
806.096	130.66
806.533	131.66
806.971	150.66
807.409	187.96
807.847	266.76
808.284	541.46
808.722	1557.66
809.16	2828.16
809.597	2625.26
810.035	4654.26
810.472	5136.76
810.91	1833.56
811.347	687.96
811.785	346.36
812.222	221.46
812.66	170.76
813.097	140.96
813.535	123.96
813.972	113.06
814.409	100.76
814.846	97.56
815.284	96.76
815.721	85.46
816.158	90.06
816.595	102.86
817.032	149.46
817.47	180.96
817.907	145.06
818.344	132.96
818.781	106.16
819.218	81.76
819.655	105.46
820.092	168.16
820.529	189.46
820.966	155.06
821.403	116.96
821.839	92.56
822.276	90.66
822.713	103.36
823.15	116.66
823.587	104.96
824.023	127.76
824.46	241.56
824.897	756.06
825.333	1191.66
825.77	503.96
826.206	190.66
826.643	111.96
827.08	91.46
827.516	73.76
827.953	73.16
828.389	73.56
828.825	60.36
829.262	58.66
829.698	50.76
830.135	50.56
830.571	53.46
831.007	54.46
831.443	53.96
831.88	56.16
832.316	56.46
832.752	58.36
833.188	57.66
833.624	57.36
834.06	58.56
834.497	64.86
834.933	53.66
835.369	61.96
835.805	61.56
836.241	64.26
836.677	70.36
837.112	79.36
837.548	93.56
837.984	111.46
838.42	166.76
838.856	415.66
839.292	1281.16
839.727	2032.06
840.163	938.96
840.599	775.06
841.034	1753.96
841.47	1883.66
841.906	673.66
842.341	284.36
842.777	200.46
843.212	278.66
843.648	274.06
844.083	134.46
844.519	86.56
844.954	64.26
845.39	44.06
845.825	56.76
846.261	50.46
846.696	45.16
847.131	46.36
847.566	50.06
848.002	40.96
848.437	45.06
848.872	54.66
849.307	54.46
849.742	77.96
850.177	149.16
850.613	470.06
851.048	773.96
851.483	331.86
851.918	131.86
852.353	76.16
852.788	49.26
853.223	49.16
853.657	52.36
854.092	37.76
854.527	33.36
854.962	36.96
855.397	38.36
855.832	40.86
856.266	35.16
856.701	34.06
857.136	33.16
857.57	32.76
858.005	44.96
858.44	54.46
858.874	39.06
859.309	47.66
859.743	29.16
860.178	40.06
860.612	31.96
861.047	44.96
861.481	56.66
861.915	59.76
862.35	39.26
862.784	26.46
863.218	27.16
863.653	23.76
864.087	38.16
864.521	48.36
864.955	60.86
865.39	130.46
865.824	153.66
866.258	95.26
866.692	141.76
867.126	152.96
867.56	94.16
867.994	45.76
868.428	34.46
868.862	43.46
869.296	44.16
869.73	49.16
870.164	42.76
870.598	35.36
871.031	35.66
871.465	30.96
871.899	25.36
872.333	18.36
872.766	21.76
873.2	21.56
873.634	30.26
874.067	24.96
874.501	17.16
874.935	30.86
875.368	28.66
875.802	24.36
876.235	22.26
876.669	22.36
877.102	21.46
877.535	28.96
877.969	23.66
878.402	21.56
878.836	13.76
879.269	22.86
879.702	21.36
880.135	20.76
880.569	19.76
881.002	26.36
881.435	24.76
881.868	12.96
882.301	16.76
882.734	9.96
883.167	16.26
883.601	18.66
884.034	24.46
884.467	10.46
884.899	15.36
885.332	14.16
885.765	12.76
886.198	22.06
886.631	17.46
887.064	16.26
887.497	22.36
887.929	21.06
888.362	6.76
888.795	11.46
889.228	17.16
889.66	15.06
890.093	19.26
890.526	17.66
890.958	15.76
891.391	17.76
891.823	23.36
892.256	15.26
892.688	14.16
893.121	14.06
893.553	17.16
893.985	19.36
894.418	18.26
894.85	13.36
895.282	9.46
895.715	13.16
896.147	16.76
896.579	13.86
897.011	7.56
897.444	13.76
897.876	13.86
898.308	13.26
898.74	13.66
899.172	10.56
899.604	21.06
900.036	19.96
900.468	14.46
900.9	16.46
901.332	14.86
901.764	12.76
902.196	15.56
902.628	13.16
903.06	10.96
903.491	21.86
903.923	19.76
904.355	20.36
904.787	23.16
905.218	19.16
905.65	23.16
906.082	11.06
906.513	14.66
906.945	6.36
907.376	13.56
907.808	19.06
908.239	18.96
908.671	20.06
909.102	22.56
909.534	25.56
909.965	43.16
910.397	76.66
910.828	272.16
911.259	424.76
911.691	190.26
912.122	92.16
912.553	43.66
912.984	31.86
913.415	21.96
913.847	24.46
914.278	11.76
914.709	9.06
915.14	20.86
915.571	16.46
916.002	13.66
916.433	24.96
916.864	19.96
917.295	11.26
917.726	19.96
918.157	13.06
918.587	24.96
919.018	15.76
919.449	17.66
919.88	10.66
920.311	28.86
920.741	41.06
921.172	143.26
921.603	136.96
922.033	60.66
922.464	38.46
922.895	22.46
923.325	18.96
923.756	14.86
924.186	11.66
924.617	24.26
925.047	33.46
925.478	49.16
925.908	40.66
926.338	23.66
926.769	17.26
927.199	16.56
927.629	3.56
928.06	19.16
928.49	13.46
928.92	9.96
929.35	12.36
929.78	12.56
930.21	-0.84
930.641	10.66
931.071	7.76
931.501	0.46
931.931	8.46
932.361	13.86
932.791	0.16
933.221	4.66
933.651	5.76
934.08	20.76
934.51	23.56
934.94	14.86
935.37	12.46
935.8	8.36
936.229	9.86
936.659	8.16
937.089	-3.34
937.519	16.86
937.948	26.96
938.378	16.06
938.807	1.76
939.237	5.56
939.666	9.86
940.096	-5.14
940.525	2.16
940.955	7.06
941.384	1.96
941.814	-1.54
942.243	-1.34
942.672	2.36
943.102	-1.24
943.531	7.06
943.96	6.36
944.39	5.16
944.819	0.86
945.248	0.06
945.677	3.26
946.106	5.16
946.535	11.36
946.964	2.46
947.393	0.16
947.822	-1.54
948.251	-5.64
948.68	3.66
949.109	6.96
949.538	4.76
949.967	4.56
950.396	3.46
950.825	0.76
951.254	3.06
951.682	-2.14
952.111	6.06
952.54	7.16
952.969	-1.34
953.397	-5.84
953.826	-2.14
954.254	-0.84
954.683	1.26
955.112	-0.24
955.54	-1.04
955.969	-1.94
956.397	6.16
956.826	-7.74
957.254	6.36
957.682	0.06
958.111	9.26
958.539	1.86
958.967	2.76
959.396	0.16
959.824	4.76
960.252	5.66
960.68	-6.84
961.109	-0.44
961.537	-0.54
961.965	1.36
962.393	0.96
962.821	-2.64
963.249	-0.24
963.677	3.16
964.105	7.36
964.533	44.76
964.961	39.16
965.389	17.56
965.817	9.46
966.245	-3.44
966.672	2.56
967.1	-10.24
967.528	3.76
967.956	-4.74
968.383	-0.54
968.811	-0.74
969.239	0.36
969.666	-9.04
970.094	-3.64
970.522	-0.34
970.949	-5.64
971.377	-2.04
971.804	3.16
972.232	0.36
972.659	-2.94
973.087	-3.44
973.514	-0.34
973.941	-1.94
974.369	3.06
974.796	0.06
975.223	0.36
975.651	-6.14
976.078	9.46
976.505	-1.54
976.932	3.26
977.359	14.76
977.786	14.06
978.214	5.36
978.641	-8.54
979.068	0.66
979.495	-4.74
979.922	-4.44
980.349	1.46
980.776	1.56
981.202	2.16
981.629	4.16
982.056	2.56
982.483	0.06
982.91	3.46
983.337	-2.34
983.763	-0.64
984.19	-1.94
984.617	-1.44
985.043	-8.04
985.47	1.96
985.897	-0.74
986.323	1.06
986.75	3.36
987.176	-2.44
987.603	-4.34
988.029	0.86
988.456	1.56
988.882	1.56
989.308	-3.44
989.735	-7.64
990.161	2.66
990.587	-3.94
991.014	4.96
991.44	9.56
991.866	-3.74
992.292	-2.44
992.719	-2.44
993.145	5.86
993.571	-2.24
993.997	-7.04
994.423	1.56
994.849	-4.94
995.275	1.06
995.701	0.16
996.127	-3.44
996.553	3.36
996.979	-1.24
997.405	5.96
997.83	-8.74
998.256	-2.74
998.682	-4.54
999.108	-4.24
999.534	-0.34
999.959	3.26
1000.385	-7.54
1000.811	1.76
1001.236	-1.44
1001.662	-9.14
1002.087	-12.54
1002.513	-0.84
1002.938	-1.24
1003.364	-1.24
1003.789	-3.04
1004.215	5.16
1004.64	-3.24
1005.066	1.36
1005.491	5.16
1005.916	3.56
1006.342	-3.24
1006.767	-9.24
1007.192	7.96
1007.617	0.36
1008.042	-1.84
1008.468	-7.84
1008.893	-2.34
1009.318	-4.74
1009.743	-2.64
1010.168	5.56
1010.593	-0.14
1011.018	-6.04
1011.443	-0.54
1011.868	1.86
1012.293	0.16
1012.718	-2.44
1013.143	2.06
1013.567	2.96
1013.992	1.66
1014.417	-12.34
1014.842	-2.54
1015.267	-5.14
1015.691	-5.44
1016.116	2.26
1016.541	-2.44
1016.965	5.86
1017.39	4.96
1017.814	-1.04
1018.239	0.56
1018.663	-6.04
1019.088	-8.04
1019.512	-7.24
1019.937	-4.54
1020.361	-1.04
1020.785	-11.34
1021.21	-5.54
1021.634	-4.44
1022.058	-5.04
1022.483	0.36
1022.907	-7.34
1023.331	2.16
1023.755	0.86
1024.179	0.96
1024.604	-7.14
1025.028	-6.34
1025.452	3.06
1025.876	-4.34
1026.3	4.46
1026.724	-12.64
1027.148	-5.34
1027.572	-9.74
1027.996	-3.34
1028.42	-1.64
1028.843	-5.54
1029.267	-6.94
1029.691	-0.74
1030.115	-8.64
1030.539	-4.74
1030.962	-2.14
1031.386	-17.34
1031.81	1.56
1032.233	1.96
1032.657	0.16
1033.08	-3.84
1033.504	-1.84
1033.927	-6.24
1034.351	-1.54
1034.774	-8.24
1035.198	-0.84
1035.621	-6.74
1036.045	-3.24
1036.468	1.56
1036.891	-11.44
1037.315	-12.74
1037.738	-4.14
1038.161	3.66
1038.584	-2.24
1039.008	-0.74
1039.431	-3.14
1039.854	0.56
1040.277	-4.14
1040.7	-9.44
1041.123	0.76
1041.546	-4.64
1041.969	-3.74
1042.392	-6.84
1042.815	0.16
1043.238	1.56
1043.661	4.26
1044.084	-7.94
1044.507	-2.44
1044.93	-9.04
1045.352	-5.34
1045.775	-3.44
1046.198	-0.84
1046.621	-7.34
1047.043	-1.54
1047.466	7.66
1047.889	0.46
1048.311	-4.84
1048.734	-5.64
1049.156	-2.14
1049.579	-0.74
1050.001	-6.74
1050.424	-1.54
1050.846	-1.54
1051.269	-4.94
1051.691	-6.04
1052.113	-12.44
1052.536	0.66
1052.958	-3.64
1053.38	-2.24
1053.802	-11.24
1054.225	0.66
1054.647	-9.84
1055.069	-9.94
1055.491	7.76
1055.913	-3.14
1056.335	-2.54
1056.757	-1.94
1057.179	-8.34
1057.601	-5.84
1058.023	-2.24
1058.445	-3.34
1058.867	1.16
1059.289	-3.04
1059.711	-5.84
1060.133	-5.44
1060.555	-3.14
1060.976	-6.64
1061.398	-4.74
1061.82	-3.44
1062.241	0.16
1062.663	-7.74
1063.085	-0.84
1063.506	2.86
1063.928	-3.24
1064.35	-6.94
1064.771	-5.74
1065.193	5.06
1065.614	-4.74
1066.035	-3.34
1066.457	-3.74
1066.878	-1.14
1067.3	-5.94
1067.721	-2.04
1068.142	-5.24
1068.564	-6.54
1068.985	-0.64
1069.406	-0.64
1069.827	-13.74
1070.248	-0.04
1070.67	-7.34
1071.091	-2.74
1071.512	1.96
1071.933	-4.24
1072.354	-9.54
1072.775	-9.14
1073.196	-5.94
1073.617	-5.94
1074.038	-10.24
1074.459	-3.04
1074.88	-10.74
1075.3	2.46
1075.721	-7.54
1076.142	4.46
1076.563	-3.14
1076.983	-8.54
1077.404	-8.14
1077.825	-13.94
1078.246	-7.04
1078.666	-10.24
1079.087	-10.04
1079.507	-3.84
1079.928	0.26
1080.348	1.66
1080.769	-2.54
1081.189	1.86
1081.61	-1.44
1082.03	-8.04
1082.451	-6.44
1082.871	-2.44
1083.291	-9.44
1083.711	-9.34
1084.132	-5.04
1084.552	-8.34
1084.972	0.86
1085.392	-5.94
1085.813	-2.84
1086.233	-9.74
1086.653	-6.64
1087.073	-4.44
1087.493	-11.74
1087.913	-9.54
1088.333	-7.74
1088.753	-5.14
1089.173	4.16
1089.593	-5.34
1090.013	-5.84
1090.433	0.56
1090.852	2.46
1091.272	-1.64
1091.692	-1.24
1092.112	-3.94
1092.531	-3.94
1092.951	-10.44
1093.371	-3.34
1093.79	-0.84
1094.21	-0.84
1094.63	-7.04
1095.049	-4.14
1095.469	-3.54
1095.888	-7.84
1096.308	3.86
1096.727	9.76
1097.146	-6.34
1097.566	-0.44
1097.985	-3.44
1098.405	4.76
1098.824	-2.34
1099.243	-0.54
1099.662	-3.14
1100.082	-3.24
1100.501	0.16
1100.92	-10.14
1101.339	-1.14
1101.758	-6.34
