Data from 20171114-ORNL-Ar_H_NY_Subt18_08-03-52-508.txt Node
Date: Tue Nov 14 08:03:52 EST 2017
User: Ender
Spectrometer: HR+D1039
Trigger mode: 0
Integration Time (sec): 2.730000E-2
Scans to average: 10
Electric dark correction enabled: true
Nonlinearity correction enabled: false
Boxcar width: 0
XAxis mode: Wavelengths
Number of Pixels in Spectrum: 2048
>>>>>Begin Spectral Data<<<<<
187.836	-4.67
188.309	-4.67
188.782	-4.67
189.255	7.23
189.728	-1.57
190.201	12.73
190.674	-2.07
191.147	4.73
191.619	-7.67
192.092	-2.57
192.565	1.23
193.038	-3.27
193.511	1.33
193.984	-1.47
194.456	-0.07
194.929	1.43
195.402	-6.47
195.874	1.13
196.347	4.83
196.82	-5.87
197.292	8.53
197.765	2.63
198.237	-7.97
198.71	1.83
199.182	-2.17
199.655	-0.47
200.127	2.23
200.6	-4.67
201.072	-2.27
201.544	1.23
202.017	-0.17
202.489	4.23
202.961	-4.07
203.433	-8.07
203.906	-3.77
204.378	-12.37
204.85	-2.47
205.322	-7.67
205.794	-6.67
206.266	-5.07
206.739	-13.67
207.211	0.63
207.683	3.43
208.155	-6.97
208.627	-7.87
209.099	-1.87
209.57	-10.87
210.042	-5.77
210.514	-3.77
210.986	-2.77
211.458	-7.67
211.93	-0.77
212.402	2.53
212.873	-7.07
213.345	-11.47
213.817	-10.67
214.288	-5.67
214.76	-4.97
215.232	0.83
215.703	-3.87
216.175	-2.27
216.646	-2.47
217.118	-2.57
217.589	-4.07
218.061	0.53
218.532	-3.07
219.004	3.13
219.475	0.43
219.946	-0.67
220.418	-0.07
220.889	2.43
221.36	1.53
221.832	-2.47
222.303	-7.27
222.774	-1.57
223.245	-7.17
223.717	-4.37
224.188	-3.27
224.659	-10.97
225.13	-5.87
225.601	-5.57
226.072	4.73
226.543	-2.27
227.014	1.93
227.485	8.93
227.956	-3.57
228.427	-2.17
228.898	3.23
229.369	3.73
229.839	-3.37
230.31	-5.17
230.781	0.93
231.252	-3.87
231.722	-7.87
232.193	-2.17
232.664	-0.77
233.135	-0.17
233.605	-3.97
234.076	-3.07
234.546	4.03
235.017	-0.07
235.487	-0.67
235.958	-3.17
236.428	-8.17
236.899	-4.17
237.369	-3.37
237.84	-3.87
238.31	2.73
238.78	-5.77
239.251	-4.17
239.721	-4.37
240.191	-6.17
240.662	-2.37
241.132	-5.67
241.602	-6.37
242.072	-0.47
242.542	1.43
243.013	1.63
243.483	-4.87
243.953	2.83
244.423	0.33
244.893	1.03
245.363	3.43
245.833	-0.47
246.303	0.33
246.773	5.33
247.243	-2.87
247.712	0.63
248.182	5.53
248.652	6.73
249.122	-5.87
249.592	-2.27
250.061	5.33
250.531	10.23
251.001	-2.77
251.471	6.23
251.94	4.43
252.41	0.43
252.879	-3.87
253.349	8.43
253.818	12.73
254.288	0.83
254.757	0.33
255.227	-3.37
255.696	-3.77
256.166	-3.97
256.635	-2.07
257.105	-6.27
257.574	0.03
258.043	1.03
258.513	-9.67
258.982	3.03
259.451	-4.67
259.92	1.53
260.389	-5.77
260.859	8.53
261.328	-4.17
261.797	-0.27
262.266	4.83
262.735	7.13
263.204	7.13
263.673	2.03
264.142	2.43
264.611	-0.47
265.08	-2.17
265.549	0.03
266.018	6.63
266.487	-0.07
266.955	0.43
267.424	0.63
267.893	0.03
268.362	0.93
268.83	5.93
269.299	6.53
269.768	3.23
270.236	3.43
270.705	-1.87
271.174	-3.47
271.642	1.93
272.111	-2.87
272.579	0.83
273.048	2.53
273.516	-2.97
273.985	6.83
274.453	7.53
274.922	12.03
275.39	6.93
275.858	4.23
276.327	9.93
276.795	14.33
277.263	-0.17
277.731	10.03
278.2	2.43
278.668	6.83
279.136	5.03
279.604	2.53
280.072	8.13
280.54	0.83
281.008	1.13
281.477	6.83
281.945	4.43
282.413	9.53
282.881	7.63
283.348	1.03
283.816	11.13
284.284	9.53
284.752	18.33
285.22	10.03
285.688	9.73
286.156	7.53
286.623	15.93
287.091	8.33
287.559	8.23
288.026	6.33
288.494	6.13
288.962	-0.67
289.429	3.33
289.897	15.43
290.364	10.63
290.832	6.83
291.3	10.13
291.767	14.63
292.234	11.63
292.702	0.83
293.169	9.33
293.637	17.53
294.104	13.23
294.571	3.33
295.039	2.23
295.506	6.73
295.973	8.43
296.44	8.13
296.908	4.13
297.375	12.03
297.842	15.33
298.309	13.23
298.776	13.23
299.243	11.23
299.71	6.93
300.177	10.43
300.644	7.83
301.111	9.93
301.578	14.93
302.045	6.43
302.512	13.53
302.979	16.03
303.446	14.13
303.913	11.03
304.379	12.43
304.846	19.13
305.313	15.13
305.78	10.13
306.246	19.03
306.713	15.33
307.18	14.23
307.646	16.53
308.113	22.93
308.579	10.03
309.046	18.23
309.512	16.03
309.979	10.13
310.445	19.53
310.912	19.73
311.378	24.63
311.845	21.03
312.311	23.13
312.777	17.73
313.244	22.63
313.71	26.73
314.176	22.93
314.642	19.63
315.109	16.63
315.575	23.73
316.041	26.33
316.507	16.23
316.973	25.83
317.439	26.73
317.905	25.63
318.371	29.73
318.837	26.23
319.303	26.83
319.769	21.33
320.235	22.53
320.701	29.63
321.167	27.83
321.633	25.63
322.099	28.43
322.564	30.53
323.03	30.23
323.496	31.13
323.962	25.93
324.427	26.03
324.893	35.23
325.359	29.73
325.824	35.63
326.29	31.23
326.755	34.13
327.221	32.63
327.686	31.53
328.152	39.23
328.617	30.43
329.083	31.13
329.548	38.93
330.014	35.73
330.479	30.53
330.944	30.23
331.41	29.03
331.875	34.43
332.34	31.73
332.805	33.63
333.271	31.23
333.736	30.43
334.201	41.43
334.666	37.83
335.131	36.23
335.596	45.13
336.061	40.63
336.526	28.03
336.991	40.33
337.456	47.23
337.921	39.03
338.386	37.13
338.851	38.43
339.316	38.33
339.781	39.03
340.246	44.43
340.711	42.73
341.175	41.93
341.64	36.93
342.105	44.03
342.569	47.63
343.034	46.03
343.499	45.33
343.963	42.93
344.428	50.53
344.893	47.33
345.357	53.43
345.822	48.43
346.286	54.43
346.751	61.03
347.215	57.83
347.679	55.13
348.144	73.03
348.608	67.73
349.073	62.93
349.537	54.93
350.001	67.23
350.465	67.73
350.93	63.43
351.394	69.83
351.858	62.13
352.322	71.33
352.786	64.53
353.25	80.03
353.715	93.73
354.179	82.73
354.643	94.33
355.107	96.83
355.571	79.73
356.035	83.33
356.498	96.43
356.962	91.13
357.426	97.03
357.89	87.83
358.354	79.83
358.818	68.53
359.281	74.93
359.745	63.73
360.209	67.13
360.673	67.33
361.136	80.53
361.6	76.93
362.064	78.63
362.527	76.73
362.991	84.93
363.454	74.33
363.918	62.93
364.381	68.53
364.845	73.93
365.308	82.23
365.772	76.63
366.235	76.43
366.698	77.63
367.162	74.53
367.625	71.33
368.088	78.73
368.552	81.93
369.015	76.23
369.478	90.73
369.941	88.33
370.404	74.53
370.867	88.33
371.331	93.43
371.794	88.63
372.257	93.33
372.72	99.33
373.183	92.83
373.646	85.23
374.109	91.73
374.572	92.33
375.035	88.63
375.497	95.23
375.96	96.03
376.423	90.43
376.886	103.03
377.349	99.23
377.811	94.23
378.274	95.73
378.737	98.73
379.199	95.63
379.662	96.83
380.125	102.93
380.587	104.33
381.05	103.93
381.512	106.23
381.975	115.73
382.437	107.33
382.9	107.43
383.362	109.83
383.825	117.13
384.287	126.23
384.75	112.13
385.212	124.43
385.674	123.23
386.136	121.63
386.599	106.93
387.061	116.23
387.523	118.63
387.985	115.33
388.447	125.63
388.91	116.23
389.372	121.93
389.834	122.63
390.296	118.83
390.758	120.73
391.22	128.83
391.682	137.63
392.144	152.13
392.606	142.23
393.068	133.43
393.529	143.53
393.991	137.03
394.453	125.83
394.915	131.93
395.377	132.73
395.838	135.43
396.3	133.23
396.762	133.43
397.224	130.13
397.685	122.43
398.147	127.83
398.608	133.23
399.07	129.23
399.531	130.63
399.993	135.83
400.454	145.73
400.916	147.33
401.377	142.13
401.839	144.83
402.3	137.73
402.762	153.83
403.223	159.93
403.684	160.83
404.145	156.63
404.607	150.03
405.068	156.73
405.529	160.93
405.99	165.93
406.451	158.83
406.913	167.83
407.374	151.73
407.835	154.13
408.296	156.13
408.757	167.83
409.218	172.43
409.679	174.53
410.14	167.73
410.601	171.13
411.062	183.13
411.522	174.73
411.983	172.83
412.444	168.83
412.905	179.53
413.366	176.73
413.826	185.03
414.287	213.33
414.748	261.93
415.208	246.83
415.669	206.23
416.13	205.53
416.59	199.53
417.051	210.23
417.511	219.33
417.972	244.63
418.432	245.33
418.893	288.43
419.353	251.93
419.814	197.63
420.274	180.13
420.734	180.03
421.195	197.03
421.655	182.83
422.115	187.03
422.576	188.23
423.036	197.13
423.496	205.83
423.956	210.33
424.416	223.73
424.876	260.63
425.336	247.13
425.797	251.43
426.257	251.43
426.717	231.83
427.177	227.33
427.637	220.03
428.097	230.23
428.556	237.23
429.016	250.63
429.476	248.63
429.936	260.43
430.396	261.93
430.856	269.43
431.315	283.43
431.775	316.33
432.235	346.03
432.694	329.63
433.154	327.53
433.614	351.23
434.073	310.53
434.533	259.23
434.993	248.73
435.452	268.43
435.912	266.83
436.371	258.53
436.83	250.33
437.29	246.93
437.749	231.03
438.209	230.93
438.668	250.53
439.127	255.93
439.587	241.73
440.046	229.63
440.505	238.13
440.964	249.83
441.424	274.53
441.883	271.23
442.342	238.93
442.801	217.03
443.26	210.83
443.719	220.23
444.178	215.13
444.637	203.73
445.096	217.93
445.555	215.53
446.014	221.03
446.473	219.23
446.932	226.13
447.391	219.43
447.849	225.73
448.308	212.33
448.767	219.43
449.226	233.83
449.685	238.03
450.143	244.93
450.602	238.13
451.061	227.13
451.519	224.03
451.978	230.63
452.436	226.63
452.895	226.43
453.353	235.53
453.812	225.73
454.27	231.83
454.729	223.03
455.187	232.63
455.646	234.93
456.104	227.93
456.562	235.53
457.021	242.73
457.479	235.13
457.937	250.23
458.395	250.73
458.854	238.93
459.312	241.23
459.77	249.33
460.228	242.13
460.686	235.23
461.144	242.33
461.602	237.13
462.06	239.53
462.518	241.13
462.976	240.43
463.434	240.93
463.892	247.53
464.35	260.43
464.808	266.43
465.266	256.03
465.724	260.43
466.181	263.03
466.639	260.63
467.097	270.73
467.555	287.63
468.012	282.93
468.47	283.93
468.928	308.63
469.385	326.93
469.843	316.53
470.3	325.23
470.758	333.83
471.215	344.43
471.673	361.73
472.13	360.23
472.588	378.83
473.045	341.93
473.503	355.63
473.96	370.63
474.417	374.73
474.875	399.23
475.332	435.03
475.789	430.03
476.246	427.93
476.704	443.03
477.161	461.53
477.618	458.83
478.075	505.23
478.532	544.43
478.989	595.03
479.446	676.33
479.903	668.73
480.36	707.03
480.817	743.43
481.274	823.43
481.731	917.03
482.188	981.33
482.645	1093.43
483.102	1175.03
483.558	1271.43
484.015	1317.93
484.472	1305.93
484.929	1281.83
485.385	1244.33
485.842	1218.73
486.299	1162.13
486.755	1092.83
487.212	945.83
487.668	822.03
488.125	757.63
488.582	696.43
489.038	674.83
489.494	633.33
489.951	624.53
490.407	600.13
490.864	590.03
491.32	587.63
491.776	582.63
492.233	578.43
492.689	555.23
493.145	551.53
493.602	537.23
494.058	552.03
494.514	553.43
494.97	573.43
495.426	579.73
495.882	554.63
496.338	554.33
496.794	562.43
497.251	558.13
497.707	555.83
498.163	558.13
498.618	569.63
499.074	572.13
499.53	581.83
499.986	585.23
500.442	570.83
500.898	545.23
501.354	549.63
501.809	551.93
502.265	560.33
502.721	559.53
503.177	569.23
503.632	580.33
504.088	570.73
504.543	587.43
504.999	595.13
505.455	589.13
505.91	569.63
506.366	571.23
506.821	573.33
507.277	573.03
507.732	576.83
508.187	555.03
508.643	574.83
509.098	575.83
509.553	590.33
510.009	601.43
510.464	590.53
510.919	607.33
511.375	613.03
511.83	624.73
512.285	634.63
512.74	668.13
513.195	676.83
513.65	667.33
514.105	665.23
514.56	674.33
515.015	680.33
515.47	703.83
515.925	687.63
516.38	689.73
516.835	697.43
517.29	686.63
517.745	670.43
518.2	673.73
518.655	661.33
519.109	656.23
519.564	650.63
520.019	637.43
520.474	634.03
520.928	626.53
521.383	623.43
521.838	610.53
522.292	622.23
522.747	625.83
523.201	614.53
523.656	599.43
524.11	612.43
524.565	608.23
525.019	603.23
525.474	607.03
525.928	602.43
526.382	606.63
526.837	601.93
527.291	608.03
527.745	600.13
528.2	596.03
528.654	597.33
529.108	587.53
529.562	595.33
530.016	595.73
530.47	589.73
530.925	590.63
531.379	595.73
531.833	602.83
532.287	586.33
532.741	596.13
533.195	593.13
533.649	602.03
534.103	602.73
534.556	600.83
535.01	597.63
535.464	596.03
535.918	602.33
536.372	599.53
536.826	597.33
537.279	596.53
537.733	600.83
538.187	595.33
538.64	605.13
539.094	606.63
539.548	608.03
540.001	602.63
540.455	599.23
540.908	604.63
541.362	618.83
541.815	623.23
542.269	633.43
542.722	643.13
543.175	648.13
543.629	647.73
544.082	649.43
544.536	657.23
544.989	645.53
545.442	666.53
545.895	659.13
546.349	663.43
546.802	667.43
547.255	666.13
547.708	665.33
548.161	676.63
548.614	686.63
549.067	691.03
549.52	680.23
549.973	669.73
550.426	676.03
550.879	659.73
551.332	660.33
551.785	673.53
552.238	664.13
552.691	668.33
553.144	680.53
553.596	706.23
554.049	696.53
554.502	726.13
554.955	744.73
555.407	733.23
555.86	739.93
556.313	722.63
556.765	708.63
557.218	713.03
557.67	707.23
558.123	707.43
558.576	712.63
559.028	716.63
559.48	712.53
559.933	710.53
560.385	675.33
560.838	656.73
561.29	641.03
561.742	636.53
562.195	627.13
562.647	625.13
563.099	632.63
563.551	631.43
564.004	639.63
564.456	626.23
564.908	605.73
565.36	593.93
565.812	588.73
566.264	578.43
566.716	573.73
567.168	564.53
567.62	564.63
568.072	560.03
568.524	552.83
568.976	554.43
569.428	541.33
569.88	539.63
570.332	544.63
570.784	545.73
571.235	546.13
571.687	542.63
572.139	554.53
572.59	563.03
573.042	567.73
573.494	556.73
573.945	554.23
574.397	530.93
574.849	534.03
575.3	543.83
575.752	536.03
576.203	528.73
576.655	535.03
577.106	528.03
577.557	519.93
578.009	526.93
578.46	526.33
578.912	509.43
579.363	517.53
579.814	527.23
580.265	513.93
580.717	513.03
581.168	524.63
581.619	529.73
582.07	529.13
582.521	514.63
582.972	515.33
583.423	516.33
583.875	525.43
584.326	527.23
584.777	547.43
585.227	554.93
585.678	568.63
586.129	591.53
586.58	608.73
587.031	636.03
587.482	673.43
587.933	703.03
588.384	673.63
588.834	611.73
589.285	595.73
589.736	588.53
590.186	591.03
590.637	584.13
591.088	570.03
591.538	569.23
591.989	562.53
592.439	558.93
592.89	545.03
593.34	537.33
593.791	538.13
594.241	525.23
594.692	519.63
595.142	522.23
595.593	517.93
596.043	535.23
596.493	536.03
596.943	535.33
597.394	547.63
597.844	540.63
598.294	559.43
598.744	570.63
599.195	589.63
599.645	620.83
600.095	649.43
600.545	682.63
600.995	719.33
601.445	768.53
601.895	820.23
602.345	854.33
602.795	840.13
603.245	808.83
603.695	760.43
604.145	717.83
604.594	692.93
605.044	644.63
605.494	606.73
605.944	570.43
606.393	562.33
606.843	541.83
607.293	549.43
607.743	533.63
608.192	549.33
608.642	555.63
609.091	553.73
609.541	561.93
609.99	553.23
610.44	548.13
610.889	522.83
611.339	516.43
611.788	503.23
612.238	510.43
612.687	528.43
613.136	519.03
613.586	519.43
614.035	509.53
614.484	523.63
614.933	520.03
615.383	515.83
615.832	517.13
616.281	504.03
616.73	495.13
617.179	485.63
617.628	467.73
618.077	466.43
618.526	451.83
618.975	450.23
619.424	452.03
619.873	440.53
620.322	456.53
620.771	435.33
621.22	444.13
621.669	431.33
622.118	425.53
622.567	422.13
623.015	408.93
623.464	411.13
623.913	403.13
624.361	398.23
624.81	399.03
625.259	403.63
625.707	406.63
626.156	408.73
626.604	414.93
627.053	407.53
627.501	399.23
627.95	403.23
628.398	422.63
628.847	409.23
629.295	409.73
629.744	419.83
630.192	404.43
630.64	406.93
631.089	389.83
631.537	388.93
631.985	384.13
632.433	385.43
632.881	375.23
633.33	386.23
633.778	378.83
634.226	362.13
634.674	385.23
635.122	383.23
635.57	397.03
636.018	397.03
636.466	406.93
636.914	397.33
637.362	407.83
637.81	416.63
638.258	417.83
638.705	412.03
639.153	431.03
639.601	440.23
640.049	450.33
640.497	490.43
640.944	505.53
641.392	454.23
641.84	438.63
642.287	412.73
642.735	410.83
643.182	409.63
643.63	410.73
644.078	402.93
644.525	417.53
644.973	413.53
645.42	417.93
645.867	434.93
646.315	450.43
646.762	457.73
647.21	474.73
647.657	489.83
648.104	512.63
648.551	525.33
648.999	565.83
649.446	609.83
649.893	664.63
650.34	760.63
650.787	899.73
651.234	1100.73
651.682	1405.63
652.129	1872.93
652.576	2652.73
653.023	3878.63
653.47	5400.43
653.917	6805.33
654.363	7954.93
654.81	9032.33
655.257	8574.63
655.704	5695.53
656.151	3351.43
656.598	2195.53
657.044	1583.33
657.491	1223.43
657.938	979.93
658.385	823.53
658.831	717.53
659.278	651.63
659.724	572.83
660.171	529.43
660.618	486.73
661.064	464.63
661.511	446.13
661.957	433.13
662.404	424.43
662.85	426.43
663.296	419.53
663.743	388.73
664.189	370.33
664.635	379.53
665.082	365.13
665.528	354.53
665.974	356.93
666.42	347.43
666.867	351.03
667.313	341.53
667.759	324.63
668.205	317.43
668.651	311.83
669.097	314.63
669.543	311.23
669.989	313.63
670.435	311.23
670.881	309.73
671.327	319.53
671.773	327.73
672.219	342.73
672.665	374.63
673.11	401.33
673.556	442.03
674.002	475.83
674.448	467.73
674.893	395.13
675.339	331.33
675.785	309.83
676.23	300.63
676.676	269.13
677.122	255.83
677.567	262.73
678.013	254.63
678.458	248.93
678.904	253.93
679.349	244.53
679.794	248.63
680.24	237.83
680.685	239.63
681.131	235.03
681.576	245.33
682.021	244.73
682.466	242.73
682.912	238.23
683.357	243.43
683.802	267.93
684.247	283.03
684.692	318.83
685.137	331.23
685.583	385.73
686.028	387.93
686.473	361.63
686.918	311.53
687.363	291.63
687.807	274.73
688.252	250.03
688.697	243.43
689.142	233.13
689.587	226.63
690.032	223.43
690.477	236.93
690.921	238.93
691.366	263.23
691.811	275.33
692.255	298.53
692.7	319.63
693.145	339.93
693.589	466.73
694.034	750.53
694.478	1058.03
694.923	1240.43
695.367	1656.03
695.812	860.13
696.256	345.23
696.701	251.33
697.145	238.03
697.59	226.93
698.034	216.63
698.478	224.23
698.922	216.33
699.367	223.43
699.811	225.13
700.255	237.73
700.699	262.63
701.143	286.03
701.588	327.93
702.032	356.63
702.476	361.43
702.92	346.93
703.364	339.13
703.808	430.33
704.252	694.03
704.696	997.53
705.14	1198.03
705.584	1559.43
706.027	766.43
706.471	366.73
706.915	267.73
707.359	248.93
707.803	214.53
708.246	215.23
708.69	215.63
709.134	218.63
709.577	215.43
710.021	218.53
710.465	209.93
710.908	211.63
711.352	204.53
711.795	215.43
712.239	239.33
712.682	254.03
713.126	285.23
713.569	326.53
714.012	248.53
714.456	215.33
714.899	196.13
715.342	184.13
715.786	174.43
716.229	174.83
716.672	168.13
717.115	168.43
717.558	168.03
718.002	175.13
718.445	184.73
718.888	197.23
719.331	198.93
719.774	212.03
720.217	208.23
720.66	200.73
721.103	177.43
721.546	172.13
721.989	171.43
722.432	152.23
722.874	159.03
723.317	146.23
723.76	161.73
724.203	176.43
724.645	214.73
725.088	294.23
725.531	385.73
725.974	446.83
726.416	387.43
726.859	210.33
727.301	169.33
727.744	156.83
728.187	153.53
728.629	163.93
729.071	164.53
729.514	181.43
729.956	185.43
730.399	194.03
730.841	194.33
731.283	189.13
731.726	183.33
732.168	179.33
732.61	177.53
733.053	197.13
733.495	213.63
733.937	235.93
734.379	271.73
734.821	284.93
735.263	364.03
735.705	554.03
736.148	1047.93
736.59	1774.83
737.032	2242.13
737.474	1817.53
737.916	578.23
738.357	299.23
738.799	231.73
739.241	207.23
739.683	191.53
740.125	200.73
740.567	203.83
741.008	221.73
741.45	217.13
741.892	218.73
742.334	242.93
742.775	260.43
743.217	254.23
743.658	194.33
744.1	177.83
744.542	182.23
744.983	217.93
745.425	251.03
745.866	251.13
746.307	202.53
746.749	186.13
747.19	221.93
747.632	295.13
748.073	570.43
748.514	1227.03
748.956	1994.83
749.397	2515.43
749.838	2076.43
750.279	2176.03
750.72	1101.43
751.162	398.93
751.603	222.13
752.044	171.83
752.485	150.53
752.926	142.63
753.367	142.73
753.808	132.03
754.249	131.03
754.69	128.13
755.131	122.63
755.572	122.83
756.013	120.03
756.453	122.63
756.894	128.93
757.335	129.03
757.776	137.63
758.216	130.23
758.657	136.73
759.098	132.33
759.538	154.23
759.979	178.73
760.42	246.03
760.86	467.83
761.301	1208.13
761.741	3046.93
762.182	4816.13
762.622	3419.43
763.063	959.53
763.503	374.13
763.943	230.23
764.384	199.33
764.824	189.23
765.264	181.33
765.705	149.23
766.145	125.43
766.585	116.63
767.025	109.83
767.465	110.13
767.906	132.83
768.346	149.73
768.786	157.03
769.226	142.13
769.666	205.23
770.106	400.53
770.546	1015.03
770.986	1884.43
771.426	1753.83
771.866	573.93
772.306	225.83
772.745	138.53
773.185	109.03
773.625	111.03
774.065	108.83
774.505	114.13
774.944	148.53
775.384	258.43
775.824	464.13
776.263	465.63
776.703	216.03
777.142	116.33
777.582	91.53
778.021	83.93
778.461	86.13
778.9	85.73
779.34	86.63
779.779	79.53
780.219	68.63
780.658	65.53
781.097	67.23
781.537	77.43
781.976	68.83
782.415	70.93
782.855	71.33
783.294	67.53
783.733	72.33
784.172	77.83
784.611	66.53
785.05	66.83
785.489	78.63
785.928	80.23
786.367	84.53
786.806	74.03
787.245	88.23
787.684	85.93
788.123	104.53
788.562	91.23
789.001	89.03
789.44	81.83
789.879	75.63
790.317	83.73
790.756	91.43
791.195	84.03
791.634	99.33
792.072	138.43
792.511	235.23
792.95	657.83
793.388	1509.73
793.827	1423.83
794.265	480.43
794.704	195.63
795.142	125.13
795.581	101.83
796.019	100.03
796.458	90.03
796.896	78.43
797.334	86.53
797.773	106.13
798.211	144.03
798.649	292.13
799.087	695.73
799.526	1105.23
799.964	1407.73
800.402	1494.43
800.84	546.83
801.278	207.83
801.716	130.33
802.154	107.33
802.592	101.63
803.03	100.33
803.468	88.23
803.906	102.83
804.344	102.53
804.782	91.13
805.22	93.83
805.658	82.73
806.096	99.73
806.533	103.23
806.971	121.53
807.409	149.63
807.847	210.93
808.284	440.43
808.722	1282.93
809.16	2384.03
809.597	2206.13
810.035	3946.13
810.472	4509.23
810.91	1594.53
811.347	583.63
811.785	283.43
812.222	182.93
812.66	132.13
813.097	113.33
813.535	98.73
813.972	89.03
814.409	82.73
814.846	76.63
815.284	72.83
815.721	63.03
816.158	66.93
816.595	76.33
817.032	110.93
817.47	132.23
817.907	108.13
818.344	68.53
818.781	69.53
819.218	63.93
819.655	85.23
820.092	146.33
820.529	167.53
820.966	125.23
821.403	94.83
821.839	66.03
822.276	69.93
822.713	84.63
823.15	98.63
823.587	86.83
824.023	103.63
824.46	199.33
824.897	610.73
825.333	998.13
825.77	433.83
826.206	160.13
826.643	93.23
827.08	73.93
827.516	58.33
827.953	48.43
828.389	60.33
828.825	54.03
829.262	44.43
829.698	49.13
830.135	41.73
830.571	43.73
831.007	37.73
831.443	40.33
831.88	40.33
832.316	42.23
832.752	40.13
833.188	44.63
833.624	44.73
834.06	48.63
834.497	46.13
834.933	49.03
835.369	52.73
835.805	43.93
836.241	55.23
836.677	51.23
837.112	62.43
837.548	66.13
837.984	89.33
838.42	135.03
838.856	331.83
839.292	1063.93
839.727	1726.23
840.163	796.73
840.599	644.23
841.034	1455.13
841.47	1633.53
841.906	581.53
842.341	237.23
842.777	137.33
843.212	149.63
843.648	144.03
844.083	87.13
844.519	60.73
844.954	52.63
845.39	42.63
845.825	38.03
846.261	34.03
846.696	42.43
847.131	37.53
847.566	41.53
848.002	32.83
848.437	33.53
848.872	41.03
849.307	40.93
849.742	62.33
850.177	121.43
850.613	377.33
851.048	640.83
851.483	275.03
851.918	105.63
852.353	59.93
852.788	36.83
853.223	37.53
853.657	45.53
854.092	37.13
854.527	29.23
854.962	29.23
855.397	31.93
855.832	34.23
856.266	30.33
856.701	28.93
857.136	25.63
857.57	33.63
858.005	33.33
858.44	43.23
858.874	32.03
859.309	38.13
859.743	24.03
860.178	36.43
860.612	34.23
861.047	35.63
861.481	47.33
861.915	54.03
862.35	36.23
862.784	20.73
863.218	27.13
863.653	27.83
864.087	34.53
864.521	40.13
864.955	42.73
865.39	103.03
865.824	123.93
866.258	79.93
866.692	133.63
867.126	146.23
867.56	90.53
867.994	43.43
868.428	27.83
868.862	35.03
869.296	44.33
869.73	45.63
870.164	37.53
870.598	42.53
871.031	34.23
871.465	24.23
871.899	23.83
872.333	16.63
872.766	22.13
873.2	11.13
873.634	23.63
874.067	22.63
874.501	21.23
874.935	25.23
875.368	22.53
875.802	16.03
876.235	15.33
876.669	18.73
877.102	13.53
877.535	19.93
877.969	13.23
878.402	15.83
878.836	5.43
879.269	18.63
879.702	12.33
880.135	17.73
880.569	13.73
881.002	18.73
881.435	10.43
881.868	15.03
882.301	22.23
882.734	9.43
883.167	21.33
883.601	9.63
884.034	19.83
884.467	9.63
884.899	13.53
885.332	8.33
885.765	8.33
886.198	10.63
886.631	12.83
887.064	10.83
887.497	10.33
887.929	21.33
888.362	9.23
888.795	4.43
889.228	10.33
889.66	12.33
890.093	8.03
890.526	7.63
890.958	15.53
891.391	12.53
891.823	12.93
892.256	7.03
892.688	8.03
893.121	6.93
893.553	4.13
893.985	12.03
894.418	10.63
894.85	10.13
895.282	10.03
895.715	12.33
896.147	10.93
896.579	13.13
897.011	0.93
897.444	6.83
897.876	5.53
898.308	9.73
898.74	4.43
899.172	9.13
899.604	16.83
900.036	13.83
900.468	10.73
900.9	8.53
901.332	15.93
901.764	8.13
902.196	15.03
902.628	17.93
903.06	8.43
903.491	25.23
903.923	17.03
904.355	14.53
904.787	19.43
905.218	17.13
905.65	11.33
906.082	6.43
906.513	8.83
906.945	6.83
907.376	13.43
907.808	12.43
908.239	15.93
908.671	16.43
909.102	12.83
909.534	17.83
909.965	33.33
910.397	64.73
910.828	220.93
911.259	364.43
911.691	169.03
912.122	72.93
912.553	31.53
912.984	27.13
913.415	17.93
913.847	18.33
914.278	7.63
914.709	10.83
915.14	13.53
915.571	15.63
916.002	8.43
916.433	11.43
916.864	10.73
917.295	5.83
917.726	11.93
918.157	4.13
918.587	17.43
919.018	14.93
919.449	18.43
919.88	21.63
920.311	27.13
920.741	29.23
921.172	113.23
921.603	104.13
922.033	48.13
922.464	31.63
922.895	15.43
923.325	19.33
923.756	9.03
924.186	2.93
924.617	13.63
925.047	12.13
925.478	22.03
925.908	16.43
926.338	7.33
926.769	5.43
927.199	13.13
927.629	-1.67
928.06	16.83
928.49	11.63
928.92	14.03
929.35	6.93
929.78	9.63
930.21	2.93
930.641	2.33
931.071	9.03
931.501	-0.47
931.931	5.93
932.361	10.03
932.791	1.83
933.221	1.03
933.651	-2.27
934.08	9.23
934.51	23.63
934.94	4.33
935.37	6.93
935.8	14.73
936.229	6.23
936.659	3.53
937.089	3.33
937.519	12.83
937.948	24.43
938.378	16.23
938.807	5.93
939.237	0.63
939.666	2.63
940.096	-8.77
940.525	0.93
940.955	3.63
941.384	3.53
941.814	-6.47
942.243	-2.37
942.672	1.93
943.102	2.03
943.531	0.83
943.96	0.03
944.39	-4.07
944.819	-5.07
945.248	6.23
945.677	7.73
946.106	1.53
946.535	3.03
946.964	3.43
947.393	1.83
947.822	1.93
948.251	-4.57
948.68	7.53
949.109	1.53
949.538	1.33
949.967	1.33
950.396	1.63
950.825	3.23
951.254	-4.37
951.682	-8.77
952.111	6.93
952.54	4.83
952.969	-6.37
953.397	-4.27
953.826	3.23
954.254	-8.47
954.683	1.63
955.112	-1.87
955.54	4.13
955.969	-0.07
956.397	9.03
956.826	-1.37
957.254	8.33
957.682	-2.07
958.111	3.13
958.539	-1.67
958.967	-1.17
959.396	1.03
959.824	1.13
960.252	3.13
960.68	2.33
961.109	-3.07
961.537	-5.07
961.965	1.13
962.393	1.93
962.821	-9.97
963.249	-1.77
963.677	3.63
964.105	5.53
964.533	32.13
964.961	30.03
965.389	11.03
965.817	4.63
966.245	-2.77
966.672	-3.87
967.1	-4.67
967.528	1.13
967.956	-8.37
968.383	-1.17
968.811	-0.67
969.239	-4.67
969.666	3.13
970.094	1.83
970.522	3.13
970.949	4.13
971.377	-5.27
971.804	-0.47
972.232	-4.77
972.659	3.33
973.087	-5.37
973.514	-2.97
973.941	-5.97
974.369	5.73
974.796	1.23
975.223	0.53
975.651	-1.47
976.078	-0.87
976.505	-3.77
976.932	2.13
977.359	9.23
977.786	8.23
978.214	0.63
978.641	-3.87
979.068	-1.67
979.495	-3.57
979.922	-8.87
980.349	-0.87
980.776	6.43
981.202	0.83
981.629	3.63
982.056	7.63
982.483	-3.27
982.91	-0.57
983.337	-3.47
983.763	2.23
984.19	-8.47
984.617	-4.77
985.043	-8.17
985.47	-0.97
985.897	-2.27
986.323	-9.37
986.75	1.23
987.176	2.83
987.603	-0.57
988.029	2.33
988.456	0.13
988.882	3.53
989.308	-4.67
989.735	-0.27
990.161	3.13
990.587	4.93
991.014	-1.07
991.44	7.43
991.866	1.33
992.292	-4.17
992.719	-2.67
993.145	4.93
993.571	-8.07
993.997	-0.87
994.423	-7.47
994.849	-10.47
995.275	0.33
995.701	2.03
996.127	-2.47
996.553	5.43
996.979	-6.17
997.405	-5.17
997.83	-6.67
998.256	-4.47
998.682	-5.27
999.108	-3.27
999.534	-3.67
999.959	-6.77
1000.385	-7.87
1000.811	-0.37
1001.236	-6.67
1001.662	-6.07
1002.087	-2.77
1002.513	-0.47
1002.938	2.23
1003.364	-1.87
1003.789	-7.57
1004.215	4.23
1004.64	0.73
1005.066	2.53
1005.491	0.83
1005.916	4.23
1006.342	-1.97
1006.767	-3.37
1007.192	6.83
1007.617	-6.47
1008.042	-4.37
1008.468	-10.07
1008.893	-1.97
1009.318	-2.27
1009.743	-3.97
1010.168	-0.57
1010.593	1.73
1011.018	-7.77
1011.443	-10.07
1011.868	4.43
1012.293	-6.37
1012.718	-0.17
1013.143	-5.57
1013.567	-1.07
1013.992	-0.27
1014.417	-12.97
1014.842	-0.77
1015.267	-1.17
1015.691	-6.87
1016.116	7.83
1016.541	1.63
1016.965	1.93
1017.39	7.53
1017.814	-6.17
1018.239	4.43
1018.663	-12.07
1019.088	-8.77
1019.512	-3.07
1019.937	-3.07
1020.361	1.53
1020.785	-8.67
1021.21	-5.17
1021.634	-2.97
1022.058	4.93
1022.483	3.53
1022.907	-2.67
1023.331	-0.77
1023.755	-4.37
1024.179	3.03
1024.604	-9.97
1025.028	-6.87
1025.452	-2.77
1025.876	-0.17
1026.3	1.63
1026.724	-13.07
1027.148	-2.77
1027.572	-8.77
1027.996	-2.27
1028.42	-2.27
1028.843	-1.37
1029.267	-9.27
1029.691	-5.37
1030.115	-3.57
1030.539	-6.67
1030.962	-8.27
1031.386	-8.57
1031.81	-0.57
1032.233	5.53
1032.657	-3.77
1033.08	0.83
1033.504	-2.27
1033.927	-7.67
1034.351	-0.47
1034.774	-4.27
1035.198	1.13
1035.621	-5.87
1036.045	-11.47
1036.468	0.13
1036.891	-15.57
1037.315	-4.17
1037.738	-11.67
1038.161	1.33
1038.584	-10.27
1039.008	-5.27
1039.431	1.83
1039.854	-7.07
1040.277	-6.47
1040.7	-7.07
1041.123	9.43
1041.546	-7.37
1041.969	-4.17
1042.392	-7.17
1042.815	-0.17
1043.238	1.03
1043.661	3.03
1044.084	-1.97
1044.507	-3.37
1044.93	-3.87
1045.352	0.43
1045.775	-1.17
1046.198	-8.47
1046.621	-5.07
1047.043	0.23
1047.466	7.83
1047.889	-1.07
1048.311	-7.87
1048.734	5.73
1049.156	-1.67
1049.579	4.23
1050.001	2.13
1050.424	3.93
1050.846	-2.27
1051.269	-7.07
1051.691	-0.87
1052.113	-1.17
1052.536	-2.07
1052.958	-3.17
1053.38	4.93
1053.802	-9.07
1054.225	-3.17
1054.647	-7.87
1055.069	-2.77
1055.491	3.33
1055.913	-5.87
1056.335	2.03
1056.757	-6.57
1057.179	-3.57
1057.601	-8.97
1058.023	0.23
1058.445	0.33
1058.867	-6.17
1059.289	-1.77
1059.711	-2.37
1060.133	-1.67
1060.555	-5.37
1060.976	-2.87
1061.398	-5.47
1061.82	-10.47
1062.241	-4.67
1062.663	-2.87
1063.085	-6.67
1063.506	1.23
1063.928	-3.27
1064.35	-3.87
1064.771	-6.47
1065.193	-3.57
1065.614	-6.17
1066.035	-3.47
1066.457	-10.57
1066.878	-0.97
1067.3	-6.67
1067.721	-1.97
1068.142	-4.47
1068.564	-4.27
1068.985	-3.87
1069.406	-9.17
1069.827	-1.77
1070.248	0.43
1070.67	-10.27
1071.091	-8.97
1071.512	3.03
1071.933	-4.47
1072.354	-2.87
1072.775	-3.77
1073.196	-6.17
1073.617	-1.07
1074.038	-5.97
1074.459	-4.47
1074.88	-8.97
1075.3	7.73
1075.721	-2.67
1076.142	3.93
1076.563	-2.27
1076.983	-8.47
1077.404	-6.17
1077.825	-6.37
1078.246	-9.47
1078.666	-11.47
1079.087	-9.97
1079.507	-4.77
1079.928	7.03
1080.348	1.13
1080.769	-6.77
1081.189	0.13
1081.61	1.43
1082.03	-4.07
1082.451	-11.67
1082.871	-3.87
1083.291	-5.07
1083.711	-3.37
1084.132	-0.17
1084.552	2.63
1084.972	0.23
1085.392	-8.77
1085.813	-10.37
1086.233	-8.57
1086.653	-7.47
1087.073	-5.57
1087.493	-3.27
1087.913	-5.27
1088.333	-4.27
1088.753	-4.37
1089.173	3.63
1089.593	0.33
1090.013	-0.77
1090.433	3.33
1090.852	-4.27
1091.272	-2.97
1091.692	-3.77
1092.112	1.73
1092.531	-12.07
1092.951	-8.97
1093.371	-5.07
1093.79	3.73
1094.21	-5.57
1094.63	-8.27
1095.049	-3.87
1095.469	-4.77
1095.888	0.23
1096.308	-0.87
1096.727	5.43
1097.146	-8.37
1097.566	1.93
1097.985	-2.87
1098.405	-1.97
1098.824	-6.57
1099.243	-2.77
1099.662	-5.17
1100.082	-2.67
1100.501	-0.27
1100.92	-5.87
1101.339	-1.07
1101.758	-3.47
