Data from 20171114-ORNL-Ar_H_NY_Subt18_08-05-04-301.txt Node
Date: Tue Nov 14 08:05:04 EST 2017
User: Ender
Spectrometer: HR+D1039
Trigger mode: 0
Integration Time (sec): 2.730000E-2
Scans to average: 10
Electric dark correction enabled: true
Nonlinearity correction enabled: false
Boxcar width: 0
XAxis mode: Wavelengths
Number of Pixels in Spectrum: 2048
>>>>>Begin Spectral Data<<<<<
187.836	-6.88
188.309	-6.88
188.782	-6.88
189.255	0.02
189.728	-0.48
190.201	4.32
190.674	2.82
191.147	4.52
191.619	-9.38
192.092	6.12
192.565	6.92
193.038	-0.88
193.511	-2.58
193.984	-3.18
194.456	1.82
194.929	-0.78
195.402	0.62
195.874	-3.08
196.347	-0.98
196.82	-4.58
197.292	8.72
197.765	-5.58
198.237	-3.28
198.71	0.92
199.182	-4.48
199.655	2.62
200.127	2.32
200.6	1.32
201.072	-0.08
201.544	-1.68
202.017	-0.88
202.489	3.22
202.961	-2.18
203.433	-5.18
203.906	-4.28
204.378	-3.88
204.85	-0.98
205.322	-6.78
205.794	0.02
206.266	-1.58
206.739	-2.98
207.211	-1.68
207.683	-7.18
208.155	-2.98
208.627	-2.28
209.099	6.82
209.57	-0.98
210.042	-3.18
210.514	-0.48
210.986	0.22
211.458	-9.08
211.93	-9.38
212.402	1.82
212.873	-2.18
213.345	-5.48
213.817	-2.28
214.288	-4.08
214.76	-7.48
215.232	-0.18
215.703	0.72
216.175	1.62
216.646	-4.38
217.118	1.32
217.589	-2.48
218.061	-1.78
218.532	-3.78
219.004	-4.28
219.475	3.62
219.946	-2.38
220.418	-0.48
220.889	0.22
221.36	1.62
221.832	1.12
222.303	-5.68
222.774	8.02
223.245	-5.78
223.717	-4.38
224.188	-6.68
224.659	-10.18
225.13	-3.38
225.601	3.72
226.072	2.12
226.543	0.02
227.014	2.72
227.485	-0.68
227.956	-4.78
228.427	-3.58
228.898	0.72
229.369	6.02
229.839	2.22
230.31	-4.28
230.781	7.52
231.252	-0.88
231.722	-1.08
232.193	0.02
232.664	-0.88
233.135	4.22
233.605	0.62
234.076	-1.68
234.546	6.52
235.017	5.12
235.487	1.02
235.958	3.82
236.428	0.92
236.899	5.02
237.369	10.62
237.84	0.72
238.31	11.72
238.78	3.72
239.251	5.32
239.721	6.02
240.191	-0.08
240.662	3.32
241.132	1.62
241.602	-0.68
242.072	1.42
242.542	6.02
243.013	5.12
243.483	6.52
243.953	-0.68
244.423	1.52
244.893	0.02
245.363	6.82
245.833	5.52
246.303	2.32
246.773	11.22
247.243	9.32
247.712	7.82
248.182	9.42
248.652	8.42
249.122	5.52
249.592	16.22
250.061	20.42
250.531	36.62
251.001	20.52
251.471	27.22
251.94	18.02
252.41	8.82
252.879	-0.48
253.349	14.92
253.818	6.32
254.288	12.32
254.757	7.62
255.227	5.92
255.696	1.92
256.166	1.92
256.635	10.22
257.105	9.42
257.574	7.12
258.043	9.42
258.513	13.22
258.982	24.12
259.451	13.12
259.92	18.22
260.389	12.42
260.859	17.22
261.328	19.82
261.797	21.22
262.266	12.62
262.735	12.72
263.204	6.62
263.673	7.02
264.142	10.02
264.611	-4.98
265.08	3.22
265.549	7.22
266.018	9.32
266.487	0.22
266.955	0.72
267.424	1.82
267.893	9.62
268.362	6.92
268.83	12.42
269.299	14.32
269.768	6.72
270.236	9.12
270.705	0.92
271.174	7.32
271.642	17.52
272.111	10.92
272.579	18.62
273.048	27.12
273.516	33.62
273.985	31.22
274.453	31.22
274.922	13.62
275.39	15.62
275.858	6.32
276.327	16.92
276.795	17.32
277.263	15.92
277.731	31.32
278.2	61.92
278.668	62.22
279.136	50.32
279.604	28.02
280.072	16.72
280.54	15.62
281.008	15.22
281.477	20.82
281.945	13.92
282.413	15.92
282.881	17.72
283.348	12.22
283.816	22.42
284.284	13.12
284.752	21.62
285.22	15.52
285.688	20.22
286.156	27.72
286.623	49.62
287.091	60.12
287.559	35.32
288.026	22.22
288.494	19.82
288.962	11.62
289.429	10.92
289.897	19.52
290.364	23.82
290.832	14.22
291.3	19.42
291.767	22.72
292.234	25.42
292.702	19.32
293.169	22.62
293.637	25.02
294.104	25.12
294.571	15.12
295.039	18.92
295.506	18.62
295.973	20.32
296.44	18.42
296.908	26.82
297.375	20.52
297.842	20.82
298.309	19.62
298.776	19.12
299.243	19.02
299.71	13.32
300.177	23.92
300.644	24.02
301.111	22.62
301.578	22.92
302.045	21.42
302.512	29.22
302.979	31.02
303.446	28.72
303.913	22.92
304.379	25.62
304.846	33.52
305.313	23.42
305.78	27.32
306.246	29.82
306.713	31.22
307.18	29.92
307.646	33.92
308.113	39.62
308.579	22.42
309.046	31.12
309.512	25.12
309.979	20.22
310.445	23.02
310.912	29.12
311.378	37.72
311.845	30.12
312.311	40.22
312.777	32.12
313.244	32.82
313.71	39.72
314.176	34.72
314.642	38.72
315.109	37.42
315.575	36.62
316.041	45.62
316.507	33.22
316.973	47.92
317.439	30.52
317.905	35.32
318.371	39.52
318.837	39.02
319.303	37.22
319.769	37.72
320.235	37.02
320.701	36.32
321.167	42.32
321.633	39.32
322.099	41.32
322.564	50.72
323.03	41.12
323.496	39.12
323.962	43.92
324.427	34.82
324.893	46.02
325.359	44.52
325.824	39.92
326.29	42.32
326.755	43.22
327.221	43.22
327.686	37.42
328.152	48.12
328.617	43.52
329.083	51.82
329.548	53.52
330.014	51.12
330.479	42.22
330.944	51.22
331.41	48.92
331.875	54.82
332.34	47.82
332.805	45.82
333.271	46.92
333.736	50.32
334.201	60.22
334.666	58.32
335.131	58.52
335.596	54.72
336.061	60.42
336.526	45.32
336.991	49.62
337.456	59.12
337.921	61.32
338.386	48.52
338.851	42.62
339.316	48.72
339.781	54.12
340.246	57.82
340.711	47.32
341.175	52.92
341.64	43.72
342.105	50.82
342.569	56.82
343.034	58.22
343.499	62.72
343.963	52.92
344.428	65.62
344.893	61.22
345.357	64.72
345.822	70.02
346.286	71.32
346.751	70.62
347.215	65.42
347.679	77.02
348.144	104.12
348.608	83.32
349.073	71.12
349.537	76.52
350.001	81.62
350.465	93.02
350.93	87.62
351.394	86.52
351.858	77.62
352.322	89.12
352.786	91.42
353.25	103.32
353.715	111.42
354.179	97.82
354.643	128.12
355.107	130.32
355.571	115.22
356.035	110.32
356.498	114.72
356.962	131.02
357.426	137.82
357.89	128.02
358.354	96.12
358.818	86.02
359.281	86.42
359.745	87.52
360.209	73.62
360.673	78.32
361.136	81.82
361.6	91.52
362.064	86.62
362.527	84.92
362.991	92.42
363.454	85.82
363.918	80.62
364.381	80.32
364.845	89.72
365.308	79.22
365.772	84.32
366.235	92.12
366.698	84.72
367.162	87.82
367.625	83.22
368.088	92.32
368.552	87.32
369.015	90.92
369.478	103.02
369.941	108.52
370.404	97.32
370.867	107.22
371.331	114.22
371.794	115.22
372.257	112.42
372.72	122.82
373.183	108.22
373.646	105.72
374.109	107.62
374.572	109.02
375.035	111.52
375.497	111.62
375.96	106.62
376.423	109.82
376.886	115.42
377.349	123.02
377.811	102.02
378.274	108.52
378.737	111.12
379.199	114.82
379.662	111.52
380.125	119.22
380.587	116.12
381.05	122.62
381.512	128.92
381.975	136.12
382.437	123.22
382.9	126.62
383.362	126.52
383.825	144.62
384.287	142.52
384.75	141.12
385.212	142.92
385.674	140.72
386.136	140.52
386.599	123.52
387.061	127.92
387.523	132.92
387.985	135.92
388.447	138.92
388.91	140.22
389.372	159.62
389.834	150.62
390.296	140.52
390.758	149.22
391.22	170.22
391.682	204.72
392.144	294.52
392.606	218.62
393.068	163.02
393.529	165.02
393.991	155.32
394.453	142.02
394.915	151.82
395.377	186.32
395.838	205.52
396.3	150.32
396.762	139.62
397.224	139.12
397.685	132.42
398.147	128.92
398.608	128.12
399.07	122.82
399.531	140.62
399.993	143.02
400.454	156.02
400.916	136.22
401.377	147.12
401.839	146.62
402.3	153.02
402.762	166.42
403.223	174.62
403.684	165.02
404.145	166.12
404.607	157.32
405.068	159.12
405.529	166.92
405.99	182.02
406.451	176.42
406.913	166.32
407.374	162.32
407.835	156.32
408.296	161.42
408.757	171.32
409.218	187.42
409.679	178.52
410.14	176.92
410.601	179.12
411.062	178.92
411.522	185.82
411.983	183.22
412.444	169.02
412.905	187.22
413.366	184.02
413.826	193.52
414.287	213.72
414.748	261.92
415.208	240.52
415.669	204.82
416.13	205.42
416.59	198.92
417.051	206.92
417.511	217.52
417.972	231.42
418.432	241.62
418.893	280.42
419.353	249.82
419.814	195.32
420.274	180.12
420.734	173.92
421.195	194.02
421.655	191.22
422.115	191.82
422.576	188.92
423.036	193.32
423.496	202.32
423.956	212.72
424.416	223.42
424.876	261.02
425.336	253.42
425.797	263.22
426.257	244.42
426.717	230.52
427.177	224.12
427.637	219.12
428.097	230.82
428.556	243.22
429.016	270.02
429.476	260.32
429.936	272.32
430.396	271.92
430.856	287.82
431.315	312.02
431.775	345.52
432.235	377.02
432.694	343.82
433.154	355.52
433.614	386.12
434.073	331.12
434.533	282.62
434.993	263.32
435.452	279.72
435.912	291.12
436.371	282.42
436.83	281.22
437.29	262.62
437.749	239.32
438.209	248.42
438.668	277.82
439.127	285.92
439.587	263.72
440.046	243.62
440.505	261.12
440.964	273.22
441.424	324.92
441.883	301.92
442.342	255.52
442.801	219.32
443.26	219.42
443.719	220.32
444.178	221.72
444.637	207.22
445.096	215.12
445.555	211.32
446.014	228.12
446.473	224.22
446.932	224.92
447.391	225.82
447.849	227.92
448.308	217.52
448.767	221.12
449.226	231.42
449.685	232.92
450.143	246.82
450.602	231.02
451.061	224.02
451.519	230.82
451.978	226.62
452.436	228.62
452.895	234.42
453.353	249.32
453.812	235.92
454.27	239.92
454.729	237.52
455.187	234.42
455.646	243.72
456.104	244.72
456.562	259.12
457.021	264.32
457.479	252.22
457.937	267.32
458.395	251.32
458.854	242.92
459.312	254.52
459.77	267.82
460.228	244.82
460.686	229.62
461.144	245.42
461.602	241.32
462.06	241.42
462.518	246.42
462.976	249.02
463.434	250.92
463.892	256.52
464.35	268.52
464.808	284.32
465.266	262.82
465.724	266.62
466.181	267.32
466.639	267.42
467.097	279.62
467.555	295.52
468.012	302.42
468.47	307.32
468.928	319.02
469.385	341.92
469.843	335.42
470.3	344.12
470.758	354.52
471.215	373.72
471.673	397.92
472.13	397.62
472.588	412.82
473.045	365.02
473.503	368.32
473.96	387.62
474.417	395.12
474.875	427.32
475.332	468.82
475.789	457.62
476.246	455.42
476.704	472.32
477.161	500.32
477.618	511.42
478.075	545.42
478.532	606.72
478.989	673.82
479.446	784.22
479.903	753.12
480.36	801.02
480.817	844.82
481.274	959.12
481.731	1047.92
482.188	1149.72
482.645	1281.82
483.102	1396.52
483.558	1524.33
484.015	1584.12
484.472	1548.72
484.929	1503.33
485.385	1460.02
485.842	1423.53
486.299	1349.92
486.755	1276.82
487.212	1074.42
487.668	902.62
488.125	841.52
488.582	759.82
489.038	738.62
489.494	696.42
489.951	671.02
490.407	652.52
490.864	647.82
491.32	642.12
491.776	634.72
492.233	633.12
492.689	602.52
493.145	586.72
493.602	592.02
494.058	600.12
494.514	605.82
494.97	625.82
495.426	636.42
495.882	607.42
496.338	610.22
496.794	616.52
497.251	611.82
497.707	623.02
498.163	622.92
498.618	642.22
499.074	636.02
499.53	660.92
499.986	672.32
500.442	642.42
500.898	619.42
501.354	606.32
501.809	625.62
502.265	634.32
502.721	643.52
503.177	650.32
503.632	646.62
504.088	662.82
504.543	699.82
504.999	701.82
505.455	639.72
505.91	619.22
506.366	631.42
506.821	620.72
507.277	615.82
507.732	609.42
508.187	599.52
508.643	613.32
509.098	620.02
509.553	648.22
510.009	650.82
510.464	650.62
510.919	684.92
511.375	685.82
511.83	688.92
512.285	707.52
512.74	747.12
513.195	770.42
513.65	759.32
514.105	750.12
514.56	754.42
515.015	784.02
515.47	809.92
515.925	773.52
516.38	784.52
516.835	779.82
517.29	763.92
517.745	770.22
518.2	752.82
518.655	729.92
519.109	732.42
519.564	724.12
520.019	723.42
520.474	703.92
520.928	711.92
521.383	709.52
521.838	695.32
522.292	704.42
522.747	686.52
523.201	685.52
523.656	688.72
524.11	676.92
524.565	680.02
525.019	673.42
525.474	690.92
525.928	683.12
526.382	682.62
526.837	679.82
527.291	695.42
527.745	688.92
528.2	693.12
528.654	672.42
529.108	674.82
529.562	666.52
530.016	678.32
530.47	676.52
530.925	676.62
531.379	690.12
531.833	693.92
532.287	681.62
532.741	683.42
533.195	697.12
533.649	701.62
534.103	702.32
534.556	688.72
535.01	696.02
535.464	691.42
535.918	705.32
536.372	710.02
536.826	700.62
537.279	694.82
537.733	697.02
538.187	701.02
538.64	702.92
539.094	706.82
539.548	714.82
540.001	698.92
540.455	698.42
540.908	713.12
541.362	712.62
541.815	725.82
542.269	732.42
542.722	741.32
543.175	746.42
543.629	747.82
544.082	759.52
544.536	765.52
544.989	758.82
545.442	767.82
545.895	763.02
546.349	752.92
546.802	764.72
547.255	771.92
547.708	791.52
548.161	783.62
548.614	797.12
549.067	801.52
549.52	780.42
549.973	793.32
550.426	783.32
550.879	764.42
551.332	771.82
551.785	784.12
552.238	789.72
552.691	788.62
553.144	806.32
553.596	826.52
554.049	832.62
554.502	862.62
554.955	879.62
555.407	882.82
555.86	878.42
556.313	864.32
556.765	854.72
557.218	859.92
557.67	858.22
558.123	848.62
558.576	851.12
559.028	841.32
559.48	863.92
559.933	846.62
560.385	810.12
560.838	782.32
561.29	756.42
561.742	749.52
562.195	733.62
562.647	734.02
563.099	755.82
563.551	745.42
564.004	759.72
564.456	748.92
564.908	741.22
565.36	723.12
565.812	713.02
566.264	699.52
566.716	697.92
567.168	691.12
567.62	698.02
568.072	680.92
568.524	670.62
568.976	661.72
569.428	660.32
569.88	649.92
570.332	658.72
570.784	664.52
571.235	659.52
571.687	660.82
572.139	674.62
572.59	683.22
573.042	684.62
573.494	678.12
573.945	680.82
574.397	653.62
574.849	665.72
575.3	659.92
575.752	663.02
576.203	655.32
576.655	662.42
577.106	637.02
577.557	647.72
578.009	644.32
578.46	641.02
578.912	624.82
579.363	645.92
579.814	636.82
580.265	634.42
580.717	627.52
581.168	643.82
581.619	643.62
582.07	649.62
582.521	652.22
582.972	643.82
583.423	654.12
583.875	651.22
584.326	673.12
584.777	714.62
585.227	789.32
585.678	860.52
586.129	951.62
586.58	1023.12
587.031	1098.42
587.482	1260.82
587.933	1435.62
588.384	1240.72
588.834	929.12
589.285	768.12
589.736	743.22
590.186	740.32
590.637	729.52
591.088	714.02
591.538	701.72
591.989	701.22
592.439	685.52
592.89	686.02
593.34	677.22
593.791	670.32
594.241	672.52
594.692	679.32
595.142	660.92
595.593	665.82
596.043	683.02
596.493	673.72
596.943	681.32
597.394	683.72
597.844	673.52
598.294	687.22
598.744	709.92
599.195	738.22
599.645	775.32
600.095	806.42
600.545	854.92
600.995	914.12
601.445	966.12
601.895	1015.02
602.345	1066.72
602.795	1056.52
603.245	1007.72
603.695	960.02
604.145	905.52
604.594	862.02
605.044	801.22
605.494	764.02
605.944	720.52
606.393	704.72
606.843	692.52
607.293	695.62
607.743	693.82
608.192	691.92
608.642	710.82
609.091	715.42
609.541	719.32
609.99	729.42
610.44	718.92
610.889	686.12
611.339	663.82
611.788	643.32
612.238	654.22
612.687	673.42
613.136	680.12
613.586	698.02
614.035	692.32
614.484	713.52
614.933	709.62
615.383	709.52
615.832	699.52
616.281	681.52
616.73	648.72
617.179	624.32
617.628	608.92
618.077	594.62
618.526	588.62
618.975	578.72
619.424	574.52
619.873	571.92
620.322	571.52
620.771	570.22
621.22	566.32
621.669	552.92
622.118	547.92
622.567	542.22
623.015	539.72
623.464	535.12
623.913	527.72
624.361	518.72
624.81	514.32
625.259	516.52
625.707	521.42
626.156	518.02
626.604	532.12
627.053	522.62
627.501	526.42
627.95	524.82
628.398	541.62
628.847	537.92
629.295	530.12
629.744	546.02
630.192	533.72
630.64	532.12
631.089	527.62
631.537	538.72
631.985	547.82
632.433	564.82
632.881	562.82
633.33	614.52
633.778	587.42
634.226	525.72
634.674	536.52
635.122	545.72
635.57	557.42
636.018	580.62
636.466	538.52
636.914	511.82
637.362	527.62
637.81	541.02
638.258	535.62
638.705	538.62
639.153	568.52
639.601	569.72
640.049	584.72
640.497	621.52
640.944	644.32
641.392	590.12
641.84	559.12
642.287	537.72
642.735	529.22
643.182	531.22
643.63	531.72
644.078	535.52
644.525	552.62
644.973	545.72
645.42	559.82
645.867	577.52
646.315	583.42
646.762	615.92
647.21	636.52
647.657	669.42
648.104	703.52
648.551	710.62
648.999	764.22
649.446	834.92
649.893	921.92
650.34	1063.52
650.787	1276.03
651.234	1592.32
651.682	2059.02
652.129	2819.32
652.576	4031.23
653.023	5994.73
653.47	8289.42
653.917	10417.52
654.363	12152.23
654.81	13528.92
655.257	12880.23
655.704	8396.82
656.151	4948.52
656.598	3187.02
657.044	2262.12
657.491	1735.62
657.938	1398.62
658.385	1159.72
658.831	1019.52
659.278	889.92
659.724	799.02
660.171	734.42
660.618	674.62
661.064	642.12
661.511	617.92
661.957	597.22
662.404	598.42
662.85	601.62
663.296	569.42
663.743	516.92
664.189	503.32
664.635	490.52
665.082	495.32
665.528	489.32
665.974	477.92
666.42	474.52
666.867	470.02
667.313	448.72
667.759	449.12
668.205	446.22
668.651	448.72
669.097	447.82
669.543	456.42
669.989	435.72
670.435	410.92
670.881	404.42
671.327	415.72
671.773	438.02
672.219	447.22
672.665	502.02
673.11	525.82
673.556	571.42
674.002	614.42
674.448	607.92
674.893	512.92
675.339	434.42
675.785	393.82
676.23	382.72
676.676	361.52
677.122	354.82
677.567	345.32
678.013	338.42
678.458	330.92
678.904	330.62
679.349	316.02
679.794	320.52
680.24	317.52
680.685	315.72
681.131	316.22
681.576	318.22
682.021	322.02
682.466	310.12
682.912	319.82
683.357	320.52
683.802	344.72
684.247	376.72
684.692	415.22
685.137	447.72
685.583	496.52
686.028	514.82
686.473	474.62
686.918	406.32
687.363	380.92
687.807	358.32
688.252	326.62
688.697	325.02
689.142	307.12
689.587	302.62
690.032	303.12
690.477	316.42
690.921	314.92
691.366	338.32
691.811	360.82
692.255	389.72
692.7	417.92
693.145	454.82
693.589	613.52
694.034	998.72
694.478	1386.32
694.923	1596.02
695.367	2104.52
695.812	1106.12
696.256	456.72
696.701	337.22
697.145	310.92
697.59	301.42
698.034	300.42
698.478	303.12
698.922	295.32
699.367	294.02
699.811	306.42
700.255	316.72
700.699	354.52
701.143	380.52
701.588	428.82
702.032	472.42
702.476	467.02
702.92	441.32
703.364	448.22
703.808	564.82
704.252	915.72
704.696	1305.82
705.14	1527.93
705.584	1982.12
706.027	975.92
706.471	471.12
706.915	358.32
707.359	321.02
707.803	287.02
708.246	282.22
708.69	284.22
709.134	286.52
709.577	286.52
710.021	286.52
710.465	276.42
710.908	277.02
711.352	273.72
711.795	282.92
712.239	320.62
712.682	344.82
713.126	383.62
713.569	433.72
714.012	335.32
714.456	298.22
714.899	271.92
715.342	242.42
715.786	231.62
716.229	233.32
716.672	230.12
717.115	226.62
717.558	224.42
718.002	223.22
718.445	236.82
718.888	267.12
719.331	271.12
719.774	279.32
720.217	276.02
720.66	254.82
721.103	235.12
721.546	233.12
721.989	230.82
722.432	210.62
722.874	215.42
723.317	206.62
723.76	212.02
724.203	227.42
724.645	285.62
725.088	398.72
725.531	524.42
725.974	588.82
726.416	508.12
726.859	278.32
727.301	223.42
727.744	216.82
728.187	211.52
728.629	215.12
729.071	216.42
729.514	237.62
729.956	252.32
730.399	257.92
730.841	264.62
731.283	256.92
731.726	240.42
732.168	232.82
732.61	243.12
733.053	255.12
733.495	284.22
733.937	326.62
734.379	355.62
734.821	385.02
735.263	488.72
735.705	727.62
736.148	1378.42
736.59	2298.92
737.032	2806.12
737.474	2285.22
737.916	732.52
738.357	390.82
738.799	295.12
739.241	277.12
739.683	259.12
740.125	262.12
740.567	272.02
741.008	284.12
741.45	277.02
741.892	280.82
742.334	313.52
742.775	320.62
743.217	310.62
743.658	244.12
744.1	224.42
744.542	231.42
744.983	277.62
745.425	316.82
745.866	311.12
746.307	261.42
746.749	254.42
747.19	298.02
747.632	396.52
748.073	759.32
748.514	1636.53
748.956	2573.53
749.397	3211.72
749.838	2677.62
750.279	2735.12
750.72	1378.22
751.162	495.82
751.603	292.82
752.044	227.52
752.485	195.82
752.926	187.52
753.367	182.02
753.808	169.52
754.249	178.12
754.69	167.82
755.131	159.02
755.572	162.22
756.013	159.82
756.453	165.02
756.894	170.72
757.335	169.62
757.776	176.32
758.216	175.12
758.657	177.32
759.098	185.62
759.538	206.02
759.979	238.42
760.42	332.82
760.86	610.52
761.301	1575.32
761.741	3896.03
762.182	5928.73
762.622	4156.93
763.063	1191.72
763.503	490.82
763.943	309.92
764.384	304.72
764.824	368.82
765.264	398.92
765.705	276.62
766.145	189.72
766.585	171.02
767.025	168.02
767.465	167.42
767.906	222.12
768.346	282.12
768.786	313.42
769.226	235.12
769.666	289.42
770.106	533.42
770.546	1368.32
770.986	2397.62
771.426	2177.12
771.866	715.52
772.306	296.62
772.745	191.52
773.185	162.92
773.625	151.72
774.065	144.82
774.505	176.62
774.944	277.52
775.384	603.92
775.824	1132.92
776.263	1106.62
776.703	466.92
777.142	201.12
777.582	143.62
778.021	131.22
778.461	122.62
778.9	125.52
779.34	123.12
779.779	114.12
780.219	104.12
780.658	102.32
781.097	97.92
781.537	103.52
781.976	92.52
782.415	96.02
782.855	98.62
783.294	97.42
783.733	96.22
784.172	101.62
784.611	94.42
785.05	97.62
785.489	101.02
785.928	103.62
786.367	112.02
786.806	105.62
787.245	122.22
787.684	127.62
788.123	137.52
788.562	119.92
789.001	114.62
789.44	115.12
789.879	106.32
790.317	105.32
790.756	121.12
791.195	117.52
791.634	143.22
792.072	181.72
792.511	316.62
792.95	862.72
793.388	1930.32
793.827	1793.62
794.265	612.52
794.704	249.42
795.142	165.12
795.581	138.42
796.019	126.72
796.458	115.72
796.896	110.42
797.334	122.02
797.773	139.72
798.211	188.72
798.649	378.62
799.087	899.52
799.526	1431.42
799.964	1787.33
800.402	1844.82
800.84	686.82
801.278	268.92
801.716	166.12
802.154	141.02
802.592	135.12
803.03	129.52
803.468	123.22
803.906	135.72
804.344	132.22
804.782	134.82
805.22	126.92
805.658	115.82
806.096	133.62
806.533	142.32
806.971	153.72
807.409	198.02
807.847	277.22
808.284	573.52
808.722	1636.12
809.16	3002.52
809.597	2765.23
810.035	4855.03
810.472	5343.62
810.91	1918.32
811.347	720.62
811.785	369.12
812.222	240.12
812.66	175.72
813.097	149.12
813.535	133.72
813.972	121.92
814.409	111.82
814.846	101.32
815.284	102.02
815.721	89.62
816.158	93.42
816.595	102.32
817.032	160.52
817.47	180.02
817.907	150.82
818.344	138.72
818.781	103.82
819.218	98.02
819.655	106.82
820.092	167.22
820.529	202.72
820.966	161.92
821.403	124.92
821.839	98.92
822.276	96.82
822.713	110.32
823.15	128.02
823.587	104.52
824.023	128.42
824.46	265.32
824.897	789.72
825.333	1237.12
825.77	536.02
826.206	209.32
826.643	122.52
827.08	89.42
827.516	73.02
827.953	67.42
828.389	72.02
828.825	66.62
829.262	62.32
829.698	63.42
830.135	57.92
830.571	59.32
831.007	65.12
831.443	59.42
831.88	57.02
832.316	60.42
832.752	58.12
833.188	57.52
833.624	62.22
834.06	61.12
834.497	66.02
834.933	65.02
835.369	69.12
835.805	64.92
836.241	71.62
836.677	71.52
837.112	83.62
837.548	96.32
837.984	122.62
838.42	175.72
838.856	432.42
839.292	1351.02
839.727	2113.43
840.163	980.12
840.599	808.92
841.034	1807.72
841.47	1966.62
841.906	703.92
842.341	303.02
842.777	206.22
843.212	283.22
843.648	281.02
844.083	136.12
844.519	90.12
844.954	68.22
845.39	53.82
845.825	42.12
846.261	54.62
846.696	45.22
847.131	50.82
847.566	52.32
848.002	48.92
848.437	49.22
848.872	50.82
849.307	55.42
849.742	75.22
850.177	158.22
850.613	494.62
851.048	804.22
851.483	348.82
851.918	136.82
852.353	70.82
852.788	56.72
853.223	52.32
853.657	51.62
854.092	41.82
854.527	40.22
854.962	39.62
855.397	39.32
855.832	49.82
856.266	40.42
856.701	38.12
857.136	37.92
857.57	39.32
858.005	44.02
858.44	45.92
858.874	41.22
859.309	49.02
859.743	33.12
860.178	46.52
860.612	42.42
861.047	48.42
861.481	54.52
861.915	63.22
862.35	42.82
862.784	33.32
863.218	32.62
863.653	31.22
864.087	40.72
864.521	49.32
864.955	68.12
865.39	135.92
865.824	163.72
866.258	104.72
866.692	154.62
867.126	159.72
867.56	100.22
867.994	49.22
868.428	34.52
868.862	39.82
869.296	52.62
869.73	56.52
870.164	49.82
870.598	50.52
871.031	33.62
871.465	29.12
871.899	30.02
872.333	26.12
872.766	24.52
873.2	22.52
873.634	29.12
874.067	22.12
874.501	25.72
874.935	35.42
875.368	28.92
875.802	26.92
876.235	25.72
876.669	15.82
877.102	18.22
877.535	28.32
877.969	24.02
878.402	25.82
878.836	16.82
879.269	27.62
879.702	25.92
880.135	16.82
880.569	23.22
881.002	23.82
881.435	18.52
881.868	18.92
882.301	16.32
882.734	13.72
883.167	23.82
883.601	21.42
884.034	21.42
884.467	12.52
884.899	19.62
885.332	14.52
885.765	16.62
886.198	19.22
886.631	15.42
887.064	14.42
887.497	22.62
887.929	20.22
888.362	10.52
888.795	12.82
889.228	23.22
889.66	21.72
890.093	15.42
890.526	15.72
890.958	18.42
891.391	19.62
891.823	19.42
892.256	18.92
892.688	13.62
893.121	16.02
893.553	12.02
893.985	22.42
894.418	21.82
894.85	16.52
895.282	19.12
895.715	18.22
896.147	11.62
896.579	14.32
897.011	19.22
897.444	16.92
897.876	13.52
898.308	19.82
898.74	19.02
899.172	7.12
899.604	23.92
900.036	16.32
900.468	13.22
900.9	11.22
901.332	15.52
901.764	12.82
902.196	14.62
902.628	18.82
903.06	12.92
903.491	29.12
903.923	27.02
904.355	17.92
904.787	28.42
905.218	19.72
905.65	20.22
906.082	11.42
906.513	9.42
906.945	12.22
907.376	14.52
907.808	24.82
908.239	22.32
908.671	13.22
909.102	14.62
909.534	27.12
909.965	46.72
910.397	81.62
910.828	286.82
911.259	430.12
911.691	196.92
912.122	98.62
912.553	46.92
912.984	36.92
913.415	25.52
913.847	23.02
914.278	12.12
914.709	9.72
915.14	20.82
915.571	12.02
916.002	15.22
916.433	19.02
916.864	18.12
917.295	17.02
917.726	19.92
918.157	16.72
918.587	31.92
919.018	23.52
919.449	23.42
919.88	19.92
920.311	28.82
920.741	46.42
921.172	151.82
921.603	136.12
922.033	64.22
922.464	41.52
922.895	21.22
923.325	18.92
923.756	18.92
924.186	9.62
924.617	22.02
925.047	42.02
925.478	48.92
925.908	40.52
926.338	21.02
926.769	14.02
927.199	17.52
927.629	10.92
928.06	11.42
928.49	5.72
928.92	13.52
929.35	7.82
929.78	8.42
930.21	5.22
930.641	12.42
931.071	8.72
931.501	11.42
931.931	8.12
932.361	8.12
932.791	3.02
933.221	3.92
933.651	9.62
934.08	16.62
934.51	27.62
934.94	9.22
935.37	14.62
935.8	13.12
936.229	5.62
936.659	8.12
937.089	0.62
937.519	15.72
937.948	25.72
938.378	17.82
938.807	5.12
939.237	4.42
939.666	11.52
940.096	-2.88
940.525	1.82
940.955	0.42
941.384	9.32
941.814	-3.48
942.243	2.92
942.672	3.42
943.102	-0.08
943.531	1.62
943.96	3.92
944.39	1.62
944.819	-0.48
945.248	3.22
945.677	3.02
946.106	6.52
946.535	4.52
946.964	-1.68
947.393	3.12
947.822	5.72
948.251	-2.08
948.68	4.92
949.109	8.82
949.538	6.72
949.967	-1.68
950.396	2.32
950.825	1.92
951.254	5.92
951.682	-2.58
952.111	4.32
952.54	8.42
952.969	-2.08
953.397	-10.08
953.826	5.72
954.254	-2.38
954.683	0.22
955.112	-3.08
955.54	5.72
955.969	4.02
956.397	5.62
956.826	-3.38
957.254	3.62
957.682	-1.98
958.111	3.62
958.539	0.12
958.967	-0.28
959.396	-4.48
959.824	1.62
960.252	7.62
960.68	-3.98
961.109	-1.48
961.537	-4.08
961.965	0.92
962.393	1.32
962.821	-4.18
963.249	4.02
963.677	1.32
964.105	6.82
964.533	42.62
964.961	39.02
965.389	19.12
965.817	9.22
966.245	2.12
966.672	5.52
967.1	-5.88
967.528	2.82
967.956	-1.18
968.383	4.82
968.811	-6.78
969.239	-1.18
969.666	-4.88
970.094	-1.68
970.522	-1.38
970.949	1.22
971.377	-5.68
971.804	7.02
972.232	-0.08
972.659	-1.58
973.087	2.52
973.514	-1.58
973.941	-7.38
974.369	5.62
974.796	-3.98
975.223	-2.28
975.651	-2.28
976.078	3.02
976.505	-5.38
976.932	7.22
977.359	17.22
977.786	17.52
978.214	3.02
978.641	-3.08
979.068	-6.28
979.495	-3.88
979.922	-3.48
980.349	-3.78
980.776	1.52
981.202	-3.78
981.629	5.42
982.056	2.82
982.483	-3.28
982.91	-4.48
983.337	-3.88
983.763	3.72
984.19	-3.58
984.617	-0.38
985.043	-8.98
985.47	-6.78
985.897	-1.48
986.323	-10.38
986.75	-4.58
987.176	-3.08
987.603	-2.48
988.029	-4.08
988.456	-2.68
988.882	6.72
989.308	0.32
989.735	-6.88
990.161	2.22
990.587	-8.08
991.014	-0.88
991.44	6.72
991.866	-1.68
992.292	-7.88
992.719	-8.08
993.145	8.02
993.571	-11.98
993.997	-5.78
994.423	-8.08
994.849	-2.18
995.275	2.92
995.701	4.42
996.127	-2.18
996.553	-1.38
996.979	-2.68
997.405	-1.08
997.83	-1.48
998.256	-9.28
998.682	-5.28
999.108	-4.28
999.534	-6.08
999.959	0.62
1000.385	-8.18
1000.811	-1.58
1001.236	-11.38
1001.662	-6.68
1002.087	-13.68
1002.513	-0.18
1002.938	4.42
1003.364	-4.38
1003.789	-0.18
1004.215	7.62
1004.64	1.52
1005.066	-2.68
1005.491	1.12
1005.916	-4.68
1006.342	0.92
1006.767	-6.08
1007.192	9.62
1007.617	-2.38
1008.042	-6.78
1008.468	-8.98
1008.893	-5.68
1009.318	4.92
1009.743	-1.88
1010.168	2.82
1010.593	0.12
1011.018	-8.48
1011.443	3.02
1011.868	-2.78
1012.293	-4.98
1012.718	-6.38
1013.143	3.52
1013.567	-0.98
1013.992	1.12
1014.417	-11.38
1014.842	0.02
1015.267	-6.38
1015.691	-4.18
1016.116	8.22
1016.541	0.82
1016.965	7.62
1017.39	-0.68
1017.814	-1.18
1018.239	3.52
1018.663	-9.18
1019.088	-8.58
1019.512	-5.58
1019.937	-3.08
1020.361	-5.48
1020.785	-3.78
1021.21	0.52
1021.634	0.22
1022.058	1.92
1022.483	8.92
1022.907	-5.18
1023.331	-5.78
1023.755	-3.28
1024.179	-6.98
1024.604	-8.98
1025.028	-5.08
1025.452	4.02
1025.876	-0.48
1026.3	0.32
1026.724	-10.88
1027.148	-3.08
1027.572	-9.68
1027.996	-4.68
1028.42	0.82
1028.843	-4.48
1029.267	-5.68
1029.691	-6.08
1030.115	-4.58
1030.539	-7.98
1030.962	-4.88
1031.386	-8.28
1031.81	-4.18
1032.233	-4.08
1032.657	-2.48
1033.08	0.52
1033.504	0.12
1033.927	0.02
1034.351	4.32
1034.774	-3.08
1035.198	-5.48
1035.621	-3.68
1036.045	-5.78
1036.468	5.72
1036.891	-6.98
1037.315	-8.88
1037.738	-5.38
1038.161	-4.28
1038.584	-4.98
1039.008	-2.98
1039.431	-7.18
1039.854	2.12
1040.277	-5.48
1040.7	-7.08
1041.123	0.22
1041.546	3.12
1041.969	-0.58
1042.392	-6.88
1042.815	0.22
1043.238	1.32
1043.661	-2.98
1044.084	-14.18
1044.507	-3.28
1044.93	-7.48
1045.352	1.12
1045.775	-0.08
1046.198	-3.98
1046.621	-2.48
1047.043	-0.48
1047.466	6.42
1047.889	-3.48
1048.311	-5.58
1048.734	-0.58
1049.156	-4.78
1049.579	-4.58
1050.001	-0.48
1050.424	-2.18
1050.846	-0.88
1051.269	-3.38
1051.691	-10.48
1052.113	-5.78
1052.536	2.22
1052.958	-0.68
1053.38	-2.88
1053.802	-9.28
1054.225	1.72
1054.647	-10.08
1055.069	-7.28
1055.491	0.62
1055.913	-8.48
1056.335	-0.18
1056.757	-1.38
1057.179	-4.18
1057.601	-5.38
1058.023	-2.48
1058.445	-1.18
1058.867	-5.08
1059.289	-3.98
1059.711	-1.38
1060.133	3.62
1060.555	4.42
1060.976	-7.78
1061.398	-4.48
1061.82	-8.78
1062.241	-5.28
1062.663	-5.28
1063.085	0.02
1063.506	2.62
1063.928	-8.98
1064.35	-2.88
1064.771	-11.88
1065.193	-2.78
1065.614	-7.48
1066.035	-1.78
1066.457	-10.88
1066.878	-1.08
1067.3	-8.28
1067.721	-5.68
1068.142	-2.18
1068.564	-9.58
1068.985	-6.88
1069.406	-10.58
1069.827	-5.18
1070.248	-0.18
1070.67	-6.48
1071.091	-6.18
1071.512	-5.58
1071.933	1.32
1072.354	-4.78
1072.775	-3.28
1073.196	-7.38
1073.617	-3.38
1074.038	-5.58
1074.459	-5.48
1074.88	-8.38
1075.3	1.62
1075.721	-7.98
1076.142	-0.28
1076.563	-4.58
1076.983	-14.68
1077.404	0.92
1077.825	-8.38
1078.246	-1.08
1078.666	-10.48
1079.087	-6.88
1079.507	-7.38
1079.928	-2.58
1080.348	0.52
1080.769	-9.88
1081.189	3.22
1081.61	-2.88
1082.03	6.12
1082.451	-10.88
1082.871	0.22
1083.291	-2.48
1083.711	-8.38
1084.132	-6.18
1084.552	-6.38
1084.972	-2.58
1085.392	-7.38
1085.813	-12.08
1086.233	-9.08
1086.653	-7.48
1087.073	-1.38
1087.493	-7.28
1087.913	-8.18
1088.333	-4.18
1088.753	0.32
1089.173	2.32
1089.593	-4.78
1090.013	-3.28
1090.433	-1.48
1090.852	0.92
1091.272	-2.38
1091.692	-6.88
1092.112	-2.68
1092.531	-4.98
1092.951	-14.88
1093.371	-3.38
1093.79	1.92
1094.21	-3.48
1094.63	-3.08
1095.049	-10.98
1095.469	1.42
1095.888	-1.58
1096.308	1.82
1096.727	2.42
1097.146	-1.68
1097.566	1.72
1097.985	-1.58
1098.405	2.22
1098.824	-0.58
1099.243	-9.98
1099.662	-6.98
1100.082	-0.18
1100.501	-0.18
1100.92	-4.48
1101.339	-3.38
1101.758	-6.48
