Data from 20171114-ORNL-Ar_H_NY_Subt18_08-08-09-105.txt Node
Date: Tue Nov 14 08:08:09 EST 2017
User: Ender
Spectrometer: HR+D1039
Trigger mode: 0
Integration Time (sec): 2.730000E-2
Scans to average: 10
Electric dark correction enabled: true
Nonlinearity correction enabled: false
Boxcar width: 0
XAxis mode: Wavelengths
Number of Pixels in Spectrum: 2048
>>>>>Begin Spectral Data<<<<<
187.836	-6.43
188.309	-6.43
188.782	-6.43
189.255	3.37
189.728	-1.73
190.201	6.87
190.674	0.97
191.147	-3.53
191.619	-5.23
192.092	0.97
192.565	3.17
193.038	-4.53
193.511	0.47
193.984	2.17
194.456	-0.83
194.929	0.67
195.402	-1.03
195.874	4.57
196.347	-2.13
196.82	-6.83
197.292	3.57
197.765	0.67
198.237	-4.03
198.71	2.27
199.182	0.27
199.655	2.47
200.127	3.67
200.6	-0.13
201.072	-2.73
201.544	0.07
202.017	-1.13
202.489	0.77
202.961	0.07
203.433	-1.93
203.906	-1.83
204.378	-3.73
204.85	-2.73
205.322	-3.23
205.794	1.97
206.266	2.87
206.739	-11.63
207.211	0.97
207.683	-5.73
208.155	-5.33
208.627	-10.33
209.099	-1.63
209.57	-10.73
210.042	-2.83
210.514	-1.63
210.986	-0.83
211.458	-6.03
211.93	-3.23
212.402	2.57
212.873	-2.93
213.345	-7.83
213.817	-11.53
214.288	-5.93
214.76	-8.13
215.232	-1.43
215.703	3.57
216.175	-2.23
216.646	-8.53
217.118	-4.63
217.589	-6.03
218.061	-0.63
218.532	-8.53
219.004	0.67
219.475	-5.63
219.946	-0.93
220.418	-1.33
220.889	-0.03
221.36	0.87
221.832	-1.63
222.303	-5.93
222.774	-5.33
223.245	-9.63
223.717	-5.43
224.188	-0.43
224.659	-6.43
225.13	-6.23
225.601	-0.83
226.072	1.97
226.543	-3.03
227.014	-0.13
227.485	-5.73
227.956	-4.73
228.427	-3.53
228.898	2.27
229.369	2.97
229.839	-7.13
230.31	-1.83
230.781	3.57
231.252	-0.03
231.722	-4.13
232.193	-2.53
232.664	1.27
233.135	3.07
233.605	0.37
234.076	-5.13
234.546	1.77
235.017	6.97
235.487	4.57
235.958	-4.23
236.428	-3.13
236.899	0.97
237.369	-1.43
237.84	-1.03
238.31	0.57
238.78	2.17
239.251	-0.33
239.721	3.27
240.191	1.27
240.662	-3.83
241.132	1.07
241.602	-0.93
242.072	-3.13
242.542	9.07
243.013	2.07
243.483	5.47
243.953	2.57
244.423	-2.13
244.893	-0.73
245.363	-1.33
245.833	6.07
246.303	-4.43
246.773	4.77
247.243	4.27
247.712	2.27
248.182	4.67
248.652	6.77
249.122	0.67
249.592	12.57
250.061	27.47
250.531	30.67
251.001	12.27
251.471	22.17
251.94	25.67
252.41	5.47
252.879	1.27
253.349	7.37
253.818	11.17
254.288	7.47
254.757	2.67
255.227	-1.03
255.696	2.97
256.166	6.67
256.635	5.57
257.105	6.87
257.574	0.87
258.043	8.57
258.513	12.17
258.982	13.07
259.451	10.67
259.92	13.07
260.389	7.77
260.859	15.57
261.328	11.67
261.797	17.77
262.266	6.77
262.735	14.07
263.204	5.17
263.673	0.17
264.142	8.47
264.611	-7.43
265.08	-1.03
265.549	1.87
266.018	6.37
266.487	-0.83
266.955	-5.83
267.424	-1.13
267.893	4.47
268.362	2.07
268.83	2.17
269.299	10.27
269.768	5.77
270.236	6.97
270.705	4.07
271.174	5.17
271.642	12.07
272.111	5.37
272.579	21.57
273.048	20.17
273.516	23.17
273.985	28.97
274.453	25.67
274.922	16.57
275.39	10.07
275.858	-4.13
276.327	12.37
276.795	16.57
277.263	3.37
277.731	26.87
278.2	50.57
278.668	49.27
279.136	43.67
279.604	16.97
280.072	19.37
280.54	12.27
281.008	4.47
281.477	11.67
281.945	13.07
282.413	13.87
282.881	16.67
283.348	8.97
283.816	11.87
284.284	11.07
284.752	24.17
285.22	9.57
285.688	13.27
286.156	19.27
286.623	42.57
287.091	45.97
287.559	23.47
288.026	12.17
288.494	11.87
288.962	8.37
289.429	8.97
289.897	17.57
290.364	10.67
290.832	16.47
291.3	18.07
291.767	21.07
292.234	21.37
292.702	12.87
293.169	17.17
293.637	21.87
294.104	19.17
294.571	8.97
295.039	19.27
295.506	15.67
295.973	18.47
296.44	15.37
296.908	14.27
297.375	16.87
297.842	13.67
298.309	15.37
298.776	11.17
299.243	19.37
299.71	13.57
300.177	20.77
300.644	18.27
301.111	21.77
301.578	28.27
302.045	21.67
302.512	22.77
302.979	23.07
303.446	20.47
303.913	19.27
304.379	16.77
304.846	27.67
305.313	22.97
305.78	25.87
306.246	22.47
306.713	27.17
307.18	27.37
307.646	29.27
308.113	30.37
308.579	26.07
309.046	26.07
309.512	26.07
309.979	18.27
310.445	22.37
310.912	25.37
311.378	31.87
311.845	25.57
312.311	30.37
312.777	30.97
313.244	29.07
313.71	38.47
314.176	33.77
314.642	32.97
315.109	31.07
315.575	32.47
316.041	33.97
316.507	34.07
316.973	40.07
317.439	33.97
317.905	26.27
318.371	42.67
318.837	35.77
319.303	32.77
319.769	31.47
320.235	34.47
320.701	36.87
321.167	37.47
321.633	40.07
322.099	34.87
322.564	40.47
323.03	43.47
323.496	38.57
323.962	41.47
324.427	41.77
324.893	40.47
325.359	31.97
325.824	34.77
326.29	37.07
326.755	39.77
327.221	44.27
327.686	33.97
328.152	47.17
328.617	39.17
329.083	46.57
329.548	49.37
330.014	45.07
330.479	39.27
330.944	40.87
331.41	44.77
331.875	46.97
332.34	41.27
332.805	42.07
333.271	46.17
333.736	46.77
334.201	47.47
334.666	52.27
335.131	49.47
335.596	54.37
336.061	49.17
336.526	43.97
336.991	44.37
337.456	54.77
337.921	48.97
338.386	43.57
338.851	55.57
339.316	48.47
339.781	42.07
340.246	57.37
340.711	44.77
341.175	49.07
341.64	49.67
342.105	48.87
342.569	49.27
343.034	59.47
343.499	52.47
343.963	48.17
344.428	58.97
344.893	62.37
345.357	57.87
345.822	61.47
346.286	68.67
346.751	73.87
347.215	68.47
347.679	74.77
348.144	101.57
348.608	84.47
349.073	72.07
349.537	73.77
350.001	75.57
350.465	87.37
350.93	79.47
351.394	81.97
351.858	69.77
352.322	84.77
352.786	85.87
353.25	94.67
353.715	112.27
354.179	102.37
354.643	121.77
355.107	126.27
355.571	105.87
356.035	103.47
356.498	117.87
356.962	132.27
357.426	139.37
357.89	121.87
358.354	89.27
358.818	82.27
359.281	78.77
359.745	76.97
360.209	78.17
360.673	79.27
361.136	76.27
361.6	86.17
362.064	85.37
362.527	81.67
362.991	85.17
363.454	80.37
363.918	78.57
364.381	77.27
364.845	77.97
365.308	79.57
365.772	82.27
366.235	89.57
366.698	85.77
367.162	86.27
367.625	90.37
368.088	87.07
368.552	90.97
369.015	91.47
369.478	99.27
369.941	99.47
370.404	98.97
370.867	102.47
371.331	112.37
371.794	116.87
372.257	115.37
372.72	119.27
373.183	112.57
373.646	107.17
374.109	105.57
374.572	108.37
375.035	108.57
375.497	109.77
375.96	110.27
376.423	109.17
376.886	119.27
377.349	105.07
377.811	111.07
378.274	113.77
378.737	114.07
379.199	115.87
379.662	115.37
380.125	119.77
380.587	120.27
381.05	131.47
381.512	131.07
381.975	143.87
382.437	129.47
382.9	131.87
383.362	132.77
383.825	144.27
384.287	154.97
384.75	142.27
385.212	143.77
385.674	152.57
386.136	139.77
386.599	129.07
387.061	127.17
387.523	129.97
387.985	134.07
388.447	145.27
388.91	148.27
389.372	164.27
389.834	158.57
390.296	145.97
390.758	164.27
391.22	176.07
391.682	215.37
392.144	307.97
392.606	237.17
393.068	168.37
393.529	180.37
393.991	156.27
394.453	154.87
394.915	162.17
395.377	199.17
395.838	221.87
396.3	160.97
396.762	143.57
397.224	135.27
397.685	129.67
398.147	128.27
398.608	130.17
399.07	136.67
399.531	144.07
399.993	146.67
400.454	152.47
400.916	142.77
401.377	149.77
401.839	154.67
402.3	156.57
402.762	168.27
403.223	184.57
403.684	171.67
404.145	165.57
404.607	163.47
405.068	171.37
405.529	172.57
405.99	189.77
406.451	180.47
406.913	181.87
407.374	166.87
407.835	170.27
408.296	175.87
408.757	180.27
409.218	194.57
409.679	185.27
410.14	182.47
410.601	186.67
411.062	185.77
411.522	194.17
411.983	202.77
412.444	185.27
412.905	183.67
413.366	180.77
413.826	201.67
414.287	225.07
414.748	271.27
415.208	252.57
415.669	218.17
416.13	209.67
416.59	205.57
417.051	213.47
417.511	220.77
417.972	236.47
418.432	246.17
418.893	294.87
419.353	259.07
419.814	201.67
420.274	189.47
420.734	187.67
421.195	208.27
421.655	195.67
422.115	195.37
422.576	198.57
423.036	207.87
423.496	207.57
423.956	227.37
424.416	240.77
424.876	271.17
425.336	261.87
425.797	274.77
426.257	260.57
426.717	248.47
427.177	243.17
427.637	233.37
428.097	242.57
428.556	261.47
429.016	277.77
429.476	279.37
429.936	284.47
430.396	285.97
430.856	303.77
431.315	330.57
431.775	357.17
432.235	384.97
432.694	361.57
433.154	376.57
433.614	403.57
434.073	346.57
434.533	296.37
434.993	280.07
435.452	290.47
435.912	306.97
436.371	292.77
436.83	287.77
437.29	279.47
437.749	257.57
438.209	255.47
438.668	281.17
439.127	295.37
439.587	262.97
440.046	254.47
440.505	267.77
440.964	280.77
441.424	330.87
441.883	327.37
442.342	264.37
442.801	226.27
443.26	229.57
443.719	234.37
444.178	225.77
444.637	216.07
445.096	231.17
445.555	234.17
446.014	224.27
446.473	233.37
446.932	249.17
447.391	233.47
447.849	227.77
448.308	218.27
448.767	233.17
449.226	241.97
449.685	240.77
450.143	261.37
450.602	245.07
451.061	229.17
451.519	238.27
451.978	240.17
452.436	238.17
452.895	247.27
453.353	266.77
453.812	247.87
454.27	245.37
454.729	250.27
455.187	252.87
455.646	254.37
456.104	247.17
456.562	268.37
457.021	272.37
457.479	267.77
457.937	283.07
458.395	267.67
458.854	252.07
459.312	255.27
459.77	288.27
460.228	258.97
460.686	251.77
461.144	260.47
461.602	252.07
462.06	248.77
462.518	257.17
462.976	252.27
463.434	259.47
463.892	257.87
464.35	270.77
464.808	288.47
465.266	265.77
465.724	274.37
466.181	272.87
466.639	276.67
467.097	292.37
467.555	307.37
468.012	310.97
468.47	313.77
468.928	328.97
469.385	349.97
469.843	357.67
470.3	353.07
470.758	371.07
471.215	388.67
471.673	418.27
472.13	410.47
472.588	428.67
473.045	381.27
473.503	391.67
473.96	398.07
474.417	411.27
474.875	431.07
475.332	488.37
475.789	486.57
476.246	479.17
476.704	495.17
477.161	523.87
477.618	531.17
478.075	568.87
478.532	633.77
478.989	694.67
479.446	822.77
479.903	782.47
480.36	821.77
480.817	880.27
481.274	986.27
481.731	1087.37
482.188	1176.07
482.645	1309.67
483.102	1409.87
483.558	1553.77
484.015	1602.27
484.472	1571.17
484.929	1512.87
485.385	1476.37
485.842	1435.47
486.299	1373.67
486.755	1310.07
487.212	1118.27
487.668	953.57
488.125	852.57
488.582	790.87
489.038	748.07
489.494	714.57
489.951	692.67
490.407	675.27
490.864	650.67
491.32	647.67
491.776	650.77
492.233	657.27
492.689	616.57
493.145	606.97
493.602	606.57
494.058	623.47
494.514	624.67
494.97	640.17
495.426	653.27
495.882	627.97
496.338	620.27
496.794	628.97
497.251	623.37
497.707	631.77
498.163	636.57
498.618	640.97
499.074	645.27
499.53	676.77
499.986	675.27
500.442	657.47
500.898	634.27
501.354	636.37
501.809	648.37
502.265	644.07
502.721	665.57
503.177	679.47
503.632	682.47
504.088	684.47
504.543	723.47
504.999	723.57
505.455	662.37
505.91	639.57
506.366	641.37
506.821	633.27
507.277	634.37
507.732	618.57
508.187	641.57
508.643	638.97
509.098	640.87
509.553	662.17
510.009	671.97
510.464	678.87
510.919	698.37
511.375	697.97
511.83	722.37
512.285	739.87
512.74	764.67
513.195	786.07
513.65	773.07
514.105	775.57
514.56	774.37
515.015	795.77
515.47	819.87
515.925	789.57
516.38	802.57
516.835	789.77
517.29	792.77
517.745	783.87
518.2	763.07
518.655	750.97
519.109	753.07
519.564	740.67
520.019	733.87
520.474	732.27
520.928	736.77
521.383	717.57
521.838	716.97
522.292	724.47
522.747	708.57
523.201	710.47
523.656	699.67
524.11	708.67
524.565	704.77
525.019	699.67
525.474	705.97
525.928	708.47
526.382	699.07
526.837	693.47
527.291	707.57
527.745	699.57
528.2	712.27
528.654	705.57
529.108	694.97
529.562	690.77
530.016	699.67
530.47	703.47
530.925	705.17
531.379	710.47
531.833	709.57
532.287	707.17
532.741	719.37
533.195	706.17
533.649	716.27
534.103	724.67
534.556	704.97
535.01	713.07
535.464	717.07
535.918	724.47
536.372	727.77
536.826	722.67
537.279	716.07
537.733	711.97
538.187	724.17
538.64	716.87
539.094	725.87
539.548	730.47
540.001	727.27
540.455	733.37
540.908	736.47
541.362	744.87
541.815	756.27
542.269	767.37
542.722	770.57
543.175	778.67
543.629	768.47
544.082	792.17
544.536	799.57
544.989	781.57
545.442	796.17
545.895	799.37
546.349	804.47
546.802	807.77
547.255	810.07
547.708	810.37
548.161	821.47
548.614	825.07
549.067	841.57
549.52	828.67
549.973	818.67
550.426	814.37
550.879	795.77
551.332	807.57
551.785	809.77
552.238	817.47
552.691	830.67
553.144	838.07
553.596	852.17
554.049	864.27
554.502	895.27
554.955	911.17
555.407	921.47
555.86	903.67
556.313	893.07
556.765	888.87
557.218	885.47
557.67	882.57
558.123	884.47
558.576	878.27
559.028	881.87
559.48	898.57
559.933	878.07
560.385	840.77
560.838	814.57
561.29	794.87
561.742	790.57
562.195	774.67
562.647	769.57
563.099	785.07
563.551	783.07
564.004	789.47
564.456	779.97
564.908	771.97
565.36	756.17
565.812	744.87
566.264	732.57
566.716	727.87
567.168	723.17
567.62	736.07
568.072	713.87
568.524	711.37
568.976	693.07
569.428	677.07
569.88	690.87
570.332	693.87
570.784	693.57
571.235	685.17
571.687	701.87
572.139	713.37
572.59	719.37
573.042	726.37
573.494	715.47
573.945	718.57
574.397	693.47
574.849	699.97
575.3	692.47
575.752	687.27
576.203	679.27
576.655	690.47
577.106	682.57
577.557	676.07
578.009	674.17
578.46	677.47
578.912	672.67
579.363	677.27
579.814	676.87
580.265	672.47
580.717	677.67
581.168	679.97
581.619	694.17
582.07	697.87
582.521	690.97
582.972	675.87
583.423	677.77
583.875	688.87
584.326	708.37
584.777	758.37
585.227	847.37
585.678	936.47
586.129	1019.07
586.58	1098.37
587.031	1176.57
587.482	1315.17
587.933	1504.97
588.384	1303.47
588.834	986.27
589.285	825.57
589.736	803.77
590.186	781.77
590.637	782.37
591.088	760.37
591.538	754.27
591.989	742.57
592.439	739.57
592.89	726.87
593.34	721.37
593.791	727.57
594.241	717.57
594.692	719.17
595.142	716.87
595.593	710.67
596.043	711.07
596.493	728.27
596.943	724.77
597.394	734.67
597.844	726.77
598.294	740.37
598.744	753.97
599.195	794.27
599.645	825.97
600.095	868.27
600.545	924.37
600.995	981.47
601.445	1024.57
601.895	1100.47
602.345	1154.38
602.795	1140.77
603.245	1082.37
603.695	1024.87
604.145	973.97
604.594	918.87
605.044	865.87
605.494	806.97
605.944	767.17
606.393	744.27
606.843	734.17
607.293	742.27
607.743	736.07
608.192	757.57
608.642	776.27
609.091	774.37
609.541	784.67
609.99	786.47
610.44	781.47
610.889	745.37
611.339	711.57
611.788	695.87
612.238	707.97
612.687	723.67
613.136	729.47
613.586	753.17
614.035	744.57
614.484	765.07
614.933	766.77
615.383	765.07
615.832	749.87
616.281	740.17
616.73	696.97
617.179	681.27
617.628	662.67
618.077	642.47
618.526	633.57
618.975	632.37
619.424	630.77
619.873	626.57
620.322	630.37
620.771	615.47
621.22	614.87
621.669	609.17
622.118	593.67
622.567	588.07
623.015	583.47
623.464	575.17
623.913	575.27
624.361	555.07
624.81	553.97
625.259	565.67
625.707	567.67
626.156	573.97
626.604	574.17
627.053	571.67
627.501	576.77
627.95	587.07
628.398	581.87
628.847	577.37
629.295	592.87
629.744	586.47
630.192	581.37
630.64	575.27
631.089	566.47
631.537	585.27
631.985	600.37
632.433	614.87
632.881	617.87
633.33	676.57
633.778	657.07
634.226	586.57
634.674	598.37
635.122	591.47
635.57	612.57
636.018	638.07
636.466	600.07
636.914	571.97
637.362	578.47
637.81	592.07
638.258	588.17
638.705	590.27
639.153	617.97
639.601	629.97
640.049	643.07
640.497	681.97
640.944	703.97
641.392	650.27
641.84	618.67
642.287	593.27
642.735	580.37
643.182	580.47
643.63	585.67
644.078	588.27
644.525	596.77
644.973	616.67
645.42	612.67
645.867	636.77
646.315	653.77
646.762	677.07
647.21	710.07
647.657	734.07
648.104	765.87
648.551	790.87
648.999	861.27
649.446	932.77
649.893	1032.27
650.34	1186.17
650.787	1432.38
651.234	1791.57
651.682	2317.77
652.129	3197.57
652.576	4621.57
653.023	6751.87
653.47	9251.17
653.917	11460.17
654.363	13128.27
654.81	14437.98
655.257	13703.98
655.704	9005.57
656.151	5333.87
656.598	3459.57
657.044	2438.37
657.491	1888.37
657.938	1504.97
658.385	1267.67
658.831	1091.07
659.278	974.47
659.724	868.37
660.171	797.97
660.618	734.37
661.064	700.27
661.511	679.87
661.957	666.37
662.404	658.17
662.85	666.97
663.296	638.77
663.743	562.87
664.189	550.67
664.635	545.87
665.082	543.37
665.528	539.87
665.974	527.67
666.42	521.37
666.867	517.87
667.313	505.27
667.759	495.67
668.205	491.97
668.651	489.57
669.097	498.77
669.543	508.37
669.989	485.27
670.435	453.57
670.881	455.77
671.327	453.67
671.773	487.47
672.219	496.07
672.665	550.77
673.11	598.97
673.556	636.67
674.002	679.87
674.448	659.07
674.893	558.87
675.339	478.87
675.785	448.67
676.23	424.07
676.676	394.37
677.122	386.17
677.567	380.67
678.013	367.57
678.458	364.77
678.904	364.67
679.349	356.97
679.794	355.17
680.24	357.87
680.685	347.77
681.131	355.07
681.576	360.07
682.021	361.57
682.466	358.57
682.912	362.17
683.357	355.67
683.802	393.77
684.247	415.47
684.692	463.07
685.137	507.17
685.583	539.47
686.028	567.97
686.473	527.27
686.918	455.77
687.363	423.67
687.807	401.07
688.252	368.37
688.697	358.37
689.142	344.07
689.587	337.37
690.032	337.97
690.477	352.87
690.921	353.77
691.366	394.87
691.811	411.97
692.255	444.07
692.7	470.47
693.145	512.27
693.589	726.17
694.034	1168.27
694.478	1584.17
694.923	1753.27
695.367	2278.77
695.812	1208.87
696.256	511.57
696.701	385.77
697.145	354.57
697.59	339.97
698.034	324.07
698.478	329.07
698.922	335.87
699.367	337.37
699.811	339.77
700.255	364.17
700.699	395.87
701.143	434.47
701.588	489.27
702.032	524.87
702.476	519.17
702.92	501.17
703.364	505.77
703.808	667.07
704.252	1085.47
704.696	1500.27
705.14	1691.38
705.584	2149.68
706.027	1076.27
706.471	537.17
706.915	409.77
707.359	354.97
707.803	325.17
708.246	315.87
708.69	317.17
709.134	319.57
709.577	313.67
710.021	313.17
710.465	315.17
710.908	306.87
711.352	301.07
711.795	317.27
712.239	353.47
712.682	391.17
713.126	420.77
713.569	472.67
714.012	373.37
714.456	328.77
714.899	299.57
715.342	284.47
715.786	270.47
716.229	265.37
716.672	262.47
717.115	255.37
717.558	248.87
718.002	263.27
718.445	267.87
718.888	296.67
719.331	296.17
719.774	317.67
720.217	309.17
720.66	287.37
721.103	269.47
721.546	258.37
721.989	258.47
722.432	241.17
722.874	248.37
723.317	229.27
723.76	244.87
724.203	272.57
724.645	328.97
725.088	465.07
725.531	579.57
725.974	650.57
726.416	554.47
726.859	311.87
727.301	250.07
727.744	242.37
728.187	242.57
728.629	240.97
729.071	244.37
729.514	261.97
729.956	281.87
730.399	293.07
730.841	295.87
731.283	271.97
731.726	271.67
732.168	261.07
732.61	275.77
733.053	292.57
733.495	324.77
733.937	361.57
734.379	407.77
734.821	444.07
735.263	551.17
735.705	866.77
736.148	1641.37
736.59	2647.67
737.032	3059.87
737.474	2479.07
737.916	821.77
738.357	436.27
738.799	329.27
739.241	295.97
739.683	292.37
740.125	303.97
740.567	297.77
741.008	327.27
741.45	321.87
741.892	326.77
742.334	357.67
742.775	361.47
743.217	343.97
743.658	273.27
744.1	261.37
744.542	269.87
744.983	309.77
745.425	343.97
745.866	351.47
746.307	289.27
746.749	289.87
747.19	334.47
747.632	476.87
748.073	929.87
748.514	1940.27
748.956	2888.87
749.397	3637.47
749.838	3019.77
750.279	2965.28
750.72	1505.17
751.162	551.47
751.603	332.87
752.044	258.57
752.485	220.97
752.926	213.67
753.367	204.77
753.808	199.97
754.249	190.87
754.69	181.07
755.131	183.07
755.572	184.47
756.013	182.67
756.453	187.07
756.894	190.27
757.335	188.17
757.776	200.17
758.216	200.27
758.657	204.37
759.098	201.87
759.538	229.27
759.979	273.27
760.42	389.47
760.86	738.77
761.301	1932.78
761.741	4550.38
762.182	6379.98
762.622	4531.57
763.063	1327.77
763.503	555.17
763.943	356.17
764.384	343.87
764.824	410.07
765.264	445.37
765.705	318.07
766.145	217.57
766.585	192.97
767.025	193.47
767.465	189.27
767.906	251.17
768.346	320.87
768.786	343.87
769.226	268.97
769.666	332.37
770.106	662.67
770.546	1629.07
770.986	2678.38
771.426	2360.27
771.866	797.27
772.306	337.57
772.745	218.97
773.185	180.37
773.625	175.77
774.065	169.97
774.505	201.37
774.944	319.47
775.384	695.37
775.824	1214.47
776.263	1167.17
776.703	511.57
777.142	224.97
777.582	162.77
778.021	139.47
778.461	138.97
778.9	147.97
779.34	136.67
779.779	115.27
780.219	114.27
780.658	115.97
781.097	113.17
781.537	111.27
781.976	109.77
782.415	104.17
782.855	108.67
783.294	109.27
783.733	113.57
784.172	112.27
784.611	112.37
785.05	116.47
785.489	115.87
785.928	124.17
786.367	123.27
786.806	123.97
787.245	138.57
787.684	144.47
788.123	149.77
788.562	139.07
789.001	121.37
789.44	121.77
789.879	119.97
790.317	113.27
790.756	130.67
791.195	127.27
791.634	151.07
792.072	214.17
792.511	388.87
792.95	1055.87
793.388	2177.07
793.827	1930.97
794.265	682.37
794.704	289.37
795.142	184.77
795.581	158.67
796.019	140.27
796.458	129.87
796.896	126.67
797.334	135.17
797.773	159.77
798.211	227.67
798.649	465.37
799.087	1054.67
799.526	1625.37
799.964	2055.17
800.402	2001.77
800.84	766.07
801.278	317.47
801.716	188.37
802.154	151.47
802.592	143.37
803.03	143.37
803.468	139.57
803.906	149.37
804.344	156.07
804.782	144.27
805.22	137.17
805.658	131.67
806.096	146.57
806.533	163.07
806.971	181.87
807.409	221.77
807.847	325.47
808.284	699.77
808.722	1952.17
809.16	3299.27
809.597	3216.77
810.035	5510.97
810.472	5706.07
810.91	2095.47
811.347	805.17
811.785	412.07
812.222	254.17
812.66	202.37
813.097	162.97
813.535	146.47
813.972	132.97
814.409	113.47
814.846	107.97
815.284	113.87
815.721	111.57
816.158	111.37
816.595	126.17
817.032	186.57
817.47	199.77
817.907	169.07
818.344	160.87
818.781	122.87
819.218	101.07
819.655	126.27
820.092	193.97
820.529	215.87
820.966	177.97
821.403	140.97
821.839	113.77
822.276	102.97
822.713	130.17
823.15	133.07
823.587	118.47
824.023	146.57
824.46	322.87
824.897	929.07
825.333	1357.17
825.77	585.77
826.206	232.07
826.643	134.57
827.08	99.47
827.516	94.07
827.953	81.27
828.389	81.07
828.825	77.97
829.262	72.37
829.698	67.57
830.135	69.97
830.571	59.27
831.007	68.57
831.443	66.47
831.88	60.07
832.316	71.47
832.752	60.77
833.188	65.67
833.624	66.47
834.06	72.57
834.497	69.57
834.933	74.37
835.369	77.57
835.805	69.37
836.241	73.97
836.677	83.47
837.112	93.97
837.548	107.97
837.984	141.77
838.42	205.97
838.856	514.57
839.292	1555.07
839.727	2288.27
840.163	1070.37
840.599	966.07
841.034	2079.17
841.47	2118.47
841.906	771.97
842.341	346.97
842.777	233.77
843.212	325.07
843.648	313.87
844.083	160.37
844.519	96.37
844.954	76.37
845.39	63.87
845.825	58.17
846.261	62.97
846.696	55.67
847.131	57.17
847.566	58.67
848.002	55.07
848.437	55.47
848.872	66.97
849.307	61.07
849.742	86.27
850.177	192.37
850.613	576.67
851.048	875.27
851.483	377.77
851.918	165.37
852.353	86.67
852.788	61.27
853.223	63.87
853.657	59.57
854.092	46.37
854.527	46.77
854.962	43.97
855.397	46.77
855.832	55.37
856.266	43.27
856.701	41.67
857.136	41.17
857.57	46.97
858.005	52.17
858.44	57.67
858.874	41.67
859.309	56.37
859.743	42.07
860.178	45.37
860.612	40.47
861.047	54.17
861.481	68.07
861.915	72.77
862.35	47.67
862.784	40.67
863.218	40.27
863.653	33.37
864.087	43.97
864.521	59.77
864.955	72.07
865.39	160.87
865.824	174.47
866.258	117.57
866.692	160.37
867.126	176.57
867.56	103.17
867.994	52.27
868.428	39.37
868.862	39.37
869.296	52.67
869.73	55.17
870.164	50.77
870.598	50.07
871.031	42.57
871.465	31.37
871.899	34.17
872.333	30.27
872.766	22.97
873.2	24.87
873.634	30.37
874.067	27.07
874.501	28.57
874.935	34.07
875.368	31.17
875.802	27.67
876.235	24.27
876.669	27.27
877.102	28.57
877.535	30.87
877.969	24.47
878.402	30.07
878.836	22.17
879.269	23.67
879.702	26.17
880.135	22.57
880.569	26.37
881.002	24.77
881.435	26.17
881.868	14.77
882.301	27.87
882.734	24.17
883.167	26.17
883.601	25.47
884.034	26.27
884.467	13.87
884.899	18.87
885.332	16.27
885.765	12.97
886.198	18.87
886.631	18.07
887.064	19.97
887.497	23.37
887.929	23.77
888.362	21.47
888.795	16.87
889.228	13.37
889.66	17.87
890.093	18.87
890.526	17.87
890.958	16.27
891.391	19.37
891.823	26.87
892.256	18.57
892.688	9.37
893.121	13.37
893.553	12.87
893.985	19.77
894.418	18.17
894.85	14.77
895.282	16.77
895.715	17.57
896.147	18.17
896.579	14.37
897.011	18.87
897.444	18.67
897.876	14.07
898.308	23.27
898.74	15.87
899.172	18.07
899.604	24.97
900.036	19.37
900.468	10.87
900.9	13.07
901.332	17.87
901.764	18.17
902.196	24.47
902.628	14.17
903.06	22.87
903.491	31.47
903.923	17.37
904.355	21.27
904.787	26.87
905.218	28.67
905.65	23.27
906.082	15.17
906.513	13.37
906.945	22.47
907.376	14.97
907.808	21.07
908.239	23.17
908.671	21.77
909.102	20.17
909.534	26.07
909.965	53.57
910.397	97.57
910.828	313.77
911.259	470.77
911.691	214.77
912.122	116.07
912.553	55.37
912.984	32.17
913.415	27.27
913.847	22.17
914.278	15.47
914.709	12.57
915.14	16.87
915.571	22.97
916.002	18.87
916.433	23.77
916.864	18.37
917.295	11.27
917.726	18.97
918.157	16.97
918.587	32.77
919.018	25.47
919.449	21.07
919.88	23.97
920.311	31.97
920.741	45.97
921.172	167.17
921.603	143.97
922.033	73.57
922.464	49.67
922.895	25.57
923.325	19.97
923.756	17.17
924.186	18.37
924.617	23.77
925.047	37.87
925.478	54.57
925.908	47.07
926.338	21.27
926.769	15.87
927.199	18.27
927.629	9.47
928.06	18.27
928.49	14.87
928.92	12.17
929.35	7.37
929.78	14.97
930.21	2.77
930.641	13.47
931.071	9.67
931.501	6.57
931.931	4.67
932.361	3.47
932.791	-0.13
933.221	2.57
933.651	10.17
934.08	17.17
934.51	32.07
934.94	12.27
935.37	12.07
935.8	13.07
936.229	6.77
936.659	14.37
937.089	4.37
937.519	12.07
937.948	20.97
938.378	13.37
938.807	8.37
939.237	3.67
939.666	12.47
940.096	2.07
940.525	2.97
940.955	1.17
941.384	2.47
941.814	-7.03
942.243	-2.83
942.672	3.57
943.102	-0.93
943.531	-1.33
943.96	6.87
944.39	2.87
944.819	-2.23
945.248	1.07
945.677	2.07
946.106	6.27
946.535	6.47
946.964	0.87
947.393	-0.63
947.822	0.67
948.251	-5.53
948.68	2.77
949.109	9.67
949.538	4.47
949.967	3.27
950.396	-0.23
950.825	-1.63
951.254	7.77
951.682	-1.53
952.111	1.37
952.54	1.77
952.969	-8.73
953.397	-4.43
953.826	5.87
954.254	-8.53
954.683	-0.93
955.112	-4.83
955.54	3.77
955.969	-0.63
956.397	-1.43
956.826	-6.23
957.254	4.17
957.682	0.37
958.111	4.07
958.539	-2.23
958.967	0.37
959.396	4.57
959.824	-2.23
960.252	2.77
960.68	-4.33
961.109	2.37
961.537	-8.93
961.965	-2.73
962.393	1.77
962.821	-2.73
963.249	-1.33
963.677	6.77
964.105	6.47
964.533	46.57
964.961	35.57
965.389	17.77
965.817	8.27
966.245	5.87
966.672	-1.23
967.1	-4.23
967.528	1.77
967.956	-0.43
968.383	5.37
968.811	-4.93
969.239	-5.23
969.666	-1.73
970.094	0.87
970.522	-4.23
970.949	-4.13
971.377	-7.03
971.804	-1.53
972.232	-1.03
972.659	1.97
973.087	1.47
973.514	-3.83
973.941	-0.03
974.369	1.27
974.796	-2.53
975.223	2.97
975.651	2.57
976.078	5.67
976.505	-1.63
976.932	0.87
977.359	10.57
977.786	12.77
978.214	-3.63
978.641	-3.53
979.068	-0.93
979.495	-3.13
979.922	-2.73
980.349	-8.13
980.776	0.57
981.202	2.27
981.629	3.17
982.056	3.77
982.483	-3.63
982.91	0.67
983.337	-6.83
983.763	5.27
984.19	-2.73
984.617	-3.03
985.043	-6.93
985.47	-5.53
985.897	-6.03
986.323	-12.23
986.75	5.97
987.176	2.37
987.603	1.37
988.029	2.47
988.456	-4.23
988.882	4.97
989.308	-1.63
989.735	-6.93
990.161	2.47
990.587	1.17
991.014	10.07
991.44	9.47
991.866	-4.93
992.292	-5.43
992.719	-1.33
993.145	3.17
993.571	-12.63
993.997	-4.03
994.423	-1.63
994.849	-2.73
995.275	4.57
995.701	7.37
996.127	0.77
996.553	3.37
996.979	-2.13
997.405	2.27
997.83	-3.63
998.256	-5.53
998.682	-4.23
999.108	-7.13
999.534	5.57
999.959	2.47
1000.385	-5.53
1000.811	-0.23
1001.236	-12.43
1001.662	-4.33
1002.087	-4.03
1002.513	-3.63
1002.938	0.17
1003.364	-3.73
1003.789	0.97
1004.215	1.07
1004.64	-3.23
1005.066	0.97
1005.491	1.17
1005.916	-1.83
1006.342	-0.33
1006.767	-8.63
1007.192	6.17
1007.617	-4.83
1008.042	-10.93
1008.468	-1.13
1008.893	-3.93
1009.318	-3.63
1009.743	0.67
1010.168	5.67
1010.593	0.77
1011.018	-9.23
1011.443	-2.93
1011.868	3.77
1012.293	-6.23
1012.718	-5.63
1013.143	-1.33
1013.567	-0.33
1013.992	1.27
1014.417	-14.63
1014.842	1.17
1015.267	-6.13
1015.691	-5.53
1016.116	12.17
1016.541	-1.93
1016.965	3.87
1017.39	0.87
1017.814	0.27
1018.239	-4.53
1018.663	-10.93
1019.088	-8.63
1019.512	-8.33
1019.937	0.87
1020.361	-0.73
1020.785	-9.13
1021.21	0.47
1021.634	-3.43
1022.058	-5.63
1022.483	5.07
1022.907	-2.23
1023.331	-6.63
1023.755	0.17
1024.179	-4.93
1024.604	-7.63
1025.028	-1.73
1025.452	-9.53
1025.876	-3.33
1026.3	5.77
1026.724	-7.33
1027.148	1.27
1027.572	-7.83
1027.996	-7.33
1028.42	-1.63
1028.843	-9.13
1029.267	-4.73
1029.691	-2.23
1030.115	-5.33
1030.539	-5.13
1030.962	-5.93
1031.386	-12.93
1031.81	-4.63
1032.233	-2.93
1032.657	-7.63
1033.08	0.47
1033.504	-3.13
1033.927	-10.23
1034.351	-5.33
1034.774	-5.53
1035.198	-1.53
1035.621	-5.43
1036.045	-11.53
1036.468	-2.63
1036.891	-10.73
1037.315	-6.33
1037.738	-11.63
1038.161	-4.83
1038.584	-8.93
1039.008	-9.03
1039.431	-1.53
1039.854	0.17
1040.277	-7.43
1040.7	-9.53
1041.123	0.67
1041.546	-11.03
1041.969	-5.73
1042.392	-1.13
1042.815	-3.03
1043.238	-1.73
1043.661	0.47
1044.084	-12.73
1044.507	-7.03
1044.93	-7.13
1045.352	-6.73
1045.775	-3.53
1046.198	0.27
1046.621	0.77
1047.043	0.67
1047.466	8.17
1047.889	-7.73
1048.311	-5.53
1048.734	-3.73
1049.156	-6.63
1049.579	-2.03
1050.001	-3.43
1050.424	3.97
1050.846	-5.03
1051.269	-2.73
1051.691	-6.43
1052.113	-8.03
1052.536	-0.23
1052.958	-7.63
1053.38	-1.33
1053.802	-6.93
1054.225	0.87
1054.647	-7.33
1055.069	-10.13
1055.491	3.17
1055.913	-9.03
1056.335	-1.73
1056.757	-0.13
1057.179	-9.93
1057.601	-5.33
1058.023	-2.73
1058.445	-3.73
1058.867	-4.93
1059.289	-2.63
1059.711	-7.53
1060.133	0.77
1060.555	1.17
1060.976	-6.33
1061.398	-5.33
1061.82	-3.63
1062.241	-6.13
1062.663	-8.03
1063.085	-8.53
1063.506	-4.43
1063.928	-6.33
1064.35	-4.13
1064.771	-13.93
1065.193	0.17
1065.614	-7.33
1066.035	-7.73
1066.457	-1.83
1066.878	-0.83
1067.3	-3.83
1067.721	-5.83
1068.142	-6.23
1068.564	-11.23
1068.985	-6.43
1069.406	-6.43
1069.827	-5.93
1070.248	-2.33
1070.67	-8.13
1071.091	-5.73
1071.512	-3.93
1071.933	-7.83
1072.354	-7.93
1072.775	-1.13
1073.196	-8.43
1073.617	-2.43
1074.038	-7.23
1074.459	-2.73
1074.88	-5.93
1075.3	-2.13
1075.721	-5.33
1076.142	-2.53
1076.563	-6.83
1076.983	-9.23
1077.404	-11.03
1077.825	-9.13
1078.246	-1.93
1078.666	-14.53
1079.087	-9.93
1079.507	-10.73
1079.928	0.37
1080.348	6.57
1080.769	-3.73
1081.189	0.07
1081.61	-0.63
1082.03	-9.93
1082.451	-6.43
1082.871	-2.73
1083.291	-8.83
1083.711	-10.23
1084.132	-10.63
1084.552	-7.43
1084.972	-0.43
1085.392	-13.73
1085.813	-10.83
1086.233	-3.93
1086.653	-9.23
1087.073	-5.23
1087.493	-5.43
1087.913	-5.03
1088.333	-7.73
1088.753	-3.93
1089.173	3.87
1089.593	0.27
1090.013	3.77
1090.433	-0.73
1090.852	-3.13
1091.272	-4.33
1091.692	0.87
1092.112	-3.93
1092.531	-7.43
1092.951	-13.03
1093.371	-8.03
1093.79	-4.93
1094.21	-5.23
1094.63	-8.13
1095.049	-2.23
1095.469	1.47
1095.888	-3.33
1096.308	3.77
1096.727	3.17
1097.146	-7.83
1097.566	1.57
1097.985	-3.93
1098.405	-4.43
1098.824	-3.23
1099.243	-2.03
1099.662	-8.13
1100.082	-6.83
1100.501	-1.03
1100.92	-8.23
1101.339	-4.33
1101.758	-12.13
