Data from 20171114-ORNL-Ar_H_NY_Subt18_08-07-20-516.txt Node
Date: Tue Nov 14 08:07:20 EST 2017
User: Ender
Spectrometer: HR+D1039
Trigger mode: 0
Integration Time (sec): 2.730000E-2
Scans to average: 10
Electric dark correction enabled: true
Nonlinearity correction enabled: false
Boxcar width: 0
XAxis mode: Wavelengths
Number of Pixels in Spectrum: 2048
>>>>>Begin Spectral Data<<<<<
187.836	-3.27
188.309	-3.27
188.782	-3.27
189.255	1.43
189.728	1.23
190.201	5.33
190.674	1.53
191.147	4.93
191.619	-5.37
192.092	-0.87
192.565	1.33
193.038	-3.87
193.511	-5.57
193.984	4.53
194.456	-0.67
194.929	3.03
195.402	-0.87
195.874	-2.87
196.347	-0.07
196.82	-6.47
197.292	10.33
197.765	2.23
198.237	-3.77
198.71	1.33
199.182	-4.77
199.655	0.13
200.127	-2.67
200.6	-4.87
201.072	-6.67
201.544	-4.17
202.017	-4.77
202.489	1.63
202.961	-2.47
203.433	-8.07
203.906	-4.47
204.378	-0.27
204.85	-5.27
205.322	-10.57
205.794	0.33
206.266	-4.47
206.739	-8.37
207.211	-0.17
207.683	-5.57
208.155	-3.47
208.627	-4.37
209.099	-0.87
209.57	-9.17
210.042	-1.27
210.514	-7.77
210.986	2.73
211.458	-7.87
211.93	-2.27
212.402	9.63
212.873	-5.37
213.345	-9.07
213.817	-11.37
214.288	-7.97
214.76	-9.77
215.232	-9.37
215.703	-5.77
216.175	-3.77
216.646	-4.37
217.118	-14.57
217.589	-2.87
218.061	0.13
218.532	-11.47
219.004	-3.77
219.475	-1.17
219.946	-4.87
220.418	-9.67
220.889	3.33
221.36	-1.57
221.832	-5.97
222.303	-9.67
222.774	-0.27
223.245	-9.07
223.717	-12.07
224.188	-5.07
224.659	-8.77
225.13	-8.57
225.601	-5.47
226.072	-4.97
226.543	-3.37
227.014	-1.07
227.485	-6.77
227.956	-1.67
228.427	-6.37
228.898	0.93
229.369	0.73
229.839	-6.37
230.31	-5.07
230.781	-5.37
231.252	0.83
231.722	-6.67
232.193	-4.97
232.664	-2.97
233.135	0.33
233.605	-4.97
234.076	-6.87
234.546	-4.37
235.017	-2.37
235.487	0.43
235.958	-7.57
236.428	-4.67
236.899	-1.87
237.369	0.53
237.84	-6.97
238.31	3.13
238.78	0.73
239.251	-6.77
239.721	-4.47
240.191	-8.47
240.662	-6.87
241.132	-0.37
241.602	-5.87
242.072	-3.57
242.542	2.53
243.013	-0.37
243.483	-3.27
243.953	0.43
244.423	-4.97
244.893	-5.07
245.363	-0.47
245.833	-0.47
246.303	-4.17
246.773	0.43
247.243	-1.57
247.712	-5.87
248.182	2.43
248.652	3.43
249.122	-4.87
249.592	-8.77
250.061	0.43
250.531	4.43
251.001	-4.77
251.471	4.53
251.94	0.53
252.41	-1.17
252.879	-1.77
253.349	7.93
253.818	1.53
254.288	3.53
254.757	-4.27
255.227	-2.47
255.696	0.93
256.166	4.33
256.635	3.93
257.105	2.83
257.574	-2.47
258.043	-0.77
258.513	-0.37
258.982	4.33
259.451	-11.67
259.92	0.93
260.389	-3.47
260.859	4.33
261.328	-2.77
261.797	2.73
262.266	-6.17
262.735	0.53
263.204	0.53
263.673	1.63
264.142	-1.47
264.611	-3.97
265.08	-1.47
265.549	-3.07
266.018	2.03
266.487	-5.17
266.955	-7.67
267.424	-3.87
267.893	0.63
268.362	-7.77
268.83	1.73
269.299	10.03
269.768	-4.07
270.236	3.93
270.705	-4.07
271.174	0.33
271.642	5.43
272.111	3.23
272.579	1.03
273.048	4.23
273.516	-0.37
273.985	4.83
274.453	5.43
274.922	10.83
275.39	8.73
275.858	-3.77
276.327	5.43
276.795	11.53
277.263	2.03
277.731	12.53
278.2	7.93
278.668	1.63
279.136	8.13
279.604	0.13
280.072	1.33
280.54	0.63
281.008	5.03
281.477	1.53
281.945	9.83
282.413	1.63
282.881	9.33
283.348	3.83
283.816	10.33
284.284	8.43
284.752	14.13
285.22	6.43
285.688	9.83
286.156	5.93
286.623	13.13
287.091	10.13
287.559	2.13
288.026	10.13
288.494	3.43
288.962	2.53
289.429	5.13
289.897	17.23
290.364	12.53
290.832	5.73
291.3	10.93
291.767	9.23
292.234	10.53
292.702	4.73
293.169	5.73
293.637	12.93
294.104	15.53
294.571	5.63
295.039	0.43
295.506	11.33
295.973	16.33
296.44	11.53
296.908	9.83
297.375	7.23
297.842	10.63
298.309	14.23
298.776	7.33
299.243	11.93
299.71	12.23
300.177	16.03
300.644	12.73
301.111	11.53
301.578	14.03
302.045	9.53
302.512	11.43
302.979	14.93
303.446	13.03
303.913	13.63
304.379	7.93
304.846	25.23
305.313	12.43
305.78	14.33
306.246	17.33
306.713	22.43
307.18	19.73
307.646	14.83
308.113	17.63
308.579	10.73
309.046	16.33
309.512	23.13
309.979	14.33
310.445	19.83
310.912	23.53
311.378	24.43
311.845	21.23
312.311	27.13
312.777	23.33
313.244	28.03
313.71	30.33
314.176	20.33
314.642	23.73
315.109	21.63
315.575	24.23
316.041	28.33
316.507	17.13
316.973	19.23
317.439	23.43
317.905	31.93
318.371	24.73
318.837	22.23
319.303	26.83
319.769	24.83
320.235	24.43
320.701	32.23
321.167	30.53
321.633	19.63
322.099	27.73
322.564	35.73
323.03	29.43
323.496	32.03
323.962	27.23
324.427	27.53
324.893	35.93
325.359	30.23
325.824	30.23
326.29	27.23
326.755	28.33
327.221	30.63
327.686	30.63
328.152	38.23
328.617	36.43
329.083	38.33
329.548	40.33
330.014	40.73
330.479	29.53
330.944	36.23
331.41	37.53
331.875	37.33
332.34	32.83
332.805	30.03
333.271	33.13
333.736	26.73
334.201	46.23
334.666	40.53
335.131	41.43
335.596	42.13
336.061	42.03
336.526	32.33
336.991	42.53
337.456	51.23
337.921	37.53
338.386	35.73
338.851	34.73
339.316	37.63
339.781	42.93
340.246	42.53
340.711	38.83
341.175	40.93
341.64	35.03
342.105	41.83
342.569	44.53
343.034	47.53
343.499	43.63
343.963	45.83
344.428	54.73
344.893	52.23
345.357	52.93
345.822	50.53
346.286	55.13
346.751	60.33
347.215	52.83
347.679	57.33
348.144	79.93
348.608	64.03
349.073	53.73
349.537	62.43
350.001	61.93
350.465	78.83
350.93	66.83
351.394	68.03
351.858	53.73
352.322	67.43
352.786	66.83
353.25	77.43
353.715	91.43
354.179	79.13
354.643	91.93
355.107	100.93
355.571	81.13
356.035	85.03
356.498	90.43
356.962	94.13
357.426	104.13
357.89	94.23
358.354	75.23
358.818	71.23
359.281	66.93
359.745	66.53
360.209	63.43
360.673	63.03
361.136	68.53
361.6	74.13
362.064	75.33
362.527	74.13
362.991	79.13
363.454	69.43
363.918	61.53
364.381	69.23
364.845	67.53
365.308	82.83
365.772	83.03
366.235	77.73
366.698	77.83
367.162	78.23
367.625	72.83
368.088	74.73
368.552	74.93
369.015	76.43
369.478	91.13
369.941	88.43
370.404	82.83
370.867	86.73
371.331	97.53
371.794	97.63
372.257	88.83
372.72	95.93
373.183	97.83
373.646	88.63
374.109	88.43
374.572	93.73
375.035	93.43
375.497	97.33
375.96	98.73
376.423	100.43
376.886	104.63
377.349	107.83
377.811	95.33
378.274	98.73
378.737	101.23
379.199	95.83
379.662	100.73
380.125	99.73
380.587	100.43
381.05	97.93
381.512	113.63
381.975	118.73
382.437	117.93
382.9	103.03
383.362	117.23
383.825	122.03
384.287	119.73
384.75	108.93
385.212	116.33
385.674	127.23
386.136	129.63
386.599	116.43
387.061	110.33
387.523	116.83
387.985	119.73
388.447	119.33
388.91	123.63
389.372	122.43
389.834	124.13
390.296	125.33
390.758	125.43
391.22	132.03
391.682	134.93
392.144	144.43
392.606	134.13
393.068	133.33
393.529	150.23
393.991	130.73
394.453	136.43
394.915	122.83
395.377	131.13
395.838	138.73
396.3	128.73
396.762	138.83
397.224	136.43
397.685	128.33
398.147	132.23
398.608	128.43
399.07	129.43
399.531	136.03
399.993	143.73
400.454	151.63
400.916	139.13
401.377	135.93
401.839	148.43
402.3	151.23
402.762	164.53
403.223	174.93
403.684	166.83
404.145	165.53
404.607	165.33
405.068	159.03
405.529	159.83
405.99	177.33
406.451	167.23
406.913	172.03
407.374	158.13
407.835	157.93
408.296	163.53
408.757	164.93
409.218	179.73
409.679	182.33
410.14	171.23
410.601	171.63
411.062	178.33
411.522	175.63
411.983	180.93
412.444	169.93
412.905	189.13
413.366	187.43
413.826	200.03
414.287	220.83
414.748	273.73
415.208	254.83
415.669	218.23
416.13	217.23
416.59	207.33
417.051	221.03
417.511	227.03
417.972	248.63
418.432	251.23
418.893	297.13
419.353	259.53
419.814	205.63
420.274	185.63
420.734	180.93
421.195	203.23
421.655	193.23
422.115	194.43
422.576	194.83
423.036	208.03
423.496	222.43
423.956	221.93
424.416	242.23
424.876	270.53
425.336	263.53
425.797	265.83
426.257	258.93
426.717	240.33
427.177	233.23
427.637	226.33
428.097	230.03
428.556	252.93
429.016	272.43
429.476	259.93
429.936	266.23
430.396	272.03
430.856	286.93
431.315	315.53
431.775	339.83
432.235	377.63
432.694	352.23
433.154	356.63
433.614	384.43
434.073	333.53
434.533	283.93
434.993	269.93
435.452	282.93
435.912	281.63
436.371	285.53
436.83	290.53
437.29	267.73
437.749	251.53
438.209	248.83
438.668	275.53
439.127	287.43
439.587	260.13
440.046	260.33
440.505	268.03
440.964	282.23
441.424	319.33
441.883	308.53
442.342	261.23
442.801	230.53
443.26	235.13
443.719	227.73
444.178	228.93
444.637	220.13
445.096	229.73
445.555	233.73
446.014	236.93
446.473	236.03
446.932	244.03
447.391	235.03
447.849	239.93
448.308	234.03
448.767	236.03
449.226	247.73
449.685	244.63
450.143	263.93
450.602	248.93
451.061	245.33
451.519	239.53
451.978	236.43
452.436	244.13
452.895	250.93
453.353	263.33
453.812	252.03
454.27	251.63
454.729	250.13
455.187	250.53
455.646	251.83
456.104	260.53
456.562	268.63
457.021	271.43
457.479	275.53
457.937	284.73
458.395	275.43
458.854	256.83
459.312	264.63
459.77	282.43
460.228	264.43
460.686	254.83
461.144	256.13
461.602	265.43
462.06	256.93
462.518	265.43
462.976	272.33
463.434	276.73
463.892	280.33
464.35	295.53
464.808	302.03
465.266	282.83
465.724	281.63
466.181	290.43
466.639	289.93
467.097	303.23
467.555	307.63
468.012	308.93
468.47	325.43
468.928	344.53
469.385	352.23
469.843	371.03
470.3	363.43
470.758	371.13
471.215	395.03
471.673	420.43
472.13	419.73
472.588	442.13
473.045	391.63
473.503	404.23
473.96	414.73
474.417	416.53
474.875	453.13
475.332	494.43
475.789	481.43
476.246	483.93
476.704	501.33
477.161	526.43
477.618	539.93
478.075	580.53
478.532	625.93
478.989	707.53
479.446	810.23
479.903	778.03
480.36	820.73
480.817	859.73
481.274	947.93
481.731	1040.03
482.188	1121.73
482.645	1242.73
483.102	1348.63
483.558	1456.93
484.015	1517.73
484.472	1473.53
484.929	1440.33
485.385	1384.33
485.842	1354.93
486.299	1314.03
486.755	1259.43
487.212	1081.23
487.668	932.73
488.125	866.53
488.582	795.93
489.038	753.43
489.494	729.73
489.951	709.73
490.407	694.33
490.864	668.93
491.32	657.13
491.776	676.63
492.233	671.93
492.689	647.73
493.145	633.23
493.602	625.93
494.058	632.03
494.514	637.73
494.97	666.53
495.426	669.33
495.882	640.93
496.338	640.33
496.794	655.73
497.251	641.73
497.707	667.53
498.163	660.13
498.618	665.63
499.074	665.53
499.53	698.63
499.986	695.73
500.442	678.93
500.898	652.03
501.354	640.53
501.809	646.53
502.265	650.53
502.721	666.73
503.177	671.93
503.632	668.33
504.088	687.03
504.543	706.33
504.999	720.33
505.455	685.43
505.91	665.53
506.366	667.23
506.821	666.13
507.277	664.63
507.732	669.63
508.187	654.93
508.643	680.43
509.098	683.03
509.553	688.33
510.009	701.73
510.464	710.73
510.919	726.83
511.375	737.23
511.83	745.53
512.285	757.43
512.74	795.13
513.195	825.63
513.65	806.43
514.105	806.43
514.56	815.03
515.015	826.53
515.47	835.63
515.925	821.13
516.38	828.73
516.835	831.13
517.29	820.73
517.745	813.43
518.2	801.83
518.655	790.13
519.109	786.63
519.564	775.53
520.019	768.43
520.474	759.23
520.928	762.73
521.383	754.73
521.838	749.43
522.292	740.83
522.747	755.73
523.201	743.93
523.656	737.83
524.11	727.83
524.565	737.03
525.019	726.33
525.474	741.03
525.928	730.63
526.382	737.23
526.837	734.83
527.291	740.23
527.745	740.43
528.2	745.03
528.654	726.93
529.108	730.13
529.562	723.03
530.016	728.43
530.47	722.33
530.925	721.63
531.379	727.73
531.833	737.73
532.287	740.43
532.741	735.13
533.195	733.43
533.649	752.03
534.103	749.43
534.556	737.53
535.01	745.53
535.464	735.43
535.918	748.93
536.372	750.23
536.826	757.23
537.279	740.83
537.733	736.53
538.187	749.13
538.64	743.63
539.094	765.03
539.548	767.93
540.001	761.53
540.455	767.13
540.908	768.33
541.362	783.33
541.815	785.03
542.269	796.43
542.722	801.43
543.175	808.13
543.629	813.23
544.082	817.93
544.536	820.73
544.989	822.73
545.442	830.63
545.895	845.93
546.349	835.43
546.802	838.23
547.255	838.63
547.708	843.13
548.161	853.93
548.614	870.03
549.067	871.63
549.52	861.53
549.973	849.73
550.426	854.13
550.879	843.43
551.332	839.03
551.785	851.33
552.238	853.53
552.691	868.03
553.144	877.13
553.596	894.13
554.049	896.63
554.502	945.63
554.955	964.23
555.407	969.33
555.86	946.43
556.313	946.53
556.765	926.33
557.218	927.53
557.67	924.93
558.123	919.63
558.576	911.33
559.028	917.03
559.48	934.93
559.933	912.73
560.385	879.33
560.838	846.43
561.29	829.83
561.742	818.23
562.195	814.63
562.647	804.73
563.099	815.03
563.551	812.33
564.004	822.33
564.456	810.73
564.908	798.33
565.36	779.13
565.812	763.53
566.264	751.73
566.716	746.13
567.168	742.43
567.62	754.43
568.072	737.53
568.524	723.13
568.976	727.03
569.428	714.93
569.88	705.03
570.332	710.93
570.784	718.83
571.235	722.83
571.687	737.13
572.139	746.13
572.59	740.83
573.042	738.53
573.494	750.33
573.945	742.23
574.397	719.73
574.849	722.83
575.3	736.63
575.752	715.73
576.203	702.53
576.655	720.03
577.106	696.83
577.557	698.03
578.009	707.83
578.46	702.33
578.912	704.03
579.363	698.03
579.814	700.63
580.265	687.93
580.717	699.13
581.168	708.03
581.619	702.33
582.07	703.93
582.521	705.13
582.972	703.23
583.423	716.13
583.875	705.53
584.326	711.93
584.777	732.03
585.227	745.13
585.678	763.83
586.129	782.53
586.58	798.03
587.031	823.03
587.482	865.23
587.933	893.73
588.384	860.03
588.834	827.43
589.285	806.93
589.736	808.73
590.186	801.13
590.637	792.03
591.088	778.73
591.538	766.13
591.989	762.63
592.439	763.53
592.89	742.93
593.34	732.23
593.791	730.33
594.241	720.23
594.692	731.63
595.142	728.53
595.593	722.43
596.043	736.53
596.493	734.53
596.943	740.63
597.394	754.93
597.844	755.63
598.294	763.83
598.744	781.43
599.195	811.43
599.645	855.13
600.095	897.23
600.545	959.73
600.995	1010.63
601.445	1065.83
601.895	1142.93
602.345	1185.53
602.795	1167.13
603.245	1110.23
603.695	1055.43
604.145	1003.83
604.594	953.03
605.044	900.63
605.494	838.53
605.944	789.53
606.393	774.73
606.843	751.53
607.293	756.33
607.743	753.33
608.192	775.33
608.642	777.73
609.091	790.83
609.541	789.63
609.99	791.23
610.44	795.23
610.889	736.33
611.339	720.93
611.788	697.43
612.238	715.73
612.687	731.23
613.136	724.23
613.586	733.23
614.035	725.13
614.484	738.53
614.933	740.93
615.383	737.63
615.832	725.23
616.281	732.73
616.73	698.53
617.179	680.33
617.628	675.93
618.077	659.63
618.526	646.93
618.975	639.33
619.424	632.83
619.873	641.13
620.322	631.13
620.771	629.33
621.22	629.03
621.669	602.73
622.118	602.73
622.567	603.33
623.015	588.83
623.464	588.03
623.913	579.93
624.361	575.93
624.81	567.23
625.259	565.13
625.707	571.83
626.156	576.03
626.604	587.23
627.053	588.13
627.501	582.33
627.95	591.73
628.398	599.43
628.847	589.43
629.295	591.43
629.744	594.73
630.192	581.83
630.64	581.23
631.089	562.73
631.537	563.03
631.985	554.43
632.433	542.73
632.881	546.83
633.33	548.63
633.778	549.63
634.226	541.43
634.674	559.53
635.122	563.43
635.57	574.43
636.018	575.43
636.466	582.83
636.914	578.13
637.362	595.93
637.81	603.83
638.258	589.93
638.705	603.33
639.153	626.23
639.601	645.33
640.049	664.13
640.497	706.53
640.944	727.03
641.392	662.73
641.84	635.63
642.287	598.73
642.735	576.53
643.182	578.03
643.63	582.33
644.078	578.03
644.525	585.43
644.973	598.13
645.42	610.13
645.867	635.73
646.315	658.53
646.762	670.73
647.21	701.93
647.657	722.33
648.104	751.43
648.551	774.63
648.999	827.43
649.446	916.53
649.893	983.03
650.34	1134.13
650.787	1345.03
651.234	1659.33
651.682	2132.33
652.129	2883.23
652.576	4127.83
653.023	6013.23
653.47	8134.73
653.917	10092.73
654.363	11617.43
654.81	12807.03
655.257	12153.33
655.704	8033.63
656.151	4824.73
656.598	3182.63
657.044	2269.73
657.491	1765.83
657.938	1419.93
658.385	1203.53
658.831	1051.73
659.278	944.33
659.724	845.83
660.171	791.53
660.618	726.43
661.064	693.33
661.511	668.33
661.957	660.23
662.404	645.43
662.85	660.43
663.296	626.93
663.743	571.03
664.189	552.93
664.635	539.13
665.082	553.13
665.528	541.43
665.974	523.43
666.42	522.23
666.867	513.33
667.313	504.53
667.759	488.83
668.205	462.93
668.651	461.83
669.097	462.63
669.543	449.23
669.989	464.23
670.435	460.93
670.881	470.13
671.327	472.53
671.773	487.13
672.219	510.03
672.665	565.53
673.11	609.73
673.556	657.13
674.002	692.73
674.448	679.93
674.893	573.93
675.339	490.63
675.785	454.23
676.23	433.93
676.676	412.43
677.122	392.83
677.567	381.03
678.013	380.03
678.458	375.73
678.904	378.43
679.349	361.83
679.794	364.23
680.24	366.23
680.685	365.53
681.131	363.63
681.576	370.23
682.021	365.03
682.466	365.73
682.912	359.93
683.357	376.53
683.802	398.03
684.247	422.93
684.692	474.83
685.137	522.73
685.583	562.43
686.028	590.03
686.473	543.33
686.918	473.73
687.363	447.43
687.807	403.43
688.252	385.03
688.697	369.43
689.142	357.43
689.587	347.03
690.032	338.83
690.477	357.43
690.921	365.93
691.366	398.13
691.811	417.63
692.255	450.63
692.7	470.13
693.145	525.63
693.589	732.13
694.034	1202.23
694.478	1622.23
694.923	1823.03
695.367	2374.73
695.812	1250.03
696.256	518.63
696.701	385.73
697.145	354.53
697.59	340.73
698.034	332.03
698.478	335.73
698.922	328.13
699.367	333.73
699.811	351.93
700.255	365.33
700.699	401.73
701.143	439.33
701.588	493.23
702.032	528.03
702.476	528.03
702.92	512.73
703.364	514.53
703.808	678.83
704.252	1093.03
704.696	1548.13
705.14	1749.73
705.584	2234.03
706.027	1127.73
706.471	551.83
706.915	411.63
707.359	369.93
707.803	336.53
708.246	325.03
708.69	332.93
709.134	334.43
709.577	321.03
710.021	332.53
710.465	313.73
710.908	309.23
711.352	315.43
711.795	327.53
712.239	361.43
712.682	402.43
713.126	432.63
713.569	478.73
714.012	368.83
714.456	310.63
714.899	301.63
715.342	284.53
715.786	263.73
716.229	263.73
716.672	261.73
717.115	259.33
717.558	270.73
718.002	262.23
718.445	270.03
718.888	296.23
719.331	304.63
719.774	325.63
720.217	315.33
720.66	298.53
721.103	278.83
721.546	264.73
721.989	257.43
722.432	240.63
722.874	253.43
723.317	235.13
723.76	244.63
724.203	264.83
724.645	321.63
725.088	465.93
725.531	608.43
725.974	672.83
726.416	573.83
726.859	320.43
727.301	262.93
727.744	244.13
728.187	238.13
728.629	251.63
729.071	260.43
729.514	270.03
729.956	282.13
730.399	292.73
730.841	305.63
731.283	275.93
731.726	282.73
732.168	275.83
732.61	283.13
733.053	298.33
733.495	334.53
733.937	369.63
734.379	422.33
734.821	465.03
735.263	578.13
735.705	902.93
736.148	1703.03
736.59	2740.53
737.032	3207.83
737.474	2606.13
737.916	861.63
738.357	449.93
738.799	347.33
739.241	317.03
739.683	296.73
740.125	301.63
740.567	314.73
741.008	332.03
741.45	334.03
741.892	333.33
742.334	364.43
742.775	375.53
743.217	359.93
743.658	285.23
744.1	262.43
744.542	285.13
744.983	329.23
745.425	354.43
745.866	368.73
746.307	285.53
746.749	287.23
747.19	333.33
747.632	485.63
748.073	945.03
748.514	1984.23
748.956	3028.73
749.397	3784.03
749.838	3142.33
750.279	3116.33
750.72	1585.73
751.162	581.73
751.603	339.13
752.044	265.63
752.485	222.43
752.926	218.53
753.367	211.13
753.808	202.43
754.249	199.93
754.69	195.33
755.131	193.53
755.572	186.43
756.013	187.53
756.453	187.43
756.894	198.63
757.335	194.83
757.776	204.03
758.216	204.73
758.657	202.63
759.098	206.23
759.538	234.13
759.979	281.53
760.42	393.13
760.86	747.03
761.301	1981.63
761.741	4740.03
762.182	6757.53
762.622	4775.13
763.063	1383.93
763.503	561.33
763.943	345.23
764.384	285.03
764.824	253.93
765.264	243.93
765.705	220.83
766.145	191.13
766.585	183.13
767.025	172.33
767.465	172.23
767.906	191.73
768.346	203.93
768.786	205.93
769.226	223.03
769.666	324.83
770.106	652.53
770.546	1655.13
770.986	2789.13
771.426	2485.73
771.866	829.03
772.306	342.63
772.745	211.73
773.185	172.53
773.625	172.53
774.065	155.73
774.505	165.83
774.944	211.83
775.384	373.23
775.824	620.53
776.263	603.63
776.703	288.33
777.142	162.23
777.582	138.33
778.021	129.33
778.461	129.73
778.9	129.83
779.34	126.33
779.779	123.83
780.219	108.23
780.658	107.83
781.097	107.83
781.537	119.83
781.976	109.83
782.415	116.13
782.855	103.73
783.294	113.73
783.733	103.03
784.172	110.33
784.611	106.23
785.05	108.13
785.489	116.13
785.928	121.43
786.367	124.53
786.806	119.23
787.245	132.83
787.684	132.83
788.123	154.93
788.562	140.63
789.001	129.73
789.44	128.03
789.879	124.33
790.317	126.43
790.756	135.13
791.195	133.43
791.634	153.83
792.072	211.43
792.511	389.43
792.95	1071.03
793.388	2239.93
793.827	1994.43
794.265	700.13
794.704	286.53
795.142	191.43
795.581	156.53
796.019	146.63
796.458	136.03
796.896	130.63
797.334	138.03
797.773	158.83
798.211	237.33
798.649	469.13
799.087	1081.73
799.526	1688.73
799.964	2129.73
800.402	2100.33
800.84	794.23
801.278	317.23
801.716	195.43
802.154	168.83
802.592	153.63
803.03	147.33
803.468	139.03
803.906	149.83
804.344	160.73
804.782	148.03
805.22	139.63
805.658	140.83
806.096	157.23
806.533	164.63
806.971	184.13
807.409	231.03
807.847	334.53
808.284	710.73
808.722	1993.63
809.16	3469.43
809.597	3349.33
810.035	5757.23
810.472	6077.93
810.91	2213.73
811.347	839.33
811.785	429.33
812.222	275.23
812.66	209.03
813.097	171.43
813.535	149.53
813.972	140.03
814.409	118.93
814.846	115.53
815.284	122.33
815.721	106.23
816.158	107.53
816.595	113.23
817.032	158.43
817.47	187.83
817.907	127.43
818.344	107.03
818.781	105.33
819.218	97.33
819.655	129.93
820.092	195.43
820.529	216.83
820.966	168.63
821.403	129.93
821.839	111.23
822.276	100.23
822.713	124.43
823.15	142.53
823.587	123.13
824.023	153.73
824.46	330.73
824.897	942.53
825.333	1415.43
825.77	614.93
826.206	240.53
826.643	145.03
827.08	101.23
827.516	86.53
827.953	80.93
828.389	85.73
828.825	74.13
829.262	67.13
829.698	65.43
830.135	63.03
830.571	62.63
831.007	63.93
831.443	66.83
831.88	62.43
832.316	65.13
832.752	63.83
833.188	68.63
833.624	64.73
834.06	65.33
834.497	72.13
834.933	77.23
835.369	85.43
835.805	73.33
836.241	80.53
836.677	86.53
837.112	96.33
837.548	112.33
837.984	141.43
838.42	215.93
838.856	534.93
839.292	1614.23
839.727	2416.73
840.163	1138.53
840.599	998.33
841.034	2157.83
841.47	2220.93
841.906	816.23
842.341	349.73
842.777	205.93
843.212	211.53
843.648	191.63
844.083	117.53
844.519	92.13
844.954	69.43
845.39	62.93
845.825	63.13
846.261	57.03
846.696	60.83
847.131	53.83
847.566	59.73
848.002	54.63
848.437	53.13
848.872	60.73
849.307	62.83
849.742	85.63
850.177	187.13
850.613	593.43
851.048	926.53
851.483	401.13
851.918	167.63
852.353	87.33
852.788	57.83
853.223	51.63
853.657	56.93
854.092	48.13
854.527	41.33
854.962	41.13
855.397	44.03
855.832	48.93
856.266	45.33
856.701	41.03
857.136	39.63
857.57	39.93
858.005	56.63
858.44	63.53
858.874	52.03
859.309	55.03
859.743	45.63
860.178	45.83
860.612	46.73
861.047	58.43
861.481	76.23
861.915	69.93
862.35	47.23
862.784	39.33
863.218	41.63
863.653	33.43
864.087	51.33
864.521	46.23
864.955	74.63
865.39	158.73
865.824	182.53
866.258	125.63
866.692	177.73
867.126	187.33
867.56	118.53
867.994	60.03
868.428	39.03
868.862	52.93
869.296	56.83
869.73	59.73
870.164	57.73
870.598	52.13
871.031	39.93
871.465	33.33
871.899	25.73
872.333	26.93
872.766	31.23
873.2	25.33
873.634	31.23
874.067	24.93
874.501	21.43
874.935	36.03
875.368	31.53
875.802	29.13
876.235	23.43
876.669	26.63
877.102	27.73
877.535	24.53
877.969	27.33
878.402	26.43
878.836	17.13
879.269	21.23
879.702	26.93
880.135	20.03
880.569	20.13
881.002	29.53
881.435	17.53
881.868	17.33
882.301	17.23
882.734	21.03
883.167	21.43
883.601	20.03
884.034	17.03
884.467	13.43
884.899	23.13
885.332	14.23
885.765	16.53
886.198	16.53
886.631	13.93
887.064	16.43
887.497	17.23
887.929	28.63
888.362	19.53
888.795	9.53
889.228	18.53
889.66	26.33
890.093	17.53
890.526	17.63
890.958	5.13
891.391	14.93
891.823	24.33
892.256	13.93
892.688	12.73
893.121	17.93
893.553	16.73
893.985	22.93
894.418	19.83
894.85	11.73
895.282	18.73
895.715	18.73
896.147	20.23
896.579	15.13
897.011	14.43
897.444	15.13
897.876	13.33
898.308	15.13
898.74	13.03
899.172	11.53
899.604	22.83
900.036	18.73
900.468	19.73
900.9	12.03
901.332	19.33
901.764	16.73
902.196	11.53
902.628	22.93
903.06	14.83
903.491	30.73
903.923	22.73
904.355	20.83
904.787	31.43
905.218	26.63
905.65	14.83
906.082	11.63
906.513	15.03
906.945	12.13
907.376	15.33
907.808	18.23
908.239	18.33
908.671	16.13
909.102	27.93
909.534	21.53
909.965	47.63
910.397	96.93
910.828	335.63
911.259	493.33
911.691	227.13
912.122	113.93
912.553	56.03
912.984	35.63
913.415	25.93
913.847	24.33
914.278	12.93
914.709	12.93
915.14	19.93
915.571	13.53
916.002	9.23
916.433	15.53
916.864	18.93
917.295	14.23
917.726	22.43
918.157	18.43
918.587	30.73
919.018	27.63
919.449	18.33
919.88	29.93
920.311	29.13
920.741	49.03
921.172	175.73
921.603	165.13
922.033	74.03
922.464	45.83
922.895	18.33
923.325	15.43
923.756	13.43
924.186	18.13
924.617	16.83
925.047	23.63
925.478	23.33
925.908	26.53
926.338	22.23
926.769	12.43
927.199	22.53
927.629	11.03
928.06	9.63
928.49	16.63
928.92	10.23
929.35	14.03
929.78	16.23
930.21	4.33
930.641	9.83
931.071	9.83
931.501	5.53
931.931	12.73
932.361	10.53
932.791	5.03
933.221	1.43
933.651	1.53
934.08	15.33
934.51	30.53
934.94	9.23
935.37	9.23
935.8	10.23
936.229	8.43
936.659	14.93
937.089	5.03
937.519	12.13
937.948	23.53
938.378	18.93
938.807	4.23
939.237	-3.37
939.666	6.03
940.096	-6.27
940.525	3.23
940.955	7.23
941.384	6.73
941.814	-5.27
942.243	1.73
942.672	5.13
943.102	-4.27
943.531	-5.47
943.96	6.43
944.39	2.33
944.819	-4.07
945.248	2.63
945.677	2.93
946.106	0.13
946.535	8.53
946.964	-0.37
947.393	1.33
947.822	-2.57
948.251	-2.17
948.68	6.13
949.109	-0.97
949.538	9.43
949.967	-1.47
950.396	0.33
950.825	-2.57
951.254	-5.17
951.682	-12.17
952.111	5.33
952.54	8.23
952.969	-3.17
953.397	-4.37
953.826	0.93
954.254	-5.77
954.683	2.23
955.112	-2.97
955.54	1.83
955.969	3.23
956.397	-5.67
956.826	-4.27
957.254	1.63
957.682	3.53
958.111	0.53
958.539	-2.87
958.967	1.83
959.396	-4.37
959.824	-0.77
960.252	-1.97
960.68	-7.47
961.109	2.83
961.537	-1.87
961.965	-0.47
962.393	-2.07
962.821	-5.47
963.249	0.53
963.677	1.33
964.105	6.83
964.533	48.93
964.961	45.53
965.389	25.93
965.817	0.23
966.245	2.03
966.672	2.83
967.1	-10.17
967.528	-0.47
967.956	0.73
968.383	0.13
968.811	-5.77
969.239	-0.07
969.666	-3.57
970.094	-4.97
970.522	-1.97
970.949	-3.07
971.377	-5.97
971.804	1.13
972.232	0.53
972.659	1.43
973.087	0.93
973.514	-2.27
973.941	-3.57
974.369	6.83
974.796	8.53
975.223	3.13
975.651	-2.57
976.078	8.33
976.505	0.23
976.932	-2.17
977.359	16.53
977.786	16.13
978.214	2.83
978.641	1.53
979.068	-0.27
979.495	1.33
979.922	3.43
980.349	-3.47
980.776	3.23
981.202	-4.07
981.629	2.43
982.056	5.03
982.483	-3.47
982.91	-0.97
983.337	-9.77
983.763	4.23
984.19	-5.17
984.617	-0.87
985.043	-7.07
985.47	-1.77
985.897	-5.67
986.323	-10.77
986.75	1.83
987.176	-4.27
987.603	1.63
988.029	6.03
988.456	-8.57
988.882	-0.17
989.308	-6.07
989.735	-4.47
990.161	7.43
990.587	-5.77
991.014	-2.27
991.44	3.83
991.866	-3.07
992.292	-4.77
992.719	-0.77
993.145	8.13
993.571	-0.17
993.997	-5.87
994.423	0.43
994.849	-6.87
995.275	-3.27
995.701	-1.67
996.127	-1.97
996.553	1.43
996.979	-7.97
997.405	-3.97
997.83	-6.87
998.256	-12.17
998.682	-12.07
999.108	-7.27
999.534	3.73
999.959	-4.57
1000.385	-3.47
1000.811	2.53
1001.236	-6.17
1001.662	-5.97
1002.087	-8.57
1002.513	-1.27
1002.938	6.63
1003.364	0.43
1003.789	1.63
1004.215	1.13
1004.64	-5.37
1005.066	1.83
1005.491	0.23
1005.916	-0.57
1006.342	1.23
1006.767	-3.67
1007.192	8.23
1007.617	-3.47
1008.042	-3.37
1008.468	-10.57
1008.893	-2.77
1009.318	1.83
1009.743	-6.77
1010.168	3.03
1010.593	-1.27
1011.018	-9.97
1011.443	-3.07
1011.868	2.53
1012.293	3.83
1012.718	-1.47
1013.143	5.13
1013.567	-0.57
1013.992	-4.57
1014.417	-12.17
1014.842	-1.27
1015.267	-0.77
1015.691	-2.87
1016.116	4.93
1016.541	-8.87
1016.965	3.03
1017.39	7.53
1017.814	3.13
1018.239	3.93
1018.663	-3.77
1019.088	-5.77
1019.512	-7.37
1019.937	-0.67
1020.361	-5.57
1020.785	-10.77
1021.21	-2.17
1021.634	-2.67
1022.058	-1.47
1022.483	3.73
1022.907	-2.17
1023.331	-1.97
1023.755	-3.67
1024.179	3.23
1024.604	-6.57
1025.028	-6.47
1025.452	-6.67
1025.876	1.83
1026.3	1.93
1026.724	-10.07
1027.148	-6.87
1027.572	-9.67
1027.996	-7.77
1028.42	-2.57
1028.843	-5.87
1029.267	-3.97
1029.691	-1.57
1030.115	-9.17
1030.539	-7.87
1030.962	-14.97
1031.386	-10.57
1031.81	-3.97
1032.233	-1.07
1032.657	-3.47
1033.08	0.13
1033.504	-2.97
1033.927	-8.57
1034.351	-3.07
1034.774	-6.67
1035.198	-5.87
1035.621	-1.97
1036.045	-8.77
1036.468	-4.17
1036.891	-7.17
1037.315	-10.27
1037.738	-7.77
1038.161	1.93
1038.584	0.73
1039.008	-7.97
1039.431	-8.37
1039.854	-3.27
1040.277	-8.47
1040.7	-10.87
1041.123	-5.07
1041.546	-8.17
1041.969	-5.57
1042.392	-5.97
1042.815	-0.17
1043.238	2.33
1043.661	2.43
1044.084	-6.47
1044.507	-2.87
1044.93	-1.07
1045.352	-7.07
1045.775	-1.67
1046.198	0.23
1046.621	-6.67
1047.043	-6.47
1047.466	8.73
1047.889	-4.87
1048.311	-7.97
1048.734	-4.17
1049.156	-6.97
1049.579	1.63
1050.001	2.33
1050.424	0.33
1050.846	-3.47
1051.269	-5.17
1051.691	-7.97
1052.113	-1.77
1052.536	-0.97
1052.958	-12.97
1053.38	-7.27
1053.802	-11.17
1054.225	2.83
1054.647	-9.07
1055.069	-8.67
1055.491	1.53
1055.913	-11.57
1056.335	-5.17
1056.757	0.83
1057.179	-5.27
1057.601	-4.37
1058.023	0.93
1058.445	-2.87
1058.867	-5.57
1059.289	-2.77
1059.711	-9.07
1060.133	-4.57
1060.555	-3.77
1060.976	-7.97
1061.398	-10.67
1061.82	-7.87
1062.241	-5.07
1062.663	-8.77
1063.085	-3.47
1063.506	3.53
1063.928	-2.67
1064.35	-5.27
1064.771	-10.47
1065.193	-5.07
1065.614	-11.57
1066.035	1.83
1066.457	-4.37
1066.878	-2.57
1067.3	-5.17
1067.721	-2.17
1068.142	-5.37
1068.564	2.33
1068.985	-1.57
1069.406	-8.07
1069.827	-2.37
1070.248	-2.87
1070.67	-4.17
1071.091	-8.67
1071.512	-1.17
1071.933	-9.47
1072.354	-10.47
1072.775	-0.67
1073.196	-10.07
1073.617	-7.97
1074.038	-7.47
1074.459	-2.17
1074.88	-4.47
1075.3	-3.47
1075.721	-5.87
1076.142	-3.57
1076.563	0.33
1076.983	-9.67
1077.404	-9.97
1077.825	-16.67
1078.246	-7.97
1078.666	-10.17
1079.087	-4.57
1079.507	-4.77
1079.928	-0.27
1080.348	-4.87
1080.769	-2.07
1081.189	-1.37
1081.61	-3.97
1082.03	1.43
1082.451	-7.07
1082.871	-7.67
1083.291	-7.77
1083.711	-8.87
1084.132	-4.27
1084.552	-4.27
1084.972	-8.47
1085.392	-14.07
1085.813	-8.87
1086.233	-10.07
1086.653	-6.37
1087.073	-2.67
1087.493	-6.97
1087.913	-6.57
1088.333	-8.97
1088.753	-4.57
1089.173	0.43
1089.593	-9.67
1090.013	-2.77
1090.433	-3.27
1090.852	2.23
1091.272	0.73
1091.692	-7.07
1092.112	-2.97
1092.531	-9.27
1092.951	-11.07
1093.371	-1.87
1093.79	1.63
1094.21	-7.17
1094.63	-7.17
1095.049	-4.77
1095.469	-5.27
1095.888	-5.27
1096.308	0.63
1096.727	5.43
1097.146	-8.27
1097.566	0.13
1097.985	-2.17
1098.405	-5.97
1098.824	-7.17
1099.243	-6.87
1099.662	-11.87
1100.082	-1.97
1100.501	-0.57
1100.92	-4.67
1101.339	-3.97
1101.758	-5.67
