Data from 20171114-ORNL-Ar_H_NY_Subt18_08-05-37-604.txt Node
Date: Tue Nov 14 08:05:37 EST 2017
User: Ender
Spectrometer: HR+D1039
Trigger mode: 0
Integration Time (sec): 2.730000E-2
Scans to average: 10
Electric dark correction enabled: true
Nonlinearity correction enabled: false
Boxcar width: 0
XAxis mode: Wavelengths
Number of Pixels in Spectrum: 2048
>>>>>Begin Spectral Data<<<<<
187.836	-3.14
188.309	-3.14
188.782	-3.14
189.255	0.06
189.728	3.36
190.201	4.46
190.674	-0.64
191.147	2.26
191.619	-9.14
192.092	-0.94
192.565	6.06
193.038	-3.24
193.511	2.16
193.984	-4.14
194.456	-2.64
194.929	3.06
195.402	-0.04
195.874	2.46
196.347	2.26
196.82	-2.54
197.292	2.96
197.765	-3.84
198.237	-7.74
198.71	4.76
199.182	-2.14
199.655	-2.14
200.127	-0.34
200.6	2.76
201.072	-4.04
201.544	-3.74
202.017	-0.94
202.489	1.26
202.961	-0.04
203.433	1.86
203.906	-2.54
204.378	-3.44
204.85	-4.64
205.322	-9.44
205.794	-4.34
206.266	-2.14
206.739	-5.24
207.211	0.16
207.683	-5.14
208.155	-2.34
208.627	-4.94
209.099	-3.94
209.57	-4.04
210.042	5.66
210.514	-2.84
210.986	0.76
211.458	-2.54
211.93	-3.24
212.402	4.96
212.873	-8.74
213.345	-9.04
213.817	-11.54
214.288	-9.64
214.76	-13.14
215.232	-3.24
215.703	-3.14
216.175	-2.74
216.646	1.26
217.118	-8.84
217.589	1.26
218.061	-1.24
218.532	-0.54
219.004	-3.74
219.475	-5.84
219.946	-6.34
220.418	-4.24
220.889	-1.34
221.36	-2.64
221.832	-6.74
222.303	0.06
222.774	1.16
223.245	-11.34
223.717	-7.14
224.188	-1.54
224.659	-7.64
225.13	-4.04
225.601	-1.64
226.072	1.76
226.543	0.16
227.014	8.76
227.485	1.56
227.956	-2.24
228.427	-1.94
228.898	1.76
229.369	4.86
229.839	-6.84
230.31	-7.44
230.781	3.66
231.252	-4.24
231.722	-3.34
232.193	-0.84
232.664	3.26
233.135	2.86
233.605	-1.94
234.076	-5.64
234.546	6.76
235.017	7.46
235.487	1.06
235.958	3.56
236.428	-1.94
236.899	8.56
237.369	4.76
237.84	-3.94
238.31	8.66
238.78	5.66
239.251	3.56
239.721	3.96
240.191	0.96
240.662	1.36
241.132	0.06
241.602	4.06
242.072	7.86
242.542	7.06
243.013	0.36
243.483	7.56
243.953	4.76
244.423	-0.24
244.893	-2.04
245.363	2.36
245.833	3.16
246.303	-7.24
246.773	6.36
247.243	5.56
247.712	5.76
248.182	12.66
248.652	10.36
249.122	2.36
249.592	9.36
250.061	19.76
250.531	35.06
251.001	16.06
251.471	24.16
251.94	19.96
252.41	13.86
252.879	3.66
253.349	14.46
253.818	11.76
254.288	5.36
254.757	1.96
255.227	4.26
255.696	4.26
256.166	7.56
256.635	11.96
257.105	10.16
257.574	5.66
258.043	10.06
258.513	7.06
258.982	22.36
259.451	8.76
259.92	9.96
260.389	9.26
260.859	23.26
261.328	12.56
261.797	20.66
262.266	10.66
262.735	15.86
263.204	7.16
263.673	2.36
264.142	7.06
264.611	-3.04
265.08	2.56
265.549	-0.54
266.018	8.26
266.487	3.56
266.955	-2.14
267.424	1.46
267.893	7.86
268.362	8.06
268.83	7.26
269.299	14.66
269.768	7.06
270.236	15.36
270.705	4.36
271.174	6.06
271.642	10.66
272.111	15.66
272.579	15.56
273.048	24.46
273.516	26.06
273.985	23.26
274.453	21.16
274.922	19.56
275.39	16.96
275.858	7.16
276.327	10.16
276.795	14.96
277.263	13.26
277.731	34.66
278.2	56.06
278.668	63.96
279.136	52.96
279.604	21.96
280.072	16.66
280.54	13.76
281.008	12.56
281.477	17.66
281.945	11.36
282.413	16.36
282.881	18.26
283.348	7.46
283.816	14.26
284.284	11.76
284.752	20.46
285.22	12.86
285.688	16.76
286.156	24.46
286.623	44.56
287.091	60.36
287.559	30.96
288.026	15.96
288.494	21.36
288.962	8.06
289.429	11.86
289.897	22.26
290.364	22.76
290.832	18.86
291.3	19.96
291.767	23.56
292.234	22.56
292.702	15.76
293.169	20.96
293.637	22.36
294.104	18.86
294.571	14.36
295.039	14.66
295.506	18.16
295.973	15.06
296.44	16.36
296.908	28.76
297.375	19.96
297.842	23.86
298.309	19.06
298.776	24.16
299.243	24.86
299.71	17.76
300.177	25.16
300.644	28.06
301.111	22.26
301.578	29.06
302.045	21.46
302.512	29.76
302.979	24.96
303.446	25.46
303.913	24.16
304.379	22.26
304.846	29.56
305.313	24.06
305.78	23.66
306.246	25.56
306.713	32.36
307.18	32.36
307.646	29.76
308.113	32.66
308.579	26.36
309.046	29.36
309.512	24.66
309.979	22.36
310.445	28.06
310.912	33.26
311.378	36.16
311.845	31.76
312.311	34.46
312.777	28.96
313.244	31.66
313.71	36.26
314.176	31.46
314.642	39.46
315.109	34.16
315.575	42.06
316.041	42.76
316.507	34.26
316.973	43.76
317.439	40.26
317.905	41.46
318.371	42.36
318.837	39.16
319.303	31.16
319.769	37.56
320.235	39.26
320.701	43.76
321.167	39.06
321.633	40.16
322.099	43.86
322.564	48.66
323.03	47.06
323.496	43.76
323.962	44.76
324.427	37.46
324.893	45.16
325.359	39.36
325.824	42.76
326.29	39.06
326.755	41.96
327.221	38.76
327.686	39.86
328.152	50.26
328.617	49.36
329.083	52.76
329.548	53.76
330.014	56.36
330.479	41.16
330.944	47.96
331.41	50.96
331.875	50.46
332.34	45.76
332.805	47.56
333.271	43.86
333.736	40.96
334.201	56.16
334.666	54.56
335.131	55.26
335.596	57.76
336.061	47.66
336.526	44.76
336.991	52.06
337.456	63.66
337.921	48.76
338.386	46.16
338.851	49.66
339.316	44.36
339.781	51.56
340.246	54.26
340.711	46.26
341.175	49.46
341.64	49.26
342.105	55.36
342.569	57.96
343.034	51.36
343.499	58.76
343.963	55.86
344.428	67.26
344.893	63.56
345.357	66.06
345.822	66.96
346.286	65.96
346.751	76.46
347.215	71.56
347.679	73.66
348.144	101.86
348.608	87.96
349.073	69.86
349.537	72.76
350.001	80.86
350.465	89.06
350.93	85.26
351.394	86.86
351.858	74.36
352.322	90.86
352.786	87.46
353.25	112.16
353.715	113.26
354.179	104.86
354.643	124.36
355.107	123.46
355.571	110.46
356.035	107.26
356.498	126.26
356.962	123.26
357.426	134.76
357.89	120.26
358.354	100.06
358.818	91.76
359.281	85.26
359.745	75.46
360.209	82.06
360.673	73.86
361.136	78.86
361.6	90.96
362.064	90.86
362.527	90.96
362.991	96.56
363.454	85.26
363.918	80.66
364.381	77.06
364.845	84.96
365.308	90.86
365.772	82.26
366.235	86.96
366.698	86.96
367.162	90.46
367.625	90.26
368.088	86.56
368.552	89.46
369.015	92.16
369.478	95.16
369.941	101.46
370.404	100.56
370.867	106.76
371.331	108.66
371.794	119.66
372.257	115.26
372.72	121.86
373.183	112.66
373.646	106.86
374.109	102.76
374.572	111.06
375.035	107.86
375.497	107.96
375.96	103.16
376.423	104.86
376.886	110.16
377.349	110.26
377.811	107.96
378.274	107.76
378.737	107.06
379.199	115.96
379.662	112.06
380.125	121.76
380.587	119.16
381.05	128.36
381.512	128.46
381.975	136.56
382.437	125.96
382.9	120.46
383.362	135.06
383.825	139.06
384.287	146.86
384.75	140.86
385.212	148.26
385.674	143.26
386.136	132.36
386.599	123.66
387.061	127.06
387.523	128.56
387.985	134.96
388.447	141.16
388.91	148.76
389.372	156.86
389.834	151.56
390.296	146.76
390.758	149.26
391.22	168.56
391.682	208.36
392.144	301.46
392.606	236.26
393.068	167.96
393.529	169.26
393.991	157.66
394.453	149.86
394.915	153.66
395.377	190.56
395.838	217.56
396.3	155.46
396.762	140.66
397.224	137.96
397.685	131.56
398.147	135.66
398.608	125.46
399.07	124.86
399.531	139.66
399.993	145.96
400.454	156.76
400.916	155.56
401.377	145.66
401.839	155.66
402.3	154.36
402.762	167.76
403.223	176.96
403.684	175.26
404.145	163.26
404.607	168.76
405.068	163.86
405.529	168.16
405.99	194.66
406.451	179.76
406.913	171.56
407.374	168.16
407.835	171.16
408.296	173.86
408.757	172.56
409.218	188.86
409.679	181.46
410.14	164.76
410.601	175.26
411.062	185.56
411.522	193.36
411.983	192.66
412.444	176.86
412.905	182.36
413.366	185.76
413.826	194.46
414.287	215.06
414.748	270.06
415.208	247.76
415.669	210.06
416.13	204.26
416.59	205.56
417.051	214.96
417.511	223.66
417.972	235.06
418.432	245.26
418.893	293.16
419.353	245.66
419.814	199.56
420.274	184.86
420.734	184.36
421.195	206.36
421.655	205.06
422.115	193.96
422.576	193.36
423.036	193.26
423.496	208.86
423.956	219.16
424.416	234.96
424.876	255.46
425.336	259.96
425.797	254.16
426.257	255.16
426.717	245.96
427.177	242.06
427.637	222.56
428.097	239.86
428.556	249.16
429.016	273.46
429.476	263.86
429.936	280.16
430.396	278.56
430.856	298.86
431.315	309.86
431.775	358.26
432.235	372.56
432.694	362.36
433.154	370.76
433.614	402.06
434.073	342.26
434.533	292.66
434.993	281.36
435.452	286.96
435.912	302.06
436.371	290.96
436.83	283.46
437.29	269.96
437.749	248.26
438.209	249.96
438.668	275.46
439.127	293.26
439.587	269.96
440.046	253.16
440.505	269.16
440.964	284.26
441.424	329.96
441.883	329.96
442.342	259.56
442.801	228.86
443.26	218.36
443.719	217.56
444.178	214.76
444.637	211.96
445.096	221.16
445.555	225.06
446.014	225.26
446.473	224.16
446.932	237.86
447.391	227.26
447.849	224.46
448.308	222.16
448.767	225.16
449.226	238.96
449.685	237.16
450.143	252.16
450.602	246.36
451.061	230.36
451.519	241.06
451.978	235.86
452.436	239.16
452.895	246.96
453.353	257.86
453.812	247.16
454.27	249.06
454.729	241.16
455.187	240.76
455.646	244.76
456.104	248.86
456.562	260.26
457.021	271.86
457.479	259.26
457.937	265.66
458.395	260.66
458.854	250.56
459.312	263.46
459.77	271.76
460.228	252.96
460.686	238.26
461.144	251.16
461.602	246.16
462.06	245.46
462.518	260.06
462.976	258.36
463.434	265.56
463.892	263.46
464.35	279.06
464.808	298.26
465.266	265.76
465.724	274.36
466.181	276.86
466.639	274.26
467.097	295.96
467.555	309.46
468.012	303.06
468.47	314.56
468.928	332.56
469.385	343.86
469.843	350.86
470.3	356.66
470.758	364.36
471.215	388.56
471.673	413.56
472.13	423.26
472.588	417.56
473.045	375.36
473.503	382.66
473.96	396.66
474.417	409.36
474.875	437.76
475.332	478.56
475.789	466.66
476.246	473.56
476.704	496.96
477.161	518.26
477.618	525.36
478.075	569.86
478.532	631.86
478.989	700.76
479.446	819.26
479.903	779.66
480.36	810.46
480.817	874.76
481.274	979.16
481.731	1086.16
482.188	1174.66
482.645	1301.96
483.102	1417.86
483.558	1551.26
484.015	1615.96
484.472	1588.66
484.929	1541.86
485.385	1482.96
485.842	1447.66
486.299	1375.86
486.755	1315.96
487.212	1099.36
487.668	924.56
488.125	871.26
488.582	786.66
489.038	759.86
489.494	731.36
489.951	699.96
490.407	672.46
490.864	671.16
491.32	656.66
491.776	663.16
492.233	649.46
492.689	621.86
493.145	609.26
493.602	612.36
494.058	623.56
494.514	620.26
494.97	647.76
495.426	665.26
495.882	623.66
496.338	626.66
496.794	638.76
497.251	632.36
497.707	639.36
498.163	651.56
498.618	661.26
499.074	661.66
499.53	695.76
499.986	688.36
500.442	662.26
500.898	641.96
501.354	646.56
501.809	648.26
502.265	647.16
502.721	666.66
503.177	682.26
503.632	673.76
504.088	680.36
504.543	719.56
504.999	718.26
505.455	675.76
505.91	644.26
506.366	655.26
506.821	627.36
507.277	623.46
507.732	630.46
508.187	637.56
508.643	640.56
509.098	644.86
509.553	666.66
510.009	668.46
510.464	668.76
510.919	706.36
511.375	710.56
511.83	714.26
512.285	736.86
512.74	769.16
513.195	796.66
513.65	781.16
514.105	775.26
514.56	796.16
515.015	801.76
515.47	826.26
515.925	802.66
516.38	806.96
516.835	802.86
517.29	795.96
517.745	778.96
518.2	771.86
518.655	761.36
519.109	754.26
519.564	754.66
520.019	736.96
520.474	730.36
520.928	730.66
521.383	728.16
521.838	726.56
522.292	724.26
522.747	721.46
523.201	712.36
523.656	713.66
524.11	700.06
524.565	701.26
525.019	689.76
525.474	714.16
525.928	708.56
526.382	700.26
526.837	709.56
527.291	702.26
527.745	699.46
528.2	707.16
528.654	703.46
529.108	689.16
529.562	694.96
530.016	698.56
530.47	697.36
530.925	710.46
531.379	709.86
531.833	717.06
532.287	719.16
532.741	708.26
533.195	714.36
533.649	723.66
534.103	729.26
534.556	725.46
535.01	725.76
535.464	722.96
535.918	732.66
536.372	727.86
536.826	732.86
537.279	723.16
537.733	727.36
538.187	727.86
538.64	719.66
539.094	733.36
539.548	734.16
540.001	733.86
540.455	727.76
540.908	736.86
541.362	744.36
541.815	748.56
542.269	771.16
542.722	764.96
543.175	782.96
543.629	783.16
544.082	797.96
544.536	791.36
544.989	799.56
545.442	801.66
545.895	796.56
546.349	793.16
546.802	794.66
547.255	800.06
547.708	807.66
548.161	818.46
548.614	829.26
549.067	837.56
549.52	834.06
549.973	815.36
550.426	819.36
550.879	816.06
551.332	813.36
551.785	824.06
552.238	818.96
552.691	833.76
553.144	839.76
553.596	851.46
554.049	877.96
554.502	902.76
554.955	925.46
555.407	911.46
555.86	917.56
556.313	896.86
556.765	885.46
557.218	897.46
557.67	898.36
558.123	885.06
558.576	887.96
559.028	891.66
559.48	885.86
559.933	881.66
560.385	849.86
560.838	802.56
561.29	792.16
561.742	782.26
562.195	770.16
562.647	769.06
563.099	786.86
563.551	784.76
564.004	794.36
564.456	777.96
564.908	769.86
565.36	753.06
565.812	739.36
566.264	737.66
566.716	727.46
567.168	717.36
567.62	730.66
568.072	704.36
568.524	699.66
568.976	692.46
569.428	680.26
569.88	677.56
570.332	687.26
570.784	689.56
571.235	685.16
571.687	698.06
572.139	710.56
572.59	713.16
573.042	714.56
573.494	721.06
573.945	712.86
574.397	693.56
574.849	694.16
575.3	701.26
575.752	677.56
576.203	684.96
576.655	698.86
577.106	674.06
577.557	676.06
578.009	668.26
578.46	674.06
578.912	650.06
579.363	673.96
579.814	675.06
580.265	662.66
580.717	668.56
581.168	673.26
581.619	685.76
582.07	684.16
582.521	678.26
582.972	673.86
583.423	678.06
583.875	689.46
584.326	697.16
584.777	733.46
585.227	813.86
585.678	896.46
586.129	981.46
586.58	1057.86
587.031	1142.96
587.482	1277.96
587.933	1456.16
588.384	1269.66
588.834	967.86
589.285	803.86
589.736	772.76
590.186	769.36
590.637	757.86
591.088	743.36
591.538	745.26
591.989	729.56
592.439	724.16
592.89	723.76
593.34	704.96
593.791	710.66
594.241	700.86
594.692	713.86
595.142	698.76
595.593	697.76
596.043	705.56
596.493	716.76
596.943	710.46
597.394	723.76
597.844	703.36
598.294	720.46
598.744	753.66
599.195	765.16
599.645	805.86
600.095	850.96
600.545	906.56
600.995	955.36
601.445	1021.06
601.895	1086.76
602.345	1122.56
602.795	1104.06
603.245	1063.16
603.695	1013.06
604.145	953.46
604.594	911.96
605.044	857.36
605.494	791.46
605.944	754.16
606.393	740.16
606.843	717.36
607.293	724.06
607.743	724.56
608.192	738.06
608.642	750.56
609.091	750.96
609.541	761.46
609.99	761.66
610.44	766.46
610.889	719.76
611.339	704.76
611.788	684.26
612.238	696.06
612.687	714.16
613.136	713.26
613.586	727.56
614.035	729.26
614.484	742.06
614.933	752.26
615.383	740.66
615.832	737.56
616.281	720.56
616.73	677.86
617.179	662.16
617.628	644.16
618.077	625.96
618.526	619.86
618.975	614.96
619.424	607.36
619.873	604.66
620.322	608.66
620.771	600.56
621.22	598.36
621.669	588.16
622.118	574.86
622.567	577.16
623.015	564.96
623.464	561.96
623.913	557.66
624.361	550.26
624.81	559.06
625.259	546.76
625.707	548.76
626.156	554.46
626.604	563.46
627.053	555.76
627.501	563.76
627.95	558.26
628.398	563.76
628.847	567.56
629.295	560.56
629.744	569.66
630.192	560.56
630.64	557.86
631.089	548.16
631.537	572.36
631.985	583.66
632.433	600.16
632.881	594.76
633.33	652.46
633.778	615.36
634.226	543.56
634.674	569.86
635.122	573.66
635.57	573.86
636.018	610.46
636.466	559.96
636.914	548.56
637.362	563.36
637.81	559.56
638.258	560.96
638.705	562.66
639.153	596.66
639.601	595.06
640.049	623.36
640.497	661.86
640.944	685.86
641.392	628.76
641.84	599.46
642.287	577.16
642.735	563.56
643.182	564.96
643.63	566.36
644.078	568.16
644.525	582.26
644.973	580.66
645.42	591.86
645.867	605.86
646.315	627.96
646.762	637.96
647.21	684.56
647.657	699.66
648.104	731.56
648.551	751.66
648.999	832.46
649.446	887.16
649.893	985.86
650.34	1135.76
650.787	1351.76
651.234	1672.86
651.682	2178.96
652.129	2979.76
652.576	4313.06
653.023	6355.96
653.47	8735.86
653.917	10918.76
654.363	12688.96
654.81	14067.36
655.257	13407.26
655.704	8775.56
656.151	5181.06
656.598	3360.76
657.044	2380.26
657.491	1831.36
657.938	1463.56
658.385	1227.46
658.831	1058.16
659.278	940.66
659.724	834.96
660.171	763.26
660.618	708.46
661.064	672.36
661.511	652.86
661.957	643.56
662.404	630.96
662.85	638.16
663.296	604.76
663.743	547.36
664.189	525.56
664.635	522.16
665.082	518.36
665.528	516.16
665.974	506.66
666.42	499.86
666.867	491.26
667.313	473.36
667.759	456.76
668.205	463.16
668.651	472.76
669.097	467.76
669.543	487.96
669.989	454.66
670.435	449.06
670.881	429.46
671.327	431.96
671.773	455.26
672.219	474.16
672.665	534.66
673.11	564.36
673.556	614.36
674.002	648.86
674.448	636.86
674.893	525.96
675.339	450.66
675.785	430.06
676.23	410.06
676.676	383.26
677.122	374.36
677.567	357.76
678.013	353.76
678.458	346.36
678.904	349.36
679.349	331.06
679.794	340.66
680.24	337.46
680.685	340.46
681.131	334.86
681.576	334.76
682.021	343.26
682.466	341.76
682.912	325.16
683.357	344.46
683.802	364.76
684.247	389.56
684.692	438.26
685.137	486.96
685.583	513.36
686.028	551.76
686.473	502.06
686.918	428.96
687.363	394.76
687.807	375.96
688.252	355.76
688.697	352.86
689.142	325.06
689.587	314.96
690.032	318.76
690.477	330.16
690.921	332.56
691.366	363.26
691.811	378.96
692.255	421.46
692.7	443.66
693.145	484.66
693.589	664.86
694.034	1082.06
694.478	1476.06
694.923	1681.36
695.367	2194.66
695.812	1155.96
696.256	487.46
696.701	354.36
697.145	332.46
697.59	321.46
698.034	312.76
698.478	321.36
698.922	317.26
699.367	315.66
699.811	323.16
700.255	345.36
700.699	368.86
701.143	413.06
701.588	457.76
702.032	503.86
702.476	495.26
702.92	470.16
703.364	473.66
703.808	602.56
704.252	984.16
704.696	1401.46
705.14	1617.86
705.584	2081.06
706.027	1040.56
706.471	500.06
706.915	386.96
707.359	337.26
707.803	308.66
708.246	295.36
708.69	298.76
709.134	298.56
709.577	299.76
710.021	306.26
710.465	291.26
710.908	282.96
711.352	288.86
711.795	305.06
712.239	338.86
712.682	369.96
713.126	404.36
713.569	443.56
714.012	356.16
714.456	313.76
714.899	287.66
715.342	262.06
715.786	251.86
716.229	249.76
716.672	245.96
717.115	243.76
717.558	235.46
718.002	242.56
718.445	252.06
718.888	277.36
719.331	280.66
719.774	298.86
720.217	297.66
720.66	280.86
721.103	260.96
721.546	245.56
721.989	239.76
722.432	221.76
722.874	227.56
723.317	223.16
723.76	228.06
724.203	242.96
724.645	302.76
725.088	418.96
725.531	532.06
725.974	630.46
726.416	524.56
726.859	299.26
727.301	237.76
727.744	234.96
728.187	229.06
728.629	238.06
729.071	239.06
729.514	245.96
729.956	248.96
730.399	273.36
730.841	285.36
731.283	264.96
731.726	260.16
732.168	253.66
732.61	257.56
733.053	274.36
733.495	298.46
733.937	337.56
734.379	386.06
734.821	413.36
735.263	524.86
735.705	789.36
736.148	1486.16
736.59	2451.66
737.032	2954.06
737.474	2397.76
737.916	773.66
738.357	410.26
738.799	311.56
739.241	289.46
739.683	272.76
740.125	278.36
740.567	282.06
741.008	300.16
741.45	303.96
741.892	299.86
742.334	332.86
742.775	344.06
743.217	328.66
743.658	257.36
744.1	244.86
744.542	252.16
744.983	294.16
745.425	325.06
745.866	333.96
746.307	265.36
746.749	277.46
747.19	315.16
747.632	433.66
748.073	824.36
748.514	1753.86
748.956	2743.46
749.397	3413.46
749.838	2830.06
750.279	2888.76
750.72	1455.26
751.162	524.66
751.603	302.06
752.044	237.26
752.485	210.86
752.926	204.86
753.367	197.56
753.808	192.06
754.249	184.46
754.69	183.26
755.131	175.46
755.572	177.26
756.013	168.06
756.453	185.76
756.894	184.36
757.335	190.56
757.776	186.36
758.216	186.36
758.657	184.96
759.098	192.16
759.538	211.36
759.979	258.36
760.42	359.26
760.86	655.36
761.301	1689.16
761.741	4169.66
762.182	6212.36
762.622	4411.66
763.063	1260.46
763.503	512.86
763.943	336.26
764.384	320.16
764.824	382.76
765.264	419.46
765.705	297.76
766.145	206.56
766.585	176.56
767.025	176.86
767.465	179.66
767.906	226.66
768.346	297.16
768.786	331.16
769.226	251.16
769.666	304.46
770.106	586.06
770.546	1452.66
770.986	2546.76
771.426	2312.46
771.866	759.76
772.306	319.76
772.745	205.56
773.185	166.26
773.625	164.46
774.065	169.36
774.505	191.76
774.944	285.76
775.384	620.56
775.824	1135.16
776.263	1129.66
776.703	472.56
777.142	214.66
777.582	150.76
778.021	131.46
778.461	132.46
778.9	131.16
779.34	127.76
779.779	113.46
780.219	102.96
780.658	106.66
781.097	110.36
781.537	107.46
781.976	105.36
782.415	99.26
782.855	101.46
783.294	97.96
783.733	99.46
784.172	104.36
784.611	100.76
785.05	101.26
785.489	106.46
785.928	115.86
786.367	121.66
786.806	114.16
787.245	125.76
787.684	136.96
788.123	145.46
788.562	132.66
789.001	130.16
789.44	123.06
789.879	118.36
790.317	108.66
790.756	120.06
791.195	124.26
791.634	142.56
792.072	191.16
792.511	338.06
792.95	939.06
793.388	2053.16
793.827	1884.06
794.265	646.66
794.704	272.76
795.142	181.06
795.581	150.76
796.019	127.86
796.458	123.66
796.896	112.86
797.334	120.76
797.773	148.46
798.211	204.66
798.649	412.66
799.087	963.16
799.526	1519.86
799.964	1918.56
800.402	1943.26
800.84	734.96
801.278	283.86
801.716	182.66
802.154	149.36
802.592	140.66
803.03	132.06
803.468	129.16
803.906	141.86
804.344	147.86
804.782	139.16
805.22	130.56
805.658	125.16
806.096	138.26
806.533	148.06
806.971	164.26
807.409	204.76
807.847	299.86
808.284	624.56
808.722	1753.56
809.16	3168.96
809.597	2959.46
810.035	5172.86
810.472	5645.06
810.91	2007.36
811.347	770.56
811.785	387.26
812.222	247.26
812.66	192.36
813.097	155.46
813.535	136.76
813.972	119.76
814.409	108.86
814.846	101.56
815.284	108.46
815.721	98.26
816.158	106.66
816.595	116.36
817.032	171.96
817.47	190.96
817.907	165.96
818.344	146.66
818.781	106.76
819.218	100.16
819.655	120.76
820.092	179.86
820.529	203.56
820.966	164.56
821.403	131.46
821.839	97.96
822.276	102.86
822.713	120.66
823.15	131.86
823.587	113.56
824.023	140.46
824.46	273.56
824.897	842.36
825.333	1304.06
825.77	566.56
826.206	222.86
826.643	127.66
827.08	100.66
827.516	87.96
827.953	73.66
828.389	73.56
828.825	64.76
829.262	63.46
829.698	60.06
830.135	55.46
830.571	55.96
831.007	62.36
831.443	64.86
831.88	65.16
832.316	62.06
832.752	62.36
833.188	61.76
833.624	58.66
834.06	61.66
834.497	62.66
834.933	65.16
835.369	67.76
835.805	60.76
836.241	75.06
836.677	75.86
837.112	89.26
837.548	97.26
837.984	130.16
838.42	196.56
838.856	459.36
839.292	1423.66
839.727	2232.76
840.163	1033.26
840.599	866.66
841.034	1936.06
841.47	2050.86
841.906	748.36
842.341	318.36
842.777	219.96
843.212	291.46
843.648	297.36
844.083	136.36
844.519	93.06
844.954	79.56
845.39	61.66
845.825	57.46
846.261	53.66
846.696	60.16
847.131	52.46
847.566	63.36
848.002	44.26
848.437	51.46
848.872	59.96
849.307	67.46
849.742	79.26
850.177	170.66
850.613	525.26
851.048	842.96
851.483	368.36
851.918	149.36
852.353	85.36
852.788	62.76
853.223	57.86
853.657	55.76
854.092	44.56
854.527	35.26
854.962	38.96
855.397	45.66
855.832	49.66
856.266	37.06
856.701	42.46
857.136	36.76
857.57	37.56
858.005	49.86
858.44	60.06
858.874	41.56
859.309	60.56
859.743	35.16
860.178	46.76
860.612	41.06
861.047	51.76
861.481	62.36
861.915	76.26
862.35	45.66
862.784	35.56
863.218	34.36
863.653	33.26
864.087	49.86
864.521	48.66
864.955	60.76
865.39	146.76
865.824	171.56
866.258	113.36
866.692	157.66
867.126	175.66
867.56	107.56
867.994	54.16
868.428	34.16
868.862	43.56
869.296	49.96
869.73	58.16
870.164	53.76
870.598	44.56
871.031	35.36
871.465	28.66
871.899	28.06
872.333	24.96
872.766	27.36
873.2	23.86
873.634	23.16
874.067	24.26
874.501	24.26
874.935	27.66
875.368	28.06
875.802	26.66
876.235	24.76
876.669	27.56
877.102	20.56
877.535	26.46
877.969	21.96
878.402	21.26
878.836	20.96
879.269	24.56
879.702	24.76
880.135	24.16
880.569	28.46
881.002	22.86
881.435	19.36
881.868	22.86
882.301	22.66
882.734	18.96
883.167	24.36
883.601	18.66
884.034	18.16
884.467	8.36
884.899	14.86
885.332	20.96
885.765	19.06
886.198	20.76
886.631	18.46
887.064	19.86
887.497	27.46
887.929	23.46
888.362	14.66
888.795	10.36
889.228	17.76
889.66	23.76
890.093	20.26
890.526	16.76
890.958	13.36
891.391	18.26
891.823	18.46
892.256	13.46
892.688	12.26
893.121	19.96
893.553	17.66
893.985	18.66
894.418	13.96
894.85	9.36
895.282	14.46
895.715	14.46
896.147	15.86
896.579	12.76
897.011	14.26
897.444	14.16
897.876	11.96
898.308	19.76
898.74	9.66
899.172	12.06
899.604	21.06
900.036	17.86
900.468	12.56
900.9	18.76
901.332	15.86
901.764	14.06
902.196	22.66
902.628	15.66
903.06	21.86
903.491	26.06
903.923	14.16
904.355	17.76
904.787	22.16
905.218	18.26
905.65	27.56
906.082	9.26
906.513	8.36
906.945	20.06
907.376	16.36
907.808	21.36
908.239	15.66
908.671	11.96
909.102	19.26
909.534	25.86
909.965	48.96
910.397	94.36
910.828	302.86
911.259	454.06
911.691	214.36
912.122	105.96
912.553	52.26
912.984	37.46
913.415	20.86
913.847	27.86
914.278	19.76
914.709	15.96
915.14	17.26
915.571	19.06
916.002	12.46
916.433	13.36
916.864	19.36
917.295	7.06
917.726	17.06
918.157	16.66
918.587	25.06
919.018	23.66
919.449	24.06
919.88	27.06
920.311	30.46
920.741	38.96
921.172	157.56
921.603	148.56
922.033	66.96
922.464	44.16
922.895	21.56
923.325	24.06
923.756	18.66
924.186	16.86
924.617	22.96
925.047	38.06
925.478	48.56
925.908	40.06
926.338	26.26
926.769	13.06
927.199	23.36
927.629	6.36
928.06	17.66
928.49	19.16
928.92	16.56
929.35	15.16
929.78	9.86
930.21	9.66
930.641	3.46
931.071	8.26
931.501	-1.34
931.931	6.96
932.361	12.66
932.791	10.16
933.221	7.66
933.651	5.96
934.08	13.76
934.51	24.96
934.94	7.06
935.37	3.96
935.8	9.86
936.229	5.36
936.659	10.56
937.089	3.46
937.519	16.86
937.948	24.76
938.378	14.86
938.807	4.96
939.237	2.26
939.666	7.06
940.096	0.06
940.525	3.16
940.955	-1.54
941.384	5.96
941.814	-4.14
942.243	-3.54
942.672	10.46
943.102	1.16
943.531	4.36
943.96	5.16
944.39	9.06
944.819	1.06
945.248	5.56
945.677	2.36
946.106	7.06
946.535	3.16
946.964	1.36
947.393	8.36
947.822	3.86
948.251	-5.14
948.68	5.66
949.109	3.06
949.538	3.96
949.967	0.26
950.396	1.16
950.825	-1.14
951.254	-0.74
951.682	-6.14
952.111	6.46
952.54	7.36
952.969	-6.34
953.397	-4.34
953.826	3.46
954.254	-2.94
954.683	4.96
955.112	-2.04
955.54	-2.74
955.969	5.46
956.397	2.16
956.826	-3.04
957.254	2.16
957.682	4.06
958.111	8.56
958.539	3.96
958.967	0.76
959.396	-1.24
959.824	6.56
960.252	5.76
960.68	-0.04
961.109	-4.04
961.537	-8.84
961.965	-3.14
962.393	-0.74
962.821	-3.74
963.249	-4.54
963.677	8.76
964.105	-1.04
964.533	39.96
964.961	42.86
965.389	17.96
965.817	13.66
966.245	5.26
966.672	2.46
967.1	-4.74
967.528	-0.54
967.956	-0.04
968.383	-1.54
968.811	-0.74
969.239	-0.94
969.666	-3.94
970.094	-1.84
970.522	1.86
970.949	-3.94
971.377	-3.84
971.804	-5.24
972.232	-0.14
972.659	0.46
973.087	-9.34
973.514	-3.04
973.941	-5.04
974.369	6.96
974.796	3.86
975.223	-3.74
975.651	-2.74
976.078	4.06
976.505	-3.44
976.932	4.16
977.359	8.86
977.786	12.86
978.214	-4.44
978.641	-0.44
979.068	-3.44
979.495	-0.74
979.922	-0.34
980.349	-0.34
980.776	3.86
981.202	-4.24
981.629	10.26
982.056	8.96
982.483	3.06
982.91	5.56
983.337	-2.84
983.763	3.46
984.19	-0.64
984.617	-3.54
985.043	0.86
985.47	-6.84
985.897	-6.04
986.323	-6.64
986.75	9.76
987.176	0.96
987.603	-0.94
988.029	3.16
988.456	-1.14
988.882	0.96
989.308	-1.24
989.735	-3.94
990.161	-1.14
990.587	0.46
991.014	-7.24
991.44	4.36
991.866	-0.64
992.292	-0.24
992.719	-3.44
993.145	2.46
993.571	-3.74
993.997	-7.24
994.423	1.96
994.849	-3.74
995.275	0.26
995.701	-1.14
996.127	-2.14
996.553	1.06
996.979	-7.04
997.405	-3.14
997.83	-3.04
998.256	-1.34
998.682	-4.04
999.108	-2.84
999.534	-5.14
999.959	-2.74
1000.385	0.16
1000.811	5.76
1001.236	-11.64
1001.662	-6.34
1002.087	-8.34
1002.513	-0.74
1002.938	-2.44
1003.364	-1.34
1003.789	-1.34
1004.215	2.16
1004.64	-4.54
1005.066	0.46
1005.491	0.06
1005.916	-3.34
1006.342	-6.04
1006.767	-4.74
1007.192	1.16
1007.617	2.16
1008.042	-10.64
1008.468	-5.24
1008.893	-5.54
1009.318	-1.04
1009.743	3.06
1010.168	2.86
1010.593	0.26
1011.018	-3.24
1011.443	4.26
1011.868	-1.84
1012.293	-1.54
1012.718	-1.94
1013.143	-2.54
1013.567	5.26
1013.992	-1.34
1014.417	-9.24
1014.842	2.66
1015.267	-1.64
1015.691	-2.54
1016.116	-0.64
1016.541	-3.34
1016.965	4.46
1017.39	4.76
1017.814	1.76
1018.239	2.86
1018.663	-9.34
1019.088	-9.14
1019.512	0.46
1019.937	-1.84
1020.361	-14.84
1020.785	-4.54
1021.21	-7.74
1021.634	-7.24
1022.058	-0.84
1022.483	2.96
1022.907	-7.64
1023.331	-4.84
1023.755	1.56
1024.179	-4.04
1024.604	-8.74
1025.028	-7.14
1025.452	-7.44
1025.876	0.66
1026.3	0.06
1026.724	-11.34
1027.148	-2.84
1027.572	-4.54
1027.996	-9.14
1028.42	-3.84
1028.843	-5.04
1029.267	-3.84
1029.691	-0.64
1030.115	-7.14
1030.539	-6.04
1030.962	-5.84
1031.386	-9.44
1031.81	-1.74
1032.233	-0.24
1032.657	-1.94
1033.08	-7.34
1033.504	-4.04
1033.927	-5.94
1034.351	-1.94
1034.774	0.96
1035.198	0.36
1035.621	-4.04
1036.045	-6.54
1036.468	1.36
1036.891	-3.64
1037.315	-6.94
1037.738	-8.54
1038.161	3.16
1038.584	-4.34
1039.008	-9.04
1039.431	-6.44
1039.854	-0.64
1040.277	-3.64
1040.7	-8.04
1041.123	5.86
1041.546	-2.24
1041.969	-1.44
1042.392	-5.24
1042.815	-1.34
1043.238	2.06
1043.661	-0.54
1044.084	-7.64
1044.507	-1.24
1044.93	-4.14
1045.352	-7.44
1045.775	2.16
1046.198	-4.64
1046.621	-0.04
1047.043	0.06
1047.466	4.16
1047.889	-1.44
1048.311	-8.14
1048.734	-1.34
1049.156	-6.94
1049.579	-0.04
1050.001	-5.94
1050.424	6.96
1050.846	-2.34
1051.269	2.06
1051.691	-6.04
1052.113	-4.04
1052.536	-4.24
1052.958	-3.84
1053.38	-6.34
1053.802	-14.24
1054.225	0.76
1054.647	-9.54
1055.069	-8.44
1055.491	2.56
1055.913	-11.64
1056.335	-2.14
1056.757	-8.94
1057.179	-2.84
1057.601	1.46
1058.023	-2.74
1058.445	0.66
1058.867	-1.14
1059.289	-5.94
1059.711	-8.24
1060.133	-1.74
1060.555	-3.94
1060.976	-3.74
1061.398	-9.44
1061.82	-7.84
1062.241	-3.84
1062.663	-12.34
1063.085	-5.94
1063.506	-2.24
1063.928	-3.54
1064.35	-4.24
1064.771	-11.44
1065.193	-5.24
1065.614	-8.64
1066.035	1.16
1066.457	-2.24
1066.878	-1.44
1067.3	-0.94
1067.721	2.26
1068.142	-6.34
1068.564	-1.54
1068.985	-3.24
1069.406	-7.94
1069.827	-9.04
1070.248	0.46
1070.67	-6.54
1071.091	-5.74
1071.512	-8.54
1071.933	-3.34
1072.354	-8.54
1072.775	-7.64
1073.196	-5.74
1073.617	-1.04
1074.038	-4.94
1074.459	-7.34
1074.88	-5.24
1075.3	0.16
1075.721	-3.94
1076.142	-0.94
1076.563	0.16
1076.983	-13.34
1077.404	-6.84
1077.825	-13.64
1078.246	-4.44
1078.666	-13.34
1079.087	-9.64
1079.507	-7.54
1079.928	-2.34
1080.348	-6.74
1080.769	-11.34
1081.189	0.76
1081.61	-5.14
1082.03	-2.54
1082.451	-3.24
1082.871	-0.44
1083.291	-5.14
1083.711	-5.54
1084.132	-0.94
1084.552	-4.44
1084.972	-0.34
1085.392	-13.64
1085.813	-11.44
1086.233	-5.34
1086.653	-3.84
1087.073	3.16
1087.493	-8.44
1087.913	-6.84
1088.333	-1.24
1088.753	-4.84
1089.173	3.96
1089.593	-2.74
1090.013	-0.64
1090.433	-1.94
1090.852	-9.84
1091.272	1.46
1091.692	-3.14
1092.112	-6.14
1092.531	-9.74
1092.951	-14.14
1093.371	-2.44
1093.79	1.46
1094.21	-4.24
1094.63	0.26
1095.049	-6.24
1095.469	-1.94
1095.888	-4.94
1096.308	2.16
1096.727	4.46
1097.146	-9.64
1097.566	-0.84
1097.985	-9.54
1098.405	-3.54
1098.824	-2.34
1099.243	-6.14
1099.662	-9.94
1100.082	-5.34
1100.501	-1.94
1100.92	-5.54
1101.339	-5.84
1101.758	-9.94
