Data from 20171114-ORNL-Ar_H_NY_Subt18_08-06-46-394.txt Node
Date: Tue Nov 14 08:06:46 EST 2017
User: Ender
Spectrometer: HR+D1039
Trigger mode: 0
Integration Time (sec): 2.730000E-2
Scans to average: 10
Electric dark correction enabled: true
Nonlinearity correction enabled: false
Boxcar width: 0
XAxis mode: Wavelengths
Number of Pixels in Spectrum: 2048
>>>>>Begin Spectral Data<<<<<
187.836	-0.59
188.309	-0.59
188.782	-0.59
189.255	-3.69
189.728	-1.49
190.201	4.01
190.674	0.91
191.147	5.21
191.619	-7.99
192.092	2.21
192.565	6.01
193.038	2.91
193.511	-4.59
193.984	-0.49
194.456	0.81
194.929	0.81
195.402	-3.79
195.874	-0.29
196.347	2.71
196.82	-2.79
197.292	6.11
197.765	-2.29
198.237	-4.69
198.71	5.31
199.182	-4.09
199.655	5.81
200.127	8.81
200.6	0.01
201.072	-1.29
201.544	-4.19
202.017	0.11
202.489	7.01
202.961	-3.39
203.433	-1.19
203.906	-1.09
204.378	-8.99
204.85	-6.29
205.322	-12.29
205.794	1.21
206.266	-0.49
206.739	-10.09
207.211	0.01
207.683	-10.29
208.155	0.81
208.627	-5.29
209.099	-0.09
209.57	-6.79
210.042	-8.39
210.514	-4.59
210.986	1.81
211.458	-6.09
211.93	0.01
212.402	1.31
212.873	-7.19
213.345	-2.59
213.817	-10.39
214.288	-1.99
214.76	-8.99
215.232	-4.19
215.703	2.41
216.175	-2.29
216.646	-5.09
217.118	-5.39
217.589	-7.59
218.061	2.51
218.532	-5.09
219.004	-0.79
219.475	-4.09
219.946	-2.49
220.418	-4.99
220.889	-3.19
221.36	2.21
221.832	-6.39
222.303	-2.39
222.774	2.91
223.245	-7.59
223.717	-5.79
224.188	-3.49
224.659	-11.59
225.13	-5.29
225.601	-0.79
226.072	1.51
226.543	0.71
227.014	0.41
227.485	-2.29
227.956	-3.99
228.427	0.11
228.898	-0.39
229.369	3.31
229.839	-7.39
230.31	-1.29
230.781	3.31
231.252	5.31
231.722	-4.69
232.193	-7.39
232.664	-1.49
233.135	-3.49
233.605	-10.09
234.076	-7.49
234.546	-0.69
235.017	2.41
235.487	-0.09
235.958	-1.39
236.428	-3.69
236.899	0.61
237.369	5.41
237.84	-4.69
238.31	5.11
238.78	-6.19
239.251	-7.19
239.721	-3.09
240.191	4.01
240.662	-4.59
241.132	1.41
241.602	-1.19
242.072	-5.59
242.542	6.41
243.013	1.41
243.483	4.61
243.953	1.51
244.423	-0.09
244.893	-1.49
245.363	0.21
245.833	-3.19
246.303	-4.19
246.773	4.51
247.243	0.81
247.712	0.71
248.182	2.21
248.652	4.01
249.122	-7.29
249.592	-0.49
250.061	3.21
250.531	15.31
251.001	7.11
251.471	3.21
251.94	9.21
252.41	3.51
252.879	-4.99
253.349	15.01
253.818	3.61
254.288	4.31
254.757	3.51
255.227	-4.69
255.696	-1.99
256.166	2.11
256.635	1.81
257.105	0.11
257.574	-0.39
258.043	-2.59
258.513	2.41
258.982	4.71
259.451	-3.49
259.92	5.01
260.389	-0.19
260.859	8.51
261.328	6.11
261.797	2.51
262.266	3.21
262.735	4.61
263.204	5.81
263.673	2.91
264.142	7.61
264.611	1.61
265.08	1.31
265.549	-0.69
266.018	3.41
266.487	-1.99
266.955	-2.89
267.424	-1.79
267.893	4.51
268.362	-3.89
268.83	5.61
269.299	12.01
269.768	4.91
270.236	7.31
270.705	1.71
271.174	2.71
271.642	5.11
272.111	5.01
272.579	-0.09
273.048	5.41
273.516	7.21
273.985	7.61
274.453	5.91
274.922	8.91
275.39	6.91
275.858	3.31
276.327	10.81
276.795	15.31
277.263	2.71
277.731	16.61
278.2	14.71
278.668	1.91
279.136	10.71
279.604	7.41
280.072	13.61
280.54	9.41
281.008	10.01
281.477	11.51
281.945	7.91
282.413	14.31
282.881	13.21
283.348	4.91
283.816	12.81
284.284	18.11
284.752	11.41
285.22	8.81
285.688	8.81
286.156	6.61
286.623	16.31
287.091	16.01
287.559	17.71
288.026	17.81
288.494	14.01
288.962	2.01
289.429	10.01
289.897	19.61
290.364	13.01
290.832	20.31
291.3	11.71
291.767	17.61
292.234	15.81
292.702	11.81
293.169	15.81
293.637	22.61
294.104	20.31
294.571	8.61
295.039	17.21
295.506	13.41
295.973	13.51
296.44	13.51
296.908	19.61
297.375	17.21
297.842	17.11
298.309	17.91
298.776	15.11
299.243	19.31
299.71	11.51
300.177	18.21
300.644	24.51
301.111	17.01
301.578	25.31
302.045	18.21
302.512	24.41
302.979	23.41
303.446	23.51
303.913	19.71
304.379	23.21
304.846	26.31
305.313	30.01
305.78	25.91
306.246	28.81
306.713	22.91
307.18	23.81
307.646	23.21
308.113	26.71
308.579	19.81
309.046	26.51
309.512	26.21
309.979	16.91
310.445	27.31
310.912	29.41
311.378	29.61
311.845	33.31
312.311	29.61
312.777	32.71
313.244	30.11
313.71	41.01
314.176	29.71
314.642	30.51
315.109	28.61
315.575	39.71
316.041	35.31
316.507	31.21
316.973	36.61
317.439	35.21
317.905	29.91
318.371	31.51
318.837	30.81
319.303	33.41
319.769	35.91
320.235	31.31
320.701	28.81
321.167	28.11
321.633	32.91
322.099	37.81
322.564	39.41
323.03	40.81
323.496	38.81
323.962	38.41
324.427	34.61
324.893	41.01
325.359	37.51
325.824	36.41
326.29	34.61
326.755	36.41
327.221	44.61
327.686	35.51
328.152	44.41
328.617	46.61
329.083	46.51
329.548	52.11
330.014	45.81
330.479	45.91
330.944	45.11
331.41	40.71
331.875	44.81
332.34	40.71
332.805	41.51
333.271	44.21
333.736	40.71
334.201	49.01
334.666	46.61
335.131	51.11
335.596	52.11
336.061	50.61
336.526	45.81
336.991	47.71
337.456	54.11
337.921	45.31
338.386	41.01
338.851	49.31
339.316	45.01
339.781	47.51
340.246	56.21
340.711	43.71
341.175	58.71
341.64	46.81
342.105	50.01
342.569	50.31
343.034	54.21
343.499	57.71
343.963	54.11
344.428	65.01
344.893	62.11
345.357	59.71
345.822	57.61
346.286	62.61
346.751	75.51
347.215	73.01
347.679	73.31
348.144	90.21
348.608	82.51
349.073	70.21
349.537	76.81
350.001	78.71
350.465	87.41
350.93	76.81
351.394	86.11
351.858	63.81
352.322	82.51
352.786	84.81
353.25	93.11
353.715	108.01
354.179	97.21
354.643	113.11
355.107	123.91
355.571	104.41
356.035	98.71
356.498	105.61
356.962	115.81
357.426	122.41
357.89	112.91
358.354	91.21
358.818	91.11
359.281	78.31
359.745	76.11
360.209	75.21
360.673	73.31
361.136	73.11
361.6	78.31
362.064	78.91
362.527	89.21
362.991	88.51
363.454	83.41
363.918	81.31
364.381	79.61
364.845	87.11
365.308	91.11
365.772	95.81
366.235	92.31
366.698	90.81
367.162	87.11
367.625	81.61
368.088	92.31
368.552	94.11
369.015	91.41
369.478	96.41
369.941	99.81
370.404	95.61
370.867	102.41
371.331	97.41
371.794	107.21
372.257	104.61
372.72	108.01
373.183	106.61
373.646	101.81
374.109	91.71
374.572	99.31
375.035	99.81
375.497	108.21
375.96	106.11
376.423	105.61
376.886	117.11
377.349	113.31
377.811	105.71
378.274	107.41
378.737	103.81
379.199	114.01
379.662	115.61
380.125	120.71
380.587	114.41
381.05	112.91
381.512	117.31
381.975	122.81
382.437	124.31
382.9	116.91
383.362	121.31
383.825	130.81
384.287	124.71
384.75	119.51
385.212	130.01
385.674	134.61
386.136	137.61
386.599	126.21
387.061	125.71
387.523	125.51
387.985	128.11
388.447	135.91
388.91	125.01
389.372	128.71
389.834	137.61
390.296	133.81
390.758	140.21
391.22	142.31
391.682	148.51
392.144	156.11
392.606	146.41
393.068	146.81
393.529	155.11
393.991	150.01
394.453	136.61
394.915	142.31
395.377	141.41
395.838	141.81
396.3	140.61
396.762	149.71
397.224	138.91
397.685	137.31
398.147	148.41
398.608	144.91
399.07	137.91
399.531	143.51
399.993	156.51
400.454	159.11
400.916	148.61
401.377	152.71
401.839	154.91
402.3	161.71
402.762	179.81
403.223	187.61
403.684	177.21
404.145	161.11
404.607	168.51
405.068	168.21
405.529	174.41
405.99	192.01
406.451	179.11
406.913	185.11
407.374	173.71
407.835	175.11
408.296	171.41
408.757	183.11
409.218	193.21
409.679	187.31
410.14	180.11
410.601	188.31
411.062	184.71
411.522	189.51
411.983	188.01
412.444	183.51
412.905	194.21
413.366	193.51
413.826	202.71
414.287	237.41
414.748	288.11
415.208	269.01
415.669	226.61
416.13	220.51
416.59	213.41
417.051	236.01
417.511	241.81
417.972	253.11
418.432	270.11
418.893	312.21
419.353	267.51
419.814	215.91
420.274	196.81
420.734	196.71
421.195	207.01
421.655	203.71
422.115	211.01
422.576	205.41
423.036	218.91
423.496	228.31
423.956	236.61
424.416	248.71
424.876	284.31
425.336	282.71
425.797	279.51
426.257	273.51
426.717	256.51
427.177	245.31
427.637	228.11
428.097	245.81
428.556	252.41
429.016	279.31
429.476	275.81
429.936	287.01
430.396	284.81
430.856	302.01
431.315	326.31
431.775	355.61
432.235	390.61
432.694	366.21
433.154	375.01
433.614	402.01
434.073	350.81
434.533	299.01
434.993	287.41
435.452	290.81
435.912	305.81
436.371	298.61
436.83	289.01
437.29	280.71
437.749	258.21
438.209	262.31
438.668	290.71
439.127	302.31
439.587	282.21
440.046	261.51
440.505	278.51
440.964	289.21
441.424	334.61
441.883	338.61
442.342	278.71
442.801	238.21
443.26	236.11
443.719	233.91
444.178	237.61
444.637	225.21
445.096	236.71
445.555	241.01
446.014	242.41
446.473	242.51
446.932	250.41
447.391	247.01
447.849	245.41
448.308	244.01
448.767	244.21
449.226	256.91
449.685	257.61
450.143	272.51
450.602	258.41
451.061	241.61
451.519	249.41
451.978	255.21
452.436	250.71
452.895	256.71
453.353	266.51
453.812	257.01
454.27	264.91
454.729	264.41
455.187	269.61
455.646	270.21
456.104	267.31
456.562	284.51
457.021	287.21
457.479	283.51
457.937	299.71
458.395	290.11
458.854	270.91
459.312	281.41
459.77	299.01
460.228	277.11
460.686	262.11
461.144	264.41
461.602	275.01
462.06	264.51
462.518	277.51
462.976	284.01
463.434	279.71
463.892	283.11
464.35	292.51
464.808	309.91
465.266	300.11
465.724	293.31
466.181	301.41
466.639	298.41
467.097	316.81
467.555	323.31
468.012	320.41
468.47	336.31
468.928	355.11
469.385	365.91
469.843	372.51
470.3	382.21
470.758	388.91
471.215	416.91
471.673	435.41
472.13	435.11
472.588	449.11
473.045	408.71
473.503	412.31
473.96	424.91
474.417	429.11
474.875	468.01
475.332	514.11
475.789	492.91
476.246	502.11
476.704	525.21
477.161	546.81
477.618	565.01
478.075	597.71
478.532	657.81
478.989	727.41
479.446	840.41
479.903	791.71
480.36	830.11
480.817	880.41
481.274	978.01
481.731	1081.11
482.188	1155.11
482.645	1283.91
483.102	1369.51
483.558	1507.91
484.015	1543.01
484.472	1491.71
484.929	1467.41
485.385	1432.11
485.842	1400.41
486.299	1355.21
486.755	1305.01
487.212	1107.91
487.668	954.11
488.125	872.41
488.582	818.31
489.038	786.61
489.494	745.21
489.951	715.91
490.407	701.81
490.864	682.41
491.32	681.91
491.776	685.91
492.233	681.51
492.689	654.01
493.145	648.81
493.602	643.71
494.058	658.81
494.514	660.11
494.97	680.81
495.426	698.41
495.882	675.11
496.338	652.01
496.794	672.51
497.251	658.71
497.707	671.81
498.163	682.41
498.618	690.91
499.074	687.61
499.53	710.61
499.986	720.81
500.442	694.41
500.898	666.91
501.354	666.51
501.809	676.81
502.265	675.51
502.721	680.41
503.177	691.11
503.632	689.91
504.088	696.91
504.543	714.31
504.999	747.01
505.455	704.11
505.91	686.11
506.366	688.01
506.821	680.41
507.277	673.61
507.732	683.91
508.187	678.11
508.643	693.71
509.098	695.21
509.553	711.71
510.009	725.11
510.464	727.81
510.919	744.91
511.375	749.81
511.83	752.31
512.285	785.91
512.74	816.71
513.195	834.11
513.65	827.41
514.105	834.01
514.56	825.71
515.015	855.01
515.47	861.21
515.925	849.51
516.38	838.41
516.835	848.41
517.29	837.41
517.745	843.01
518.2	825.21
518.655	813.61
519.109	795.31
519.564	785.91
520.019	784.21
520.474	776.71
520.928	777.71
521.383	773.21
521.838	769.71
522.292	765.31
522.747	764.21
523.201	761.91
523.656	752.21
524.11	746.61
524.565	749.61
525.019	745.01
525.474	752.21
525.928	747.61
526.382	740.61
526.837	759.51
527.291	760.71
527.745	749.01
528.2	759.81
528.654	746.01
529.108	740.41
529.562	734.21
530.016	737.81
530.47	742.71
530.925	740.31
531.379	738.61
531.833	762.91
532.287	751.71
532.741	750.31
533.195	752.71
533.649	763.91
534.103	774.91
534.556	763.31
535.01	763.51
535.464	758.81
535.918	767.21
536.372	773.91
536.826	763.81
537.279	754.81
537.733	769.81
538.187	771.51
538.64	768.41
539.094	773.71
539.548	788.01
540.001	782.51
540.455	780.31
540.908	795.81
541.362	796.81
541.815	793.81
542.269	816.01
542.722	814.51
543.175	824.71
543.629	826.11
544.082	848.81
544.536	855.41
544.989	851.21
545.442	856.11
545.895	844.61
546.349	852.91
546.802	855.21
547.255	852.51
547.708	867.41
548.161	877.91
548.614	893.71
549.067	887.11
549.52	882.31
549.973	874.81
550.426	870.41
550.879	867.21
551.332	863.71
551.785	866.71
552.238	878.51
552.691	884.11
553.144	900.11
553.596	911.41
554.049	935.51
554.502	965.01
554.955	995.81
555.407	975.11
555.86	969.31
556.313	964.51
556.765	952.91
557.218	945.61
557.67	954.91
558.123	949.21
558.576	942.51
559.028	944.01
559.48	959.91
559.933	937.31
560.385	904.71
560.838	872.01
561.29	849.71
561.742	858.11
562.195	831.41
562.647	820.91
563.099	837.41
563.551	834.71
564.004	844.41
564.456	832.01
564.908	810.81
565.36	801.51
565.812	778.41
566.264	774.91
566.716	769.91
567.168	750.91
567.62	764.31
568.072	760.01
568.524	749.61
568.976	735.61
569.428	726.81
569.88	725.01
570.332	736.51
570.784	740.81
571.235	731.61
571.687	758.71
572.139	742.61
572.59	766.61
573.042	759.21
573.494	759.01
573.945	761.71
574.397	738.91
574.849	745.91
575.3	738.71
575.752	738.61
576.203	731.91
576.655	744.91
577.106	716.91
577.557	710.41
578.009	719.01
578.46	713.21
578.912	716.41
579.363	710.41
579.814	729.11
580.265	713.31
580.717	725.71
581.168	709.81
581.619	735.01
582.07	724.41
582.521	729.11
582.972	719.01
583.423	719.11
583.875	718.01
584.326	726.11
584.777	746.91
585.227	765.51
585.678	784.41
586.129	795.71
586.58	809.51
587.031	834.91
587.482	874.21
587.933	900.21
588.384	878.21
588.834	846.11
589.285	833.91
589.736	829.31
590.186	821.31
590.637	817.51
591.088	801.51
591.538	778.71
591.989	778.11
592.439	774.11
592.89	765.51
593.34	758.31
593.791	753.51
594.241	746.41
594.692	735.21
595.142	739.81
595.593	746.11
596.043	759.81
596.493	748.61
596.943	758.31
597.394	770.81
597.844	755.41
598.294	777.51
598.744	807.81
599.195	836.21
599.645	888.11
600.095	923.91
600.545	979.11
600.995	1034.51
601.445	1088.81
601.895	1159.61
602.345	1214.71
602.795	1179.81
603.245	1143.71
603.695	1073.51
604.145	1015.11
604.594	974.91
605.044	930.81
605.494	857.51
605.944	802.31
606.393	789.41
606.843	772.91
607.293	772.71
607.743	778.61
608.192	794.11
608.642	790.11
609.091	805.31
609.541	813.31
609.99	821.01
610.44	799.31
610.889	761.21
611.339	728.21
611.788	725.31
612.238	727.91
612.687	740.81
613.136	732.41
613.586	745.31
614.035	740.61
614.484	747.31
614.933	748.01
615.383	747.41
615.832	750.21
616.281	740.11
616.73	700.41
617.179	679.81
617.628	682.71
618.077	670.61
618.526	667.21
618.975	648.61
619.424	652.31
619.873	651.71
620.322	662.91
620.771	634.31
621.22	629.31
621.669	630.21
622.118	621.71
622.567	615.51
623.015	601.91
623.464	601.71
623.913	584.71
624.361	582.31
624.81	583.81
625.259	587.91
625.707	589.71
626.156	591.41
626.604	604.91
627.053	602.51
627.501	599.71
627.95	607.11
628.398	619.11
628.847	599.41
629.295	607.31
629.744	597.81
630.192	601.41
630.64	591.71
631.089	577.21
631.537	574.11
631.985	573.01
632.433	557.71
632.881	550.61
633.33	560.31
633.778	559.41
634.226	550.11
634.674	569.31
635.122	568.01
635.57	581.21
636.018	587.01
636.466	592.11
636.914	581.81
637.362	593.61
637.81	601.81
638.258	613.31
638.705	605.81
639.153	652.11
639.601	647.81
640.049	685.11
640.497	711.21
640.944	745.31
641.392	681.71
641.84	651.01
642.287	616.81
642.735	597.11
643.182	591.41
643.63	594.71
644.078	590.21
644.525	598.81
644.973	614.91
645.42	621.71
645.867	639.71
646.315	660.91
646.762	682.31
647.21	713.51
647.657	728.41
648.104	768.61
648.551	797.81
648.999	848.51
649.446	925.61
649.893	1012.51
650.34	1148.81
650.787	1376.41
651.234	1692.51
651.682	2177.71
652.129	2952.41
652.576	4145.61
653.023	6064.11
653.47	8182.71
653.917	10217.51
654.363	11741.41
654.81	12958.41
655.257	12283.01
655.704	8121.41
656.151	4936.01
656.598	3234.01
657.044	2326.21
657.491	1804.71
657.938	1457.31
658.385	1228.91
658.831	1074.61
659.278	955.61
659.724	865.11
660.171	802.81
660.618	739.11
661.064	709.21
661.511	684.31
661.957	672.01
662.404	656.61
662.85	676.71
663.296	642.71
663.743	587.81
664.189	571.21
664.635	560.11
665.082	553.31
665.528	550.11
665.974	544.11
666.42	536.41
666.867	535.61
667.313	509.81
667.759	497.81
668.205	477.31
668.651	481.51
669.097	473.11
669.543	460.71
669.989	468.11
670.435	473.71
670.881	464.41
671.327	474.61
671.773	498.21
672.219	522.81
672.665	575.71
673.11	623.01
673.556	665.21
674.002	704.91
674.448	693.01
674.893	578.71
675.339	507.01
675.785	470.41
676.23	442.11
676.676	421.71
677.122	406.71
677.567	404.01
678.013	394.31
678.458	384.11
678.904	386.11
679.349	370.21
679.794	381.81
680.24	376.11
680.685	368.71
681.131	386.41
681.576	365.21
682.021	375.01
682.466	367.41
682.912	369.11
683.357	379.71
683.802	414.41
684.247	436.91
684.692	481.21
685.137	524.51
685.583	572.91
686.028	596.11
686.473	550.81
686.918	469.71
687.363	445.91
687.807	413.91
688.252	387.91
688.697	374.11
689.142	360.81
689.587	353.01
690.032	348.81
690.477	364.11
690.921	379.01
691.366	412.91
691.811	426.41
692.255	456.61
692.7	487.31
693.145	531.91
693.589	739.41
694.034	1199.91
694.478	1625.21
694.923	1844.91
695.367	2399.21
695.812	1274.11
696.256	533.51
696.701	388.41
697.145	362.51
697.59	346.51
698.034	333.61
698.478	348.31
698.922	344.11
699.367	341.81
699.811	356.71
700.255	375.81
700.699	408.61
701.143	443.21
701.588	496.01
702.032	544.71
702.476	551.91
702.92	517.41
703.364	530.01
703.808	680.21
704.252	1102.61
704.696	1536.61
705.14	1766.81
705.584	2259.31
706.027	1133.21
706.471	563.71
706.915	426.91
707.359	374.61
707.803	342.61
708.246	325.61
708.69	330.01
709.134	331.91
709.577	330.41
710.021	333.21
710.465	325.11
710.908	318.41
711.352	317.51
711.795	325.71
712.239	378.21
712.682	408.11
713.126	437.11
713.569	477.91
714.012	375.81
714.456	324.51
714.899	305.61
715.342	292.71
715.786	285.61
716.229	274.71
716.672	268.91
717.115	267.21
717.558	257.41
718.002	260.31
718.445	272.81
718.888	304.01
719.331	312.51
719.774	319.71
720.217	325.51
720.66	294.21
721.103	277.81
721.546	272.31
721.989	270.91
722.432	244.51
722.874	250.81
723.317	236.01
723.76	249.81
724.203	273.31
724.645	338.11
725.088	471.51
725.531	607.31
725.974	688.21
726.416	584.21
726.859	323.51
727.301	254.01
727.744	246.71
728.187	243.41
728.629	258.81
729.071	252.41
729.514	269.21
729.956	285.71
730.399	289.41
730.841	301.41
731.283	283.11
731.726	284.91
732.168	278.51
732.61	286.01
733.053	300.31
733.495	328.81
733.937	371.81
734.379	416.21
734.821	466.11
735.263	587.41
735.705	890.31
736.148	1690.61
736.59	2776.01
737.032	3248.21
737.474	2641.91
737.916	870.31
738.357	463.01
738.799	349.41
739.241	316.61
739.683	304.61
740.125	312.01
740.567	318.61
741.008	336.11
741.45	331.01
741.892	338.31
742.334	368.51
742.775	384.01
743.217	364.91
743.658	301.31
744.1	270.51
744.542	281.01
744.983	338.21
745.425	378.51
745.866	374.41
746.307	301.11
746.749	296.51
747.19	343.51
747.632	495.71
748.073	940.21
748.514	1989.81
748.956	3029.11
749.397	3803.91
749.838	3174.21
750.279	3146.91
750.72	1596.51
751.162	586.21
751.603	347.81
752.044	274.41
752.485	229.71
752.926	220.01
753.367	208.41
753.808	206.11
754.249	205.81
754.69	200.41
755.131	192.41
755.572	195.91
756.013	193.41
756.453	198.11
756.894	197.11
757.335	206.51
757.776	206.31
758.216	201.21
758.657	214.11
759.098	215.41
759.538	246.21
759.979	284.71
760.42	399.61
760.86	750.51
761.301	1949.11
761.741	4713.11
762.182	6821.31
762.622	4815.71
763.063	1388.21
763.503	568.01
763.943	352.11
764.384	289.61
764.824	269.41
765.264	249.81
765.705	221.31
766.145	201.21
766.585	189.71
767.025	175.01
767.465	171.11
767.906	190.41
768.346	211.21
768.786	218.01
769.226	234.61
769.666	321.01
770.106	656.61
770.546	1654.91
770.986	2799.51
771.426	2512.11
771.866	849.11
772.306	352.51
772.745	223.41
773.185	176.01
773.625	167.71
774.065	158.21
774.505	172.71
774.944	212.61
775.384	371.51
775.824	612.71
776.263	596.91
776.703	297.81
777.142	165.31
777.582	139.41
778.021	133.71
778.461	136.11
778.9	138.41
779.34	132.21
779.779	121.31
780.219	110.71
780.658	116.91
781.097	116.01
781.537	117.21
781.976	117.01
782.415	117.51
782.855	111.11
783.294	106.01
783.733	111.41
784.172	113.81
784.611	110.21
785.05	117.71
785.489	120.41
785.928	120.11
786.367	129.21
786.806	124.91
787.245	137.31
787.684	135.11
788.123	150.91
788.562	142.71
789.001	138.11
789.44	125.21
789.879	131.21
790.317	124.21
790.756	137.01
791.195	133.51
791.634	155.51
792.072	213.31
792.511	382.21
792.95	1076.11
793.388	2254.41
793.827	2030.41
794.265	706.21
794.704	295.41
795.142	191.51
795.581	161.91
796.019	142.31
796.458	135.71
796.896	131.91
797.334	146.71
797.773	167.31
798.211	241.41
798.649	469.41
799.087	1082.31
799.526	1701.61
799.964	2129.61
800.402	2130.21
800.84	810.11
801.278	323.21
801.716	200.71
802.154	165.71
802.592	156.21
803.03	147.01
803.468	141.81
803.906	149.11
804.344	153.31
804.782	149.71
805.22	137.81
805.658	146.61
806.096	156.41
806.533	167.41
806.971	187.41
807.409	236.71
807.847	350.51
808.284	710.01
808.722	1985.01
809.16	3510.31
809.597	3340.61
810.035	5738.71
810.472	6124.91
810.91	2232.31
811.347	851.91
811.785	432.61
812.222	279.81
812.66	208.41
813.097	179.01
813.535	158.51
813.972	139.61
814.409	130.01
814.846	112.61
815.284	113.11
815.721	103.91
816.158	111.11
816.595	119.11
817.032	164.41
817.47	188.61
817.907	146.61
818.344	106.71
818.781	105.91
819.218	103.11
819.655	139.31
820.092	205.91
820.529	238.91
820.966	184.51
821.403	134.91
821.839	106.51
822.276	101.91
822.713	131.91
823.15	147.01
823.587	128.01
824.023	155.51
824.46	325.61
824.897	950.11
825.333	1441.11
825.77	617.51
826.206	246.71
826.643	147.41
827.08	107.81
827.516	90.51
827.953	77.61
828.389	92.01
828.825	64.91
829.262	70.41
829.698	68.01
830.135	71.91
830.571	62.51
831.007	66.41
831.443	64.81
831.88	63.61
832.316	62.01
832.752	65.61
833.188	66.71
833.624	67.51
834.06	71.41
834.497	74.71
834.933	75.81
835.369	85.91
835.805	73.31
836.241	75.01
836.677	85.21
837.112	101.41
837.548	118.61
837.984	147.51
838.42	216.91
838.856	525.91
839.292	1607.11
839.727	2445.41
840.163	1142.81
840.599	989.91
841.034	2145.21
841.47	2254.81
841.906	823.31
842.341	353.71
842.777	217.61
843.212	208.81
843.648	198.41
844.083	121.81
844.519	87.31
844.954	80.21
845.39	61.51
845.825	60.11
846.261	58.81
846.696	53.91
847.131	54.91
847.566	61.11
848.002	53.71
848.437	54.91
848.872	64.11
849.307	65.61
849.742	89.01
850.177	196.01
850.613	593.91
851.048	929.41
851.483	412.31
851.918	173.21
852.353	88.21
852.788	54.41
853.223	51.71
853.657	50.71
854.092	49.81
854.527	45.01
854.962	44.71
855.397	44.81
855.832	49.61
856.266	39.21
856.701	47.91
857.136	41.31
857.57	46.51
858.005	51.41
858.44	59.11
858.874	47.11
859.309	57.01
859.743	44.61
860.178	52.41
860.612	46.11
861.047	56.81
861.481	71.51
861.915	74.11
862.35	54.21
862.784	36.91
863.218	43.11
863.653	45.71
864.087	49.11
864.521	54.81
864.955	78.31
865.39	170.41
865.824	179.31
866.258	128.41
866.692	178.91
867.126	193.21
867.56	113.21
867.994	61.51
868.428	41.41
868.862	47.81
869.296	56.81
869.73	61.01
870.164	55.51
870.598	51.31
871.031	41.91
871.465	35.11
871.899	32.31
872.333	26.31
872.766	30.11
873.2	24.01
873.634	32.61
874.067	25.31
874.501	26.31
874.935	36.81
875.368	35.21
875.802	31.21
876.235	22.31
876.669	25.61
877.102	26.21
877.535	27.11
877.969	22.01
878.402	29.31
878.836	17.41
879.269	26.41
879.702	26.11
880.135	28.21
880.569	20.91
881.002	30.31
881.435	21.51
881.868	23.11
882.301	21.51
882.734	14.61
883.167	21.31
883.601	24.11
884.034	27.01
884.467	16.41
884.899	24.81
885.332	20.41
885.765	16.61
886.198	18.31
886.631	16.61
887.064	24.11
887.497	24.31
887.929	26.41
888.362	17.51
888.795	10.51
889.228	12.41
889.66	22.61
890.093	28.71
890.526	17.11
890.958	15.41
891.391	21.71
891.823	20.51
892.256	25.21
892.688	13.91
893.121	15.81
893.553	19.91
893.985	26.01
894.418	24.61
894.85	16.41
895.282	16.71
895.715	16.41
896.147	20.91
896.579	11.61
897.011	15.31
897.444	16.21
897.876	11.61
898.308	20.31
898.74	15.41
899.172	14.11
899.604	29.71
900.036	23.51
900.468	19.41
900.9	22.01
901.332	22.21
901.764	16.91
902.196	25.11
902.628	17.51
903.06	18.21
903.491	31.41
903.923	30.71
904.355	25.21
904.787	24.01
905.218	23.41
905.65	22.71
906.082	14.91
906.513	9.71
906.945	19.31
907.376	15.11
907.808	21.21
908.239	26.51
908.671	18.01
909.102	22.21
909.534	29.21
909.965	47.81
910.397	101.91
910.828	333.71
911.259	498.61
911.691	228.51
912.122	119.41
912.553	52.21
912.984	37.61
913.415	25.81
913.847	29.61
914.278	22.91
914.709	9.91
915.14	22.01
915.571	19.11
916.002	10.41
916.433	21.11
916.864	24.61
917.295	12.51
917.726	18.31
918.157	20.81
918.587	30.41
919.018	19.01
919.449	21.51
919.88	22.71
920.311	30.41
920.741	52.51
921.172	176.21
921.603	162.11
922.033	73.11
922.464	47.51
922.895	28.31
923.325	19.51
923.756	10.11
924.186	17.01
924.617	10.41
925.047	21.01
925.478	25.01
925.908	24.01
926.338	20.31
926.769	11.71
927.199	16.91
927.629	9.21
928.06	18.71
928.49	17.91
928.92	16.01
929.35	17.41
929.78	12.51
930.21	7.31
930.641	4.31
931.071	8.31
931.501	6.51
931.931	9.11
932.361	7.51
932.791	6.61
933.221	8.31
933.651	3.61
934.08	14.91
934.51	32.61
934.94	8.41
935.37	12.31
935.8	7.01
936.229	4.31
936.659	13.01
937.089	9.11
937.519	13.71
937.948	21.81
938.378	22.61
938.807	4.61
939.237	4.91
939.666	10.81
940.096	-5.09
940.525	1.11
940.955	2.81
941.384	6.41
941.814	-8.09
942.243	1.11
942.672	7.81
943.102	1.41
943.531	3.61
943.96	6.71
944.39	7.01
944.819	0.41
945.248	1.11
945.677	2.21
946.106	8.41
946.535	3.41
946.964	0.71
947.393	8.61
947.822	2.61
948.251	-5.89
948.68	6.11
949.109	5.21
949.538	4.91
949.967	-2.79
950.396	-0.19
950.825	-3.19
951.254	1.61
951.682	-7.49
952.111	3.21
952.54	3.31
952.969	-5.29
953.397	-3.49
953.826	3.61
954.254	-7.49
954.683	0.61
955.112	-0.19
955.54	4.61
955.969	5.11
956.397	1.31
956.826	-2.09
957.254	3.91
957.682	2.01
958.111	5.11
958.539	0.61
958.967	3.31
959.396	1.41
959.824	2.71
960.252	1.91
960.68	-3.79
961.109	-4.29
961.537	-4.99
961.965	0.31
962.393	3.91
962.821	-3.49
963.249	3.11
963.677	4.81
964.105	7.31
964.533	51.61
964.961	43.81
965.389	23.81
965.817	11.51
966.245	5.11
966.672	1.41
967.1	-4.89
967.528	1.11
967.956	-6.89
968.383	3.51
968.811	-2.09
969.239	0.91
969.666	1.31
970.094	1.21
970.522	4.51
970.949	-3.09
971.377	4.51
971.804	2.11
972.232	0.81
972.659	0.51
973.087	-3.79
973.514	-0.79
973.941	-4.79
974.369	2.21
974.796	0.41
975.223	4.11
975.651	0.51
976.078	1.91
976.505	0.41
976.932	1.41
977.359	16.91
977.786	13.91
978.214	10.41
978.641	-2.59
979.068	-1.09
979.495	-2.29
979.922	0.61
980.349	-0.09
980.776	2.81
981.202	0.61
981.629	4.41
982.056	1.61
982.483	0.31
982.91	-1.59
983.337	-4.69
983.763	8.51
984.19	-1.69
984.617	-0.19
985.043	-0.69
985.47	-1.79
985.897	-1.69
986.323	-1.79
986.75	2.71
987.176	-0.99
987.603	4.81
988.029	-3.09
988.456	-2.99
988.882	3.51
989.308	-4.69
989.735	-2.99
990.161	-2.39
990.587	-2.09
991.014	-2.89
991.44	4.51
991.866	-3.09
992.292	-2.79
992.719	5.41
993.145	8.11
993.571	-10.29
993.997	-3.19
994.423	-1.89
994.849	-2.69
995.275	-0.39
995.701	1.11
996.127	-6.39
996.553	1.71
996.979	-7.29
997.405	-2.09
997.83	-2.79
998.256	-7.39
998.682	-3.79
999.108	-7.79
999.534	-4.69
999.959	0.41
1000.385	-2.89
1000.811	2.71
1001.236	-6.49
1001.662	-5.29
1002.087	-5.29
1002.513	0.41
1002.938	2.51
1003.364	1.11
1003.789	1.41
1004.215	1.61
1004.64	1.41
1005.066	10.41
1005.491	0.81
1005.916	3.91
1006.342	-1.69
1006.767	-4.79
1007.192	5.11
1007.617	-3.29
1008.042	-6.59
1008.468	-3.99
1008.893	-0.99
1009.318	-3.99
1009.743	-10.39
1010.168	2.71
1010.593	-0.69
1011.018	-0.79
1011.443	-2.09
1011.868	1.71
1012.293	1.91
1012.718	-6.89
1013.143	-3.79
1013.567	2.01
1013.992	-2.69
1014.417	-14.79
1014.842	4.01
1015.267	-1.79
1015.691	-3.69
1016.116	5.01
1016.541	0.41
1016.965	0.71
1017.39	5.91
1017.814	3.91
1018.239	2.11
1018.663	0.21
1019.088	-5.99
1019.512	-2.59
1019.937	0.91
1020.361	-1.19
1020.785	-7.79
1021.21	0.11
1021.634	-1.09
1022.058	1.11
1022.483	4.51
1022.907	1.11
1023.331	-1.19
1023.755	-3.09
1024.179	2.91
1024.604	-3.09
1025.028	3.01
1025.452	-0.19
1025.876	1.81
1026.3	-0.19
1026.724	-6.89
1027.148	0.41
1027.572	-4.89
1027.996	-6.09
1028.42	-2.59
1028.843	-1.99
1029.267	-6.59
1029.691	0.61
1030.115	-6.49
1030.539	-6.59
1030.962	-3.39
1031.386	-13.59
1031.81	-1.49
1032.233	0.71
1032.657	-1.99
1033.08	-3.49
1033.504	1.91
1033.927	-7.29
1034.351	-1.49
1034.774	0.11
1035.198	-0.09
1035.621	-10.99
1036.045	-8.69
1036.468	3.61
1036.891	-6.79
1037.315	-6.79
1037.738	-3.59
1038.161	-0.09
1038.584	-6.19
1039.008	-4.89
1039.431	-5.59
1039.854	-5.79
1040.277	-9.59
1040.7	-4.89
1041.123	-0.79
1041.546	-7.39
1041.969	0.61
1042.392	0.21
1042.815	-4.09
1043.238	8.01
1043.661	0.11
1044.084	-6.99
1044.507	-6.69
1044.93	-4.39
1045.352	-3.29
1045.775	-1.89
1046.198	-0.99
1046.621	-7.59
1047.043	-3.09
1047.466	14.01
1047.889	-2.39
1048.311	-2.99
1048.734	-5.99
1049.156	-3.09
1049.579	-7.39
1050.001	-0.89
1050.424	-3.79
1050.846	-8.79
1051.269	-1.19
1051.691	-3.99
1052.113	0.41
1052.536	2.01
1052.958	-4.79
1053.38	-1.59
1053.802	-9.19
1054.225	0.71
1054.647	-4.19
1055.069	-2.59
1055.491	3.01
1055.913	-7.59
1056.335	0.41
1056.757	-2.19
1057.179	-2.19
1057.601	-4.29
1058.023	-0.89
1058.445	0.41
1058.867	-3.39
1059.289	-0.69
1059.711	-8.69
1060.133	-5.39
1060.555	-5.29
1060.976	-6.59
1061.398	-4.39
1061.82	-6.09
1062.241	-3.79
1062.663	-5.09
1063.085	-0.29
1063.506	-0.79
1063.928	-7.59
1064.35	0.61
1064.771	-7.29
1065.193	1.11
1065.614	-8.29
1066.035	-1.69
1066.457	-5.69
1066.878	3.21
1067.3	4.71
1067.721	-3.79
1068.142	-7.89
1068.564	-2.89
1068.985	-5.39
1069.406	-2.59
1069.827	-6.39
1070.248	7.71
1070.67	-9.99
1071.091	-0.69
1071.512	-5.99
1071.933	-0.59
1072.354	-8.19
1072.775	-3.09
1073.196	-7.19
1073.617	-6.29
1074.038	-11.69
1074.459	-2.99
1074.88	-0.99
1075.3	0.11
1075.721	-6.59
1076.142	-3.69
1076.563	1.81
1076.983	-8.99
1077.404	-7.19
1077.825	-7.59
1078.246	-3.29
1078.666	-11.19
1079.087	-7.69
1079.507	-6.09
1079.928	-1.79
1080.348	-2.69
1080.769	-1.49
1081.189	1.11
1081.61	-5.79
1082.03	-5.39
1082.451	5.91
1082.871	-2.19
1083.291	-6.49
1083.711	-9.39
1084.132	-3.99
1084.552	-6.99
1084.972	0.61
1085.392	-6.49
1085.813	-12.59
1086.233	-7.79
1086.653	-8.09
1087.073	-1.79
1087.493	-0.19
1087.913	-4.39
1088.333	-5.69
1088.753	-6.19
1089.173	-0.89
1089.593	-3.79
1090.013	3.61
1090.433	0.61
1090.852	-1.09
1091.272	2.01
1091.692	-1.79
1092.112	-7.89
1092.531	-8.19
1092.951	-9.39
1093.371	-4.39
1093.79	-1.39
1094.21	-3.49
1094.63	-7.19
1095.049	-2.79
1095.469	-3.59
1095.888	-2.29
1096.308	0.51
1096.727	5.61
1097.146	-9.09
1097.566	-3.49
1097.985	-4.99
1098.405	1.21
1098.824	-1.99
1099.243	-4.79
1099.662	-10.79
1100.082	-6.39
1100.501	-3.89
1100.92	-5.49
1101.339	-4.99
1101.758	-1.99
