Data from 20171114-ORNL-Ar_H_NY_Subt18_08-07-10-962.txt Node
Date: Tue Nov 14 08:07:10 EST 2017
User: Ender
Spectrometer: HR+D1039
Trigger mode: 0
Integration Time (sec): 2.730000E-2
Scans to average: 10
Electric dark correction enabled: true
Nonlinearity correction enabled: false
Boxcar width: 0
XAxis mode: Wavelengths
Number of Pixels in Spectrum: 2048
>>>>>Begin Spectral Data<<<<<
187.836	-3.32
188.309	-3.32
188.782	-3.32
189.255	-3.22
189.728	2.08
190.201	9.58
190.674	0.38
191.147	3.78
191.619	-3.72
192.092	2.38
192.565	2.48
193.038	-2.72
193.511	1.18
193.984	-3.32
194.456	-0.62
194.929	-2.52
195.402	-1.52
195.874	-0.92
196.347	2.18
196.82	-8.22
197.292	7.78
197.765	-2.62
198.237	-4.92
198.71	4.98
199.182	-0.52
199.655	1.38
200.127	4.98
200.6	2.28
201.072	2.98
201.544	-5.42
202.017	2.28
202.489	0.68
202.961	0.28
203.433	-5.92
203.906	0.98
204.378	-7.02
204.85	-12.82
205.322	-4.02
205.794	-5.02
206.266	-1.62
206.739	-10.42
207.211	2.18
207.683	-5.62
208.155	-8.62
208.627	-1.72
209.099	-1.82
209.57	-4.52
210.042	-0.52
210.514	-0.52
210.986	-4.02
211.458	-8.82
211.93	2.18
212.402	3.48
212.873	-11.42
213.345	-5.52
213.817	-11.22
214.288	-5.02
214.76	-9.32
215.232	-3.92
215.703	-4.92
216.175	-4.02
216.646	-3.12
217.118	-5.62
217.589	-0.82
218.061	-0.92
218.532	-2.92
219.004	3.28
219.475	-5.32
219.946	-1.32
220.418	-3.22
220.889	1.08
221.36	-3.32
221.832	-10.42
222.303	-6.22
222.774	-0.02
223.245	-8.32
223.717	-7.52
224.188	-2.02
224.659	-9.32
225.13	-4.82
225.601	-5.42
226.072	-0.72
226.543	1.38
227.014	-2.02
227.485	-5.82
227.956	-7.72
228.427	-6.72
228.898	1.38
229.369	2.48
229.839	-4.82
230.31	-3.92
230.781	4.58
231.252	-3.32
231.722	-2.22
232.193	-4.22
232.664	0.38
233.135	1.48
233.605	-2.92
234.076	-7.12
234.546	-2.62
235.017	-1.32
235.487	1.88
235.958	2.58
236.428	-1.32
236.899	-4.12
237.369	-3.32
237.84	-4.72
238.31	2.18
238.78	-0.62
239.251	-4.02
239.721	-4.52
240.191	-2.82
240.662	-0.52
241.132	2.38
241.602	-1.92
242.072	-0.82
242.542	2.48
243.013	-5.02
243.483	-0.32
243.953	3.98
244.423	3.48
244.893	-9.62
245.363	1.88
245.833	2.28
246.303	-6.52
246.773	5.68
247.243	3.28
247.712	-4.72
248.182	4.28
248.652	5.08
249.122	-9.82
249.592	-4.12
250.061	-1.22
250.531	3.08
251.001	-5.52
251.471	-0.02
251.94	8.18
252.41	-4.42
252.879	-6.02
253.349	1.58
253.818	7.98
254.288	6.48
254.757	4.78
255.227	-0.42
255.696	-5.92
256.166	4.98
256.635	2.98
257.105	4.18
257.574	-0.32
258.043	4.78
258.513	-0.62
258.982	-2.52
259.451	-2.82
259.92	-1.32
260.389	0.98
260.859	9.78
261.328	1.98
261.797	-0.32
262.266	-3.22
262.735	6.68
263.204	3.98
263.673	-1.62
264.142	3.78
264.611	-8.92
265.08	-0.72
265.549	-1.22
266.018	1.88
266.487	0.58
266.955	-8.32
267.424	-3.72
267.893	-1.82
268.362	0.78
268.83	3.88
269.299	7.98
269.768	1.68
270.236	3.58
270.705	-4.62
271.174	2.28
271.642	-0.92
272.111	-1.82
272.579	4.48
273.048	5.48
273.516	3.88
273.985	5.78
274.453	10.18
274.922	12.28
275.39	3.38
275.858	-3.82
276.327	5.18
276.795	9.88
277.263	0.68
277.731	15.98
278.2	8.88
278.668	12.48
279.136	8.48
279.604	3.08
280.072	11.08
280.54	8.18
281.008	11.98
281.477	8.28
281.945	3.18
282.413	5.98
282.881	7.98
283.348	3.88
283.816	8.48
284.284	10.08
284.752	15.38
285.22	13.98
285.688	10.38
286.156	5.08
286.623	12.88
287.091	8.98
287.559	9.38
288.026	8.18
288.494	11.48
288.962	3.98
289.429	11.68
289.897	13.28
290.364	15.78
290.832	12.28
291.3	11.48
291.767	12.78
292.234	10.58
292.702	8.68
293.169	14.08
293.637	21.28
294.104	13.08
294.571	7.98
295.039	5.28
295.506	12.28
295.973	10.68
296.44	13.08
296.908	10.98
297.375	12.78
297.842	9.98
298.309	4.98
298.776	12.28
299.243	21.38
299.71	7.48
300.177	12.78
300.644	12.78
301.111	12.08
301.578	18.58
302.045	7.08
302.512	15.18
302.979	20.18
303.446	20.48
303.913	16.88
304.379	13.48
304.846	16.18
305.313	21.28
305.78	17.08
306.246	19.48
306.713	18.18
307.18	16.18
307.646	18.98
308.113	22.88
308.579	17.68
309.046	22.38
309.512	23.38
309.979	9.98
310.445	20.58
310.912	26.48
311.378	30.98
311.845	25.08
312.311	27.18
312.777	25.58
313.244	24.08
313.71	31.48
314.176	22.88
314.642	22.48
315.109	22.68
315.575	29.68
316.041	29.38
316.507	21.58
316.973	32.58
317.439	30.48
317.905	27.88
318.371	30.28
318.837	23.48
319.303	26.68
319.769	28.28
320.235	27.48
320.701	33.08
321.167	27.48
321.633	27.08
322.099	26.18
322.564	31.68
323.03	29.08
323.496	34.78
323.962	33.78
324.427	32.68
324.893	36.38
325.359	35.78
325.824	29.08
326.29	24.18
326.755	34.48
327.221	36.78
327.686	33.58
328.152	44.58
328.617	35.28
329.083	43.58
329.548	43.78
330.014	39.88
330.479	28.68
330.944	38.58
331.41	36.48
331.875	36.68
332.34	32.58
332.805	36.78
333.271	36.18
333.736	27.08
334.201	42.68
334.666	44.88
335.131	48.48
335.596	43.08
336.061	43.98
336.526	35.98
336.991	35.88
337.456	47.88
337.921	41.18
338.386	36.68
338.851	41.28
339.316	42.08
339.781	42.18
340.246	47.98
340.711	40.08
341.175	49.88
341.64	39.98
342.105	46.18
342.569	48.38
343.034	50.68
343.499	44.38
343.963	47.08
344.428	55.48
344.893	57.18
345.357	52.58
345.822	55.78
346.286	57.28
346.751	65.88
347.215	63.58
347.679	68.48
348.144	74.78
348.608	66.08
349.073	58.58
349.537	65.08
350.001	68.48
350.465	70.98
350.93	69.58
351.394	69.38
351.858	64.38
352.322	77.38
352.786	75.18
353.25	81.98
353.715	86.48
354.179	86.98
354.643	100.88
355.107	108.08
355.571	86.68
356.035	82.28
356.498	97.08
356.962	96.38
357.426	104.48
357.89	99.68
358.354	76.68
358.818	76.98
359.281	75.08
359.745	65.98
360.209	72.58
360.673	68.48
361.136	71.88
361.6	72.08
362.064	75.88
362.527	80.88
362.991	81.48
363.454	72.98
363.918	64.78
364.381	74.38
364.845	79.48
365.308	80.58
365.772	81.88
366.235	74.38
366.698	76.98
367.162	75.68
367.625	81.98
368.088	82.38
368.552	77.78
369.015	84.28
369.478	83.68
369.941	89.18
370.404	85.18
370.867	91.38
371.331	92.78
371.794	97.58
372.257	85.88
372.72	97.98
373.183	91.78
373.646	85.48
374.109	90.68
374.572	96.68
375.035	94.08
375.497	97.88
375.96	95.68
376.423	96.48
376.886	102.38
377.349	103.58
377.811	93.78
378.274	96.48
378.737	99.38
379.199	106.48
379.662	108.48
380.125	108.48
380.587	98.68
381.05	107.98
381.512	103.98
381.975	116.78
382.437	108.48
382.9	108.58
383.362	117.58
383.825	126.98
384.287	113.58
384.75	112.68
385.212	113.48
385.674	118.28
386.136	122.48
386.599	117.58
387.061	120.18
387.523	116.08
387.985	119.18
388.447	129.28
388.91	117.48
389.372	121.28
389.834	120.08
390.296	115.98
390.758	130.18
391.22	128.88
391.682	133.68
392.144	137.68
392.606	133.18
393.068	129.18
393.529	146.58
393.991	139.38
394.453	126.88
394.915	133.68
395.377	138.98
395.838	130.18
396.3	131.18
396.762	138.58
397.224	132.48
397.685	125.68
398.147	123.68
398.608	129.88
399.07	126.78
399.531	132.98
399.993	137.48
400.454	153.98
400.916	147.98
401.377	140.58
401.839	150.78
402.3	156.88
402.762	160.78
403.223	174.48
403.684	164.28
404.145	158.18
404.607	161.68
405.068	159.68
405.529	163.28
405.99	181.98
406.451	172.38
406.913	172.48
407.374	165.88
407.835	167.78
408.296	160.68
408.757	164.78
409.218	186.28
409.679	174.48
410.14	167.08
410.601	170.48
411.062	178.18
411.522	178.98
411.983	179.38
412.444	181.38
412.905	178.58
413.366	186.58
413.826	199.08
414.287	221.08
414.748	269.58
415.208	258.08
415.669	219.78
416.13	214.88
416.59	206.48
417.051	217.08
417.511	220.88
417.972	243.68
418.432	258.48
418.893	289.98
419.353	257.58
419.814	208.68
420.274	183.48
420.734	181.68
421.195	199.58
421.655	195.68
422.115	193.88
422.576	201.48
423.036	209.08
423.496	220.68
423.956	225.98
424.416	240.18
424.876	272.78
425.336	260.98
425.797	262.28
426.257	254.48
426.717	241.68
427.177	245.98
427.637	229.58
428.097	232.08
428.556	250.88
429.016	279.48
429.476	263.78
429.936	268.18
430.396	275.48
430.856	292.28
431.315	309.08
431.775	336.28
432.235	371.68
432.694	355.98
433.154	354.38
433.614	385.58
434.073	331.28
434.533	284.38
434.993	274.08
435.452	277.58
435.912	287.08
436.371	278.88
436.83	273.98
437.29	267.08
437.749	249.38
438.209	255.78
438.668	275.68
439.127	289.18
439.587	270.68
440.046	250.28
440.505	264.78
440.964	291.68
441.424	323.38
441.883	315.28
442.342	265.68
442.801	230.28
443.26	224.98
443.719	227.48
444.178	230.18
444.637	215.98
445.096	225.38
445.555	234.08
446.014	236.58
446.473	236.08
446.932	250.68
447.391	243.98
447.849	236.38
448.308	227.08
448.767	231.18
449.226	250.68
449.685	250.08
450.143	261.88
450.602	244.98
451.061	233.18
451.519	243.28
451.978	251.28
452.436	248.48
452.895	251.88
453.353	260.48
453.812	251.28
454.27	254.68
454.729	248.68
455.187	254.88
455.646	256.68
456.104	266.38
456.562	269.88
457.021	283.58
457.479	271.28
457.937	289.68
458.395	278.18
458.854	265.18
459.312	269.88
459.77	276.98
460.228	273.68
460.686	261.88
461.144	261.78
461.602	262.38
462.06	257.88
462.518	265.48
462.976	278.38
463.434	280.28
463.892	278.88
464.35	291.28
464.808	308.88
465.266	277.68
465.724	284.18
466.181	291.78
466.639	292.08
467.097	307.98
467.555	324.28
468.012	323.08
468.47	326.08
468.928	343.38
469.385	357.78
469.843	368.38
470.3	365.78
470.758	376.88
471.215	399.78
471.673	434.18
472.13	423.98
472.588	433.98
473.045	392.68
473.503	395.08
473.96	412.88
474.417	420.08
474.875	453.48
475.332	493.38
475.789	483.08
476.246	488.38
476.704	504.88
477.161	529.48
477.618	538.78
478.075	577.38
478.532	633.98
478.989	707.18
479.446	807.58
479.903	779.78
480.36	812.08
480.817	857.88
481.274	943.78
481.731	1043.58
482.188	1122.08
482.645	1232.18
483.102	1334.98
483.558	1454.38
484.015	1493.48
484.472	1465.48
484.929	1432.88
485.385	1397.68
485.842	1354.58
486.299	1308.48
486.755	1244.18
487.212	1084.98
487.668	920.38
488.125	855.98
488.582	788.08
489.038	758.38
489.494	727.98
489.951	699.28
490.407	680.88
490.864	667.58
491.32	661.58
491.776	671.08
492.233	674.38
492.689	634.28
493.145	638.58
493.602	621.18
494.058	643.88
494.514	628.88
494.97	662.58
495.426	677.28
495.882	649.48
496.338	641.78
496.794	647.18
497.251	646.78
497.707	662.38
498.163	660.28
498.618	672.98
499.074	671.18
499.53	698.28
499.986	692.88
500.442	667.18
500.898	652.68
501.354	646.28
501.809	653.08
502.265	640.78
502.721	656.38
503.177	668.38
503.632	660.78
504.088	677.18
504.543	698.48
504.999	721.28
505.455	689.88
505.91	669.18
506.366	657.68
506.821	670.78
507.277	657.38
507.732	665.28
508.187	666.58
508.643	683.58
509.098	684.58
509.553	693.68
510.009	706.08
510.464	702.48
510.919	727.38
511.375	738.48
511.83	744.28
512.285	753.38
512.74	785.88
513.195	817.38
513.65	801.88
514.105	803.88
514.56	807.38
515.015	824.08
515.47	830.78
515.925	817.58
516.38	819.18
516.835	832.58
517.29	826.18
517.745	816.38
518.2	802.08
518.655	793.88
519.109	786.28
519.564	780.88
520.019	776.28
520.474	758.18
520.928	760.28
521.383	757.88
521.838	748.08
522.292	748.08
522.747	750.68
523.201	745.48
523.656	732.48
524.11	740.98
524.565	727.88
525.019	726.08
525.474	739.18
525.928	729.58
526.382	730.78
526.837	735.48
527.291	744.98
527.745	736.38
528.2	735.68
528.654	721.68
529.108	721.88
529.562	727.88
530.016	719.78
530.47	728.78
530.925	722.48
531.379	732.78
531.833	735.18
532.287	738.18
532.741	733.28
533.195	733.88
533.649	750.88
534.103	757.88
534.556	737.08
535.01	743.88
535.464	738.58
535.918	755.38
536.372	759.88
536.826	751.98
537.279	733.88
537.733	751.58
538.187	750.08
538.64	744.78
539.094	760.08
539.548	775.28
540.001	754.88
540.455	760.38
540.908	762.08
541.362	771.68
541.815	780.78
542.269	789.58
542.722	796.78
543.175	807.48
543.629	819.58
544.082	828.88
544.536	829.18
544.989	829.28
545.442	835.48
545.895	830.78
546.349	832.48
546.802	834.08
547.255	855.78
547.708	859.78
548.161	854.88
548.614	858.18
549.067	872.48
549.52	865.98
549.973	842.18
550.426	847.88
550.879	839.18
551.332	849.08
551.785	851.88
552.238	848.18
552.691	867.68
553.144	876.98
553.596	895.78
554.049	910.28
554.502	938.78
554.955	957.88
555.407	970.68
555.86	942.18
556.313	945.18
556.765	927.28
557.218	929.98
557.67	930.48
558.123	925.18
558.576	924.68
559.028	927.98
559.48	929.88
559.933	916.68
560.385	889.38
560.838	863.48
561.29	832.68
561.742	827.48
562.195	813.58
562.647	819.88
563.099	816.68
563.551	814.38
564.004	830.38
564.456	819.18
564.908	792.48
565.36	772.88
565.812	762.78
566.264	752.28
566.716	757.08
567.168	752.68
567.62	738.98
568.072	739.18
568.524	725.58
568.976	722.58
569.428	718.38
569.88	706.88
570.332	722.18
570.784	726.58
571.235	711.98
571.687	736.18
572.139	746.18
572.59	751.28
573.042	736.08
573.494	739.68
573.945	747.48
574.397	721.68
574.849	723.28
575.3	732.18
575.752	721.28
576.203	718.78
576.655	721.98
577.106	709.18
577.557	702.38
578.009	696.58
578.46	699.38
578.912	702.28
579.363	701.68
579.814	707.78
580.265	689.98
580.717	697.68
581.168	702.48
581.619	710.48
582.07	717.88
582.521	709.58
582.972	700.88
583.423	699.18
583.875	713.08
584.326	712.08
584.777	727.38
585.227	744.08
585.678	760.28
586.129	761.78
586.58	789.58
587.031	805.58
587.482	833.68
587.933	839.98
588.384	827.28
588.834	804.88
589.285	798.88
589.736	804.58
590.186	804.08
590.637	804.88
591.088	777.38
591.538	762.28
591.989	767.68
592.439	772.48
592.89	758.98
593.34	737.28
593.791	743.88
594.241	732.88
594.692	734.98
595.142	726.78
595.593	730.28
596.043	724.28
596.493	733.58
596.943	727.18
597.394	756.48
597.844	753.28
598.294	769.58
598.744	783.08
599.195	811.18
599.645	863.68
600.095	901.98
600.545	968.28
600.995	1004.48
601.445	1071.18
601.895	1143.38
602.345	1199.38
602.795	1160.48
603.245	1119.78
603.695	1058.88
604.145	997.98
604.594	954.58
605.044	905.08
605.494	831.58
605.944	797.88
606.393	772.28
606.843	753.18
607.293	761.78
607.743	757.68
608.192	774.28
608.642	786.28
609.091	791.78
609.541	791.38
609.99	794.98
610.44	787.88
610.889	745.58
611.339	728.58
611.788	714.68
612.238	719.98
612.687	724.28
613.136	729.78
613.586	733.18
614.035	718.58
614.484	727.08
614.933	736.08
615.383	738.08
615.832	738.78
616.281	740.18
616.73	701.98
617.179	677.48
617.628	671.08
618.077	643.88
618.526	647.28
618.975	636.28
619.424	633.18
619.873	631.68
620.322	644.48
620.771	627.88
621.22	631.48
621.669	615.58
622.118	611.68
622.567	604.78
623.015	597.28
623.464	597.48
623.913	578.68
624.361	573.08
624.81	571.88
625.259	582.78
625.707	585.08
626.156	578.38
626.604	592.78
627.053	594.98
627.501	586.08
627.95	590.98
628.398	603.88
628.847	587.88
629.295	596.68
629.744	599.78
630.192	591.78
630.64	579.08
631.089	572.18
631.537	549.38
631.985	556.58
632.433	543.28
632.881	540.88
633.33	552.28
633.778	546.18
634.226	542.58
634.674	554.58
635.122	561.98
635.57	577.48
636.018	565.38
636.466	580.48
636.914	580.18
637.362	595.98
637.81	603.38
638.258	604.08
638.705	597.38
639.153	627.98
639.601	642.98
640.049	666.48
640.497	698.48
640.944	719.58
641.392	671.58
641.84	634.38
642.287	602.48
642.735	583.78
643.182	578.58
643.63	586.28
644.078	578.98
644.525	591.48
644.973	594.98
645.42	612.28
645.867	633.48
646.315	651.98
646.762	673.98
647.21	683.68
647.657	723.28
648.104	756.98
648.551	772.08
648.999	833.28
649.446	907.18
649.893	995.48
650.34	1134.48
650.787	1349.28
651.234	1645.18
651.682	2123.88
652.129	2882.68
652.576	4057.28
653.023	5971.18
653.47	8055.58
653.917	10006.98
654.363	11552.88
654.81	12697.88
655.257	12045.98
655.704	7978.28
656.151	4811.48
656.598	3175.88
657.044	2268.88
657.491	1767.18
657.938	1431.18
658.385	1199.98
658.831	1053.88
659.278	962.88
659.724	842.58
660.171	798.48
660.618	722.78
661.064	695.28
661.511	680.78
661.957	660.98
662.404	649.98
662.85	661.38
663.296	633.28
663.743	565.38
664.189	551.88
664.635	552.28
665.082	545.78
665.528	545.08
665.974	529.98
666.42	520.48
666.867	519.98
667.313	496.38
667.759	475.78
668.205	460.58
668.651	474.08
669.097	471.78
669.543	459.68
669.989	461.68
670.435	458.58
670.881	463.68
671.327	468.18
671.773	490.18
672.219	513.68
672.665	566.78
673.11	622.18
673.556	660.28
674.002	689.68
674.448	681.58
674.893	578.98
675.339	496.38
675.785	455.38
676.23	434.48
676.676	411.38
677.122	400.38
677.567	393.98
678.013	386.08
678.458	377.38
678.904	376.68
679.349	363.18
679.794	370.88
680.24	365.58
680.685	363.38
681.131	362.48
681.576	364.58
682.021	373.88
682.466	365.28
682.912	362.18
683.357	365.58
683.802	395.18
684.247	427.38
684.692	473.28
685.137	519.88
685.583	561.68
686.028	580.68
686.473	539.58
686.918	469.68
687.363	428.78
687.807	407.68
688.252	376.68
688.697	368.38
689.142	352.88
689.587	349.98
690.032	338.58
690.477	353.38
690.921	364.78
691.366	398.48
691.811	419.48
692.255	448.38
692.7	484.68
693.145	525.78
693.589	731.98
694.034	1192.78
694.478	1620.98
694.923	1813.68
695.367	2367.48
695.812	1252.08
696.256	522.48
696.701	396.68
697.145	358.18
697.59	335.68
698.034	330.58
698.478	342.48
698.922	333.98
699.367	338.98
699.811	345.38
700.255	368.28
700.699	400.68
701.143	440.18
701.588	492.78
702.032	536.88
702.476	540.48
702.92	513.08
703.364	518.38
703.808	671.08
704.252	1090.08
704.696	1524.68
705.14	1749.28
705.584	2214.78
706.027	1125.78
706.471	540.78
706.915	420.98
707.359	367.98
707.803	339.08
708.246	329.98
708.69	327.78
709.134	324.58
709.577	324.08
710.021	324.18
710.465	311.08
710.908	313.28
711.352	314.28
711.795	328.68
712.239	360.78
712.682	402.68
713.126	426.28
713.569	471.98
714.012	371.78
714.456	320.58
714.899	300.68
715.342	289.48
715.786	270.68
716.229	274.18
716.672	266.18
717.115	262.68
717.558	263.48
718.002	263.28
718.445	266.28
718.888	295.48
719.331	302.38
719.774	312.48
720.217	312.68
720.66	302.78
721.103	280.08
721.546	261.38
721.989	267.28
722.432	251.18
722.874	248.18
723.317	237.88
723.76	244.68
724.203	268.88
724.645	329.18
725.088	470.38
725.531	599.88
725.974	663.88
726.416	555.68
726.859	321.68
727.301	259.38
727.744	247.98
728.187	238.48
728.629	255.48
729.071	244.18
729.514	262.98
729.956	278.58
730.399	295.08
730.841	302.28
731.283	282.48
731.726	277.48
732.168	268.78
732.61	280.18
733.053	299.98
733.495	329.48
733.937	367.88
734.379	416.68
734.821	459.98
735.263	567.28
735.705	879.58
736.148	1678.28
736.59	2718.28
737.032	3193.58
737.474	2619.28
737.916	844.58
738.357	446.08
738.799	342.18
739.241	317.08
739.683	295.18
740.125	305.78
740.567	313.08
741.008	335.18
741.45	330.98
741.892	339.08
742.334	366.48
742.775	379.38
743.217	362.38
743.658	285.98
744.1	259.88
744.542	281.08
744.983	340.88
745.425	369.98
745.866	367.48
746.307	289.08
746.749	301.58
747.19	338.68
747.632	485.48
748.073	936.28
748.514	1990.18
748.956	2988.48
749.397	3775.58
749.838	3131.88
750.279	3102.98
750.72	1574.78
751.162	578.58
751.603	332.38
752.044	267.18
752.485	232.58
752.926	225.88
753.367	217.38
753.808	201.48
754.249	204.78
754.69	199.08
755.131	190.48
755.572	190.08
756.013	188.48
756.453	191.38
756.894	202.58
757.335	197.98
757.776	200.68
758.216	209.28
758.657	205.68
759.098	211.78
759.538	237.78
759.979	280.48
760.42	395.68
760.86	760.28
761.301	1961.48
761.741	4704.88
762.182	6752.78
762.622	4774.68
763.063	1384.68
763.503	561.48
763.943	339.58
764.384	273.58
764.824	242.48
765.264	229.78
765.705	208.18
766.145	186.38
766.585	179.28
767.025	179.48
767.465	171.08
767.906	172.78
768.346	192.58
768.786	206.18
769.226	224.18
769.666	329.38
770.106	658.08
770.546	1644.68
770.986	2762.88
771.426	2481.88
771.866	831.78
772.306	339.88
772.745	218.18
773.185	172.98
773.625	172.08
774.065	156.08
774.505	171.88
774.944	210.78
775.384	368.88
775.824	604.78
776.263	576.88
776.703	280.98
777.142	160.88
777.582	136.08
778.021	126.48
778.461	133.78
778.9	129.68
779.34	134.98
779.779	124.78
780.219	113.78
780.658	106.08
781.097	120.28
781.537	118.78
781.976	112.98
782.415	106.28
782.855	110.08
783.294	107.98
783.733	109.88
784.172	109.68
784.611	114.98
785.05	115.78
785.489	115.38
785.928	123.48
786.367	122.58
786.806	122.38
787.245	135.58
787.684	147.58
788.123	156.38
788.562	140.98
789.001	136.98
789.44	130.98
789.879	125.88
790.317	123.58
790.756	138.88
791.195	141.48
791.634	154.78
792.072	212.58
792.511	382.68
792.95	1062.38
793.388	2220.28
793.827	2000.58
794.265	704.68
794.704	298.88
795.142	189.08
795.581	158.28
796.019	141.48
796.458	134.08
796.896	127.98
797.334	137.28
797.773	163.08
798.211	232.68
798.649	469.08
799.087	1078.58
799.526	1684.88
799.964	2120.48
800.402	2109.78
800.84	805.98
801.278	321.08
801.716	196.28
802.154	160.48
802.592	153.88
803.03	156.38
803.468	144.88
803.906	153.18
804.344	156.68
804.782	147.18
805.22	140.98
805.658	141.18
806.096	158.38
806.533	167.08
806.971	177.18
807.409	229.38
807.847	335.48
808.284	712.48
808.722	1985.28
809.16	3463.28
809.597	3325.58
810.035	5744.38
810.472	6045.98
810.91	2203.28
811.347	840.78
811.785	434.88
812.222	271.28
812.66	206.38
813.097	182.38
813.535	150.38
813.972	141.88
814.409	130.58
814.846	125.58
815.284	114.28
815.721	98.98
816.158	107.48
816.595	115.38
817.032	156.98
817.47	189.98
817.907	151.38
818.344	106.18
818.781	106.88
819.218	100.98
819.655	135.28
820.092	204.28
820.529	222.98
820.966	178.38
821.403	128.78
821.839	103.68
822.276	102.98
822.713	133.98
823.15	142.88
823.587	124.28
824.023	151.58
824.46	323.18
824.897	951.58
825.333	1416.58
825.77	600.88
826.206	247.38
826.643	143.78
827.08	110.18
827.516	85.48
827.953	77.98
828.389	87.58
828.825	77.78
829.262	72.48
829.698	66.08
830.135	74.68
830.571	68.68
831.007	77.28
831.443	69.28
831.88	61.78
832.316	62.88
832.752	63.18
833.188	70.38
833.624	71.88
834.06	68.48
834.497	70.68
834.933	77.48
835.369	78.98
835.805	71.58
836.241	84.08
836.677	80.68
837.112	90.68
837.548	110.38
837.984	140.88
838.42	211.18
838.856	537.98
839.292	1597.28
839.727	2404.78
840.163	1121.18
840.599	984.38
841.034	2155.48
841.47	2220.98
841.906	820.98
842.341	349.88
842.777	204.58
843.212	208.78
843.648	186.08
844.083	116.28
844.519	91.28
844.954	73.38
845.39	61.58
845.825	59.38
846.261	59.18
846.696	60.58
847.131	60.58
847.566	61.38
848.002	52.78
848.437	53.28
848.872	62.38
849.307	66.68
849.742	80.68
850.177	187.08
850.613	582.58
851.048	922.78
851.483	394.78
851.918	158.68
852.353	94.88
852.788	56.78
853.223	56.28
853.657	57.48
854.092	48.98
854.527	43.98
854.962	46.78
855.397	44.78
855.832	55.28
856.266	45.88
856.701	36.98
857.136	41.78
857.57	41.38
858.005	51.78
858.44	68.28
858.874	52.38
859.309	54.78
859.743	43.48
860.178	48.98
860.612	46.88
861.047	58.98
861.481	71.58
861.915	76.78
862.35	53.68
862.784	37.58
863.218	40.38
863.653	37.98
864.087	43.48
864.521	53.18
864.955	78.68
865.39	160.88
865.824	183.58
866.258	119.98
866.692	179.08
867.126	187.58
867.56	115.18
867.994	58.58
868.428	39.18
868.862	52.18
869.296	56.08
869.73	67.68
870.164	60.88
870.598	58.28
871.031	39.18
871.465	29.88
871.899	34.88
872.333	34.28
872.766	28.18
873.2	25.08
873.634	31.78
874.067	22.68
874.501	21.18
874.935	35.78
875.368	37.78
875.802	35.28
876.235	25.88
876.669	25.28
877.102	30.78
877.535	23.88
877.969	30.28
878.402	22.58
878.836	16.08
879.269	21.98
879.702	27.28
880.135	20.78
880.569	21.88
881.002	27.58
881.435	24.58
881.868	21.88
882.301	20.88
882.734	19.58
883.167	25.88
883.601	22.08
884.034	21.18
884.467	15.18
884.899	22.48
885.332	24.28
885.765	10.78
886.198	17.28
886.631	20.38
887.064	20.08
887.497	14.98
887.929	23.28
888.362	17.38
888.795	14.88
889.228	19.48
889.66	26.28
890.093	25.68
890.526	22.38
890.958	19.58
891.391	22.28
891.823	28.38
892.256	19.58
892.688	18.08
893.121	17.18
893.553	18.28
893.985	24.48
894.418	28.58
894.85	19.18
895.282	16.68
895.715	19.28
896.147	18.58
896.579	20.08
897.011	16.28
897.444	16.48
897.876	16.18
898.308	18.08
898.74	18.78
899.172	16.58
899.604	22.98
900.036	19.78
900.468	15.48
900.9	10.48
901.332	18.18
901.764	15.98
902.196	19.68
902.628	24.48
903.06	20.38
903.491	29.88
903.923	23.38
904.355	20.98
904.787	29.58
905.218	23.28
905.65	24.78
906.082	21.18
906.513	17.48
906.945	13.98
907.376	8.28
907.808	16.38
908.239	20.78
908.671	18.48
909.102	23.48
909.534	31.38
909.965	55.08
910.397	107.38
910.828	338.78
911.259	499.78
911.691	226.78
912.122	113.18
912.553	47.88
912.984	39.58
913.415	31.28
913.847	26.28
914.278	18.38
914.709	19.48
915.14	26.18
915.571	23.28
916.002	12.68
916.433	24.88
916.864	20.78
917.295	16.68
917.726	27.28
918.157	16.28
918.587	27.48
919.018	23.98
919.449	18.48
919.88	24.58
920.311	38.68
920.741	51.38
921.172	175.28
921.603	161.68
922.033	77.38
922.464	50.98
922.895	28.58
923.325	19.58
923.756	17.68
924.186	13.98
924.617	18.08
925.047	22.58
925.478	26.48
925.908	22.18
926.338	11.18
926.769	17.68
927.199	14.18
927.629	8.38
928.06	19.48
928.49	17.08
928.92	9.98
929.35	11.98
929.78	3.78
930.21	4.38
930.641	9.98
931.071	11.78
931.501	4.48
931.931	10.58
932.361	5.98
932.791	5.98
933.221	6.58
933.651	8.98
934.08	20.58
934.51	30.28
934.94	13.88
935.37	6.98
935.8	9.28
936.229	8.18
936.659	15.48
937.089	5.48
937.519	16.18
937.948	22.58
938.378	13.78
938.807	8.08
939.237	10.38
939.666	4.68
940.096	-3.42
940.525	3.08
940.955	1.68
941.384	12.38
941.814	-2.62
942.243	0.28
942.672	-2.82
943.102	-3.42
943.531	-0.62
943.96	6.18
944.39	6.18
944.819	1.48
945.248	1.08
945.677	0.88
946.106	8.38
946.535	5.18
946.964	8.78
947.393	6.18
947.822	7.18
948.251	-3.12
948.68	3.98
949.109	-0.12
949.538	9.18
949.967	-3.82
950.396	3.58
950.825	-4.62
951.254	1.68
951.682	-1.82
952.111	5.98
952.54	14.28
952.969	0.38
953.397	1.58
953.826	1.68
954.254	-7.02
954.683	2.28
955.112	2.28
955.54	3.58
955.969	6.68
956.397	-0.32
956.826	-3.52
957.254	1.98
957.682	-0.02
958.111	7.38
958.539	0.18
958.967	3.58
959.396	-3.52
959.824	-3.02
960.252	5.58
960.68	1.38
961.109	3.98
961.537	-6.22
961.965	1.48
962.393	1.38
962.821	-0.92
963.249	1.98
963.677	3.68
964.105	4.88
964.533	46.38
964.961	49.08
965.389	22.48
965.817	7.98
966.245	2.88
966.672	2.68
967.1	-3.02
967.528	3.18
967.956	-6.12
968.383	-2.12
968.811	3.28
969.239	3.68
969.666	-3.42
970.094	-2.52
970.522	5.08
970.949	1.38
971.377	-6.72
971.804	-0.12
972.232	-2.82
972.659	-4.42
973.087	2.98
973.514	-3.22
973.941	-1.62
974.369	5.58
974.796	2.38
975.223	0.38
975.651	-5.22
976.078	3.28
976.505	-0.12
976.932	4.28
977.359	19.48
977.786	9.88
978.214	6.38
978.641	4.38
979.068	-3.32
979.495	-5.42
979.922	4.38
980.349	-5.42
980.776	6.88
981.202	2.68
981.629	6.48
982.056	9.48
982.483	-1.72
982.91	5.78
983.337	-8.82
983.763	0.68
984.19	-2.82
984.617	2.18
985.043	-0.52
985.47	-6.82
985.897	-6.02
986.323	-9.42
986.75	1.38
987.176	1.48
987.603	1.68
988.029	2.98
988.456	-6.22
988.882	2.18
989.308	-3.52
989.735	1.68
990.161	3.18
990.587	-5.02
991.014	5.68
991.44	11.68
991.866	-0.42
992.292	-4.12
992.719	-3.32
993.145	0.98
993.571	-9.22
993.997	-0.12
994.423	1.48
994.849	0.58
995.275	-0.12
995.701	5.38
996.127	-3.22
996.553	2.58
996.979	-5.02
997.405	1.28
997.83	-2.92
998.256	-4.32
998.682	-5.22
999.108	-7.72
999.534	-1.32
999.959	-0.62
1000.385	-4.62
1000.811	-0.12
1001.236	-6.62
1001.662	-0.02
1002.087	-9.52
1002.513	-0.72
1002.938	3.88
1003.364	1.78
1003.789	-0.82
1004.215	7.48
1004.64	-5.92
1005.066	2.68
1005.491	1.08
1005.916	-3.22
1006.342	-2.22
1006.767	-8.42
1007.192	12.78
1007.617	-0.42
1008.042	-2.42
1008.468	-7.62
1008.893	-2.52
1009.318	1.08
1009.743	-4.32
1010.168	3.48
1010.593	3.18
1011.018	-6.12
1011.443	0.98
1011.868	4.08
1012.293	1.78
1012.718	-6.52
1013.143	-1.62
1013.567	0.08
1013.992	3.78
1014.417	-12.22
1014.842	2.38
1015.267	-6.42
1015.691	-2.92
1016.116	3.68
1016.541	3.08
1016.965	-3.02
1017.39	1.28
1017.814	1.98
1018.239	3.98
1018.663	-7.02
1019.088	-9.12
1019.512	3.58
1019.937	1.88
1020.361	-3.52
1020.785	-2.82
1021.21	0.78
1021.634	0.68
1022.058	-0.02
1022.483	5.88
1022.907	-2.62
1023.331	-2.02
1023.755	1.18
1024.179	-3.12
1024.604	-4.82
1025.028	-2.02
1025.452	-4.22
1025.876	5.48
1026.3	6.68
1026.724	-13.32
1027.148	-0.72
1027.572	-6.32
1027.996	-7.72
1028.42	-3.92
1028.843	-1.52
1029.267	-3.72
1029.691	-0.42
1030.115	-1.72
1030.539	-7.62
1030.962	0.98
1031.386	-9.32
1031.81	0.38
1032.233	-1.62
1032.657	-3.52
1033.08	0.18
1033.504	-0.82
1033.927	-1.42
1034.351	-6.12
1034.774	-5.62
1035.198	-2.42
1035.621	-5.02
1036.045	-2.52
1036.468	3.08
1036.891	-3.32
1037.315	-3.62
1037.738	-0.72
1038.161	1.38
1038.584	-3.72
1039.008	-4.42
1039.431	-3.22
1039.854	-5.22
1040.277	-9.62
1040.7	-8.72
1041.123	3.38
1041.546	-3.62
1041.969	-4.32
1042.392	-5.12
1042.815	-1.42
1043.238	2.18
1043.661	-0.82
1044.084	-7.72
1044.507	-0.32
1044.93	1.38
1045.352	-5.72
1045.775	2.38
1046.198	-2.42
1046.621	-4.12
1047.043	-2.42
1047.466	8.98
1047.889	-0.42
1048.311	-3.82
1048.734	-3.62
1049.156	-5.92
1049.579	2.28
1050.001	1.78
1050.424	-4.52
1050.846	-5.72
1051.269	-4.92
1051.691	-7.22
1052.113	-3.62
1052.536	-0.62
1052.958	2.58
1053.38	-10.62
1053.802	-4.62
1054.225	-1.02
1054.647	-9.72
1055.069	-2.12
1055.491	3.58
1055.913	-6.42
1056.335	0.28
1056.757	-1.52
1057.179	-7.72
1057.601	-5.62
1058.023	-7.02
1058.445	-6.32
1058.867	-6.52
1059.289	-4.92
1059.711	-0.12
1060.133	-2.62
1060.555	-5.42
1060.976	-12.52
1061.398	-5.32
1061.82	-5.42
1062.241	1.08
1062.663	-6.42
1063.085	-1.02
1063.506	-0.22
1063.928	-6.92
1064.35	-0.52
1064.771	-12.92
1065.193	0.58
1065.614	-8.22
1066.035	1.88
1066.457	-7.82
1066.878	1.08
1067.3	-5.52
1067.721	1.08
1068.142	-0.42
1068.564	-2.42
1068.985	1.18
1069.406	-4.82
1069.827	-1.82
1070.248	-2.22
1070.67	0.58
1071.091	-1.62
1071.512	-2.32
1071.933	-7.42
1072.354	-5.12
1072.775	-6.82
1073.196	-11.52
1073.617	-3.22
1074.038	-6.22
1074.459	0.18
1074.88	-7.42
1075.3	0.88
1075.721	-3.82
1076.142	-2.52
1076.563	1.18
1076.983	-7.82
1077.404	-1.92
1077.825	-13.62
1078.246	-0.62
1078.666	-9.22
1079.087	-4.02
1079.507	-0.82
1079.928	2.08
1080.348	-5.42
1080.769	-1.72
1081.189	0.18
1081.61	-5.82
1082.03	-4.92
1082.451	-2.42
1082.871	-6.22
1083.291	-4.02
1083.711	-8.22
1084.132	-2.52
1084.552	-0.92
1084.972	-1.62
1085.392	-8.12
1085.813	-7.02
1086.233	-6.62
1086.653	-6.12
1087.073	0.28
1087.493	-11.32
1087.913	-0.92
1088.333	-6.52
1088.753	-1.22
1089.173	0.18
1089.593	-3.92
1090.013	7.78
1090.433	-3.62
1090.852	-1.72
1091.272	-3.62
1091.692	2.98
1092.112	-0.62
1092.531	-9.22
1092.951	-13.12
1093.371	-0.12
1093.79	2.28
1094.21	-2.02
1094.63	-2.42
1095.049	-5.92
1095.469	-4.12
1095.888	2.28
1096.308	2.38
1096.727	3.38
1097.146	-1.52
1097.566	2.18
1097.985	-1.12
1098.405	-1.62
1098.824	-6.12
1099.243	-6.72
1099.662	-4.02
1100.082	-0.72
1100.501	-4.42
1100.92	-6.62
1101.339	-3.22
1101.758	-4.32
