Data from 20171114-ORNL-Ar_H_NY_Subt18_08-08-06-376.txt Node
Date: Tue Nov 14 08:08:06 EST 2017
User: Ender
Spectrometer: HR+D1039
Trigger mode: 0
Integration Time (sec): 2.730000E-2
Scans to average: 10
Electric dark correction enabled: true
Nonlinearity correction enabled: false
Boxcar width: 0
XAxis mode: Wavelengths
Number of Pixels in Spectrum: 2048
>>>>>Begin Spectral Data<<<<<
187.836	-1.13
188.309	-1.13
188.782	-1.13
189.255	-1.13
189.728	-2.43
190.201	5.17
190.674	-4.63
191.147	2.27
191.619	-6.33
192.092	-0.53
192.565	1.47
193.038	1.27
193.511	4.87
193.984	-1.03
194.456	1.67
194.929	-0.53
195.402	-0.03
195.874	1.07
196.347	-1.53
196.82	-12.03
197.292	0.07
197.765	-5.23
198.237	-10.53
198.71	4.47
199.182	-3.63
199.655	2.27
200.127	1.57
200.6	-3.33
201.072	-0.33
201.544	-3.33
202.017	-1.53
202.489	6.07
202.961	1.97
203.433	-2.53
203.906	-9.03
204.378	-3.83
204.85	-7.13
205.322	-10.63
205.794	-0.23
206.266	-0.83
206.739	-6.23
207.211	1.77
207.683	-5.63
208.155	-1.23
208.627	-13.43
209.099	0.67
209.57	-9.13
210.042	-1.73
210.514	-7.53
210.986	-0.43
211.458	-10.83
211.93	-5.83
212.402	3.57
212.873	-8.83
213.345	-5.03
213.817	-15.63
214.288	-10.73
214.76	-5.23
215.232	-8.03
215.703	-4.23
216.175	-4.23
216.646	-8.73
217.118	-7.63
217.589	-6.03
218.061	-2.13
218.532	-0.23
219.004	-4.83
219.475	-4.53
219.946	-1.13
220.418	-6.53
220.889	-0.13
221.36	0.97
221.832	-1.13
222.303	-6.63
222.774	-2.93
223.245	-15.83
223.717	-4.03
224.188	-1.03
224.659	-9.63
225.13	-6.13
225.601	-7.33
226.072	1.47
226.543	-5.63
227.014	-3.13
227.485	-4.73
227.956	-9.13
228.427	-4.53
228.898	-3.03
229.369	5.47
229.839	-9.03
230.31	-0.63
230.781	0.97
231.252	-1.73
231.722	-9.13
232.193	-7.23
232.664	2.07
233.135	3.97
233.605	2.57
234.076	-6.93
234.546	8.87
235.017	4.97
235.487	1.67
235.958	1.87
236.428	-1.33
236.899	6.87
237.369	1.87
237.84	-4.53
238.31	2.27
238.78	-2.63
239.251	-5.03
239.721	8.37
240.191	4.47
240.662	2.37
241.132	-0.33
241.602	-4.03
242.072	2.67
242.542	4.27
243.013	-3.43
243.483	-2.33
243.953	5.47
244.423	2.17
244.893	-1.83
245.363	-1.63
245.833	3.37
246.303	1.87
246.773	0.87
247.243	3.37
247.712	2.97
248.182	6.27
248.652	7.07
249.122	-0.43
249.592	8.57
250.061	18.57
250.531	32.27
251.001	16.67
251.471	18.67
251.94	14.97
252.41	1.57
252.879	-3.23
253.349	11.57
253.818	6.07
254.288	-0.73
254.757	2.57
255.227	2.07
255.696	0.87
256.166	-1.63
256.635	6.37
257.105	10.27
257.574	6.17
258.043	10.97
258.513	5.07
258.982	13.27
259.451	0.17
259.92	11.17
260.389	4.47
260.859	18.57
261.328	5.37
261.797	12.57
262.266	10.47
262.735	12.97
263.204	5.67
263.673	4.17
264.142	9.57
264.611	-7.93
265.08	-2.13
265.549	0.07
266.018	4.47
266.487	-11.23
266.955	-5.13
267.424	-0.83
267.893	9.67
268.362	5.77
268.83	3.07
269.299	13.97
269.768	2.87
270.236	11.27
270.705	3.67
271.174	3.57
271.642	12.47
272.111	5.17
272.579	15.07
273.048	19.37
273.516	22.67
273.985	20.87
274.453	18.87
274.922	14.07
275.39	8.37
275.858	4.37
276.327	7.87
276.795	19.57
277.263	6.27
277.731	25.57
278.2	47.67
278.668	49.17
279.136	42.67
279.604	15.27
280.072	14.77
280.54	17.07
281.008	13.47
281.477	12.07
281.945	13.17
282.413	11.77
282.881	17.27
283.348	4.97
283.816	13.37
284.284	12.77
284.752	20.37
285.22	10.07
285.688	10.67
286.156	18.57
286.623	43.17
287.091	50.97
287.559	23.27
288.026	15.07
288.494	15.47
288.962	7.17
289.429	14.27
289.897	13.47
290.364	11.67
290.832	13.47
291.3	12.37
291.767	14.67
292.234	19.87
292.702	13.87
293.169	16.67
293.637	18.47
294.104	17.57
294.571	6.87
295.039	15.47
295.506	14.97
295.973	18.07
296.44	15.17
296.908	18.47
297.375	18.67
297.842	22.17
298.309	13.37
298.776	14.77
299.243	15.37
299.71	13.17
300.177	16.17
300.644	25.97
301.111	13.87
301.578	22.47
302.045	12.27
302.512	22.57
302.979	20.77
303.446	27.47
303.913	26.07
304.379	17.57
304.846	30.67
305.313	20.17
305.78	20.37
306.246	21.37
306.713	22.17
307.18	24.17
307.646	19.07
308.113	24.77
308.579	25.07
309.046	26.97
309.512	22.57
309.979	18.07
310.445	24.57
310.912	22.97
311.378	36.17
311.845	22.07
312.311	33.17
312.777	27.67
313.244	28.07
313.71	41.87
314.176	30.47
314.642	32.67
315.109	32.17
315.575	37.87
316.041	32.37
316.507	34.77
316.973	37.67
317.439	34.67
317.905	34.77
318.371	28.27
318.837	32.37
319.303	34.37
319.769	33.67
320.235	30.37
320.701	40.57
321.167	36.37
321.633	33.67
322.099	36.87
322.564	38.77
323.03	34.47
323.496	31.27
323.962	36.67
324.427	32.37
324.893	43.47
325.359	30.37
325.824	30.07
326.29	29.07
326.755	39.37
327.221	40.57
327.686	36.97
328.152	49.17
328.617	39.37
329.083	45.97
329.548	47.87
330.014	45.27
330.479	39.47
330.944	41.47
331.41	38.07
331.875	43.47
332.34	49.97
332.805	39.17
333.271	49.17
333.736	45.07
334.201	53.07
334.666	46.37
335.131	44.27
335.596	50.07
336.061	51.57
336.526	45.57
336.991	46.27
337.456	55.47
337.921	48.17
338.386	44.57
338.851	41.17
339.316	44.97
339.781	48.07
340.246	49.27
340.711	46.77
341.175	43.27
341.64	42.47
342.105	43.47
342.569	58.27
343.034	53.47
343.499	53.67
343.963	48.77
344.428	63.87
344.893	58.57
345.357	59.47
345.822	58.97
346.286	64.67
346.751	73.57
347.215	62.67
347.679	72.37
348.144	90.77
348.608	79.47
349.073	69.17
349.537	72.77
350.001	79.77
350.465	89.37
350.93	75.27
351.394	78.27
351.858	73.37
352.322	92.27
352.786	81.97
353.25	96.27
353.715	106.97
354.179	100.57
354.643	124.77
355.107	129.27
355.571	100.37
356.035	103.87
356.498	116.17
356.962	125.87
357.426	135.47
357.89	115.37
358.354	89.17
358.818	79.87
359.281	81.47
359.745	74.17
360.209	77.07
360.673	73.07
361.136	81.57
361.6	88.07
362.064	83.57
362.527	82.77
362.991	97.37
363.454	77.87
363.918	77.97
364.381	78.17
364.845	78.77
365.308	91.47
365.772	85.27
366.235	82.67
366.698	80.67
367.162	91.67
367.625	80.37
368.088	89.77
368.552	86.67
369.015	86.17
369.478	100.17
369.941	97.27
370.404	97.57
370.867	99.47
371.331	109.87
371.794	111.37
372.257	107.97
372.72	123.87
373.183	107.87
373.646	104.87
374.109	104.87
374.572	102.57
375.035	106.17
375.497	103.17
375.96	112.07
376.423	104.27
376.886	107.17
377.349	111.17
377.811	105.47
378.274	105.87
378.737	109.57
379.199	115.77
379.662	114.27
380.125	122.67
380.587	112.97
381.05	123.97
381.512	132.37
381.975	139.67
382.437	132.57
382.9	130.47
383.362	131.67
383.825	144.97
384.287	149.67
384.75	138.67
385.212	141.47
385.674	138.77
386.136	135.17
386.599	131.17
387.061	129.17
387.523	130.17
387.985	138.27
388.447	143.37
388.91	138.47
389.372	159.57
389.834	157.57
390.296	147.87
390.758	163.47
391.22	173.77
391.682	209.17
392.144	310.97
392.606	233.27
393.068	168.77
393.529	170.67
393.991	156.57
394.453	157.97
394.915	159.47
395.377	201.97
395.838	222.17
396.3	152.27
396.762	139.27
397.224	135.37
397.685	136.97
398.147	134.97
398.608	134.87
399.07	130.27
399.531	139.97
399.993	149.07
400.454	153.37
400.916	148.97
401.377	140.17
401.839	153.57
402.3	151.87
402.762	172.27
403.223	183.37
403.684	172.27
404.145	172.87
404.607	159.37
405.068	170.97
405.529	173.77
405.99	192.97
406.451	179.87
406.913	181.97
407.374	168.37
407.835	168.17
408.296	168.17
408.757	171.67
409.218	190.57
409.679	189.47
410.14	185.67
410.601	176.47
411.062	188.37
411.522	194.37
411.983	191.17
412.444	179.67
412.905	179.97
413.366	192.67
413.826	196.47
414.287	225.37
414.748	267.27
415.208	250.47
415.669	209.57
416.13	205.57
416.59	205.67
417.051	219.27
417.511	224.87
417.972	242.07
418.432	254.47
418.893	288.17
419.353	257.87
419.814	206.37
420.274	184.67
420.734	188.37
421.195	201.37
421.655	198.17
422.115	199.57
422.576	202.57
423.036	202.37
423.496	216.27
423.956	224.57
424.416	236.37
424.876	262.07
425.336	260.47
425.797	269.57
426.257	259.07
426.717	245.07
427.177	236.77
427.637	227.47
428.097	238.77
428.556	250.97
429.016	280.27
429.476	272.77
429.936	282.37
430.396	280.57
430.856	300.57
431.315	317.97
431.775	351.37
432.235	388.47
432.694	366.37
433.154	370.77
433.614	405.97
434.073	352.97
434.533	298.57
434.993	282.47
435.452	286.27
435.912	302.67
436.371	288.77
436.83	286.77
437.29	276.97
437.749	258.07
438.209	256.87
438.668	283.17
439.127	297.47
439.587	271.47
440.046	250.67
440.505	261.97
440.964	292.67
441.424	323.87
441.883	313.67
442.342	265.77
442.801	230.47
443.26	222.87
443.719	226.37
444.178	231.87
444.637	216.77
445.096	228.47
445.555	221.47
446.014	228.77
446.473	226.67
446.932	240.27
447.391	227.07
447.849	232.67
448.308	221.97
448.767	230.47
449.226	235.67
449.685	236.97
450.143	252.77
450.602	242.07
451.061	221.87
451.519	238.77
451.978	234.67
452.436	239.17
452.895	244.27
453.353	265.57
453.812	250.27
454.27	241.67
454.729	244.87
455.187	248.17
455.646	247.47
456.104	250.87
456.562	260.87
457.021	274.47
457.479	260.87
457.937	281.17
458.395	273.07
458.854	251.77
459.312	262.77
459.77	276.87
460.228	257.77
460.686	250.07
461.144	246.77
461.602	247.87
462.06	246.17
462.518	259.57
462.976	260.57
463.434	254.57
463.892	262.17
464.35	275.17
464.808	296.27
465.266	270.47
465.724	270.37
466.181	277.47
466.639	274.57
467.097	292.67
467.555	299.17
468.012	299.07
468.47	313.97
468.928	335.07
469.385	338.57
469.843	352.97
470.3	351.47
470.758	368.57
471.215	390.57
471.673	410.87
472.13	414.17
472.588	429.17
473.045	383.17
473.503	377.77
473.96	402.67
474.417	411.67
474.875	441.67
475.332	493.47
475.789	472.37
476.246	474.37
476.704	502.37
477.161	521.37
477.618	528.87
478.075	565.47
478.532	617.17
478.989	701.37
479.446	810.67
479.903	777.87
480.36	818.27
480.817	883.07
481.274	978.07
481.731	1079.17
482.188	1170.77
482.645	1307.07
483.102	1417.87
483.558	1550.87
484.015	1594.37
484.472	1583.57
484.929	1522.87
485.385	1479.97
485.842	1440.17
486.299	1375.27
486.755	1290.37
487.212	1107.87
487.668	936.67
488.125	857.87
488.582	782.07
489.038	755.47
489.494	713.07
489.951	692.57
490.407	671.17
490.864	658.67
491.32	649.07
491.776	636.77
492.233	643.57
492.689	614.67
493.145	613.87
493.602	604.97
494.058	625.07
494.514	620.67
494.97	639.37
495.426	663.47
495.882	622.37
496.338	609.77
496.794	620.57
497.251	623.17
497.707	639.17
498.163	637.47
498.618	638.77
499.074	641.17
499.53	680.17
499.986	677.27
500.442	649.87
500.898	634.47
501.354	626.17
501.809	643.57
502.265	651.57
502.721	667.07
503.177	674.97
503.632	664.97
504.088	685.17
504.543	712.77
504.999	715.17
505.455	656.87
505.91	631.17
506.366	638.27
506.821	631.17
507.277	625.77
507.732	626.67
508.187	628.57
508.643	638.07
509.098	638.27
509.553	656.97
510.009	668.87
510.464	668.07
510.919	695.37
511.375	696.57
511.83	714.67
512.285	720.67
512.74	757.27
513.195	789.57
513.65	767.97
514.105	762.77
514.56	769.77
515.015	787.17
515.47	804.37
515.925	790.07
516.38	776.57
516.835	789.27
517.29	786.57
517.745	776.17
518.2	755.57
518.655	750.37
519.109	744.17
519.564	738.07
520.019	733.77
520.474	725.07
520.928	729.87
521.383	723.97
521.838	721.97
522.292	703.87
522.747	707.77
523.201	699.37
523.656	693.07
524.11	684.77
524.565	686.87
525.019	692.77
525.474	699.67
525.928	712.47
526.382	693.67
526.837	694.57
527.291	700.57
527.745	696.67
528.2	705.97
528.654	693.57
529.108	688.17
529.562	688.07
530.016	685.17
530.47	686.27
530.925	684.07
531.379	702.17
531.833	710.77
532.287	691.07
532.741	693.37
533.195	704.07
533.649	705.07
534.103	714.67
534.556	708.97
535.01	705.97
535.464	700.67
535.918	718.07
536.372	718.67
536.826	713.97
537.279	709.07
537.733	713.27
538.187	716.17
538.64	711.17
539.094	730.07
539.548	721.37
540.001	727.17
540.455	720.37
540.908	734.97
541.362	739.97
541.815	743.67
542.269	756.27
542.722	760.67
543.175	780.07
543.629	764.67
544.082	785.77
544.536	789.37
544.989	778.67
545.442	789.77
545.895	794.37
546.349	773.37
546.802	798.67
547.255	810.97
547.708	804.27
548.161	807.17
548.614	823.57
549.067	820.27
549.52	819.17
549.973	807.37
550.426	802.97
550.879	799.07
551.332	797.17
551.785	798.87
552.238	803.77
552.691	812.07
553.144	819.67
553.596	835.97
554.049	866.47
554.502	888.97
554.955	896.27
555.407	907.57
555.86	893.97
556.313	894.27
556.765	873.07
557.218	888.37
557.67	882.47
558.123	867.47
558.576	869.17
559.028	883.97
559.48	879.27
559.933	868.27
560.385	828.97
560.838	804.27
561.29	775.27
561.742	780.37
562.195	766.77
562.647	761.67
563.099	780.37
563.551	773.97
564.004	783.47
564.456	782.87
564.908	761.07
565.36	741.27
565.812	736.87
566.264	724.87
566.716	720.67
567.168	720.37
567.62	723.47
568.072	702.57
568.524	695.17
568.976	694.17
569.428	681.07
569.88	681.27
570.332	686.37
570.784	691.27
571.235	680.77
571.687	698.57
572.139	709.87
572.59	707.07
573.042	716.17
573.494	701.97
573.945	706.17
574.397	673.57
574.849	692.37
575.3	689.27
575.752	685.17
576.203	679.87
576.655	679.57
577.106	668.07
577.557	666.57
578.009	674.77
578.46	668.57
578.912	660.17
579.363	661.07
579.814	664.07
580.265	654.77
580.717	659.57
581.168	670.47
581.619	676.87
582.07	687.27
582.521	675.37
582.972	676.57
583.423	673.17
583.875	681.87
584.326	708.17
584.777	751.17
585.227	833.87
585.678	922.27
586.129	1004.77
586.58	1094.57
587.031	1168.17
587.482	1325.07
587.933	1504.67
588.384	1314.57
588.834	984.77
589.285	800.27
589.736	780.57
590.186	781.97
590.637	758.97
591.088	745.27
591.538	735.17
591.989	733.57
592.439	732.27
592.89	724.77
593.34	709.97
593.791	711.87
594.241	710.97
594.692	724.17
595.142	701.47
595.593	694.37
596.043	709.47
596.493	714.67
596.943	713.97
597.394	721.67
597.844	715.57
598.294	739.17
598.744	750.77
599.195	784.07
599.645	817.27
600.095	862.57
600.545	927.67
600.995	970.67
601.445	1023.07
601.895	1102.57
602.345	1128.07
602.795	1108.27
603.245	1053.57
603.695	1009.77
604.145	961.67
604.594	911.07
605.044	859.47
605.494	791.87
605.944	749.57
606.393	750.07
606.843	724.97
607.293	737.27
607.743	737.57
608.192	749.37
608.642	760.07
609.091	766.37
609.541	773.57
609.99	772.67
610.44	772.17
610.889	737.77
611.339	705.57
611.788	692.67
612.238	707.87
612.687	722.27
613.136	725.97
613.586	740.07
614.035	739.77
614.484	753.77
614.933	757.37
615.383	751.77
615.832	741.87
616.281	731.57
616.73	690.77
617.179	669.07
617.628	659.57
618.077	634.37
618.526	631.97
618.975	622.17
619.424	615.67
619.873	622.57
620.322	618.57
620.771	617.57
621.22	604.77
621.669	602.27
622.118	594.87
622.567	574.37
623.015	558.67
623.464	570.17
623.913	563.67
624.361	564.57
624.81	555.97
625.259	550.17
625.707	557.47
626.156	560.07
626.604	568.27
627.053	563.27
627.501	572.17
627.95	575.57
628.398	582.07
628.847	571.37
629.295	566.87
629.744	568.97
630.192	568.67
630.64	572.67
631.089	569.97
631.537	578.47
631.985	585.77
632.433	614.77
632.881	615.47
633.33	663.47
633.778	654.37
634.226	577.17
634.674	575.67
635.122	587.07
635.57	601.47
636.018	628.67
636.466	577.87
636.914	554.97
637.362	565.37
637.81	577.97
638.258	582.37
638.705	586.57
639.153	625.37
639.601	624.47
640.049	655.57
640.497	675.37
640.944	694.47
641.392	643.37
641.84	613.97
642.287	587.37
642.735	575.87
643.182	586.67
643.63	579.17
644.078	573.87
644.525	595.47
644.973	596.57
645.42	607.27
645.867	621.37
646.315	652.27
646.762	667.17
647.21	691.37
647.657	719.27
648.104	754.87
648.551	780.37
648.999	842.07
649.446	922.77
649.893	1016.57
650.34	1179.37
650.787	1420.57
651.234	1747.57
651.682	2304.27
652.129	3154.57
652.576	4580.97
653.023	6748.47
653.47	9204.87
653.917	11388.27
654.363	13082.97
654.81	14369.57
655.257	13650.07
655.704	8966.07
656.151	5296.27
656.598	3412.37
657.044	2435.87
657.491	1876.57
657.938	1472.37
658.385	1253.97
658.831	1088.37
659.278	957.57
659.724	860.37
660.171	797.47
660.618	721.07
661.064	697.17
661.511	669.37
661.957	660.17
662.404	648.97
662.85	658.27
663.296	625.97
663.743	567.17
664.189	535.57
664.635	530.87
665.082	528.27
665.528	536.17
665.974	519.37
666.42	516.07
666.867	507.67
667.313	496.97
667.759	492.87
668.205	483.07
668.651	495.07
669.097	486.97
669.543	512.47
669.989	480.27
670.435	449.27
670.881	444.67
671.327	453.97
671.773	468.67
672.219	487.87
672.665	542.87
673.11	583.97
673.556	624.17
674.002	664.27
674.448	657.97
674.893	541.47
675.339	479.87
675.785	440.87
676.23	416.47
676.676	390.27
677.122	379.47
677.567	380.97
678.013	368.27
678.458	368.77
678.904	363.37
679.349	348.87
679.794	355.77
680.24	348.17
680.685	354.37
681.131	346.47
681.576	351.47
682.021	359.17
682.466	353.57
682.912	348.67
683.357	348.67
683.802	382.57
684.247	415.27
684.692	458.37
685.137	499.27
685.583	534.67
686.028	560.07
686.473	517.77
686.918	443.37
687.363	421.97
687.807	397.47
688.252	362.47
688.697	357.97
689.142	338.47
689.587	326.57
690.032	334.97
690.477	352.07
690.921	347.37
691.366	384.37
691.811	407.47
692.255	433.87
692.7	464.17
693.145	504.47
693.589	714.37
694.034	1162.77
694.478	1555.17
694.923	1721.57
695.367	2234.67
695.812	1182.57
696.256	499.07
696.701	373.47
697.145	350.07
697.59	335.27
698.034	312.37
698.478	336.77
698.922	329.87
699.367	324.57
699.811	336.67
700.255	359.07
700.699	391.67
701.143	436.97
701.588	478.27
702.032	522.17
702.476	519.47
702.92	492.67
703.364	494.37
703.808	657.67
704.252	1079.07
704.696	1473.17
705.14	1654.87
705.584	2106.57
706.027	1050.07
706.471	518.57
706.915	391.87
707.359	353.37
707.803	320.07
708.246	308.37
708.69	318.67
709.134	313.27
709.577	314.27
710.021	311.57
710.465	304.97
710.908	306.87
711.352	300.37
711.795	318.97
712.239	349.97
712.682	391.67
713.126	411.97
713.569	458.87
714.012	374.67
714.456	320.57
714.899	291.67
715.342	281.87
715.786	254.47
716.229	261.37
716.672	258.27
717.115	250.57
717.558	253.57
718.002	251.97
718.445	264.77
718.888	286.07
719.331	296.87
719.774	313.27
720.217	299.87
720.66	283.37
721.103	272.87
721.546	253.57
721.989	248.77
722.432	235.27
722.874	238.77
723.317	230.17
723.76	236.87
724.203	258.37
724.645	326.97
725.088	446.27
725.531	569.77
725.974	634.97
726.416	546.27
726.859	305.47
727.301	246.07
727.744	237.07
728.187	238.17
728.629	238.27
729.071	246.37
729.514	264.37
729.956	271.67
730.399	290.17
730.841	286.57
731.283	279.27
731.726	265.07
732.168	259.67
732.61	266.17
733.053	288.97
733.495	325.37
733.937	356.07
734.379	407.47
734.821	436.87
735.263	552.97
735.705	857.17
736.148	1621.77
736.59	2609.97
737.032	2999.67
737.474	2463.27
737.916	801.47
738.357	429.67
738.799	326.97
739.241	304.07
739.683	287.47
740.125	296.57
740.567	299.77
741.008	311.67
741.45	318.57
741.892	324.77
742.334	346.67
742.775	357.37
743.217	343.47
743.658	273.27
744.1	252.07
744.542	261.37
744.983	308.57
745.425	342.87
745.866	335.17
746.307	286.67
746.749	283.77
747.19	323.17
747.632	469.47
748.073	924.87
748.514	1923.97
748.956	2839.17
749.397	3587.47
749.838	2978.17
750.279	2933.17
750.72	1491.97
751.162	560.87
751.603	315.27
752.044	247.17
752.485	219.77
752.926	208.17
753.367	194.87
753.808	193.17
754.249	188.97
754.69	187.07
755.131	184.27
755.572	178.07
756.013	181.27
756.453	182.07
756.894	194.57
757.335	187.47
757.776	194.07
758.216	195.17
758.657	198.37
759.098	205.27
759.538	229.27
759.979	276.57
760.42	383.67
760.86	733.97
761.301	1905.07
761.741	4506.07
762.182	6321.57
762.622	4451.57
763.063	1307.27
763.503	543.07
763.943	349.07
764.384	349.57
764.824	414.97
765.264	438.67
765.705	311.17
766.145	217.67
766.585	194.37
767.025	181.97
767.465	186.27
767.906	244.37
768.346	320.17
768.786	353.37
769.226	271.97
769.666	327.07
770.106	650.77
770.546	1590.47
770.986	2637.07
771.426	2337.97
771.866	795.37
772.306	326.37
772.745	211.57
773.185	177.87
773.625	172.27
774.065	169.67
774.505	198.67
774.944	321.07
775.384	697.27
775.824	1231.47
776.263	1166.17
776.703	507.17
777.142	225.37
777.582	162.17
778.021	135.27
778.461	134.77
778.9	144.27
779.34	130.07
779.779	118.87
780.219	109.87
780.658	114.87
781.097	114.87
781.537	113.17
781.976	109.57
782.415	106.67
782.855	105.17
783.294	107.87
783.733	105.37
784.172	109.17
784.611	110.37
785.05	108.17
785.489	112.67
785.928	125.37
786.367	120.37
786.806	118.57
787.245	130.97
787.684	138.67
788.123	144.27
788.562	139.67
789.001	131.47
789.44	123.67
789.879	119.37
790.317	116.87
790.756	128.77
791.195	126.47
791.634	146.07
792.072	211.77
792.511	387.87
792.95	1050.57
793.388	2136.77
793.827	1914.87
794.265	675.17
794.704	286.07
795.142	182.27
795.581	157.17
796.019	137.57
796.458	132.47
796.896	119.37
797.334	131.67
797.773	160.97
798.211	223.47
798.649	447.87
799.087	1027.17
799.526	1598.87
799.964	2023.07
800.402	1973.37
800.84	746.17
801.278	301.17
801.716	188.97
802.154	158.07
802.592	147.27
803.03	143.97
803.468	136.17
803.906	140.77
804.344	151.17
804.782	141.97
805.22	133.67
805.658	129.67
806.096	148.87
806.533	163.47
806.971	170.97
807.409	219.07
807.847	321.77
808.284	682.17
808.722	1893.07
809.16	3277.97
809.597	3154.37
810.035	5443.37
810.472	5621.67
810.91	2064.27
811.347	800.07
811.785	397.67
812.222	254.67
812.66	188.97
813.097	168.17
813.535	145.77
813.972	130.37
814.409	119.37
814.846	104.77
815.284	110.07
815.721	102.87
816.158	109.77
816.595	124.07
817.032	178.67
817.47	201.47
817.907	164.57
818.344	153.67
818.781	116.37
819.218	99.07
819.655	120.87
820.092	186.17
820.529	211.47
820.966	178.57
821.403	130.17
821.839	111.57
822.276	107.97
822.713	119.57
823.15	136.07
823.587	108.97
824.023	155.67
824.46	311.67
824.897	921.67
825.333	1342.87
825.77	576.47
826.206	229.17
826.643	127.47
827.08	98.87
827.516	75.67
827.953	77.57
828.389	80.27
828.825	66.37
829.262	63.67
829.698	57.77
830.135	64.27
830.571	57.77
831.007	69.57
831.443	61.17
831.88	62.57
832.316	61.47
832.752	65.57
833.188	66.57
833.624	64.77
834.06	71.17
834.497	70.27
834.933	76.27
835.369	69.07
835.805	65.47
836.241	71.37
836.677	80.47
837.112	89.77
837.548	107.07
837.984	132.37
838.42	201.07
838.856	507.87
839.292	1542.87
839.727	2254.97
840.163	1063.57
840.599	948.37
841.034	2060.27
841.47	2082.27
841.906	773.07
842.341	331.47
842.777	231.57
843.212	320.37
843.648	305.47
844.083	147.67
844.519	92.87
844.954	75.17
845.39	64.67
845.825	50.87
846.261	54.57
846.696	57.17
847.131	53.27
847.566	62.87
848.002	52.37
848.437	53.87
848.872	64.27
849.307	62.37
849.742	82.37
850.177	185.97
850.613	566.87
851.048	862.57
851.483	368.07
851.918	150.37
852.353	86.57
852.788	59.77
853.223	57.17
853.657	60.77
854.092	51.27
854.527	43.17
854.962	38.37
855.397	42.27
855.832	50.77
856.266	40.57
856.701	41.37
857.136	35.87
857.57	41.07
858.005	51.07
858.44	57.47
858.874	44.07
859.309	56.57
859.743	35.67
860.178	47.97
860.612	41.17
861.047	52.37
861.481	63.87
861.915	66.57
862.35	47.37
862.784	36.27
863.218	33.17
863.653	29.37
864.087	44.77
864.521	49.67
864.955	73.27
865.39	161.37
865.824	177.77
866.258	110.57
866.692	164.57
867.126	167.47
867.56	106.37
867.994	49.47
868.428	37.67
868.862	44.07
869.296	55.37
869.73	51.97
870.164	55.27
870.598	46.97
871.031	35.57
871.465	35.37
871.899	30.27
872.333	21.57
872.766	25.97
873.2	27.57
873.634	26.37
874.067	29.87
874.501	26.27
874.935	39.07
875.368	24.87
875.802	28.97
876.235	24.27
876.669	23.17
877.102	20.07
877.535	24.37
877.969	21.67
878.402	22.37
878.836	19.57
879.269	22.77
879.702	21.17
880.135	19.47
880.569	25.17
881.002	25.67
881.435	25.27
881.868	18.77
882.301	24.37
882.734	13.87
883.167	25.67
883.601	18.77
884.034	21.87
884.467	6.67
884.899	20.27
885.332	17.87
885.765	22.67
886.198	14.27
886.631	19.47
887.064	17.07
887.497	18.37
887.929	23.67
888.362	15.97
888.795	19.17
889.228	18.17
889.66	19.37
890.093	23.37
890.526	20.97
890.958	16.27
891.391	15.37
891.823	19.17
892.256	13.87
892.688	9.57
893.121	15.97
893.553	13.17
893.985	17.47
894.418	18.57
894.85	10.77
895.282	20.87
895.715	10.17
896.147	19.77
896.579	16.77
897.011	16.77
897.444	15.97
897.876	15.87
898.308	20.87
898.74	15.47
899.172	11.67
899.604	21.87
900.036	19.77
900.468	12.57
900.9	19.07
901.332	16.97
901.764	18.07
902.196	21.67
902.628	18.57
903.06	15.17
903.491	25.87
903.923	23.97
904.355	13.47
904.787	23.47
905.218	20.67
905.65	20.47
906.082	8.87
906.513	12.97
906.945	26.47
907.376	15.57
907.808	26.87
908.239	24.77
908.671	25.07
909.102	21.97
909.534	25.27
909.965	48.87
910.397	92.07
910.828	311.67
911.259	463.87
911.691	219.37
912.122	106.57
912.553	53.17
912.984	31.67
913.415	25.77
913.847	19.47
914.278	18.77
914.709	15.87
915.14	17.37
915.571	20.77
916.002	7.47
916.433	14.77
916.864	14.47
917.295	14.97
917.726	17.87
918.157	19.27
918.587	33.47
919.018	20.37
919.449	20.07
919.88	24.27
920.311	36.47
920.741	46.67
921.172	164.77
921.603	145.57
922.033	71.47
922.464	47.47
922.895	22.77
923.325	24.37
923.756	12.47
924.186	18.17
924.617	20.77
925.047	46.57
925.478	53.07
925.908	45.77
926.338	25.27
926.769	16.67
927.199	21.67
927.629	9.77
928.06	13.97
928.49	9.07
928.92	10.97
929.35	15.07
929.78	11.97
930.21	11.77
930.641	9.27
931.071	9.47
931.501	5.17
931.931	6.87
932.361	7.47
932.791	4.47
933.221	5.37
933.651	-0.53
934.08	17.37
934.51	26.67
934.94	8.17
935.37	8.37
935.8	11.17
936.229	3.47
936.659	12.87
937.089	1.37
937.519	13.77
937.948	16.47
938.378	14.17
938.807	9.97
939.237	3.47
939.666	8.17
940.096	-8.73
940.525	3.37
940.955	-1.13
941.384	6.77
941.814	-3.53
942.243	0.17
942.672	5.57
943.102	-1.83
943.531	-1.73
943.96	6.97
944.39	-0.83
944.819	-1.73
945.248	-0.73
945.677	0.87
946.106	1.87
946.535	10.27
946.964	-3.73
947.393	9.57
947.822	3.47
948.251	-4.73
948.68	2.77
949.109	10.37
949.538	6.87
949.967	-2.63
950.396	6.27
950.825	2.57
951.254	3.57
951.682	-2.63
952.111	6.67
952.54	2.87
952.969	-3.23
953.397	-7.73
953.826	-5.63
954.254	-5.73
954.683	2.47
955.112	-8.23
955.54	0.97
955.969	1.87
956.397	-3.53
956.826	-1.93
957.254	-1.83
957.682	0.57
958.111	7.57
958.539	-1.43
958.967	1.67
959.396	-4.33
959.824	1.97
960.252	3.77
960.68	-9.03
961.109	-6.73
961.537	-6.53
961.965	0.87
962.393	-1.23
962.821	-1.13
963.249	-0.33
963.677	12.17
964.105	6.87
964.533	43.57
964.961	37.77
965.389	17.87
965.817	8.77
966.245	0.27
966.672	1.57
967.1	-6.33
967.528	3.67
967.956	-5.63
968.383	-6.83
968.811	-4.93
969.239	-7.73
969.666	-1.63
970.094	1.97
970.522	6.97
970.949	-3.23
971.377	-3.53
971.804	-2.33
972.232	0.87
972.659	1.07
973.087	-0.83
973.514	-0.33
973.941	-5.93
974.369	2.67
974.796	0.97
975.223	-2.53
975.651	-4.33
976.078	-0.03
976.505	-2.93
976.932	2.17
977.359	10.37
977.786	14.47
978.214	1.67
978.641	-1.13
979.068	-4.03
979.495	-0.33
979.922	-0.83
980.349	0.67
980.776	1.57
981.202	-4.33
981.629	2.77
982.056	3.97
982.483	-8.63
982.91	0.87
983.337	-7.13
983.763	6.37
984.19	-8.23
984.617	-6.63
985.043	-10.23
985.47	-3.23
985.897	-8.83
986.323	-4.93
986.75	4.87
987.176	-0.73
987.603	-1.13
988.029	-2.53
988.456	-3.93
988.882	0.27
989.308	-8.53
989.735	-6.53
990.161	-1.13
990.587	-2.63
991.014	2.47
991.44	11.77
991.866	-10.33
992.292	-4.13
992.719	-7.83
993.145	-0.13
993.571	-5.03
993.997	-2.83
994.423	1.67
994.849	-6.73
995.275	2.57
995.701	-1.23
996.127	-6.93
996.553	-1.13
996.979	1.07
997.405	-0.73
997.83	-1.13
998.256	-4.83
998.682	-3.53
999.108	-10.53
999.534	-1.03
999.959	1.77
1000.385	-4.83
1000.811	-2.63
1001.236	-10.83
1001.662	-11.63
1002.087	-8.23
1002.513	-2.53
1002.938	1.87
1003.364	-5.33
1003.789	-5.63
1004.215	5.47
1004.64	-6.33
1005.066	-3.53
1005.491	0.27
1005.916	4.97
1006.342	-3.53
1006.767	-6.93
1007.192	-3.93
1007.617	-4.63
1008.042	-4.73
1008.468	-9.23
1008.893	-3.93
1009.318	-2.73
1009.743	-3.13
1010.168	-3.13
1010.593	0.07
1011.018	-10.13
1011.443	-4.13
1011.868	1.87
1012.293	-5.13
1012.718	-1.33
1013.143	-0.13
1013.567	2.17
1013.992	-1.33
1014.417	-5.23
1014.842	0.27
1015.267	-6.53
1015.691	2.87
1016.116	6.87
1016.541	5.27
1016.965	0.77
1017.39	3.17
1017.814	-5.33
1018.239	-6.73
1018.663	-12.43
1019.088	-12.23
1019.512	-1.73
1019.937	-1.03
1020.361	-12.03
1020.785	-14.23
1021.21	-5.93
1021.634	-2.33
1022.058	0.87
1022.483	1.97
1022.907	-6.83
1023.331	-6.23
1023.755	-0.73
1024.179	-5.53
1024.604	-9.83
1025.028	-9.73
1025.452	-6.43
1025.876	-7.43
1026.3	-3.03
1026.724	-14.93
1027.148	-3.43
1027.572	-5.93
1027.996	-1.23
1028.42	-0.93
1028.843	-9.43
1029.267	-0.53
1029.691	-4.73
1030.115	-5.73
1030.539	-9.63
1030.962	-4.33
1031.386	-10.03
1031.81	-1.83
1032.233	-6.33
1032.657	0.37
1033.08	-0.83
1033.504	0.87
1033.927	-8.13
1034.351	0.67
1034.774	-6.93
1035.198	-0.03
1035.621	-1.03
1036.045	-15.13
1036.468	-3.73
1036.891	-5.03
1037.315	-8.73
1037.738	-10.83
1038.161	-3.13
1038.584	-5.03
1039.008	-9.33
1039.431	-5.93
1039.854	0.77
1040.277	-8.23
1040.7	-11.93
1041.123	-5.83
1041.546	-13.13
1041.969	-0.83
1042.392	-5.83
1042.815	-4.23
1043.238	0.97
1043.661	4.37
1044.084	-5.43
1044.507	-4.43
1044.93	-9.83
1045.352	-7.33
1045.775	-3.93
1046.198	-7.03
1046.621	-0.53
1047.043	-3.93
1047.466	4.07
1047.889	-3.03
1048.311	-10.03
1048.734	-5.33
1049.156	-2.63
1049.579	-0.23
1050.001	-7.23
1050.424	-0.83
1050.846	-3.93
1051.269	-8.03
1051.691	-4.63
1052.113	-7.03
1052.536	0.37
1052.958	-8.23
1053.38	-7.43
1053.802	-14.03
1054.225	-1.03
1054.647	-10.23
1055.069	-1.03
1055.491	-4.23
1055.913	-11.43
1056.335	-2.33
1056.757	-11.03
1057.179	-8.83
1057.601	-12.43
1058.023	-1.33
1058.445	-10.73
1058.867	-5.13
1059.289	-3.03
1059.711	-5.73
1060.133	-3.53
1060.555	-6.73
1060.976	-2.63
1061.398	-9.13
1061.82	-11.63
1062.241	-9.73
1062.663	-4.53
1063.085	-7.03
1063.506	2.07
1063.928	-4.23
1064.35	-1.13
1064.771	-9.93
1065.193	-3.63
1065.614	-4.93
1066.035	-0.83
1066.457	-4.43
1066.878	0.47
1067.3	-7.83
1067.721	-5.43
1068.142	-9.43
1068.564	-5.73
1068.985	-11.13
1069.406	-8.43
1069.827	-6.93
1070.248	-4.33
1070.67	-8.33
1071.091	-9.13
1071.512	-3.63
1071.933	-4.13
1072.354	-4.23
1072.775	-3.93
1073.196	-6.83
1073.617	-5.43
1074.038	-4.13
1074.459	-5.33
1074.88	-4.73
1075.3	-1.13
1075.721	-6.13
1076.142	1.27
1076.563	-9.53
1076.983	-12.03
1077.404	-9.23
1077.825	-10.83
1078.246	-5.03
1078.666	-8.93
1079.087	-5.93
1079.507	-6.33
1079.928	1.27
1080.348	-3.73
1080.769	-1.73
1081.189	-2.93
1081.61	-4.63
1082.03	-5.33
1082.451	-8.33
1082.871	-6.63
1083.291	-5.73
1083.711	-7.23
1084.132	-7.73
1084.552	-2.93
1084.972	-6.03
1085.392	-8.23
1085.813	-7.53
1086.233	-10.53
1086.653	-8.23
1087.073	-4.23
1087.493	-8.13
1087.913	-13.43
1088.333	-7.63
1088.753	-9.13
1089.173	1.27
1089.593	-5.33
1090.013	-1.53
1090.433	-2.23
1090.852	-2.93
1091.272	-0.33
1091.692	-6.43
1092.112	-7.33
1092.531	-11.23
1092.951	-12.33
1093.371	-7.13
1093.79	2.67
1094.21	-8.03
1094.63	-7.13
1095.049	-3.03
1095.469	-5.93
1095.888	-6.13
1096.308	-3.23
1096.727	3.77
1097.146	-0.63
1097.566	-0.43
1097.985	-1.33
1098.405	-3.43
1098.824	-3.43
1099.243	-7.73
1099.662	-13.13
1100.082	-3.73
1100.501	-6.73
1100.92	-1.03
1101.339	-3.03
1101.758	-9.63
