Data from 20171114-ORNL-Ar_H_NY_Subt18_08-08-19-479.txt Node
Date: Tue Nov 14 08:08:19 EST 2017
User: Ender
Spectrometer: HR+D1039
Trigger mode: 0
Integration Time (sec): 2.730000E-2
Scans to average: 10
Electric dark correction enabled: true
Nonlinearity correction enabled: false
Boxcar width: 0
XAxis mode: Wavelengths
Number of Pixels in Spectrum: 2048
>>>>>Begin Spectral Data<<<<<
187.836	-3.93
188.309	-3.93
188.782	-3.93
189.255	-1.03
189.728	-1.92
190.201	3.48
190.674	-2.33
191.147	4.27
191.619	-5.23
192.092	-0.52
192.565	-0.13
193.038	3.77
193.511	5.97
193.984	-4.83
194.456	-4.02
194.929	3.27
195.402	1.97
195.874	1.17
196.347	-2.23
196.82	-13.73
197.292	2.47
197.765	-9.12
198.237	-8.83
198.71	3.67
199.182	-3.93
199.655	-0.33
200.127	3.07
200.6	1.17
201.072	2.27
201.544	0.58
202.017	-2.93
202.489	-1.33
202.961	-0.52
203.433	-7.33
203.906	-4.02
204.378	-6.02
204.85	-2.73
205.322	-8.03
205.794	-2.53
206.266	-5.52
206.739	-10.12
207.211	-4.42
207.683	-9.92
208.155	-7.12
208.627	-9.93
209.099	-4.62
209.57	-7.12
210.042	-12.43
210.514	-2.52
210.986	-0.92
211.458	-7.93
211.93	-4.73
212.402	-1.53
212.873	-3.23
213.345	-7.02
213.817	-13.83
214.288	-8.23
214.76	-12.93
215.232	-2.62
215.703	-6.92
216.175	-0.93
216.646	-7.33
217.118	-9.03
217.589	-9.23
218.061	-9.03
218.532	-3.32
219.004	-0.93
219.475	-4.12
219.946	-2.73
220.418	-5.52
220.889	1.98
221.36	2.68
221.832	-3.83
222.303	-9.73
222.774	1.48
223.245	-8.42
223.717	-1.73
224.188	-5.42
224.659	-8.93
225.13	-1.23
225.601	-0.73
226.072	5.77
226.543	-4.93
227.014	-0.12
227.485	-2.23
227.956	-5.52
228.427	1.98
228.898	5.27
229.369	5.77
229.839	-5.12
230.31	-6.03
230.781	0.77
231.252	-4.12
231.722	-0.93
232.193	-1.73
232.664	1.17
233.135	1.27
233.605	4.88
234.076	-8.93
234.546	-4.63
235.017	2.08
235.487	-1.12
235.958	-5.23
236.428	-4.12
236.899	0.58
237.369	-0.02
237.84	0.88
238.31	5.27
238.78	0.38
239.251	0.98
239.721	2.38
240.191	-6.23
240.662	2.58
241.132	-2.73
241.602	2.17
242.072	6.77
242.542	5.48
243.013	0.07
243.483	0.58
243.953	1.77
244.423	-1.23
244.893	-2.23
245.363	2.37
245.833	0.77
246.303	-4.43
246.773	9.07
247.243	2.27
247.712	1.57
248.182	13.77
248.652	7.88
249.122	0.07
249.592	13.38
250.061	20.48
250.531	31.18
251.001	14.38
251.471	25.48
251.94	11.67
252.41	7.77
252.879	-6.23
253.349	10.57
253.818	9.17
254.288	4.58
254.757	7.18
255.227	-3.82
255.696	2.38
256.166	1.98
256.635	5.58
257.105	1.98
257.574	8.37
258.043	12.27
258.513	10.57
258.982	15.08
259.451	9.17
259.92	12.98
260.389	12.08
260.859	14.27
261.328	11.58
261.797	18.18
262.266	9.88
262.735	11.48
263.204	8.47
263.673	0.98
264.142	8.18
264.611	-6.53
265.08	-0.62
265.549	5.88
266.018	2.58
266.487	2.57
266.955	-3.52
267.424	2.67
267.893	1.58
268.362	-1.82
268.83	4.07
269.299	13.18
269.768	1.17
270.236	2.88
270.705	2.57
271.174	7.77
271.642	10.47
272.111	9.48
272.579	15.57
273.048	15.67
273.516	26.98
273.985	24.17
274.453	21.48
274.922	13.67
275.39	7.97
275.858	0.38
276.327	5.27
276.795	19.38
277.263	4.67
277.731	30.77
278.2	50.07
278.668	57.08
279.136	42.88
279.604	16.58
280.072	15.77
280.54	10.77
281.008	10.88
281.477	8.57
281.945	17.98
282.413	9.07
282.881	10.27
283.348	4.88
283.816	12.97
284.284	12.97
284.752	18.47
285.22	11.08
285.688	16.07
286.156	16.98
286.623	47.48
287.091	51.88
287.559	24.48
288.026	10.27
288.494	15.17
288.962	0.77
289.429	8.27
289.897	18.48
290.364	15.17
290.832	18.27
291.3	12.48
291.767	15.58
292.234	17.88
292.702	11.58
293.169	18.08
293.637	23.17
294.104	15.17
294.571	3.07
295.039	16.77
295.506	13.27
295.973	18.97
296.44	18.58
296.908	15.68
297.375	16.88
297.842	18.88
298.309	17.17
298.776	13.88
299.243	16.57
299.71	10.17
300.177	16.08
300.644	21.58
301.111	23.68
301.578	19.77
302.045	11.77
302.512	19.58
302.979	22.58
303.446	16.97
303.913	19.27
304.379	17.17
304.846	28.48
305.313	29.17
305.78	18.77
306.246	23.17
306.713	23.47
307.18	29.18
307.646	24.37
308.113	29.57
308.579	22.97
309.046	27.18
309.512	22.27
309.979	19.97
310.445	28.07
310.912	22.77
311.378	33.77
311.845	30.48
312.311	28.98
312.777	28.47
313.244	34.98
313.71	33.57
314.176	25.18
314.642	28.48
315.109	32.07
315.575	36.58
316.041	34.58
316.507	33.77
316.973	39.38
317.439	37.98
317.905	35.38
318.371	30.57
318.837	34.77
319.303	32.67
319.769	32.27
320.235	32.17
320.701	34.77
321.167	34.37
321.633	34.77
322.099	43.27
322.564	45.88
323.03	37.47
323.496	34.58
323.962	39.58
324.427	31.48
324.893	39.17
325.359	38.37
325.824	39.38
326.29	36.07
326.755	34.57
327.221	39.87
327.686	42.27
328.152	48.27
328.617	43.08
329.083	46.77
329.548	49.07
330.014	55.48
330.479	36.97
330.944	42.47
331.41	42.57
331.875	45.48
332.34	43.38
332.805	39.97
333.271	52.57
333.736	39.57
334.201	49.98
334.666	49.67
335.131	48.97
335.596	50.67
336.061	48.27
336.526	39.97
336.991	43.98
337.456	56.98
337.921	45.67
338.386	44.27
338.851	50.37
339.316	50.38
339.781	45.17
340.246	50.67
340.711	43.97
341.175	49.67
341.64	47.38
342.105	50.27
342.569	57.77
343.034	57.27
343.499	53.67
343.963	49.38
344.428	62.77
344.893	62.87
345.357	62.47
345.822	67.07
346.286	62.48
346.751	76.38
347.215	65.38
347.679	78.08
348.144	100.97
348.608	84.58
349.073	73.98
349.537	72.17
350.001	85.67
350.465	87.88
350.93	80.17
351.394	76.48
351.858	74.27
352.322	90.27
352.786	86.68
353.25	96.27
353.715	109.67
354.179	99.67
354.643	118.27
355.107	128.48
355.571	107.98
356.035	105.27
356.498	121.07
356.962	121.67
357.426	129.37
357.89	115.27
358.354	89.17
358.818	83.27
359.281	83.38
359.745	74.18
360.209	78.98
360.673	80.68
361.136	82.58
361.6	89.27
362.064	86.77
362.527	81.87
362.991	88.98
363.454	83.48
363.918	80.17
364.381	76.27
364.845	85.67
365.308	80.57
365.772	82.77
366.235	80.77
366.698	81.77
367.162	81.47
367.625	91.07
368.088	87.07
368.552	87.38
369.015	90.17
369.478	96.17
369.941	103.27
370.404	92.37
370.867	106.27
371.331	105.67
371.794	115.37
372.257	110.67
372.72	115.27
373.183	110.98
373.646	102.27
374.109	103.58
374.572	111.97
375.035	114.88
375.497	109.77
375.96	105.17
376.423	103.37
376.886	108.77
377.349	108.57
377.811	108.17
378.274	107.38
378.737	99.97
379.199	113.58
379.662	118.67
380.125	120.08
380.587	115.67
381.05	124.98
381.512	133.87
381.975	135.47
382.437	130.67
382.9	129.57
383.362	136.07
383.825	143.08
384.287	147.17
384.75	141.97
385.212	144.47
385.674	139.17
386.136	141.77
386.599	131.88
387.061	134.58
387.523	139.48
387.985	142.37
388.447	156.97
388.91	144.38
389.372	164.48
389.834	154.77
390.296	154.67
390.758	154.98
391.22	170.67
391.682	217.58
392.144	304.38
392.606	239.07
393.068	164.98
393.529	171.47
393.991	150.98
394.453	150.77
394.915	160.97
395.377	200.88
395.838	232.38
396.3	155.57
396.762	144.48
397.224	132.47
397.685	128.07
398.147	131.27
398.608	130.17
399.07	130.58
399.531	135.58
399.993	141.18
400.454	151.07
400.916	144.77
401.377	142.58
401.839	149.97
402.3	152.38
402.762	163.17
403.223	182.17
403.684	169.57
404.145	166.77
404.607	167.17
405.068	173.38
405.529	175.38
405.99	198.78
406.451	176.57
406.913	182.07
407.374	164.38
407.835	167.48
408.296	172.18
408.757	174.17
409.218	192.77
409.679	178.68
410.14	175.38
410.601	171.38
411.062	192.27
411.522	200.58
411.983	196.58
412.444	182.17
412.905	189.58
413.366	181.17
413.826	200.17
414.287	220.88
414.748	256.28
415.208	252.57
415.669	210.98
416.13	205.67
416.59	207.17
417.051	213.98
417.511	226.48
417.972	246.88
418.432	254.67
418.893	289.38
419.353	259.57
419.814	202.47
420.274	189.77
420.734	186.47
421.195	205.07
421.655	204.38
422.115	195.57
422.576	198.27
423.036	198.07
423.496	208.07
423.956	218.18
424.416	229.48
424.876	268.27
425.336	265.57
425.797	272.68
426.257	265.48
426.717	250.07
427.177	231.67
427.637	228.77
428.097	236.07
428.556	250.28
429.016	276.77
429.476	274.98
429.936	286.18
430.396	283.77
430.856	292.77
431.315	324.98
431.775	363.87
432.235	394.88
432.694	361.87
433.154	375.47
433.614	415.67
434.073	346.27
434.533	290.77
434.993	282.58
435.452	286.08
435.912	305.67
436.371	302.27
436.83	286.07
437.29	278.27
437.749	262.17
438.209	250.47
438.668	276.97
439.127	299.08
439.587	270.77
440.046	250.88
440.505	264.18
440.964	285.98
441.424	332.77
441.883	319.37
442.342	269.68
442.801	234.78
443.26	226.47
443.719	228.78
444.178	218.47
444.637	217.27
445.096	224.18
445.555	221.67
446.014	223.27
446.473	236.58
446.932	231.98
447.391	223.38
447.849	229.77
448.308	216.38
448.767	229.18
449.226	237.07
449.685	240.08
450.143	250.58
450.602	238.77
451.061	232.58
451.519	238.88
451.978	234.47
452.436	239.47
452.895	239.57
453.353	258.18
453.812	248.98
454.27	238.08
454.729	239.38
455.187	242.47
455.646	249.68
456.104	255.97
456.562	271.77
457.021	263.38
457.479	255.77
457.937	275.57
458.395	270.07
458.854	259.58
459.312	258.08
459.77	283.67
460.228	250.98
460.686	238.47
461.144	249.38
461.602	247.18
462.06	250.27
462.518	255.07
462.976	257.27
463.434	254.97
463.892	268.97
464.35	272.37
464.808	293.67
465.266	264.97
465.724	269.88
466.181	272.08
466.639	275.27
467.097	284.67
467.555	301.78
468.012	305.58
468.47	306.08
468.928	340.37
469.385	339.07
469.843	352.08
470.3	352.48
470.758	366.38
471.215	396.67
471.673	410.47
472.13	416.57
472.588	430.58
473.045	384.68
473.503	383.27
473.96	406.88
474.417	408.47
474.875	443.17
475.332	491.38
475.789	465.87
476.246	469.27
476.704	488.77
477.161	514.78
477.618	532.38
478.075	563.38
478.532	614.67
478.989	708.58
479.446	814.27
479.903	785.07
480.36	822.27
480.817	870.67
481.274	972.87
481.731	1078.78
482.188	1173.28
482.645	1305.18
483.102	1414.58
483.558	1532.47
484.015	1589.88
484.472	1581.78
484.929	1519.08
485.385	1472.98
485.842	1423.78
486.299	1370.27
486.755	1305.48
487.212	1108.68
487.668	938.98
488.125	864.47
488.582	776.57
489.038	749.47
489.494	709.18
489.951	676.17
490.407	669.77
490.864	646.68
491.32	642.28
491.776	660.78
492.233	657.57
492.689	620.38
493.145	611.68
493.602	596.97
494.058	620.58
494.514	616.38
494.97	639.68
495.426	651.17
495.882	618.17
496.338	614.78
496.794	626.38
497.251	622.58
497.707	635.57
498.163	628.17
498.618	643.98
499.074	646.28
499.53	679.77
499.986	678.98
500.442	663.27
500.898	641.37
501.354	630.27
501.809	641.37
502.265	647.47
502.721	669.27
503.177	685.07
503.632	670.58
504.088	680.68
504.543	714.07
504.999	704.47
505.455	660.37
505.91	637.17
506.366	630.67
506.821	630.27
507.277	619.07
507.732	625.27
508.187	635.88
508.643	632.97
509.098	637.17
509.553	652.57
510.009	667.77
510.464	677.88
510.919	697.08
511.375	688.37
511.83	706.07
512.285	723.57
512.74	760.97
513.195	790.58
513.65	768.27
514.105	768.37
514.56	773.27
515.015	784.88
515.47	805.38
515.925	790.68
516.38	784.67
516.835	802.08
517.29	786.77
517.745	775.07
518.2	756.37
518.655	755.98
519.109	742.48
519.564	739.98
520.019	720.17
520.474	726.88
520.928	729.68
521.383	722.37
521.838	713.27
522.292	716.88
522.747	712.28
523.201	704.98
523.656	695.78
524.11	706.57
524.565	701.17
525.019	700.27
525.474	705.38
525.928	709.98
526.382	699.77
526.837	703.47
527.291	703.08
527.745	705.17
528.2	695.48
528.654	689.88
529.108	688.17
529.562	690.88
530.016	689.18
530.47	704.47
530.925	692.77
531.379	692.17
531.833	706.57
532.287	711.37
532.741	694.38
533.195	706.68
533.649	705.38
534.103	720.67
534.556	712.48
535.01	713.48
535.464	699.08
535.918	725.88
536.372	724.57
536.826	711.07
537.279	713.37
537.733	708.88
538.187	711.27
538.64	721.07
539.094	724.47
539.548	723.37
540.001	719.37
540.455	723.87
540.908	736.58
541.362	746.17
541.815	751.28
542.269	753.37
542.722	757.38
543.175	767.67
543.629	781.57
544.082	792.97
544.536	793.67
544.989	783.57
545.442	780.17
545.895	785.77
546.349	792.77
546.802	799.77
547.255	805.88
547.708	795.28
548.161	814.98
548.614	826.07
549.067	836.58
549.52	821.17
549.973	817.38
550.426	808.57
550.879	797.67
551.332	801.48
551.785	811.17
552.238	805.47
552.691	819.07
553.144	826.67
553.596	859.18
554.049	862.77
554.502	899.77
554.955	917.07
555.407	908.67
555.86	908.67
556.313	887.38
556.765	890.37
557.218	882.77
557.67	888.77
558.123	879.98
558.576	867.27
559.028	875.57
559.48	879.87
559.933	877.67
560.385	840.48
560.838	809.07
561.29	782.88
561.742	787.48
562.195	763.97
562.647	773.27
563.099	788.07
563.551	775.28
564.004	793.17
564.456	776.48
564.908	760.07
565.36	743.38
565.812	741.57
566.264	735.57
566.716	732.48
567.168	727.87
567.62	719.07
568.072	714.38
568.524	694.77
568.976	694.27
569.428	675.28
569.88	671.97
570.332	681.38
570.784	687.37
571.235	685.87
571.687	698.47
572.139	702.87
572.59	717.17
573.042	726.07
573.494	711.77
573.945	715.57
574.397	683.88
574.849	697.67
575.3	704.47
575.752	680.88
576.203	687.57
576.655	684.37
577.106	673.67
577.557	664.18
578.009	675.57
578.46	671.57
578.912	661.98
579.363	669.88
579.814	670.27
580.265	669.57
580.717	669.77
581.168	679.38
581.619	675.27
582.07	687.27
582.521	673.77
582.972	666.37
583.423	685.18
583.875	683.78
584.326	714.57
584.777	756.98
585.227	849.97
585.678	936.68
586.129	1024.88
586.58	1109.58
587.031	1187.38
587.482	1335.08
587.933	1539.68
588.384	1337.38
588.834	994.88
589.285	819.98
589.736	785.27
590.186	783.17
590.637	772.27
591.088	756.88
591.538	740.78
591.989	748.28
592.439	739.68
592.89	733.98
593.34	714.08
593.791	715.37
594.241	713.68
594.692	718.58
595.142	713.97
595.593	705.78
596.043	716.48
596.493	728.58
596.943	721.57
597.394	726.67
597.844	720.17
598.294	740.88
598.744	754.47
599.195	784.38
599.645	824.17
600.095	865.27
600.545	919.87
600.995	986.28
601.445	1043.87
601.895	1081.08
602.345	1141.47
602.795	1123.47
603.245	1079.28
603.695	1019.28
604.145	960.67
604.594	916.27
605.044	874.17
605.494	803.07
605.944	758.38
606.393	756.87
606.843	727.97
607.293	747.38
607.743	737.47
608.192	744.67
608.642	759.67
609.091	776.68
609.541	770.47
609.99	775.77
610.44	780.07
610.889	733.57
611.339	713.77
611.788	699.18
612.238	709.77
612.687	728.37
613.136	719.88
613.586	746.27
614.035	739.68
614.484	764.47
614.933	759.08
615.383	750.08
615.832	745.48
616.281	737.57
616.73	691.17
617.179	675.37
617.628	667.27
618.077	645.17
618.526	635.77
618.975	622.77
619.424	630.37
619.873	621.18
620.322	621.97
620.771	611.28
621.22	612.07
621.669	592.98
622.118	600.98
622.567	594.38
623.015	588.17
623.464	574.88
623.913	565.07
624.361	556.17
624.81	561.17
625.259	567.98
625.707	558.27
626.156	555.38
626.604	580.77
627.053	571.77
627.501	572.48
627.95	573.98
628.398	588.77
628.847	569.18
629.295	580.17
629.744	583.98
630.192	575.57
630.64	578.07
631.089	573.17
631.537	592.88
631.985	597.38
632.433	620.47
632.881	618.57
633.33	669.27
633.778	657.58
634.226	581.88
634.674	579.38
635.122	594.98
635.57	618.27
636.018	638.97
636.466	595.78
636.914	559.67
637.362	581.57
637.81	585.48
638.258	582.38
638.705	591.67
639.153	623.77
639.601	628.77
640.049	643.27
640.497	678.07
640.944	700.37
641.392	650.88
641.84	615.07
642.287	584.17
642.735	581.27
643.182	583.48
643.63	576.08
644.078	579.77
644.525	591.07
644.973	603.38
645.42	611.87
645.867	631.58
646.315	649.38
646.762	670.88
647.21	695.07
647.657	721.57
648.104	758.38
648.551	771.58
648.999	849.28
649.446	932.38
649.893	1031.47
650.34	1179.68
650.787	1434.88
651.234	1780.68
651.682	2324.47
652.129	3187.97
652.576	4629.57
653.023	6783.38
653.47	9298.47
653.917	11501.07
654.363	13187.88
654.81	14443.27
655.257	13749.57
655.704	9021.47
656.151	5334.27
656.598	3455.88
657.044	2450.18
657.491	1881.78
657.938	1513.68
658.385	1256.88
658.831	1110.48
659.278	975.58
659.724	870.87
660.171	802.37
660.618	744.67
661.064	703.68
661.511	674.67
661.957	666.87
662.404	652.58
662.85	666.98
663.296	635.67
663.743	576.17
664.189	552.17
664.635	541.08
665.082	539.67
665.528	530.68
665.974	528.88
666.42	516.98
666.867	514.38
667.313	500.78
667.759	490.18
668.205	484.27
668.651	486.77
669.097	502.67
669.543	512.77
669.989	482.58
670.435	463.27
670.881	448.18
671.327	449.17
671.773	480.17
672.219	509.27
672.665	551.37
673.11	588.77
673.556	638.47
674.002	681.67
674.448	661.87
674.893	560.28
675.339	472.77
675.785	449.78
676.23	424.37
676.676	395.78
677.122	385.07
677.567	376.38
678.013	369.88
678.458	365.17
678.904	363.98
679.349	347.67
679.794	366.28
680.24	355.48
680.685	349.38
681.131	344.17
681.576	348.27
682.021	358.28
682.466	354.87
682.912	351.07
683.357	365.08
683.802	394.27
684.247	407.98
684.692	460.77
685.137	503.38
685.583	548.97
686.028	567.57
686.473	528.77
686.918	445.17
687.363	420.07
687.807	404.18
688.252	380.57
688.697	365.48
689.142	338.27
689.587	336.48
690.032	332.17
690.477	346.77
690.921	358.68
691.366	386.58
691.811	408.48
692.255	439.47
692.7	461.78
693.145	516.38
693.589	719.48
694.034	1172.88
694.478	1573.17
694.923	1742.28
695.367	2264.28
695.812	1209.97
696.256	511.98
696.701	378.07
697.145	348.08
697.59	343.17
698.034	320.17
698.478	329.07
698.922	333.27
699.367	338.38
699.811	349.67
700.255	363.07
700.699	394.38
701.143	430.77
701.588	491.37
702.032	519.47
702.476	519.68
702.92	490.68
703.364	508.87
703.808	667.17
704.252	1076.58
704.696	1482.28
705.14	1687.38
705.584	2126.68
706.027	1081.37
706.471	530.17
706.915	405.37
707.359	356.58
707.803	331.48
708.246	314.98
708.69	315.87
709.134	322.88
709.577	317.67
710.021	324.87
710.465	316.87
710.908	305.77
711.352	294.67
711.795	319.27
712.239	368.08
712.682	400.98
713.126	417.37
713.569	470.17
714.012	373.58
714.456	329.18
714.899	299.17
715.342	276.07
715.786	266.88
716.229	256.18
716.672	259.88
717.115	253.58
717.558	259.57
718.002	253.77
718.445	269.58
718.888	292.18
719.331	297.98
719.774	309.47
720.217	312.97
720.66	290.37
721.103	266.77
721.546	260.68
721.989	258.07
722.432	236.28
722.874	247.17
723.317	236.58
723.76	244.27
724.203	262.27
724.645	331.97
725.088	458.87
725.531	582.37
725.974	638.77
726.416	546.98
726.859	309.68
727.301	251.08
727.744	242.07
728.187	233.77
728.629	246.27
729.071	242.88
729.514	269.97
729.956	281.87
730.399	289.27
730.841	288.27
731.283	281.27
731.726	273.18
732.168	262.67
732.61	272.17
733.053	291.48
733.495	326.68
733.937	354.57
734.379	405.67
734.821	446.08
735.263	571.37
735.705	870.88
736.148	1651.88
736.59	2631.98
737.032	3037.57
737.474	2475.07
737.916	817.88
738.357	428.38
738.799	330.47
739.241	301.67
739.683	287.67
740.125	293.38
740.567	299.38
741.008	314.77
741.45	313.67
741.892	319.67
742.334	348.57
742.775	356.17
743.217	346.07
743.658	267.77
744.1	254.88
744.542	271.08
744.983	318.88
745.425	343.87
745.866	334.08
746.307	283.88
746.749	290.97
747.19	336.88
747.632	474.38
748.073	931.18
748.514	1956.67
748.956	2886.08
749.397	3623.88
749.838	3009.18
750.279	2952.68
750.72	1494.67
751.162	559.28
751.603	327.57
752.044	250.77
752.485	212.58
752.926	213.77
753.367	212.07
753.808	195.17
754.249	193.07
754.69	195.48
755.131	188.08
755.572	187.48
756.013	187.17
756.453	186.88
756.894	185.68
757.335	191.68
757.776	197.67
758.216	197.87
758.657	201.68
759.098	204.17
759.538	231.08
759.979	275.07
760.42	390.17
760.86	744.47
761.301	1941.47
761.741	4556.68
762.182	6373.17
762.622	4501.48
763.063	1320.68
763.503	547.57
763.943	351.98
764.384	364.18
764.824	425.77
765.264	460.47
765.705	312.07
766.145	218.27
766.585	192.07
767.025	187.67
767.465	192.67
767.906	256.28
768.346	336.57
768.786	358.87
769.226	268.17
769.666	336.57
770.106	663.57
770.546	1627.18
770.986	2665.88
771.426	2363.78
771.866	801.98
772.306	328.28
772.745	218.27
773.185	182.17
773.625	173.07
774.065	169.67
774.505	204.87
774.944	326.27
775.384	704.48
775.824	1244.88
776.263	1194.38
776.703	512.18
777.142	226.58
777.582	166.77
778.021	144.08
778.461	136.77
778.9	145.98
779.34	130.98
779.779	115.77
780.219	109.48
780.658	113.58
781.097	114.08
781.537	114.07
781.976	117.47
782.415	105.57
782.855	118.27
783.294	106.58
783.733	110.98
784.172	111.38
784.611	102.38
785.05	110.57
785.489	114.08
785.928	126.77
786.367	121.67
786.806	124.07
787.245	130.17
787.684	140.57
788.123	148.57
788.562	138.07
789.001	133.18
789.44	117.98
789.879	122.38
790.317	117.77
790.756	136.88
791.195	122.88
791.634	153.38
792.072	210.07
792.511	383.57
792.95	1055.57
793.388	2169.78
793.827	1933.18
794.265	682.77
794.704	289.08
795.142	186.38
795.581	153.38
796.019	139.48
796.458	134.88
796.896	125.98
797.334	132.07
797.773	161.17
798.211	223.08
798.649	466.48
799.087	1042.27
799.526	1636.38
799.964	2040.88
800.402	1997.48
800.84	753.98
801.278	303.88
801.716	195.77
802.154	153.47
802.592	148.88
803.03	144.48
803.468	138.48
803.906	147.77
804.344	152.48
804.782	143.88
805.22	136.57
805.658	136.47
806.096	144.98
806.533	156.98
806.971	175.57
807.409	218.37
807.847	321.18
808.284	703.07
808.722	1933.77
809.16	3305.48
809.597	3216.38
810.035	5494.98
810.472	5693.98
810.91	2091.58
811.347	797.77
811.785	403.57
812.222	258.57
812.66	194.08
813.097	170.07
813.535	145.77
813.972	131.17
814.409	124.88
814.846	111.48
815.284	114.27
815.721	102.47
816.158	105.48
816.595	127.38
817.032	186.57
817.47	206.27
817.907	165.17
818.344	155.67
818.781	117.58
819.218	105.58
819.655	123.08
820.092	184.17
820.529	212.67
820.966	174.77
821.403	132.47
821.839	112.48
822.276	99.67
822.713	124.07
823.15	143.58
823.587	118.17
824.023	151.97
824.46	309.38
824.897	923.38
825.333	1349.18
825.77	571.87
826.206	230.07
826.643	138.17
827.08	101.88
827.516	84.68
827.953	77.88
828.389	72.47
828.825	72.57
829.262	69.97
829.698	63.98
830.135	67.38
830.571	63.77
831.007	68.67
831.443	64.67
831.88	65.68
832.316	61.47
832.752	68.17
833.188	67.68
833.624	64.38
834.06	65.17
834.497	67.67
834.933	73.68
835.369	77.27
835.805	69.67
836.241	76.07
836.677	82.98
837.112	95.17
837.548	106.57
837.984	144.48
838.42	202.98
838.856	516.58
839.292	1568.68
839.727	2289.57
840.163	1082.97
840.599	969.07
841.034	2075.78
841.47	2087.28
841.906	776.27
842.341	338.88
842.777	236.88
843.212	321.07
843.648	313.27
844.083	157.47
844.519	94.98
844.954	76.98
845.39	59.38
845.825	61.67
846.261	57.77
846.696	55.27
847.131	55.98
847.566	57.57
848.002	55.88
848.437	54.77
848.872	59.27
849.307	57.88
849.742	86.48
850.177	189.48
850.613	571.48
851.048	871.18
851.483	382.77
851.918	158.87
852.353	87.47
852.788	62.57
853.223	59.17
853.657	57.57
854.092	52.77
854.527	44.88
854.962	39.67
855.397	47.48
855.832	43.17
856.266	43.68
856.701	42.68
857.136	32.27
857.57	42.38
858.005	49.68
858.44	59.77
858.874	49.08
859.309	56.58
859.743	40.67
860.178	53.17
860.612	39.17
861.047	51.67
861.481	67.67
861.915	65.98
862.35	52.17
862.784	33.37
863.218	43.77
863.653	30.27
864.087	46.77
864.521	56.48
864.955	69.98
865.39	165.17
865.824	175.98
866.258	113.18
866.692	167.17
867.126	172.47
867.56	104.07
867.994	54.47
868.428	39.07
868.862	48.68
869.296	58.18
869.73	59.67
870.164	59.17
870.598	45.88
871.031	37.27
871.465	31.17
871.899	32.08
872.333	31.18
872.766	26.67
873.2	19.57
873.634	27.98
874.067	26.67
874.501	25.07
874.935	36.87
875.368	32.47
875.802	25.57
876.235	19.17
876.669	26.88
877.102	23.38
877.535	25.58
877.969	21.08
878.402	24.27
878.836	18.98
879.269	19.38
879.702	26.07
880.135	22.27
880.569	24.88
881.002	31.77
881.435	23.57
881.868	13.38
882.301	21.98
882.734	20.77
883.167	24.17
883.601	24.88
884.034	21.87
884.467	14.88
884.899	19.88
885.332	18.17
885.765	18.88
886.198	15.57
886.631	20.97
887.064	18.27
887.497	26.77
887.929	25.57
888.362	12.98
888.795	12.07
889.228	19.98
889.66	17.57
890.093	15.57
890.526	16.47
890.958	20.08
891.391	19.27
891.823	20.77
892.256	16.17
892.688	16.88
893.121	22.98
893.553	18.38
893.985	24.67
894.418	21.37
894.85	14.67
895.282	20.77
895.715	13.88
896.147	18.68
896.579	10.77
897.011	20.08
897.444	18.48
897.876	10.58
898.308	18.27
898.74	18.68
899.172	18.17
899.604	21.77
900.036	22.97
900.468	9.98
900.9	14.57
901.332	19.97
901.764	12.27
902.196	20.77
902.628	16.27
903.06	17.57
903.491	25.67
903.923	23.38
904.355	24.77
904.787	22.07
905.218	24.18
905.65	22.17
906.082	19.67
906.513	11.47
906.945	16.67
907.376	14.57
907.808	21.48
908.239	19.18
908.671	17.48
909.102	21.67
909.534	28.98
909.965	50.88
910.397	96.07
910.828	320.77
911.259	471.98
911.691	218.97
912.122	110.27
912.553	56.38
912.984	39.08
913.415	22.58
913.847	22.38
914.278	15.77
914.709	19.17
915.14	18.68
915.571	16.48
916.002	10.07
916.433	18.18
916.864	26.77
917.295	17.57
917.726	23.17
918.157	15.37
918.587	30.17
919.018	18.08
919.449	18.38
919.88	19.17
920.311	30.77
920.741	46.67
921.172	167.88
921.603	159.67
922.033	71.07
922.464	49.38
922.895	24.67
923.325	21.38
923.756	17.17
924.186	24.18
924.617	28.77
925.047	38.98
925.478	53.38
925.908	41.17
926.338	32.77
926.769	15.27
927.199	17.08
927.629	15.17
928.06	15.67
928.49	14.88
928.92	14.38
929.35	7.68
929.78	15.07
930.21	12.97
930.641	8.77
931.071	7.88
931.501	0.17
931.931	8.27
932.361	12.58
932.791	2.67
933.221	4.98
933.651	1.18
934.08	19.67
934.51	36.57
934.94	11.98
935.37	8.77
935.8	6.67
936.229	8.67
936.659	12.47
937.089	6.48
937.519	11.17
937.948	23.07
938.378	19.48
938.807	1.07
939.237	0.27
939.666	6.58
940.096	-0.33
940.525	5.38
940.955	6.58
941.384	4.68
941.814	-7.23
942.243	-4.42
942.672	3.77
943.102	-3.73
943.531	-0.73
943.96	1.48
944.39	5.47
944.819	5.17
945.248	8.57
945.677	4.17
946.106	5.08
946.535	4.07
946.964	-3.43
947.393	0.48
947.822	3.38
948.251	-2.93
948.68	9.27
949.109	2.27
949.538	5.88
949.967	7.27
950.396	5.67
950.825	-1.83
951.254	7.88
951.682	-5.43
952.111	7.08
952.54	9.88
952.969	-2.02
953.397	-7.63
953.826	-1.12
954.254	-3.62
954.683	0.77
955.112	-5.33
955.54	-2.62
955.969	1.88
956.397	2.48
956.826	-6.42
957.254	6.18
957.682	1.17
958.111	5.77
958.539	-4.12
958.967	1.67
959.396	3.97
959.824	0.58
960.252	7.27
960.68	-5.43
961.109	-1.93
961.537	-9.02
961.965	-2.53
962.393	2.27
962.821	-1.02
963.249	6.27
963.677	6.58
964.105	9.17
964.533	49.58
964.961	43.87
965.389	20.48
965.817	13.97
966.245	3.27
966.672	-0.02
967.1	-5.02
967.528	-2.33
967.956	-4.02
968.383	-3.23
968.811	3.58
969.239	-3.73
969.666	-3.33
970.094	-2.62
970.522	1.67
970.949	-3.83
971.377	-6.12
971.804	-2.23
972.232	-4.02
972.659	-2.42
973.087	-7.13
973.514	-3.73
973.941	-5.12
974.369	5.27
974.796	1.88
975.223	0.87
975.651	-1.42
976.078	3.58
976.505	2.47
976.932	9.27
977.359	11.07
977.786	9.77
978.214	-2.33
978.641	0.27
979.068	-5.23
979.495	-3.23
979.922	-1.03
980.349	-0.83
980.776	3.27
981.202	-0.93
981.629	6.17
982.056	9.07
982.483	1.98
982.91	3.77
983.337	-5.52
983.763	7.47
984.19	-5.23
984.617	-6.92
985.043	-3.23
985.47	-4.02
985.897	-0.23
986.323	-8.83
986.75	3.58
987.176	-6.93
987.603	-3.13
988.029	7.37
988.456	-3.12
988.882	-0.23
989.308	-8.53
989.735	-3.43
990.161	4.98
990.587	-5.33
991.014	3.38
991.44	5.97
991.866	0.98
992.292	-2.23
992.719	1.07
993.145	1.48
993.571	-6.32
993.997	-3.83
994.423	0.17
994.849	-4.53
995.275	-3.73
995.701	4.57
996.127	-3.23
996.553	5.98
996.979	-7.33
997.405	0.18
997.83	-6.23
998.256	-6.93
998.682	-6.02
999.108	-11.53
999.534	1.97
999.959	-2.83
1000.385	-0.23
1000.811	-0.23
1001.236	-5.33
1001.662	-7.33
1002.087	-4.82
1002.513	-0.73
1002.938	2.48
1003.364	-1.12
1003.789	-1.83
1004.215	2.67
1004.64	-6.23
1005.066	2.38
1005.491	-2.32
1005.916	-2.33
1006.342	-2.73
1006.767	-8.42
1007.192	1.08
1007.617	-10.83
1008.042	-3.12
1008.468	-3.43
1008.893	-3.32
1009.318	-0.23
1009.743	-3.13
1010.168	4.88
1010.593	1.27
1011.018	-6.02
1011.443	-3.43
1011.868	-1.32
1012.293	-5.02
1012.718	-0.92
1013.143	-2.13
1013.567	0.27
1013.992	-2.12
1014.417	-9.03
1014.842	6.07
1015.267	-4.33
1015.691	-4.92
1016.116	4.27
1016.541	1.07
1016.965	-0.33
1017.39	-0.93
1017.814	-1.82
1018.239	-1.23
1018.663	-9.93
1019.088	-8.23
1019.512	-2.73
1019.937	-5.62
1020.361	-8.02
1020.785	-8.73
1021.21	-1.33
1021.634	-6.12
1022.058	3.88
1022.483	1.88
1022.907	-2.03
1023.331	-4.12
1023.755	-5.23
1024.179	-1.62
1024.604	-5.02
1025.028	-2.93
1025.452	-1.62
1025.876	-5.13
1026.3	2.77
1026.724	-13.53
1027.148	-2.52
1027.572	-8.62
1027.996	-3.62
1028.42	-3.53
1028.843	-2.03
1029.267	-8.33
1029.691	-2.83
1030.115	-3.12
1030.539	-10.33
1030.962	-9.12
1031.386	-10.42
1031.81	0.27
1032.233	-5.23
1032.657	-2.52
1033.08	-5.73
1033.504	0.17
1033.927	-1.82
1034.351	-1.73
1034.774	-5.43
1035.198	-3.83
1035.621	-4.02
1036.045	-7.93
1036.468	1.67
1036.891	-7.73
1037.315	-3.53
1037.738	-12.52
1038.161	2.57
1038.584	-7.02
1039.008	-5.93
1039.431	-4.73
1039.854	-3.63
1040.277	-3.12
1040.7	-8.02
1041.123	-2.12
1041.546	-3.73
1041.969	-0.83
1042.392	-4.83
1042.815	-1.43
1043.238	6.57
1043.661	-1.62
1044.084	-2.83
1044.507	-3.52
1044.93	-4.52
1045.352	-4.23
1045.775	-5.63
1046.198	0.67
1046.621	-1.62
1047.043	-0.73
1047.466	3.77
1047.889	-4.43
1048.311	-11.02
1048.734	-2.33
1049.156	-2.23
1049.579	-3.23
1050.001	-2.83
1050.424	-0.13
1050.846	-2.33
1051.269	-5.32
1051.691	-8.52
1052.113	-4.43
1052.536	3.17
1052.958	3.17
1053.38	-6.03
1053.802	-12.03
1054.225	-2.33
1054.647	-3.43
1055.069	-4.63
1055.491	-1.33
1055.913	-6.93
1056.335	-2.03
1056.757	-3.12
1057.179	-2.73
1057.601	-3.33
1058.023	-8.32
1058.445	-7.03
1058.867	-12.02
1059.289	-5.93
1059.711	-2.42
1060.133	-2.03
1060.555	-6.83
1060.976	-8.23
1061.398	-3.23
1061.82	-10.73
1062.241	-5.23
1062.663	-9.12
1063.085	-8.93
1063.506	-4.12
1063.928	-3.43
1064.35	0.48
1064.771	-7.83
1065.193	-0.43
1065.614	-5.52
1066.035	-4.23
1066.457	-2.02
1066.878	0.17
1067.3	-1.62
1067.721	-3.03
1068.142	-2.93
1068.564	-5.62
1068.985	-7.62
1069.406	-6.52
1069.827	-4.02
1070.248	-6.83
1070.67	-8.33
1071.091	-12.12
1071.512	-2.73
1071.933	-2.83
1072.354	-8.52
1072.775	-7.73
1073.196	-12.33
1073.617	-6.93
1074.038	-9.42
1074.459	0.68
1074.88	-11.42
1075.3	-3.83
1075.721	-5.73
1076.142	-3.02
1076.563	-3.43
1076.983	-11.83
1077.404	-6.62
1077.825	-8.02
1078.246	-2.33
1078.666	-15.03
1079.087	-3.42
1079.507	-6.83
1079.928	-1.93
1080.348	-0.92
1080.769	-7.43
1081.189	2.98
1081.61	-3.12
1082.03	-4.23
1082.451	-7.73
1082.871	-2.02
1083.291	-4.83
1083.711	-12.52
1084.132	-3.62
1084.552	-8.62
1084.972	-3.23
1085.392	-12.53
1085.813	-6.23
1086.233	-8.23
1086.653	-8.83
1087.073	-1.42
1087.493	-9.93
1087.913	-10.83
1088.333	-6.93
1088.753	-3.43
1089.173	-0.53
1089.593	-1.82
1090.013	-2.12
1090.433	0.97
1090.852	-6.93
1091.272	-3.33
1091.692	-0.43
1092.112	-10.73
1092.531	-3.23
1092.951	-8.83
1093.371	1.37
1093.79	-1.12
1094.21	-9.92
1094.63	-6.52
1095.049	-6.83
1095.469	-1.52
1095.888	-4.83
1096.308	-0.43
1096.727	0.48
1097.146	-8.02
1097.566	-5.02
1097.985	-3.12
1098.405	-6.62
1098.824	-8.12
1099.243	-11.23
1099.662	-9.62
1100.082	-6.23
1100.501	-7.12
1100.92	-9.62
1101.339	-0.73
1101.758	-3.62
