Data from 20171114-ORNL-Ar_H_NY_Subt18_08-06-33-018.txt Node
Date: Tue Nov 14 08:06:33 EST 2017
User: Ender
Spectrometer: HR+D1039
Trigger mode: 0
Integration Time (sec): 2.730000E-2
Scans to average: 10
Electric dark correction enabled: true
Nonlinearity correction enabled: false
Boxcar width: 0
XAxis mode: Wavelengths
Number of Pixels in Spectrum: 2048
>>>>>Begin Spectral Data<<<<<
187.836	-1.34
188.309	-1.34
188.782	-1.34
189.255	-1.74
189.728	-6.04
190.201	6.16
190.674	4.26
191.147	3.46
191.619	-2.54
192.092	3.16
192.565	2.66
193.038	-2.44
193.511	-1.64
193.984	1.66
194.456	-3.24
194.929	0.26
195.402	-3.04
195.874	0.46
196.347	-1.74
196.82	-5.04
197.292	4.06
197.765	-4.74
198.237	-6.74
198.71	1.86
199.182	-2.94
199.655	2.86
200.127	0.66
200.6	-6.24
201.072	-1.54
201.544	-4.34
202.017	-0.94
202.489	-0.14
202.961	-4.74
203.433	-3.34
203.906	-10.54
204.378	-7.54
204.85	0.06
205.322	-4.54
205.794	-0.94
206.266	-3.64
206.739	-4.64
207.211	6.26
207.683	-5.54
208.155	-6.94
208.627	-9.24
209.099	-10.54
209.57	-4.04
210.042	-4.24
210.514	-4.14
210.986	-1.64
211.458	-8.14
211.93	-5.84
212.402	1.16
212.873	-6.14
213.345	-8.14
213.817	-9.44
214.288	-1.54
214.76	-10.14
215.232	-5.34
215.703	-7.14
216.175	4.76
216.646	-7.04
217.118	-5.24
217.589	-3.24
218.061	-0.14
218.532	-4.54
219.004	0.76
219.475	-1.84
219.946	-1.34
220.418	-4.34
220.889	2.86
221.36	-0.54
221.832	-4.34
222.303	-3.74
222.774	-1.54
223.245	-11.44
223.717	-9.94
224.188	-2.94
224.659	-7.74
225.13	-5.54
225.601	0.06
226.072	5.06
226.543	-3.74
227.014	-0.04
227.485	5.76
227.956	-6.24
228.427	-2.54
228.898	-7.54
229.369	-0.64
229.839	-1.84
230.31	-7.94
230.781	3.16
231.252	-0.94
231.722	-4.84
232.193	-5.14
232.664	3.96
233.135	3.46
233.605	0.16
234.076	-3.64
234.546	-0.24
235.017	4.36
235.487	4.06
235.958	6.66
236.428	0.16
236.899	-1.54
237.369	4.46
237.84	0.26
238.31	6.26
238.78	0.46
239.251	1.66
239.721	3.66
240.191	3.66
240.662	-2.94
241.132	2.56
241.602	-0.24
242.072	-2.14
242.542	6.56
243.013	1.46
243.483	7.86
243.953	1.56
244.423	7.36
244.893	-4.04
245.363	8.16
245.833	-1.34
246.303	2.86
246.773	11.46
247.243	5.96
247.712	0.86
248.182	9.26
248.652	6.16
249.122	5.76
249.592	14.46
250.061	15.06
250.531	31.76
251.001	14.26
251.471	20.06
251.94	20.76
252.41	5.96
252.879	-0.44
253.349	12.76
253.818	13.06
254.288	8.56
254.757	7.16
255.227	7.26
255.696	2.26
256.166	5.56
256.635	4.66
257.105	7.26
257.574	8.86
258.043	12.76
258.513	13.06
258.982	18.46
259.451	5.76
259.92	15.66
260.389	16.06
260.859	18.86
261.328	11.56
261.797	19.36
262.266	13.06
262.735	9.36
263.204	2.06
263.673	2.46
264.142	-0.14
264.611	1.56
265.08	0.46
265.549	-0.04
266.018	8.86
266.487	5.26
266.955	1.96
267.424	7.76
267.893	6.86
268.362	-0.64
268.83	4.76
269.299	14.66
269.768	9.66
270.236	2.16
270.705	6.36
271.174	4.16
271.642	10.46
272.111	6.86
272.579	14.56
273.048	22.76
273.516	30.76
273.985	28.16
274.453	23.76
274.922	17.96
275.39	22.46
275.858	3.56
276.327	10.46
276.795	19.96
277.263	10.76
277.731	35.06
278.2	50.66
278.668	60.56
279.136	49.76
279.604	22.86
280.072	22.06
280.54	17.46
281.008	11.66
281.477	12.06
281.945	13.46
282.413	15.86
282.881	12.76
283.348	13.16
283.816	17.86
284.284	17.96
284.752	16.76
285.22	23.06
285.688	17.56
286.156	17.46
286.623	48.96
287.091	52.26
287.559	29.26
288.026	25.16
288.494	20.16
288.962	7.06
289.429	17.96
289.897	20.56
290.364	17.26
290.832	15.56
291.3	15.76
291.767	20.66
292.234	19.86
292.702	19.26
293.169	24.06
293.637	23.76
294.104	19.86
294.571	10.66
295.039	10.16
295.506	15.26
295.973	20.26
296.44	17.26
296.908	19.56
297.375	17.36
297.842	16.36
298.309	16.26
298.776	15.36
299.243	26.66
299.71	17.36
300.177	23.56
300.644	21.96
301.111	16.86
301.578	21.76
302.045	15.86
302.512	21.56
302.979	28.26
303.446	24.46
303.913	18.06
304.379	18.26
304.846	30.26
305.313	25.36
305.78	22.46
306.246	25.56
306.713	26.36
307.18	30.96
307.646	28.26
308.113	26.66
308.579	22.66
309.046	23.06
309.512	30.56
309.979	18.76
310.445	26.46
310.912	26.26
311.378	34.06
311.845	28.86
312.311	29.96
312.777	29.96
313.244	27.16
313.71	36.36
314.176	33.46
314.642	34.46
315.109	33.26
315.575	37.56
316.041	42.06
316.507	33.26
316.973	40.96
317.439	36.46
317.905	40.16
318.371	32.76
318.837	35.46
319.303	32.96
319.769	36.36
320.235	41.66
320.701	38.86
321.167	34.86
321.633	34.26
322.099	44.16
322.564	45.76
323.03	44.56
323.496	40.06
323.962	43.16
324.427	33.96
324.893	38.36
325.359	34.96
325.824	39.86
326.29	39.06
326.755	39.96
327.221	39.36
327.686	41.66
328.152	46.56
328.617	41.76
329.083	50.06
329.548	49.26
330.014	51.96
330.479	40.66
330.944	46.76
331.41	49.26
331.875	41.76
332.34	46.96
332.805	44.66
333.271	53.46
333.736	45.56
334.201	52.06
334.666	53.46
335.131	55.76
335.596	50.26
336.061	49.76
336.526	44.06
336.991	56.46
337.456	62.46
337.921	45.86
338.386	46.76
338.851	45.36
339.316	44.16
339.781	43.76
340.246	48.86
340.711	50.86
341.175	52.46
341.64	42.46
342.105	55.06
342.569	54.36
343.034	60.06
343.499	58.46
343.963	55.46
344.428	62.06
344.893	61.46
345.357	61.46
345.822	62.36
346.286	65.96
346.751	71.56
347.215	67.86
347.679	75.86
348.144	103.96
348.608	83.86
349.073	69.76
349.537	81.66
350.001	81.96
350.465	89.86
350.93	88.46
351.394	83.16
351.858	77.66
352.322	93.46
352.786	89.56
353.25	107.16
353.715	114.26
354.179	110.36
354.643	131.06
355.107	132.06
355.571	107.86
356.035	108.26
356.498	127.86
356.962	127.96
357.426	137.86
357.89	121.06
358.354	93.86
358.818	91.26
359.281	89.26
359.745	87.16
360.209	78.96
360.673	72.96
361.136	91.56
361.6	89.46
362.064	83.96
362.527	87.66
362.991	94.76
363.454	84.76
363.918	80.16
364.381	78.26
364.845	87.96
365.308	86.96
365.772	96.76
366.235	86.76
366.698	89.06
367.162	83.66
367.625	84.96
368.088	95.06
368.552	98.26
369.015	90.46
369.478	101.86
369.941	103.16
370.404	100.26
370.867	115.66
371.331	115.16
371.794	118.26
372.257	111.36
372.72	123.76
373.183	116.26
373.646	113.86
374.109	111.16
374.572	102.76
375.035	111.86
375.497	109.06
375.96	113.16
376.423	108.66
376.886	118.76
377.349	114.06
377.811	110.86
378.274	113.06
378.737	110.06
379.199	113.86
379.662	115.86
380.125	120.36
380.587	130.46
381.05	134.16
381.512	133.66
381.975	139.66
382.437	137.16
382.9	136.86
383.362	137.96
383.825	144.56
384.287	153.66
384.75	150.26
385.212	143.16
385.674	150.46
386.136	142.96
386.599	122.76
387.061	128.76
387.523	132.16
387.985	142.16
388.447	148.76
388.91	148.06
389.372	165.96
389.834	164.06
390.296	149.46
390.758	168.56
391.22	173.16
391.682	228.86
392.144	318.46
392.606	248.86
393.068	177.36
393.529	172.16
393.991	160.26
394.453	150.96
394.915	167.36
395.377	202.56
395.838	230.56
396.3	165.66
396.762	147.96
397.224	135.36
397.685	141.16
398.147	134.26
398.608	131.76
399.07	137.86
399.531	137.26
399.993	151.06
400.454	157.46
400.916	151.86
401.377	148.96
401.839	157.86
402.3	157.06
402.762	174.46
403.223	193.96
403.684	183.16
404.145	166.06
404.607	169.96
405.068	173.26
405.529	173.96
405.99	192.56
406.451	184.56
406.913	180.06
407.374	174.76
407.835	167.26
408.296	172.26
408.757	178.96
409.218	201.36
409.679	189.76
410.14	184.56
410.601	186.36
411.062	196.26
411.522	203.16
411.983	201.46
412.444	188.06
412.905	185.36
413.366	187.06
413.826	204.06
414.287	229.96
414.748	268.86
415.208	260.06
415.669	214.96
416.13	219.46
416.59	211.26
417.051	221.16
417.511	227.46
417.972	250.56
418.432	249.76
418.893	300.36
419.353	261.56
419.814	199.56
420.274	192.36
420.734	195.16
421.195	210.26
421.655	208.16
422.115	207.16
422.576	208.56
423.036	209.46
423.496	211.16
423.956	227.26
424.416	245.86
424.876	271.76
425.336	267.86
425.797	272.66
426.257	267.66
426.717	253.76
427.177	242.86
427.637	238.66
428.097	240.06
428.556	253.26
429.016	283.06
429.476	280.26
429.936	288.16
430.396	290.76
430.856	308.66
431.315	339.76
431.775	366.86
432.235	401.06
432.694	372.46
433.154	376.96
433.614	406.96
434.073	359.16
434.533	297.76
434.993	289.06
435.452	299.86
435.912	314.86
436.371	302.06
436.83	294.66
437.29	286.06
437.749	260.86
438.209	251.46
438.668	280.86
439.127	297.86
439.587	281.36
440.046	261.06
440.505	268.76
440.964	283.66
441.424	336.76
441.883	316.66
442.342	270.06
442.801	235.96
443.26	230.16
443.719	229.16
444.178	234.86
444.637	224.76
445.096	228.16
445.555	230.86
446.014	235.66
446.473	240.56
446.932	241.16
447.391	242.46
447.849	229.16
448.308	230.86
448.767	229.96
449.226	246.26
449.685	234.96
450.143	256.86
450.602	246.36
451.061	235.06
451.519	245.96
451.978	246.66
452.436	243.06
452.895	246.26
453.353	262.86
453.812	248.06
454.27	246.36
454.729	255.26
455.187	247.86
455.646	257.36
456.104	255.36
456.562	267.66
457.021	273.96
457.479	265.16
457.937	291.26
458.395	276.86
458.854	265.36
459.312	269.36
459.77	284.96
460.228	262.26
460.686	260.36
461.144	256.06
461.602	257.56
462.06	250.46
462.518	268.56
462.976	264.96
463.434	268.46
463.892	270.86
464.35	283.46
464.808	299.96
465.266	277.86
465.724	286.36
466.181	287.16
466.639	281.36
467.097	289.56
467.555	311.46
468.012	313.86
468.47	322.06
468.928	350.66
469.385	352.46
469.843	364.16
470.3	361.96
470.758	369.76
471.215	407.66
471.673	416.86
472.13	416.36
472.588	436.76
473.045	389.26
473.503	393.56
473.96	409.96
474.417	410.06
474.875	449.06
475.332	480.36
475.789	473.56
476.246	474.76
476.704	501.16
477.161	534.76
477.618	545.56
478.075	586.56
478.532	635.26
478.989	717.06
479.446	833.76
479.903	805.16
480.36	835.46
480.817	899.36
481.274	1001.16
481.731	1103.66
482.188	1205.96
482.645	1348.06
483.102	1469.76
483.558	1602.96
484.015	1671.76
484.472	1628.26
484.929	1586.86
485.385	1530.66
485.842	1479.66
486.299	1432.86
486.755	1338.16
487.212	1137.26
487.668	964.96
488.125	874.96
488.582	797.56
489.038	770.36
489.494	735.56
489.951	702.36
490.407	693.16
490.864	669.76
491.32	669.06
491.776	658.06
492.233	663.06
492.689	630.06
493.145	625.96
493.602	614.76
494.058	625.76
494.514	632.36
494.97	656.06
495.426	674.96
495.882	644.06
496.338	628.06
496.794	645.26
497.251	636.66
497.707	656.86
498.163	664.86
498.618	664.96
499.074	661.56
499.53	700.46
499.986	697.86
500.442	672.46
500.898	650.16
501.354	645.36
501.809	658.46
502.265	665.26
502.721	685.86
503.177	683.56
503.632	693.56
504.088	697.66
504.543	729.26
504.999	735.16
505.455	679.66
505.91	644.56
506.366	642.16
506.821	647.06
507.277	639.46
507.732	651.56
508.187	638.66
508.643	657.56
509.098	649.46
509.553	674.56
510.009	675.36
510.464	689.76
510.919	710.66
511.375	713.56
511.83	723.16
512.285	739.96
512.74	778.56
513.195	805.56
513.65	799.96
514.105	783.76
514.56	782.26
515.015	810.16
515.47	820.26
515.925	814.56
516.38	805.56
516.835	810.36
517.29	804.86
517.745	793.26
518.2	782.26
518.655	767.26
519.109	754.06
519.564	754.26
520.019	747.06
520.474	733.96
520.928	750.56
521.383	728.86
521.838	733.16
522.292	721.66
522.747	722.06
523.201	722.86
523.656	712.86
524.11	710.76
524.565	708.16
525.019	708.26
525.474	718.96
525.928	719.76
526.382	715.66
526.837	720.16
527.291	722.06
527.745	706.86
528.2	709.06
528.654	706.46
529.108	704.66
529.562	705.76
530.016	711.66
530.47	705.96
530.925	723.86
531.379	726.06
531.833	719.76
532.287	721.36
532.741	712.96
533.195	728.36
533.649	736.56
534.103	736.26
534.556	725.56
535.01	719.06
535.464	721.86
535.918	733.96
536.372	736.16
536.826	733.36
537.279	719.46
537.733	721.26
538.187	729.36
538.64	731.56
539.094	747.96
539.548	750.96
540.001	741.16
540.455	748.56
540.908	754.46
541.362	753.46
541.815	765.56
542.269	773.26
542.722	776.06
543.175	789.86
543.629	779.16
544.082	812.36
544.536	810.36
544.989	801.76
545.442	818.86
545.895	806.56
546.349	814.46
546.802	808.06
547.255	817.16
547.708	823.06
548.161	828.76
548.614	839.26
549.067	837.56
549.52	834.86
549.973	833.56
550.426	827.76
550.879	804.66
551.332	815.86
551.785	826.86
552.238	821.66
552.691	835.16
553.144	843.16
553.596	865.26
554.049	872.96
554.502	908.46
554.955	917.96
555.407	924.66
555.86	913.46
556.313	918.56
556.765	903.66
557.218	896.76
557.67	897.46
558.123	886.46
558.576	888.56
559.028	896.06
559.48	891.96
559.933	893.66
560.385	853.06
560.838	833.36
561.29	803.66
561.742	797.56
562.195	786.36
562.647	786.76
563.099	790.26
563.551	796.66
564.004	803.16
564.456	789.26
564.908	774.76
565.36	764.56
565.812	749.16
566.264	745.96
566.716	743.66
567.168	725.86
567.62	740.36
568.072	721.96
568.524	708.86
568.976	708.96
569.428	695.86
569.88	687.06
570.332	700.76
570.784	699.26
571.235	692.96
571.687	705.16
572.139	712.96
572.59	718.26
573.042	726.36
573.494	732.26
573.945	723.46
574.397	707.86
574.849	699.16
575.3	703.76
575.752	685.86
576.203	695.36
576.655	695.06
577.106	684.96
577.557	679.16
578.009	686.46
578.46	676.16
578.912	679.86
579.363	677.76
579.814	684.76
580.265	670.46
580.717	680.86
581.168	673.56
581.619	683.26
582.07	699.56
582.521	683.56
582.972	686.46
583.423	695.96
583.875	699.36
584.326	716.56
584.777	758.56
585.227	834.06
585.678	934.36
586.129	1027.56
586.58	1100.36
587.031	1185.86
587.482	1346.46
587.933	1539.86
588.384	1329.76
588.834	988.96
589.285	822.36
589.736	797.76
590.186	795.96
590.637	775.96
591.088	758.46
591.538	742.86
591.989	744.56
592.439	740.36
592.89	731.46
593.34	726.96
593.791	723.06
594.241	719.26
594.692	719.66
595.142	709.76
595.593	707.86
596.043	709.46
596.493	727.36
596.943	740.46
597.394	737.46
597.844	733.06
598.294	749.36
598.744	771.96
599.195	797.36
599.645	825.56
600.095	880.96
600.545	920.96
600.995	973.76
601.445	1045.46
601.895	1107.16
602.345	1143.76
602.795	1120.96
603.245	1096.26
603.695	1022.26
604.145	964.86
604.594	908.16
605.044	865.36
605.494	808.46
605.944	773.06
606.393	740.56
606.843	751.16
607.293	744.56
607.743	744.26
608.192	757.56
608.642	762.96
609.091	774.46
609.541	781.56
609.99	777.56
610.44	777.06
610.889	736.56
611.339	717.46
611.788	695.96
612.238	722.26
612.687	733.16
613.136	732.16
613.586	753.76
614.035	758.36
614.484	770.26
614.933	785.76
615.383	766.06
615.832	755.96
616.281	734.76
616.73	695.66
617.179	683.96
617.628	664.76
618.077	645.86
618.526	638.46
618.975	625.66
619.424	626.56
619.873	618.26
620.322	619.26
620.771	614.66
621.22	618.66
621.669	607.96
622.118	594.16
622.567	591.76
623.015	574.86
623.464	576.56
623.913	564.16
624.361	566.36
624.81	556.16
625.259	561.16
625.707	562.16
626.156	563.16
626.604	563.46
627.053	568.76
627.501	574.46
627.95	584.36
628.398	585.86
628.847	585.16
629.295	579.56
629.744	584.26
630.192	570.16
630.64	576.96
631.089	568.26
631.537	585.56
631.985	603.76
632.433	614.06
632.881	614.26
633.33	669.46
633.778	646.96
634.226	571.76
634.674	571.16
635.122	593.06
635.57	604.86
636.018	629.76
636.466	589.26
636.914	571.86
637.362	584.36
637.81	581.46
638.258	593.76
638.705	601.16
639.153	622.36
639.601	629.06
640.049	651.56
640.497	673.76
640.944	697.06
641.392	655.96
641.84	619.36
642.287	596.16
642.735	575.06
643.182	584.46
643.63	586.06
644.078	581.26
644.525	602.46
644.973	605.96
645.42	613.26
645.867	636.86
646.315	655.46
646.762	670.36
647.21	705.76
647.657	730.06
648.104	764.86
648.551	788.96
648.999	850.96
649.446	929.36
649.893	1021.16
650.34	1189.86
650.787	1433.66
651.234	1771.46
651.682	2305.26
652.129	3171.46
652.576	4602.96
653.023	6756.96
653.47	9265.66
653.917	11560.36
654.363	13362.56
654.81	14689.56
655.257	13974.56
655.704	9156.06
656.151	5407.76
656.598	3501.36
657.044	2473.36
657.491	1906.46
657.938	1527.46
658.385	1262.36
658.831	1095.96
659.278	976.66
659.724	874.56
660.171	803.96
660.618	735.46
661.064	701.26
661.511	681.16
661.957	663.56
662.404	655.26
662.85	651.66
663.296	631.86
663.743	567.96
664.189	543.36
664.635	541.36
665.082	535.66
665.528	528.36
665.974	533.16
666.42	514.56
666.867	509.76
667.313	487.36
667.759	481.86
668.205	489.66
668.651	486.56
669.097	488.06
669.543	509.56
669.989	480.16
670.435	451.66
670.881	448.06
671.327	453.86
671.773	472.26
672.219	495.36
672.665	546.46
673.11	591.66
673.556	634.76
674.002	677.56
674.448	659.06
674.893	556.66
675.339	483.16
675.785	437.46
676.23	418.36
676.676	396.26
677.122	383.06
677.567	382.26
678.013	377.06
678.458	361.56
678.904	365.06
679.349	353.46
679.794	364.36
680.24	359.86
680.685	353.66
681.131	358.46
681.576	350.76
682.021	348.76
682.466	350.06
682.912	349.86
683.357	361.66
683.802	378.06
684.247	413.76
684.692	459.36
685.137	499.16
685.583	538.16
686.028	572.96
686.473	523.56
686.918	449.76
687.363	424.16
687.807	396.26
688.252	368.76
688.697	361.26
689.142	338.16
689.587	339.16
690.032	331.26
690.477	342.96
690.921	353.26
691.366	389.16
691.811	411.16
692.255	431.06
692.7	462.76
693.145	501.16
693.589	701.36
694.034	1140.76
694.478	1563.16
694.923	1738.76
695.367	2270.76
695.812	1195.56
696.256	495.46
696.701	369.36
697.145	345.96
697.59	328.66
698.034	320.56
698.478	339.26
698.922	329.86
699.367	330.96
699.811	347.26
700.255	361.46
700.699	381.66
701.143	427.96
701.588	474.76
702.032	522.36
702.476	528.56
702.92	487.36
703.364	495.06
703.808	637.86
704.252	1029.66
704.696	1453.16
705.14	1683.26
705.584	2146.46
706.027	1067.36
706.471	530.86
706.915	404.86
707.359	359.66
707.803	319.66
708.246	317.36
708.69	311.76
709.134	320.96
709.577	313.06
710.021	318.56
710.465	311.16
710.908	299.86
711.352	308.66
711.795	311.76
712.239	351.36
712.682	386.16
713.126	419.76
713.569	474.26
714.012	371.86
714.456	323.56
714.899	301.66
715.342	273.76
715.786	260.36
716.229	266.76
716.672	259.66
717.115	249.36
717.558	252.16
718.002	252.86
718.445	260.86
718.888	287.36
719.331	296.86
719.774	317.06
720.217	311.96
720.66	278.76
721.103	264.06
721.546	257.16
721.989	244.86
722.432	233.66
722.874	231.06
723.317	226.26
723.76	249.86
724.203	262.66
724.645	319.46
725.088	448.66
725.531	566.86
725.974	657.76
726.416	549.26
726.859	310.36
727.301	247.96
727.744	242.96
728.187	240.26
728.629	238.76
729.071	252.86
729.514	262.76
729.956	278.26
730.399	284.26
730.841	290.86
731.283	279.66
731.726	264.86
732.168	257.36
732.61	262.76
733.053	293.06
733.495	313.26
733.937	353.46
734.379	398.96
734.821	432.16
735.263	543.66
735.705	839.36
736.148	1591.76
736.59	2595.96
737.032	3075.46
737.474	2480.16
737.916	804.56
738.357	432.76
738.799	329.46
739.241	302.86
739.683	284.16
740.125	294.76
740.567	296.46
741.008	317.86
741.45	318.96
741.892	319.56
742.334	345.36
742.775	355.16
743.217	336.56
743.658	268.36
744.1	261.76
744.542	263.66
744.983	312.76
745.425	344.26
745.866	342.26
746.307	291.56
746.749	282.66
747.19	324.76
747.632	464.66
748.073	890.66
748.514	1872.36
748.956	2849.36
749.397	3565.76
749.838	2975.06
750.279	2969.76
750.72	1504.06
751.162	549.86
751.603	321.36
752.044	253.36
752.485	225.46
752.926	216.16
753.367	203.46
753.808	192.86
754.249	194.36
754.69	183.66
755.131	181.86
755.572	181.56
756.013	181.56
756.453	178.46
756.894	191.76
757.335	195.46
757.776	202.66
758.216	195.76
758.657	196.66
759.098	198.46
759.538	227.96
759.979	267.16
760.42	379.56
760.86	708.06
761.301	1818.76
761.741	4436.96
762.182	6415.16
762.622	4507.86
763.063	1305.76
763.503	538.56
763.943	347.56
764.384	351.66
764.824	413.16
765.264	445.66
765.705	306.76
766.145	209.06
766.585	195.66
767.025	186.96
767.465	190.36
767.906	243.36
768.346	319.96
768.786	341.66
769.226	264.06
769.666	323.96
770.106	617.56
770.546	1550.36
770.986	2638.06
771.426	2362.56
771.866	795.26
772.306	329.26
772.745	217.66
773.185	180.96
773.625	175.46
774.065	170.66
774.505	192.36
774.944	308.96
775.384	695.96
775.824	1257.86
776.263	1219.86
776.703	518.36
777.142	222.56
777.582	160.76
778.021	140.56
778.461	139.06
778.9	148.46
779.34	133.26
779.779	114.36
780.219	116.36
780.658	112.16
781.097	115.76
781.537	123.76
781.976	112.36
782.415	107.96
782.855	107.96
783.294	107.96
783.733	104.96
784.172	107.76
784.611	106.46
785.05	112.06
785.489	113.06
785.928	114.96
786.367	128.36
786.806	120.16
787.245	138.26
787.684	133.96
788.123	150.56
788.562	131.66
789.001	125.76
789.44	124.16
789.879	114.06
790.317	118.26
790.756	130.46
791.195	125.16
791.634	149.86
792.072	202.56
792.511	362.56
792.95	1002.26
793.388	2142.26
793.827	1944.96
794.265	673.76
794.704	280.66
795.142	184.96
795.581	155.56
796.019	134.16
796.458	126.86
796.896	123.36
797.334	135.86
797.773	161.06
798.211	229.66
798.649	440.06
799.087	1032.36
799.526	1597.06
799.964	2010.66
800.402	2002.66
800.84	756.86
801.278	300.36
801.716	186.86
802.154	161.76
802.592	148.56
803.03	136.46
803.468	133.06
803.906	147.06
804.344	153.06
804.782	136.56
805.22	129.96
805.658	129.86
806.096	146.76
806.533	158.56
806.971	174.26
807.409	218.16
807.847	311.66
808.284	663.46
808.722	1853.16
809.16	3281.36
809.597	3106.96
810.035	5414.56
810.472	5734.46
810.91	2071.06
811.347	787.86
811.785	405.36
812.222	258.96
812.66	188.66
813.097	162.86
813.535	142.66
813.972	133.86
814.409	119.26
814.846	113.96
815.284	113.96
815.721	96.96
816.158	104.76
816.595	124.76
817.032	178.96
817.47	203.56
817.907	174.56
818.344	153.76
818.781	119.46
819.218	102.76
819.655	122.76
820.092	188.76
820.529	211.66
820.966	170.86
821.403	133.36
821.839	115.06
822.276	101.16
822.713	128.46
823.15	132.06
823.587	113.26
824.023	142.16
824.46	298.46
824.897	894.86
825.333	1349.36
825.77	574.86
826.206	225.06
826.643	137.86
827.08	101.26
827.516	84.06
827.953	81.86
828.389	88.46
828.825	69.16
829.262	71.66
829.698	64.06
830.135	67.06
830.571	62.36
831.007	61.46
831.443	66.26
831.88	66.16
832.316	64.66
832.752	72.76
833.188	63.46
833.624	62.56
834.06	65.66
834.497	65.46
834.933	66.46
835.369	76.46
835.805	67.96
836.241	77.86
836.677	81.66
837.112	96.06
837.548	102.56
837.984	127.26
838.42	201.46
838.856	486.06
839.292	1508.66
839.727	2305.16
840.163	1071.86
840.599	931.16
841.034	2017.46
841.47	2111.26
841.906	772.56
842.341	333.96
842.777	223.76
843.212	332.76
843.648	314.66
844.083	153.26
844.519	97.26
844.954	79.86
845.39	64.96
845.825	61.26
846.261	62.16
846.696	50.76
847.131	52.06
847.566	58.76
848.002	58.06
848.437	55.26
848.872	62.76
849.307	68.36
849.742	89.96
850.177	185.86
850.613	553.56
851.048	876.96
851.483	380.06
851.918	157.66
852.353	93.76
852.788	59.36
853.223	61.26
853.657	51.16
854.092	47.46
854.527	39.66
854.962	38.06
855.397	42.56
855.832	54.76
856.266	44.56
856.701	42.36
857.136	42.06
857.57	46.86
858.005	54.76
858.44	57.56
858.874	48.86
859.309	55.16
859.743	44.96
860.178	49.46
860.612	41.56
861.047	53.16
861.481	63.56
861.915	69.96
862.35	50.56
862.784	30.36
863.218	36.76
863.653	41.26
864.087	42.96
864.521	53.46
864.955	72.56
865.39	151.56
865.824	175.06
866.258	113.56
866.692	162.06
867.126	164.56
867.56	104.06
867.994	57.86
868.428	41.76
868.862	47.46
869.296	53.86
869.73	55.16
870.164	54.46
870.598	45.46
871.031	38.86
871.465	35.86
871.899	39.76
872.333	20.26
872.766	28.66
873.2	22.76
873.634	31.06
874.067	24.76
874.501	25.36
874.935	34.26
875.368	37.16
875.802	28.16
876.235	22.56
876.669	23.86
877.102	26.16
877.535	23.86
877.969	25.56
878.402	28.86
878.836	21.66
879.269	25.86
879.702	28.96
880.135	22.76
880.569	23.36
881.002	26.16
881.435	28.96
881.868	17.46
882.301	26.86
882.734	17.66
883.167	26.76
883.601	19.26
884.034	20.46
884.467	17.16
884.899	20.16
885.332	13.86
885.765	17.16
886.198	17.76
886.631	20.36
887.064	25.76
887.497	22.86
887.929	22.16
888.362	13.86
888.795	17.96
889.228	18.56
889.66	21.26
890.093	19.26
890.526	19.36
890.958	25.56
891.391	22.26
891.823	22.36
892.256	17.86
892.688	12.56
893.121	17.96
893.553	17.46
893.985	21.56
894.418	17.86
894.85	15.36
895.282	11.86
895.715	15.56
896.147	12.76
896.579	21.26
897.011	16.76
897.444	19.36
897.876	18.86
898.308	22.66
898.74	16.86
899.172	21.26
899.604	24.56
900.036	23.66
900.468	21.46
900.9	12.76
901.332	21.06
901.764	14.96
902.196	15.26
902.628	21.36
903.06	16.16
903.491	29.06
903.923	24.06
904.355	27.86
904.787	27.96
905.218	27.66
905.65	23.06
906.082	13.16
906.513	21.56
906.945	19.96
907.376	21.46
907.808	20.16
908.239	20.36
908.671	18.26
909.102	21.76
909.534	29.66
909.965	42.16
910.397	99.76
910.828	313.76
911.259	482.66
911.691	213.26
912.122	102.76
912.553	47.96
912.984	32.76
913.415	30.26
913.847	28.76
914.278	19.96
914.709	12.86
915.14	21.26
915.571	22.26
916.002	17.46
916.433	12.06
916.864	20.46
917.295	13.26
917.726	19.96
918.157	17.96
918.587	34.86
919.018	22.16
919.449	17.96
919.88	27.16
920.311	32.96
920.741	49.76
921.172	169.06
921.603	144.96
922.033	72.96
922.464	52.66
922.895	26.16
923.325	21.06
923.756	15.86
924.186	14.46
924.617	26.16
925.047	45.26
925.478	55.06
925.908	44.06
926.338	26.16
926.769	21.96
927.199	19.26
927.629	11.56
928.06	14.76
928.49	14.36
928.92	14.46
929.35	10.76
929.78	13.56
930.21	8.76
930.641	9.26
931.071	10.66
931.501	4.96
931.931	9.06
932.361	11.96
932.791	-0.04
933.221	10.16
933.651	4.56
934.08	16.46
934.51	31.66
934.94	10.46
935.37	9.26
935.8	11.36
936.229	7.16
936.659	11.66
937.089	6.96
937.519	15.46
937.948	21.36
938.378	16.36
938.807	6.66
939.237	3.86
939.666	6.06
940.096	-4.54
940.525	2.36
940.955	9.66
941.384	2.76
941.814	-5.54
942.243	1.76
942.672	2.66
943.102	-2.84
943.531	0.76
943.96	-1.04
944.39	4.76
944.819	3.96
945.248	6.46
945.677	1.46
946.106	8.56
946.535	9.06
946.964	2.56
947.393	2.56
947.822	5.36
948.251	-1.64
948.68	1.56
949.109	1.86
949.538	2.26
949.967	5.36
950.396	-2.24
950.825	0.66
951.254	-0.64
951.682	-4.14
952.111	-0.44
952.54	7.66
952.969	0.46
953.397	-5.34
953.826	-1.94
954.254	-9.84
954.683	7.26
955.112	3.66
955.54	4.96
955.969	-2.94
956.397	-0.14
956.826	0.66
957.254	1.86
957.682	-0.14
958.111	-1.54
958.539	-0.84
958.967	6.06
959.396	-0.14
959.824	5.36
960.252	6.36
960.68	-2.14
961.109	1.26
961.537	1.26
961.965	2.86
962.393	-0.54
962.821	-4.34
963.249	4.86
963.677	5.76
964.105	3.06
964.533	41.36
964.961	39.26
965.389	14.16
965.817	7.46
966.245	3.56
966.672	-0.04
967.1	-7.24
967.528	3.16
967.956	0.46
968.383	-0.84
968.811	1.16
969.239	0.16
969.666	-5.24
970.094	4.06
970.522	0.26
970.949	3.76
971.377	-4.94
971.804	0.06
972.232	-1.84
972.659	-0.04
973.087	-3.54
973.514	-0.34
973.941	-3.64
974.369	2.66
974.796	-1.14
975.223	-2.74
975.651	2.06
976.078	3.56
976.505	3.96
976.932	7.76
977.359	19.26
977.786	17.66
978.214	-1.74
978.641	-0.64
979.068	-3.84
979.495	-2.24
979.922	-0.04
980.349	-1.04
980.776	7.46
981.202	0.66
981.629	5.46
982.056	3.66
982.483	2.36
982.91	8.36
983.337	-5.04
983.763	3.26
984.19	0.56
984.617	-4.94
985.043	-6.74
985.47	0.56
985.897	-2.64
986.323	-5.64
986.75	8.06
987.176	5.46
987.603	2.06
988.029	-1.84
988.456	0.66
988.882	6.26
989.308	-10.44
989.735	-1.44
990.161	5.76
990.587	-4.14
991.014	3.66
991.44	5.66
991.866	0.46
992.292	-7.34
992.719	1.06
993.145	4.76
993.571	-6.14
993.997	-2.04
994.423	2.26
994.849	-4.64
995.275	2.26
995.701	1.56
996.127	-7.24
996.553	7.06
996.979	-7.84
997.405	6.46
997.83	-2.44
998.256	-6.24
998.682	-0.94
999.108	-8.44
999.534	2.46
999.959	0.26
1000.385	1.06
1000.811	3.66
1001.236	-8.04
1001.662	-6.54
1002.087	-7.94
1002.513	5.26
1002.938	-3.44
1003.364	2.26
1003.789	4.66
1004.215	5.86
1004.64	2.36
1005.066	7.56
1005.491	-1.64
1005.916	-2.84
1006.342	-4.34
1006.767	-4.24
1007.192	11.26
1007.617	-6.64
1008.042	-4.04
1008.468	-4.14
1008.893	-2.24
1009.318	-1.14
1009.743	-4.64
1010.168	1.36
1010.593	5.26
1011.018	-7.94
1011.443	1.16
1011.868	-4.34
1012.293	-7.44
1012.718	-7.24
1013.143	2.36
1013.567	2.06
1013.992	1.06
1014.417	-14.84
1014.842	-0.54
1015.267	-6.84
1015.691	-2.24
1016.116	2.16
1016.541	0.96
1016.965	6.26
1017.39	6.16
1017.814	4.26
1018.239	-2.94
1018.663	-6.04
1019.088	-7.34
1019.512	0.66
1019.937	-2.24
1020.361	-4.44
1020.785	-3.64
1021.21	0.16
1021.634	-0.54
1022.058	0.06
1022.483	2.66
1022.907	-8.14
1023.331	-2.34
1023.755	-1.74
1024.179	-5.54
1024.604	-6.24
1025.028	-3.94
1025.452	-5.54
1025.876	-3.74
1026.3	1.26
1026.724	-8.74
1027.148	-0.24
1027.572	-5.14
1027.996	2.26
1028.42	-1.74
1028.843	-7.74
1029.267	-5.14
1029.691	-0.54
1030.115	-6.94
1030.539	-11.84
1030.962	-2.94
1031.386	-11.54
1031.81	5.96
1032.233	2.66
1032.657	1.46
1033.08	-4.64
1033.504	-1.04
1033.927	-1.64
1034.351	-2.44
1034.774	-0.84
1035.198	5.06
1035.621	-1.94
1036.045	-8.94
1036.468	-1.94
1036.891	-8.64
1037.315	-15.14
1037.738	-9.04
1038.161	-0.14
1038.584	-4.14
1039.008	-6.94
1039.431	0.96
1039.854	-1.24
1040.277	-3.34
1040.7	-10.94
1041.123	-1.94
1041.546	-5.54
1041.969	-0.94
1042.392	-4.64
1042.815	2.06
1043.238	1.66
1043.661	1.86
1044.084	-5.64
1044.507	-6.14
1044.93	-3.84
1045.352	-4.54
1045.775	2.76
1046.198	-0.04
1046.621	-3.24
1047.043	-0.74
1047.466	8.66
1047.889	0.66
1048.311	-1.84
1048.734	-3.94
1049.156	-1.14
1049.579	-6.24
1050.001	-4.64
1050.424	2.16
1050.846	-1.34
1051.269	-5.84
1051.691	-3.94
1052.113	-0.74
1052.536	3.06
1052.958	-1.84
1053.38	-8.04
1053.802	-7.34
1054.225	1.36
1054.647	-7.94
1055.069	-5.54
1055.491	4.66
1055.913	-5.14
1056.335	-4.94
1056.757	-2.74
1057.179	-4.44
1057.601	-6.64
1058.023	-5.54
1058.445	-3.94
1058.867	-2.14
1059.289	-7.54
1059.711	-7.14
1060.133	-0.74
1060.555	-2.44
1060.976	-4.04
1061.398	-4.54
1061.82	-5.54
1062.241	-1.24
1062.663	-12.34
1063.085	-1.04
1063.506	1.56
1063.928	-3.84
1064.35	-3.34
1064.771	-9.84
1065.193	-0.64
1065.614	-3.84
1066.035	1.16
1066.457	-1.84
1066.878	4.06
1067.3	-2.44
1067.721	-1.54
1068.142	3.26
1068.564	-9.04
1068.985	-7.84
1069.406	-8.34
1069.827	1.56
1070.248	-1.54
1070.67	-6.54
1071.091	-5.94
1071.512	-3.64
1071.933	-6.04
1072.354	-1.94
1072.775	-4.74
1073.196	-5.74
1073.617	3.26
1074.038	-6.74
1074.459	-5.44
1074.88	-6.04
1075.3	-0.84
1075.721	-5.74
1076.142	0.26
1076.563	-1.84
1076.983	-15.84
1077.404	-4.04
1077.825	-11.24
1078.246	-4.44
1078.666	-12.44
1079.087	-7.24
1079.507	-5.44
1079.928	-0.84
1080.348	-4.44
1080.769	-6.24
1081.189	-0.64
1081.61	-1.64
1082.03	-3.44
1082.451	-4.34
1082.871	-7.14
1083.291	-7.34
1083.711	-8.74
1084.132	-6.14
1084.552	-4.44
1084.972	-2.84
1085.392	-7.04
1085.813	-4.94
1086.233	-9.04
1086.653	-8.34
1087.073	-1.44
1087.493	-4.74
1087.913	-2.34
1088.333	-6.34
1088.753	1.66
1089.173	1.76
1089.593	-7.24
1090.013	3.16
1090.433	6.26
1090.852	0.36
1091.272	-0.44
1091.692	1.56
1092.112	-9.14
1092.531	-9.04
1092.951	-13.34
1093.371	-0.94
1093.79	-2.24
1094.21	-0.04
1094.63	-7.74
1095.049	-7.34
1095.469	1.66
1095.888	-3.54
1096.308	1.26
1096.727	1.66
1097.146	-3.04
1097.566	-3.74
1097.985	-0.64
1098.405	0.66
1098.824	-7.44
1099.243	-4.94
1099.662	-10.34
1100.082	-0.54
1100.501	-0.34
1100.92	-4.54
1101.339	-7.64
1101.758	-2.14
