Data from 20171114-ORNL-Ar_H_NY_Subt18_08-07-22-426.txt Node
Date: Tue Nov 14 08:07:22 EST 2017
User: Ender
Spectrometer: HR+D1039
Trigger mode: 0
Integration Time (sec): 2.730000E-2
Scans to average: 10
Electric dark correction enabled: true
Nonlinearity correction enabled: false
Boxcar width: 0
XAxis mode: Wavelengths
Number of Pixels in Spectrum: 2048
>>>>>Begin Spectral Data<<<<<
187.836	-3.27
188.309	-3.27
188.782	-3.27
189.255	3.73
189.728	-0.87
190.201	8.03
190.674	0.43
191.147	-0.77
191.619	-6.77
192.092	-4.57
192.565	-0.97
193.038	-4.47
193.511	0.93
193.984	-0.57
194.456	3.63
194.929	4.33
195.402	2.23
195.874	-1.07
196.347	-3.37
196.82	-6.47
197.292	6.13
197.765	-5.57
198.237	-7.57
198.71	5.03
199.182	2.13
199.655	2.13
200.127	1.33
200.6	-5.17
201.072	2.83
201.544	-0.07
202.017	-1.87
202.489	2.53
202.961	-4.87
203.433	-4.27
203.906	-7.47
204.378	-5.47
204.85	-2.77
205.322	-9.37
205.794	-6.17
206.266	-2.27
206.739	-7.17
207.211	4.53
207.683	-11.57
208.155	-10.77
208.627	-4.97
209.099	-1.87
209.57	-7.87
210.042	-3.47
210.514	-5.37
210.986	-4.77
211.458	-12.87
211.93	-3.67
212.402	0.73
212.873	-0.77
213.345	-10.27
213.817	-9.17
214.288	-7.37
214.76	-10.87
215.232	-4.97
215.703	-5.27
216.175	-5.07
216.646	-9.17
217.118	-5.57
217.589	-1.47
218.061	-2.87
218.532	-9.37
219.004	-1.27
219.475	-3.37
219.946	-1.57
220.418	-12.97
220.889	2.03
221.36	-3.77
221.832	-2.67
222.303	-3.07
222.774	2.13
223.245	-7.47
223.717	-5.87
224.188	-4.97
224.659	-14.77
225.13	-8.67
225.601	-7.97
226.072	2.13
226.543	-3.17
227.014	0.83
227.485	-4.97
227.956	-6.17
228.427	-7.37
228.898	5.13
229.369	-0.37
229.839	-4.57
230.31	-11.87
230.781	3.33
231.252	-1.57
231.722	-6.27
232.193	-0.07
232.664	-1.47
233.135	3.73
233.605	-1.57
234.076	-0.57
234.546	-2.57
235.017	1.63
235.487	2.93
235.958	-3.97
236.428	-7.87
236.899	2.73
237.369	-1.17
237.84	-12.57
238.31	3.23
238.78	-5.27
239.251	-4.07
239.721	-4.97
240.191	-5.77
240.662	-8.77
241.132	-4.17
241.602	-1.97
242.072	-3.67
242.542	4.03
243.013	2.23
243.483	6.93
243.953	-4.67
244.423	-5.57
244.893	-7.67
245.363	1.23
245.833	2.03
246.303	-3.37
246.773	3.83
247.243	0.83
247.712	1.73
248.182	5.43
248.652	1.73
249.122	-10.07
249.592	2.93
250.061	7.83
250.531	17.73
251.001	8.43
251.471	13.93
251.94	14.13
252.41	-0.37
252.879	-8.57
253.349	5.03
253.818	9.53
254.288	1.13
254.757	5.73
255.227	-3.87
255.696	-3.77
256.166	4.83
256.635	2.03
257.105	2.63
257.574	0.03
258.043	5.83
258.513	6.13
258.982	6.63
259.451	2.43
259.92	6.13
260.389	6.63
260.859	6.73
261.328	12.33
261.797	9.83
262.266	5.03
262.735	7.03
263.204	-2.37
263.673	-7.07
264.142	-4.07
264.611	-10.87
265.08	-4.87
265.549	-5.77
266.018	1.63
266.487	-5.77
266.955	-3.07
267.424	-5.27
267.893	5.03
268.362	-5.27
268.83	-3.77
269.299	11.63
269.768	-1.07
270.236	4.33
270.705	-0.77
271.174	-0.47
271.642	-2.97
272.111	-1.47
272.579	2.43
273.048	13.73
273.516	9.53
273.985	16.03
274.453	12.03
274.922	11.03
275.39	3.63
275.858	-4.87
276.327	4.03
276.795	12.83
277.263	0.73
277.731	17.83
278.2	33.03
278.668	32.03
279.136	29.73
279.604	7.53
280.072	0.83
280.54	2.23
281.008	4.43
281.477	7.73
281.945	0.83
282.413	8.13
282.881	10.93
283.348	0.93
283.816	7.33
284.284	13.23
284.752	16.13
285.22	4.83
285.688	6.53
286.156	13.23
286.623	26.63
287.091	30.93
287.559	19.63
288.026	10.63
288.494	10.13
288.962	-2.67
289.429	9.43
289.897	5.13
290.364	7.23
290.832	9.23
291.3	5.83
291.767	12.03
292.234	7.73
292.702	3.23
293.169	10.63
293.637	8.83
294.104	13.03
294.571	2.23
295.039	6.43
295.506	7.13
295.973	9.33
296.44	-0.07
296.908	9.53
297.375	8.03
297.842	13.93
298.309	3.63
298.776	8.63
299.243	10.93
299.71	8.63
300.177	9.63
300.644	15.63
301.111	13.43
301.578	10.13
302.045	7.83
302.512	18.53
302.979	15.73
303.446	17.83
303.913	7.43
304.379	7.93
304.846	18.13
305.313	20.73
305.78	17.23
306.246	21.23
306.713	14.73
307.18	19.83
307.646	17.93
308.113	20.93
308.579	15.23
309.046	15.33
309.512	12.13
309.979	3.73
310.445	19.53
310.912	16.83
311.378	21.53
311.845	15.13
312.311	17.63
312.777	17.73
313.244	20.63
313.71	30.13
314.176	20.93
314.642	19.13
315.109	18.03
315.575	28.53
316.041	21.33
316.507	23.33
316.973	23.03
317.439	24.73
317.905	26.43
318.371	18.33
318.837	21.93
319.303	18.23
319.769	22.43
320.235	25.23
320.701	24.43
321.167	25.63
321.633	23.43
322.099	28.53
322.564	31.63
323.03	29.13
323.496	31.33
323.962	32.93
324.427	25.63
324.893	40.43
325.359	30.13
325.824	28.13
326.29	30.73
326.755	28.63
327.221	29.33
327.686	23.83
328.152	33.13
328.617	31.63
329.083	42.13
329.548	39.13
330.014	35.93
330.479	26.73
330.944	32.83
331.41	28.93
331.875	31.43
332.34	32.93
332.805	31.43
333.271	33.13
333.736	30.93
334.201	39.43
334.666	33.73
335.131	43.23
335.596	37.73
336.061	39.23
336.526	30.63
336.991	37.23
337.456	42.03
337.921	36.93
338.386	35.93
338.851	35.43
339.316	38.63
339.781	31.23
340.246	37.83
340.711	35.43
341.175	40.13
341.64	33.53
342.105	38.63
342.569	41.83
343.034	45.83
343.499	45.03
343.963	40.63
344.428	50.33
344.893	48.23
345.357	47.13
345.822	53.43
346.286	45.83
346.751	47.83
347.215	47.93
347.679	50.63
348.144	71.63
348.608	65.13
349.073	52.23
349.537	60.03
350.001	59.53
350.465	69.83
350.93	63.23
351.394	60.83
351.858	53.73
352.322	69.23
352.786	59.63
353.25	76.73
353.715	79.33
354.179	72.73
354.643	90.13
355.107	89.33
355.571	87.53
356.035	82.73
356.498	88.13
356.962	89.53
357.426	99.63
357.89	86.43
358.354	75.43
358.818	63.53
359.281	66.53
359.745	66.03
360.209	61.33
360.673	51.73
361.136	62.43
361.6	73.03
362.064	73.03
362.527	72.33
362.991	78.53
363.454	68.53
363.918	65.83
364.381	63.13
364.845	67.63
365.308	77.73
365.772	72.63
366.235	67.33
366.698	64.33
367.162	74.63
367.625	70.63
368.088	74.63
368.552	68.13
369.015	68.63
369.478	74.53
369.941	84.13
370.404	81.13
370.867	90.63
371.331	93.23
371.794	91.73
372.257	96.73
372.72	92.13
373.183	93.33
373.646	91.33
374.109	86.43
374.572	83.43
375.035	92.93
375.497	85.83
375.96	85.03
376.423	85.93
376.886	101.93
377.349	94.03
377.811	88.53
378.274	90.03
378.737	87.83
379.199	102.33
379.662	93.23
380.125	101.13
380.587	93.53
381.05	103.83
381.512	109.33
381.975	114.53
382.437	117.13
382.9	107.83
383.362	110.23
383.825	121.33
384.287	124.63
384.75	122.63
385.212	118.73
385.674	119.33
386.136	120.73
386.599	111.33
387.061	114.83
387.523	110.63
387.985	121.13
388.447	129.23
388.91	128.53
389.372	136.53
389.834	138.53
390.296	128.23
390.758	138.03
391.22	143.93
391.682	179.03
392.144	251.53
392.606	199.63
393.068	147.43
393.529	150.83
393.991	137.53
394.453	131.43
394.915	140.63
395.377	165.43
395.838	187.53
396.3	140.73
396.762	130.83
397.224	127.93
397.685	116.53
398.147	119.43
398.608	113.73
399.07	122.23
399.531	121.63
399.993	137.63
400.454	136.63
400.916	128.53
401.377	128.83
401.839	137.63
402.3	136.83
402.762	148.83
403.223	163.23
403.684	152.93
404.145	146.23
404.607	147.73
405.068	154.73
405.529	157.03
405.99	166.73
406.451	157.73
406.913	162.33
407.374	154.33
407.835	149.73
408.296	151.63
408.757	159.23
409.218	172.23
409.679	165.03
410.14	161.83
410.601	159.63
411.062	174.03
411.522	171.43
411.983	172.73
412.444	157.23
412.905	164.13
413.366	166.73
413.826	179.33
414.287	196.03
414.748	242.63
415.208	232.63
415.669	202.83
416.13	183.83
416.59	186.73
417.051	197.63
417.511	204.13
417.972	224.83
418.432	230.43
418.893	277.53
419.353	230.53
419.814	182.63
420.274	170.53
420.734	167.73
421.195	183.93
421.655	184.93
422.115	186.83
422.576	181.43
423.036	181.03
423.496	195.93
423.956	201.63
424.416	217.93
424.876	244.33
425.336	243.93
425.797	241.83
426.257	233.13
426.717	219.43
427.177	217.53
427.637	208.53
428.097	223.73
428.556	230.43
429.016	250.53
429.476	250.03
429.936	264.73
430.396	257.63
430.856	268.43
431.315	290.93
431.775	319.43
432.235	363.23
432.694	326.33
433.154	340.83
433.614	360.93
434.073	307.23
434.533	268.23
434.993	251.43
435.452	264.13
435.912	274.63
436.371	269.33
436.83	267.13
437.29	250.33
437.749	234.03
438.209	226.53
438.668	250.63
439.127	264.13
439.587	248.83
440.046	231.53
440.505	239.93
440.964	258.63
441.424	289.63
441.883	285.33
442.342	251.83
442.801	208.73
443.26	209.33
443.719	211.23
444.178	208.23
444.637	197.13
445.096	207.63
445.555	211.23
446.014	215.23
446.473	219.13
446.932	223.83
447.391	217.03
447.849	217.43
448.308	205.73
448.767	212.23
449.226	224.93
449.685	223.23
450.143	233.33
450.602	224.43
451.061	213.13
451.519	218.23
451.978	225.13
452.436	227.73
452.895	222.93
453.353	245.63
453.812	217.93
454.27	226.83
454.729	224.13
455.187	225.43
455.646	238.23
456.104	231.83
456.562	246.13
457.021	251.13
457.479	250.53
457.937	261.03
458.395	251.53
458.854	227.23
459.312	242.23
459.77	254.43
460.228	245.33
460.686	228.63
461.144	238.83
461.602	227.13
462.06	232.63
462.518	241.63
462.976	243.93
463.434	239.73
463.892	244.13
464.35	257.63
464.808	270.83
465.266	253.63
465.724	255.63
466.181	248.83
466.639	261.03
467.097	271.13
467.555	288.43
468.012	291.23
468.47	304.03
468.928	308.43
469.385	325.73
469.843	336.53
470.3	331.33
470.758	343.23
471.215	360.13
471.673	387.33
472.13	393.83
472.588	402.53
473.045	354.63
473.503	356.93
473.96	379.33
474.417	386.93
474.875	420.33
475.332	445.13
475.789	444.03
476.246	444.73
476.704	472.03
477.161	487.03
477.618	498.73
478.075	531.93
478.532	591.63
478.989	655.63
479.446	767.73
479.903	725.23
480.36	766.13
480.817	831.53
481.274	925.23
481.731	1025.03
482.188	1114.63
482.645	1253.23
483.102	1346.73
483.558	1475.03
484.015	1516.63
484.472	1519.63
484.929	1457.63
485.385	1416.83
485.842	1366.63
486.299	1304.63
486.755	1226.33
487.212	1039.83
487.668	879.03
488.125	814.03
488.582	749.53
489.038	717.13
489.494	673.03
489.951	642.73
490.407	637.33
490.864	621.93
491.32	620.93
491.776	615.83
492.233	622.63
492.689	582.43
493.145	576.73
493.602	569.83
494.058	588.93
494.514	585.83
494.97	610.13
495.426	626.43
495.882	598.33
496.338	583.13
496.794	593.13
497.251	582.83
497.707	596.73
498.163	606.33
498.618	609.73
499.074	616.13
499.53	647.43
499.986	643.53
500.442	624.13
500.898	605.03
501.354	599.73
501.809	612.43
502.265	610.33
502.721	630.23
503.177	640.83
503.632	635.93
504.088	630.93
504.543	674.93
504.999	678.83
505.455	624.03
505.91	601.03
506.366	609.63
506.821	610.03
507.277	606.93
507.732	606.73
508.187	598.33
508.643	615.33
509.098	618.13
509.553	632.73
510.009	635.23
510.464	643.83
510.919	667.83
511.375	657.83
511.83	678.73
512.285	697.03
512.74	729.93
513.195	752.63
513.65	736.33
514.105	737.43
514.56	740.93
515.015	761.73
515.47	776.63
515.925	754.73
516.38	750.73
516.835	757.63
517.29	747.83
517.745	749.93
518.2	735.03
518.655	723.43
519.109	712.73
519.564	711.03
520.019	696.53
520.474	689.03
520.928	698.83
521.383	691.03
521.838	681.73
522.292	683.13
522.747	681.13
523.201	671.73
523.656	665.93
524.11	673.93
524.565	661.93
525.019	668.83
525.474	678.13
525.928	672.43
526.382	668.63
526.837	676.03
527.291	668.13
527.745	661.93
528.2	674.63
528.654	661.23
529.108	659.23
529.562	656.73
530.016	661.53
530.47	665.43
530.925	658.53
531.379	666.73
531.833	669.43
532.287	677.03
532.741	677.03
533.195	669.03
533.649	683.23
534.103	688.43
534.556	684.13
535.01	687.33
535.464	677.73
535.918	687.73
536.372	687.83
536.826	687.23
537.279	678.83
537.733	686.83
538.187	687.13
538.64	690.13
539.094	703.73
539.548	703.13
540.001	698.33
540.455	686.53
540.908	703.93
541.362	706.23
541.815	723.63
542.269	729.43
542.722	737.73
543.175	747.63
543.629	748.33
544.082	751.23
544.536	761.03
544.989	758.33
545.442	762.03
545.895	769.53
546.349	757.63
546.802	772.23
547.255	772.83
547.708	772.53
548.161	785.13
548.614	797.43
549.067	807.43
549.52	791.13
549.973	785.73
550.426	767.43
550.879	769.33
551.332	768.33
551.785	776.23
552.238	774.73
552.691	789.43
553.144	804.53
553.596	812.43
554.049	833.83
554.502	864.63
554.955	879.33
555.407	872.83
555.86	864.33
556.313	862.53
556.765	853.53
557.218	855.53
557.67	850.53
558.123	846.23
558.576	841.63
559.028	845.13
559.48	856.83
559.933	837.53
560.385	816.83
560.838	785.13
561.29	758.43
561.742	754.53
562.195	743.73
562.647	735.33
563.099	742.53
563.551	747.33
564.004	767.93
564.456	749.53
564.908	743.53
565.36	720.73
565.812	707.13
566.264	703.93
566.716	694.33
567.168	689.03
567.62	697.53
568.072	673.53
568.524	679.83
568.976	673.33
569.428	646.63
569.88	647.93
570.332	660.43
570.784	662.53
571.235	665.13
571.687	666.13
572.139	675.93
572.59	687.03
573.042	690.53
573.494	686.73
573.945	679.63
574.397	659.33
574.849	656.03
575.3	666.33
575.752	654.53
576.203	660.83
576.655	656.73
577.106	646.83
577.557	639.43
578.009	643.43
578.46	645.73
578.912	638.83
579.363	646.13
579.814	649.03
580.265	641.33
580.717	648.53
581.168	642.83
581.619	651.23
582.07	661.83
582.521	652.23
582.972	636.33
583.423	646.33
583.875	649.43
584.326	669.53
584.777	714.33
585.227	796.93
585.678	875.23
586.129	957.33
586.58	1036.23
587.031	1102.33
587.482	1247.03
587.933	1411.13
588.384	1240.53
588.834	929.03
589.285	780.43
589.736	753.13
590.186	748.73
590.637	747.43
591.088	725.93
591.538	724.03
591.989	700.53
592.439	709.93
592.89	698.63
593.34	678.63
593.791	686.53
594.241	678.83
594.692	679.43
595.142	678.73
595.593	672.63
596.043	681.13
596.493	685.23
596.943	691.13
597.394	691.23
597.844	686.93
598.294	707.33
598.744	730.63
599.195	749.93
599.645	801.03
600.095	825.83
600.545	886.83
600.995	942.13
601.445	993.43
601.895	1065.23
602.345	1104.03
602.795	1076.63
603.245	1033.03
603.695	988.63
604.145	920.73
604.594	871.33
605.044	825.13
605.494	768.33
605.944	729.83
606.393	714.33
606.843	704.33
607.293	710.53
607.743	708.53
608.192	724.73
608.642	741.63
609.091	742.53
609.541	747.93
609.99	747.83
610.44	737.83
610.889	690.13
611.339	660.03
611.788	661.43
612.238	676.53
612.687	683.03
613.136	692.43
613.586	712.53
614.035	715.93
614.484	727.23
614.933	730.03
615.383	723.73
615.832	708.63
616.281	696.83
616.73	660.53
617.179	652.33
617.628	624.53
618.077	617.63
618.526	593.43
618.975	580.63
619.424	587.33
619.873	597.53
620.322	592.83
620.771	576.53
621.22	589.03
621.669	578.03
622.118	565.83
622.567	562.63
623.015	561.93
623.464	552.93
623.913	539.03
624.361	533.93
624.81	538.33
625.259	531.53
625.707	536.43
626.156	537.93
626.604	544.53
627.053	542.93
627.501	541.03
627.95	540.23
628.398	560.63
628.847	544.53
629.295	553.13
629.744	552.33
630.192	535.93
630.64	540.53
631.089	540.23
631.537	548.13
631.985	551.63
632.433	563.03
632.881	567.73
633.33	619.03
633.778	605.23
634.226	548.73
634.674	548.93
635.122	555.33
635.57	567.53
636.018	597.93
636.466	560.73
636.914	544.43
637.362	545.23
637.81	555.13
638.258	554.13
638.705	554.03
639.153	596.63
639.601	589.93
640.049	618.23
640.497	645.93
640.944	672.63
641.392	620.03
641.84	587.63
642.287	564.73
642.735	542.43
643.182	548.93
643.63	547.53
644.078	555.33
644.525	572.03
644.973	571.53
645.42	585.03
645.867	596.13
646.315	628.63
646.762	645.53
647.21	663.63
647.657	692.73
648.104	730.73
648.551	748.83
648.999	803.33
649.446	881.03
649.893	973.23
650.34	1115.03
650.787	1348.53
651.234	1690.73
651.682	2185.33
652.129	3000.53
652.576	4352.63
653.023	6442.93
653.47	8833.83
653.917	10984.33
654.363	12618.63
654.81	13974.13
655.257	13278.23
655.704	8651.73
656.151	5093.93
656.598	3281.63
657.044	2337.73
657.491	1798.13
657.938	1437.83
658.385	1212.03
658.831	1039.53
659.278	928.83
659.724	836.03
660.171	764.53
660.618	696.13
661.064	654.43
661.511	636.13
661.957	630.43
662.404	610.33
662.85	621.93
663.296	597.13
663.743	545.63
664.189	523.83
664.635	513.23
665.082	501.83
665.528	512.63
665.974	502.53
666.42	489.03
666.867	481.93
667.313	470.43
667.759	466.03
668.205	460.33
668.651	457.73
669.097	459.53
669.543	467.63
669.989	441.83
670.435	430.73
670.881	437.13
671.327	432.53
671.773	452.83
672.219	471.93
672.665	528.03
673.11	564.03
673.556	605.73
674.002	647.63
674.448	627.23
674.893	528.33
675.339	458.33
675.785	426.73
676.23	403.03
676.676	379.33
677.122	366.73
677.567	357.43
678.013	346.63
678.458	339.53
678.904	339.63
679.349	335.33
679.794	339.83
680.24	334.93
680.685	342.03
681.131	332.93
681.576	337.53
682.021	340.93
682.466	337.53
682.912	335.53
683.357	335.63
683.802	365.43
684.247	399.43
684.692	436.53
685.137	478.33
685.583	521.13
686.028	537.93
686.473	501.23
686.918	424.93
687.363	401.03
687.807	377.53
688.252	352.13
688.697	337.53
689.142	321.03
689.587	318.83
690.032	309.03
690.477	323.93
690.921	332.83
691.366	367.93
691.811	390.03
692.255	422.63
692.7	447.33
693.145	488.83
693.589	683.13
694.034	1095.23
694.478	1496.03
694.923	1686.43
695.367	2182.43
695.812	1155.13
696.256	479.23
696.701	357.03
697.145	332.33
697.59	317.93
698.034	301.93
698.478	319.43
698.922	310.73
699.367	308.83
699.811	327.03
700.255	342.03
700.699	371.13
701.143	409.33
701.588	457.53
702.032	502.63
702.476	497.43
702.92	469.93
703.364	470.73
703.808	622.63
704.252	1008.83
704.696	1419.63
705.14	1618.23
705.584	2055.13
706.027	1026.23
706.471	498.53
706.915	376.03
707.359	342.93
707.803	302.33
708.246	298.73
708.69	304.23
709.134	301.33
709.577	305.53
710.021	310.13
710.465	295.23
710.908	283.13
711.352	293.13
711.795	297.93
712.239	332.33
712.682	374.13
713.126	399.73
713.569	449.43
714.012	356.33
714.456	311.23
714.899	289.43
715.342	261.23
715.786	249.23
716.229	242.63
716.672	245.73
717.115	237.73
717.558	239.83
718.002	242.53
718.445	251.73
718.888	271.23
719.331	280.63
719.774	296.53
720.217	287.03
720.66	272.33
721.103	252.93
721.546	240.23
721.989	239.63
722.432	222.03
722.874	223.53
723.317	219.23
723.76	222.13
724.203	250.83
724.645	310.53
725.088	430.43
725.531	548.03
725.974	616.03
726.416	529.93
726.859	297.53
727.301	239.33
727.744	229.93
728.187	221.03
728.629	231.13
729.071	231.83
729.514	244.03
729.956	259.43
730.399	264.13
730.841	279.63
731.283	257.13
731.726	253.83
732.168	254.53
732.61	256.53
733.053	278.93
733.495	303.33
733.937	344.63
734.379	377.93
734.821	419.43
735.263	522.43
735.705	821.43
736.148	1553.43
736.59	2521.53
737.032	2948.13
737.474	2397.53
737.916	779.13
738.357	409.23
738.799	317.63
739.241	294.53
739.683	279.03
740.125	278.03
740.567	288.73
741.008	306.33
741.45	304.53
741.892	304.63
742.334	332.83
742.775	336.63
743.217	324.03
743.658	260.33
744.1	239.73
744.542	251.23
744.983	301.43
745.425	328.63
745.866	321.73
746.307	269.53
746.749	273.43
747.19	316.43
747.632	446.13
748.073	876.83
748.514	1830.33
748.956	2766.53
749.397	3466.23
749.838	2877.03
750.279	2877.53
750.72	1446.73
751.162	517.83
751.603	304.83
752.044	237.73
752.485	212.83
752.926	203.03
753.367	197.73
753.808	181.93
754.249	182.63
754.69	177.23
755.131	175.13
755.572	166.23
756.013	169.23
756.453	179.53
756.894	178.23
757.335	184.63
757.776	176.13
758.216	185.53
758.657	195.03
759.098	195.43
759.538	221.13
759.979	252.33
760.42	367.93
760.86	703.13
761.301	1820.63
761.741	4364.73
762.182	6231.83
762.622	4384.83
763.063	1273.93
763.503	524.43
763.943	325.93
764.384	325.83
764.824	376.83
765.264	401.43
765.705	281.93
766.145	199.93
766.585	177.73
767.025	171.93
767.465	176.33
767.906	232.23
768.346	296.53
768.786	304.23
769.226	244.73
769.666	308.33
770.106	612.13
770.546	1535.73
770.986	2569.53
771.426	2282.33
771.866	764.33
772.306	313.93
772.745	199.83
773.185	170.93
773.625	162.13
774.065	159.53
774.505	190.23
774.944	290.83
775.384	646.53
775.824	1138.13
776.263	1103.13
776.703	481.03
777.142	213.33
777.582	151.63
778.021	134.33
778.461	129.33
778.9	128.33
779.34	126.23
779.779	113.73
780.219	105.53
780.658	112.43
781.097	102.63
781.537	111.73
781.976	108.43
782.415	104.63
782.855	97.93
783.294	96.83
783.733	98.73
784.172	98.43
784.611	99.53
785.05	98.43
785.489	100.13
785.928	110.33
786.367	111.43
786.806	115.13
787.245	129.33
787.684	129.93
788.123	137.33
788.562	125.63
789.001	120.93
789.44	118.03
789.879	114.63
790.317	114.53
790.756	129.43
791.195	125.63
791.634	139.93
792.072	200.33
792.511	364.13
792.95	1001.03
793.388	2078.23
793.827	1872.73
794.265	645.03
794.704	270.43
795.142	180.73
795.581	149.53
796.019	135.33
796.458	118.83
796.896	112.63
797.334	120.43
797.773	147.13
798.211	213.43
798.649	433.73
799.087	992.43
799.526	1543.63
799.964	1964.63
800.402	1944.63
800.84	731.03
801.278	283.53
801.716	178.33
802.154	152.53
802.592	138.43
803.03	134.83
803.468	128.13
803.906	134.73
804.344	146.23
804.782	136.73
805.22	130.43
805.658	128.23
806.096	143.93
806.533	142.23
806.971	168.53
807.409	208.33
807.847	313.03
808.284	664.43
808.722	1836.93
809.16	3200.93
809.597	3064.73
810.035	5358.23
810.472	5569.23
810.91	2017.13
811.347	768.63
811.785	396.73
812.222	243.83
812.66	193.33
813.097	156.93
813.535	135.93
813.972	120.13
814.409	114.23
814.846	106.43
815.284	103.43
815.721	98.73
816.158	103.53
816.595	117.53
817.032	165.63
817.47	183.83
817.907	147.83
818.344	137.03
818.781	113.63
819.218	97.23
819.655	115.83
820.092	178.33
820.529	210.03
820.966	171.93
821.403	129.03
821.839	101.93
822.276	93.03
822.713	122.43
823.15	127.53
823.587	117.33
824.023	140.93
824.46	296.53
824.897	875.63
825.333	1314.43
825.77	562.93
826.206	220.83
826.643	132.23
827.08	98.63
827.516	75.73
827.953	70.53
828.389	72.03
828.825	66.53
829.262	66.13
829.698	64.53
830.135	60.43
830.571	53.13
831.007	55.83
831.443	51.83
831.88	53.73
832.316	62.63
832.752	65.43
833.188	62.23
833.624	64.33
834.06	71.73
834.497	71.13
834.933	67.33
835.369	72.13
835.805	64.23
836.241	78.83
836.677	77.43
837.112	81.23
837.548	99.43
837.984	130.43
838.42	194.63
838.856	494.43
839.292	1489.03
839.727	2237.83
840.163	1033.33
840.599	910.53
841.034	1997.53
841.47	2036.33
841.906	749.43
842.341	326.93
842.777	223.43
843.212	298.73
843.648	293.03
844.083	142.83
844.519	90.63
844.954	67.73
845.39	60.73
845.825	56.83
846.261	57.23
846.696	50.13
847.131	54.93
847.566	54.83
848.002	53.83
848.437	51.53
848.872	54.53
849.307	61.53
849.742	80.83
850.177	176.03
850.613	552.83
851.048	845.53
851.483	363.13
851.918	150.43
852.353	80.13
852.788	51.03
853.223	50.73
853.657	55.03
854.092	38.73
854.527	37.83
854.962	42.33
855.397	37.83
855.832	59.33
856.266	35.73
856.701	37.03
857.136	37.03
857.57	41.23
858.005	48.93
858.44	58.93
858.874	40.13
859.309	45.73
859.743	41.53
860.178	44.83
860.612	38.33
861.047	50.23
861.481	65.53
861.915	59.23
862.35	44.63
862.784	29.93
863.218	35.33
863.653	31.93
864.087	48.03
864.521	54.63
864.955	64.53
865.39	156.43
865.824	161.43
866.258	107.33
866.692	157.93
867.126	171.23
867.56	103.53
867.994	59.23
868.428	37.43
868.862	41.43
869.296	47.13
869.73	53.03
870.164	49.43
870.598	45.83
871.031	34.93
871.465	36.23
871.899	29.63
872.333	22.93
872.766	22.73
873.2	21.43
873.634	30.03
874.067	26.73
874.501	19.23
874.935	33.83
875.368	30.93
875.802	26.93
876.235	20.43
876.669	20.73
877.102	21.63
877.535	32.63
877.969	20.63
878.402	21.03
878.836	18.13
879.269	22.43
879.702	24.73
880.135	20.53
880.569	22.03
881.002	27.93
881.435	10.63
881.868	18.13
882.301	19.43
882.734	20.43
883.167	23.93
883.601	18.33
884.034	20.53
884.467	10.73
884.899	14.53
885.332	15.93
885.765	13.43
886.198	19.93
886.631	17.83
887.064	14.83
887.497	17.63
887.929	20.53
888.362	12.03
888.795	18.73
889.228	12.03
889.66	14.63
890.093	14.73
890.526	20.63
890.958	18.63
891.391	12.33
891.823	16.33
892.256	13.73
892.688	7.23
893.121	11.13
893.553	6.73
893.985	20.13
894.418	18.03
894.85	13.03
895.282	15.63
895.715	17.83
896.147	12.33
896.579	11.73
897.011	16.03
897.444	16.13
897.876	17.93
898.308	20.63
898.74	17.13
899.172	8.63
899.604	19.73
900.036	20.43
900.468	13.23
900.9	15.43
901.332	14.33
901.764	9.13
902.196	17.73
902.628	14.83
903.06	14.53
903.491	23.03
903.923	25.73
904.355	20.63
904.787	22.63
905.218	20.13
905.65	19.03
906.082	12.83
906.513	12.93
906.945	12.93
907.376	11.13
907.808	14.73
908.239	18.33
908.671	23.13
909.102	19.23
909.534	19.43
909.965	39.43
910.397	87.73
910.828	312.53
911.259	467.63
911.691	211.63
912.122	103.73
912.553	48.63
912.984	38.63
913.415	26.13
913.847	27.03
914.278	18.63
914.709	14.53
915.14	13.83
915.571	19.13
916.002	19.53
916.433	17.63
916.864	18.03
917.295	17.23
917.726	25.53
918.157	16.13
918.587	28.13
919.018	24.13
919.449	24.43
919.88	23.33
920.311	30.03
920.741	47.53
921.172	159.03
921.603	142.63
922.033	68.03
922.464	39.23
922.895	17.23
923.325	15.93
923.756	16.73
924.186	19.73
924.617	25.03
925.047	30.03
925.478	47.93
925.908	33.93
926.338	23.83
926.769	21.63
927.199	21.83
927.629	8.83
928.06	12.83
928.49	17.13
928.92	14.33
929.35	8.73
929.78	12.93
930.21	8.13
930.641	2.83
931.071	6.63
931.501	5.23
931.931	9.03
932.361	11.33
932.791	-0.37
933.221	1.63
933.651	0.93
934.08	14.83
934.51	21.93
934.94	6.33
935.37	7.03
935.8	8.23
936.229	2.93
936.659	7.03
937.089	6.63
937.519	11.53
937.948	22.03
938.378	17.03
938.807	7.83
939.237	-0.57
939.666	10.73
940.096	-3.77
940.525	1.53
940.955	-1.27
941.384	4.23
941.814	-5.87
942.243	-6.37
942.672	4.63
943.102	-6.17
943.531	-1.27
943.96	3.23
944.39	-2.27
944.819	-5.77
945.248	5.13
945.677	1.13
946.106	3.03
946.535	10.03
946.964	1.83
947.393	4.03
947.822	3.03
948.251	-1.97
948.68	3.13
949.109	0.03
949.538	6.63
949.967	1.73
950.396	-0.77
950.825	0.33
951.254	2.73
951.682	-3.97
952.111	1.23
952.54	1.43
952.969	-5.47
953.397	-9.27
953.826	-2.57
954.254	-5.17
954.683	-6.07
955.112	-4.57
955.54	-3.27
955.969	5.93
956.397	-2.17
956.826	-1.67
957.254	1.63
957.682	3.33
958.111	11.83
958.539	-1.17
958.967	1.43
959.396	-9.57
959.824	1.33
960.252	5.83
960.68	-0.87
961.109	-0.87
961.537	-4.67
961.965	0.33
962.393	0.43
962.821	3.33
963.249	3.83
963.677	8.73
964.105	2.63
964.533	41.63
964.961	29.03
965.389	20.53
965.817	5.73
966.245	1.73
966.672	-0.17
967.1	-7.07
967.528	-7.07
967.956	-1.27
968.383	0.33
968.811	-6.67
969.239	-0.77
969.666	-2.87
970.094	-4.47
970.522	-3.87
970.949	0.23
971.377	-7.57
971.804	-5.57
972.232	1.23
972.659	-5.67
973.087	-4.87
973.514	4.63
973.941	-1.97
974.369	2.73
974.796	1.33
975.223	-1.47
975.651	2.63
976.078	-0.87
976.505	1.03
976.932	0.93
977.359	14.43
977.786	14.63
978.214	1.03
978.641	-3.77
979.068	-2.17
979.495	-5.87
979.922	-3.87
980.349	-0.77
980.776	6.23
981.202	-0.87
981.629	5.53
982.056	6.33
982.483	-4.27
982.91	-4.67
983.337	0.03
983.763	1.13
984.19	-6.67
984.617	-2.97
985.043	-7.07
985.47	-0.37
985.897	-4.07
986.323	-11.07
986.75	-0.17
987.176	2.93
987.603	-4.57
988.029	-4.07
988.456	-4.67
988.882	7.03
989.308	-4.57
989.735	-10.47
990.161	0.03
990.587	-3.87
991.014	1.83
991.44	1.93
991.866	-5.37
992.292	-5.47
992.719	-9.77
993.145	-4.27
993.571	-8.47
993.997	-2.97
994.423	-1.87
994.849	-8.17
995.275	1.03
995.701	2.43
996.127	-4.37
996.553	2.63
996.979	-8.47
997.405	-1.57
997.83	-6.37
998.256	-9.37
998.682	-9.97
999.108	-8.87
999.534	-3.87
999.959	-7.57
1000.385	-1.27
1000.811	2.53
1001.236	-7.77
1001.662	-6.67
1002.087	-9.07
1002.513	-3.17
1002.938	2.63
1003.364	-1.57
1003.789	-8.07
1004.215	-2.37
1004.64	-4.47
1005.066	1.93
1005.491	0.13
1005.916	-4.57
1006.342	-4.37
1006.767	-10.07
1007.192	5.13
1007.617	-5.87
1008.042	-0.97
1008.468	-6.37
1008.893	0.23
1009.318	0.03
1009.743	-1.77
1010.168	7.13
1010.593	6.03
1011.018	-6.77
1011.443	-1.97
1011.868	-1.47
1012.293	-1.27
1012.718	-4.57
1013.143	4.03
1013.567	4.43
1013.992	-6.17
1014.417	-15.57
1014.842	-0.17
1015.267	-2.07
1015.691	-1.67
1016.116	4.43
1016.541	-4.47
1016.965	1.23
1017.39	-2.57
1017.814	-2.27
1018.239	-1.77
1018.663	-5.67
1019.088	-11.97
1019.512	-5.27
1019.937	-3.07
1020.361	-6.27
1020.785	-9.17
1021.21	-4.07
1021.634	-3.57
1022.058	-1.47
1022.483	0.73
1022.907	-2.27
1023.331	-4.67
1023.755	-4.37
1024.179	0.93
1024.604	-12.97
1025.028	-3.37
1025.452	4.73
1025.876	-0.97
1026.3	-0.17
1026.724	-10.47
1027.148	-1.27
1027.572	-5.97
1027.996	0.93
1028.42	-3.87
1028.843	-9.77
1029.267	-8.67
1029.691	0.33
1030.115	-6.57
1030.539	-0.87
1030.962	-4.17
1031.386	-12.17
1031.81	1.93
1032.233	2.03
1032.657	-5.67
1033.08	-5.37
1033.504	-1.67
1033.927	-5.77
1034.351	-2.07
1034.774	-6.77
1035.198	-5.27
1035.621	-8.17
1036.045	-6.87
1036.468	-4.97
1036.891	-12.67
1037.315	-12.97
1037.738	-11.07
1038.161	1.53
1038.584	-12.67
1039.008	-10.17
1039.431	-5.07
1039.854	-0.67
1040.277	-6.47
1040.7	-15.77
1041.123	-0.47
1041.546	-9.57
1041.969	-6.67
1042.392	-5.07
1042.815	-0.97
1043.238	1.63
1043.661	-5.27
1044.084	-5.27
1044.507	-3.57
1044.93	-9.57
1045.352	-6.07
1045.775	-1.97
1046.198	-2.67
1046.621	-1.07
1047.043	-7.47
1047.466	6.23
1047.889	-2.87
1048.311	-3.67
1048.734	-3.77
1049.156	-2.97
1049.579	-4.07
1050.001	-7.27
1050.424	2.43
1050.846	-4.37
1051.269	1.33
1051.691	-10.17
1052.113	-8.67
1052.536	-2.57
1052.958	-2.67
1053.38	-1.77
1053.802	-9.57
1054.225	0.63
1054.647	-9.17
1055.069	-7.47
1055.491	0.33
1055.913	-9.07
1056.335	-1.97
1056.757	-5.97
1057.179	-11.47
1057.601	-3.67
1058.023	-4.27
1058.445	-10.57
1058.867	-6.57
1059.289	-2.07
1059.711	-5.77
1060.133	-6.57
1060.555	-4.27
1060.976	-7.77
1061.398	-8.37
1061.82	-12.37
1062.241	-2.97
1062.663	-5.57
1063.085	-0.07
1063.506	-6.67
1063.928	-4.07
1064.35	-1.97
1064.771	-7.77
1065.193	-2.27
1065.614	-7.17
1066.035	1.23
1066.457	-0.47
1066.878	-3.37
1067.3	-10.47
1067.721	-1.47
1068.142	-4.27
1068.564	-4.97
1068.985	-7.77
1069.406	-4.97
1069.827	-2.77
1070.248	-1.67
1070.67	-7.97
1071.091	-3.67
1071.512	-1.17
1071.933	-4.87
1072.354	-6.17
1072.775	-9.37
1073.196	-8.87
1073.617	-3.77
1074.038	-13.27
1074.459	-7.77
1074.88	-9.87
1075.3	3.33
1075.721	-5.97
1076.142	-0.17
1076.563	-1.87
1076.983	-4.87
1077.404	-10.07
1077.825	-11.27
1078.246	-7.37
1078.666	-10.07
1079.087	-3.57
1079.507	-7.37
1079.928	-1.87
1080.348	-5.47
1080.769	-8.67
1081.189	-0.97
1081.61	-2.37
1082.03	-7.57
1082.451	-11.17
1082.871	-9.47
1083.291	-7.97
1083.711	-7.97
1084.132	-8.67
1084.552	-2.27
1084.972	0.53
1085.392	-9.97
1085.813	-7.97
1086.233	-9.37
1086.653	-10.67
1087.073	-8.37
1087.493	-9.17
1087.913	-3.37
1088.333	-6.27
1088.753	-3.17
1089.173	-2.17
1089.593	-10.17
1090.013	0.13
1090.433	1.53
1090.852	-10.87
1091.272	-1.27
1091.692	-5.67
1092.112	0.23
1092.531	-9.37
1092.951	-15.77
1093.371	-8.37
1093.79	-5.97
1094.21	-3.37
1094.63	-8.07
1095.049	-6.27
1095.469	2.53
1095.888	-4.27
1096.308	-0.47
1096.727	-1.27
1097.146	-5.27
1097.566	-2.27
1097.985	-6.87
1098.405	-5.87
1098.824	-5.57
1099.243	-6.47
1099.662	-11.87
1100.082	-3.57
1100.501	2.93
1100.92	-1.27
1101.339	-7.67
1101.758	-7.37
