Data from 20171114-ORNL-Ar_H_NY_Subt18_08-07-45-356.txt Node
Date: Tue Nov 14 08:07:45 EST 2017
User: Ender
Spectrometer: HR+D1039
Trigger mode: 0
Integration Time (sec): 2.730000E-2
Scans to average: 10
Electric dark correction enabled: true
Nonlinearity correction enabled: false
Boxcar width: 0
XAxis mode: Wavelengths
Number of Pixels in Spectrum: 2048
>>>>>Begin Spectral Data<<<<<
187.836	-3.66
188.309	-3.66
188.782	-3.66
189.255	1.44
189.728	-0.76
190.201	3.74
190.674	-1.46
191.147	0.24
191.619	-7.86
192.092	1.04
192.565	4.94
193.038	1.64
193.511	0.74
193.984	1.24
194.456	1.44
194.929	0.54
195.402	-1.46
195.874	-1.76
196.347	-2.76
196.82	-6.86
197.292	5.34
197.765	-0.16
198.237	-9.96
198.71	-3.46
199.182	-9.36
199.655	0.24
200.127	4.64
200.6	-1.16
201.072	-3.06
201.544	-4.56
202.017	-6.16
202.489	5.34
202.961	-6.76
203.433	-6.36
203.906	-4.16
204.378	-14.26
204.85	-2.96
205.322	-8.96
205.794	-3.46
206.266	-6.66
206.739	-12.06
207.211	0.94
207.683	-7.76
208.155	-7.76
208.627	-9.16
209.099	-4.26
209.57	-15.86
210.042	-5.86
210.514	-5.06
210.986	-4.06
211.458	-5.66
211.93	-4.06
212.402	0.54
212.873	-6.76
213.345	-8.86
213.817	-13.96
214.288	-3.46
214.76	-13.96
215.232	-11.86
215.703	-2.86
216.175	-4.66
216.646	-3.76
217.118	-10.26
217.589	-9.36
218.061	-4.96
218.532	-8.36
219.004	-6.06
219.475	-2.56
219.946	-6.46
220.418	-4.86
220.889	0.14
221.36	-6.16
221.832	-8.86
222.303	-6.76
222.774	-0.86
223.245	-9.86
223.717	-7.96
224.188	-6.16
224.659	-9.66
225.13	-6.66
225.601	-4.46
226.072	-3.76
226.543	-1.26
227.014	-6.06
227.485	-1.96
227.956	-8.06
228.427	-3.76
228.898	-4.26
229.369	1.64
229.839	-3.86
230.31	-6.96
230.781	4.14
231.252	0.64
231.722	-1.56
232.193	-4.06
232.664	-2.56
233.135	-0.56
233.605	-4.86
234.076	-4.36
234.546	-3.96
235.017	1.84
235.487	1.94
235.958	1.74
236.428	-5.76
236.899	2.64
237.369	0.64
237.84	-3.36
238.31	3.94
238.78	-2.96
239.251	-1.16
239.721	-1.86
240.191	-0.96
240.662	-3.66
241.132	-5.06
241.602	-4.46
242.072	0.14
242.542	5.74
243.013	-5.46
243.483	-1.76
243.953	0.84
244.423	2.54
244.893	-1.16
245.363	2.54
245.833	-1.66
246.303	-3.66
246.773	3.24
247.243	3.34
247.712	6.74
248.182	4.24
248.652	3.34
249.122	-6.26
249.592	3.14
250.061	21.84
250.531	28.24
251.001	16.04
251.471	11.54
251.94	15.34
252.41	-1.96
252.879	-3.56
253.349	13.74
253.818	6.64
254.288	2.84
254.757	3.74
255.227	0.34
255.696	-1.06
256.166	-1.36
256.635	0.24
257.105	-1.96
257.574	1.64
258.043	14.54
258.513	13.04
258.982	14.94
259.451	1.64
259.92	11.74
260.389	12.04
260.859	5.84
261.328	10.64
261.797	13.44
262.266	5.24
262.735	9.54
263.204	2.54
263.673	1.34
264.142	9.54
264.611	-5.66
265.08	2.34
265.549	0.84
266.018	0.74
266.487	-3.06
266.955	-4.06
267.424	-1.66
267.893	1.64
268.362	3.54
268.83	5.34
269.299	10.74
269.768	6.64
270.236	1.84
270.705	2.04
271.174	4.24
271.642	2.64
272.111	9.04
272.579	14.54
273.048	18.94
273.516	30.44
273.985	20.14
274.453	18.14
274.922	15.24
275.39	7.74
275.858	0.64
276.327	6.94
276.795	16.84
277.263	11.84
277.731	25.14
278.2	43.44
278.668	44.44
279.136	36.74
279.604	7.64
280.072	12.24
280.54	9.94
281.008	6.24
281.477	9.54
281.945	7.04
282.413	11.34
282.881	11.04
283.348	4.04
283.816	12.74
284.284	10.04
284.752	15.24
285.22	4.84
285.688	7.94
286.156	18.24
286.623	42.44
287.091	46.14
287.559	25.94
288.026	10.64
288.494	11.24
288.962	1.54
289.429	10.24
289.897	15.04
290.364	11.14
290.832	7.94
291.3	7.64
291.767	4.94
292.234	12.74
292.702	14.84
293.169	16.64
293.637	18.84
294.104	16.44
294.571	11.64
295.039	7.14
295.506	12.14
295.973	12.24
296.44	13.94
296.908	8.74
297.375	14.34
297.842	19.24
298.309	17.54
298.776	14.64
299.243	13.74
299.71	9.44
300.177	17.64
300.644	11.44
301.111	18.04
301.578	19.74
302.045	16.14
302.512	22.34
302.979	25.74
303.446	20.34
303.913	14.04
304.379	16.04
304.846	23.64
305.313	22.84
305.78	17.14
306.246	17.84
306.713	16.24
307.18	26.64
307.646	26.74
308.113	23.44
308.579	17.04
309.046	24.74
309.512	24.34
309.979	9.74
310.445	20.94
310.912	22.44
311.378	27.14
311.845	25.14
312.311	28.94
312.777	25.24
313.244	23.14
313.71	31.24
314.176	27.24
314.642	25.24
315.109	20.54
315.575	32.74
316.041	34.34
316.507	31.24
316.973	34.94
317.439	27.94
317.905	28.94
318.371	31.14
318.837	34.44
319.303	34.24
319.769	31.74
320.235	29.54
320.701	36.54
321.167	31.04
321.633	30.54
322.099	41.84
322.564	40.74
323.03	38.04
323.496	30.94
323.962	35.94
324.427	31.04
324.893	40.04
325.359	36.34
325.824	33.74
326.29	35.54
326.755	35.64
327.221	41.24
327.686	37.04
328.152	39.84
328.617	35.34
329.083	42.44
329.548	45.74
330.014	40.84
330.479	34.54
330.944	40.54
331.41	41.44
331.875	39.14
332.34	39.74
332.805	34.04
333.271	40.84
333.736	39.24
334.201	43.44
334.666	43.14
335.131	48.44
335.596	48.14
336.061	42.84
336.526	36.04
336.991	43.24
337.456	49.74
337.921	40.24
338.386	39.64
338.851	41.14
339.316	39.84
339.781	49.64
340.246	42.64
340.711	45.94
341.175	45.44
341.64	42.64
342.105	51.34
342.569	46.94
343.034	50.24
343.499	51.64
343.963	45.14
344.428	55.54
344.893	57.04
345.357	55.74
345.822	60.94
346.286	57.14
346.751	63.54
347.215	56.94
347.679	70.94
348.144	84.54
348.608	70.14
349.073	64.54
349.537	64.24
350.001	68.84
350.465	77.64
350.93	79.24
351.394	74.94
351.858	66.34
352.322	79.74
352.786	80.74
353.25	93.34
353.715	99.24
354.179	89.44
354.643	117.24
355.107	109.54
355.571	96.94
356.035	94.44
356.498	113.24
356.962	109.84
357.426	124.44
357.89	108.04
358.354	85.64
358.818	79.94
359.281	69.44
359.745	67.64
360.209	66.74
360.673	66.24
361.136	74.94
361.6	80.44
362.064	74.84
362.527	83.44
362.991	81.14
363.454	71.14
363.918	67.24
364.381	68.24
364.845	76.44
365.308	79.34
365.772	80.54
366.235	72.74
366.698	82.64
367.162	79.24
367.625	80.74
368.088	82.14
368.552	78.64
369.015	82.34
369.478	90.44
369.941	88.44
370.404	87.34
370.867	99.04
371.331	99.94
371.794	107.84
372.257	102.24
372.72	110.54
373.183	100.84
373.646	98.54
374.109	98.24
374.572	102.64
375.035	93.54
375.497	106.94
375.96	99.54
376.423	97.34
376.886	103.34
377.349	102.54
377.811	88.44
378.274	102.04
378.737	94.94
379.199	107.64
379.662	100.34
380.125	113.64
380.587	109.14
381.05	111.24
381.512	118.24
381.975	124.84
382.437	122.24
382.9	119.44
383.362	124.94
383.825	134.24
384.287	141.34
384.75	127.44
385.212	128.24
385.674	129.44
386.136	124.74
386.599	116.44
387.061	118.14
387.523	125.84
387.985	133.24
388.447	138.34
388.91	137.34
389.372	157.54
389.834	144.34
390.296	136.14
390.758	145.04
391.22	160.44
391.682	202.14
392.144	287.84
392.606	220.34
393.068	159.54
393.529	159.34
393.991	147.64
394.453	141.84
394.915	156.14
395.377	188.44
395.838	205.04
396.3	152.94
396.762	133.54
397.224	127.34
397.685	125.44
398.147	126.64
398.608	124.14
399.07	121.14
399.531	129.94
399.993	135.74
400.454	144.84
400.916	137.54
401.377	141.54
401.839	143.94
402.3	146.14
402.762	161.24
403.223	177.94
403.684	165.34
404.145	153.44
404.607	151.54
405.068	158.24
405.529	160.04
405.99	177.64
406.451	168.44
406.913	165.04
407.374	159.14
407.835	149.44
408.296	155.84
408.757	165.14
409.218	174.64
409.679	168.14
410.14	168.14
410.601	173.04
411.062	175.44
411.522	186.54
411.983	187.34
412.444	162.54
412.905	165.44
413.366	171.14
413.826	186.54
414.287	205.84
414.748	257.34
415.208	233.84
415.669	202.64
416.13	197.44
416.59	195.94
417.051	196.94
417.511	201.04
417.972	216.54
418.432	236.94
418.893	279.84
419.353	242.14
419.814	189.24
420.274	174.04
420.734	179.84
421.195	194.14
421.655	188.44
422.115	190.34
422.576	179.44
423.036	178.54
423.496	193.34
423.956	212.04
424.416	227.74
424.876	260.44
425.336	243.54
425.797	246.94
426.257	247.14
426.717	235.64
427.177	222.94
427.637	215.44
428.097	230.04
428.556	231.64
429.016	255.24
429.476	255.14
429.936	271.84
430.396	269.54
430.856	277.94
431.315	300.04
431.775	337.44
432.235	370.94
432.694	341.34
433.154	351.64
433.614	391.34
434.073	330.24
434.533	274.84
434.993	267.74
435.452	275.34
435.912	284.64
436.371	277.94
436.83	274.94
437.29	262.64
437.749	240.54
438.209	239.54
438.668	258.14
439.127	278.64
439.587	250.04
440.046	237.14
440.505	254.34
440.964	265.24
441.424	316.14
441.883	298.64
442.342	256.34
442.801	221.74
443.26	213.84
443.719	211.04
444.178	216.84
444.637	207.34
445.096	207.94
445.555	208.34
446.014	219.24
446.473	221.74
446.932	218.04
447.391	221.14
447.849	226.04
448.308	213.84
448.767	219.44
449.226	226.74
449.685	224.54
450.143	244.24
450.602	231.64
451.061	218.74
451.519	225.24
451.978	223.64
452.436	223.24
452.895	234.54
453.353	239.54
453.812	227.34
454.27	234.04
454.729	223.74
455.187	228.04
455.646	235.04
456.104	240.54
456.562	254.44
457.021	262.24
457.479	248.04
457.937	265.04
458.395	249.74
458.854	242.04
459.312	245.64
459.77	263.94
460.228	250.84
460.686	231.04
461.144	239.34
461.602	238.34
462.06	228.44
462.518	246.24
462.976	252.54
463.434	247.74
463.892	256.64
464.35	266.14
464.808	276.64
465.266	262.64
465.724	261.24
466.181	256.04
466.639	267.14
467.097	277.74
467.555	287.64
468.012	283.64
468.47	299.74
468.928	320.04
469.385	327.74
469.843	332.64
470.3	341.94
470.758	352.24
471.215	367.64
471.673	393.84
472.13	400.74
472.588	403.64
473.045	357.64
473.503	370.64
473.96	390.24
474.417	394.44
474.875	422.54
475.332	459.84
475.789	444.44
476.246	451.04
476.704	480.64
477.161	492.14
477.618	517.54
478.075	555.14
478.532	594.14
478.989	668.04
479.446	781.24
479.903	752.24
480.36	794.54
480.817	843.84
481.274	939.44
481.731	1042.54
482.188	1138.44
482.645	1272.54
483.102	1363.64
483.558	1507.64
484.015	1560.64
484.472	1535.84
484.929	1476.34
485.385	1429.04
485.842	1387.04
486.299	1330.64
486.755	1269.14
487.212	1064.24
487.668	897.34
488.125	824.54
488.582	762.74
489.038	727.14
489.494	685.54
489.951	666.34
490.407	649.54
490.864	617.84
491.32	618.04
491.776	629.74
492.233	632.64
492.689	596.44
493.145	588.34
493.602	582.44
494.058	594.84
494.514	606.04
494.97	622.24
495.426	632.34
495.882	604.54
496.338	591.14
496.794	602.34
497.251	600.94
497.707	613.04
498.163	621.14
498.618	618.74
499.074	628.44
499.53	658.24
499.986	659.64
500.442	641.44
500.898	620.34
501.354	606.74
501.809	627.74
502.265	633.24
502.721	654.54
503.177	651.64
503.632	652.14
504.088	662.14
504.543	696.64
504.999	697.04
505.455	637.34
505.91	614.74
506.366	625.94
506.821	610.14
507.277	603.14
507.732	614.24
508.187	617.44
508.643	617.14
509.098	618.44
509.553	639.14
510.009	643.34
510.464	645.34
510.919	673.84
511.375	676.04
511.83	685.94
512.285	703.14
512.74	738.44
513.195	766.34
513.65	753.64
514.105	743.24
514.56	753.34
515.015	777.24
515.47	793.44
515.925	765.24
516.38	772.94
516.835	775.24
517.29	759.04
517.745	759.64
518.2	740.54
518.655	738.64
519.109	718.54
519.564	717.84
520.019	716.94
520.474	705.84
520.928	702.14
521.383	701.24
521.838	692.44
522.292	694.64
522.747	693.54
523.201	688.94
523.656	684.54
524.11	682.74
524.565	680.24
525.019	672.24
525.474	682.84
525.928	678.84
526.382	688.14
526.837	676.64
527.291	686.34
527.745	670.24
528.2	682.04
528.654	672.14
529.108	670.04
529.562	670.24
530.016	684.14
530.47	678.44
530.925	673.44
531.379	677.64
531.833	691.14
532.287	695.04
532.741	697.74
533.195	689.44
533.649	694.74
534.103	706.94
534.556	690.04
535.01	693.54
535.464	688.84
535.918	702.64
536.372	710.04
536.826	706.94
537.279	695.34
537.733	689.64
538.187	698.24
538.64	694.34
539.094	705.14
539.548	712.24
540.001	710.54
540.455	712.04
540.908	712.74
541.362	717.14
541.815	736.14
542.269	738.84
542.722	740.34
543.175	751.64
543.629	752.54
544.082	768.24
544.536	763.04
544.989	764.74
545.442	780.24
545.895	771.64
546.349	773.94
546.802	785.74
547.255	777.04
547.708	785.74
548.161	794.64
548.614	800.64
549.067	818.64
549.52	801.24
549.973	793.64
550.426	784.94
550.879	779.94
551.332	785.94
551.785	789.04
552.238	789.24
552.691	804.04
553.144	821.34
553.596	840.64
554.049	850.24
554.502	878.54
554.955	894.24
555.407	893.04
555.86	875.54
556.313	884.44
556.765	860.94
557.218	874.44
557.67	871.64
558.123	866.74
558.576	865.04
559.028	852.64
559.48	862.04
559.933	854.94
560.385	819.64
560.838	788.54
561.29	777.64
561.742	773.44
562.195	751.04
562.647	754.34
563.099	758.74
563.551	754.34
564.004	766.14
564.456	759.54
564.908	746.44
565.36	722.94
565.812	716.34
566.264	715.14
566.716	708.04
567.168	709.54
567.62	716.24
568.072	695.74
568.524	690.14
568.976	687.64
569.428	666.24
569.88	667.54
570.332	676.14
570.784	667.74
571.235	670.84
571.687	683.44
572.139	693.94
572.59	702.84
573.042	698.24
573.494	681.64
573.945	699.44
574.397	666.24
574.849	681.34
575.3	674.84
575.752	661.04
576.203	671.04
576.655	681.84
577.106	654.64
577.557	649.64
578.009	665.54
578.46	651.44
578.912	658.24
579.363	648.54
579.814	652.04
580.265	656.04
580.717	655.74
581.168	663.74
581.619	672.64
582.07	670.24
582.521	661.64
582.972	657.34
583.423	659.24
583.875	663.34
584.326	693.64
584.777	746.94
585.227	811.64
585.678	893.74
586.129	984.44
586.58	1059.84
587.031	1139.04
587.482	1291.74
587.933	1465.94
588.384	1272.74
588.834	955.14
589.285	784.84
589.736	778.44
590.186	766.84
590.637	751.94
591.088	730.14
591.538	731.84
591.989	725.74
592.439	723.04
592.89	714.74
593.34	701.54
593.791	705.34
594.241	698.74
594.692	698.54
595.142	689.14
595.593	688.74
596.043	696.44
596.493	706.44
596.943	696.84
597.394	713.54
597.844	715.44
598.294	729.24
598.744	741.54
599.195	758.94
599.645	815.34
600.095	850.84
600.545	899.94
600.995	961.94
601.445	1019.34
601.895	1074.24
602.345	1127.44
602.795	1094.84
603.245	1049.64
603.695	1006.04
604.145	940.04
604.594	894.64
605.044	846.84
605.494	793.24
605.944	749.54
606.393	733.14
606.843	716.34
607.293	718.24
607.743	723.84
608.192	741.84
608.642	757.74
609.091	762.44
609.541	769.64
609.99	750.94
610.44	755.74
610.889	710.64
611.339	701.74
611.788	690.14
612.238	698.94
612.687	708.24
613.136	709.34
613.586	731.84
614.035	726.94
614.484	751.14
614.933	747.24
615.383	743.64
615.832	742.84
616.281	717.34
616.73	679.54
617.179	661.54
617.628	641.44
618.077	628.64
618.526	620.54
618.975	612.24
619.424	606.44
619.873	605.14
620.322	608.74
620.771	599.84
621.22	600.24
621.669	581.64
622.118	581.24
622.567	576.44
623.015	560.34
623.464	562.24
623.913	557.54
624.361	547.94
624.81	548.64
625.259	544.14
625.707	550.24
626.156	555.54
626.604	561.14
627.053	550.54
627.501	556.84
627.95	555.94
628.398	567.34
628.847	553.04
629.295	562.24
629.744	570.44
630.192	560.84
630.64	566.54
631.089	570.04
631.537	579.74
631.985	577.34
632.433	596.24
632.881	601.24
633.33	652.14
633.778	634.44
634.226	568.44
634.674	571.24
635.122	572.24
635.57	582.74
636.018	610.54
636.466	571.54
636.914	557.64
637.362	573.34
637.81	571.34
638.258	578.14
638.705	578.34
639.153	604.54
639.601	607.04
640.049	634.44
640.497	665.74
640.944	687.24
641.392	633.64
641.84	610.94
642.287	578.24
642.735	561.44
643.182	566.24
643.63	574.24
644.078	566.64
644.525	588.94
644.973	594.14
645.42	591.94
645.867	622.14
646.315	626.84
646.762	663.54
647.21	686.04
647.657	705.54
648.104	744.94
648.551	771.84
648.999	831.74
649.446	920.64
649.893	998.94
650.34	1151.54
650.787	1379.44
651.234	1732.94
651.682	2259.94
652.129	3125.34
652.576	4513.34
653.023	6632.24
653.47	9088.74
653.917	11267.64
654.363	12957.44
654.81	14252.34
655.257	13566.04
655.704	8872.04
656.151	5237.64
656.598	3386.64
657.044	2409.24
657.491	1852.84
657.938	1465.14
658.385	1239.64
658.831	1058.54
659.278	943.84
659.724	856.74
660.171	780.74
660.618	707.54
661.064	678.14
661.511	657.94
661.957	652.54
662.404	637.54
662.85	650.04
663.296	621.44
663.743	551.34
664.189	533.84
664.635	529.64
665.082	517.94
665.528	520.94
665.974	509.54
666.42	512.34
666.867	507.64
667.313	483.54
667.759	480.04
668.205	475.94
668.651	484.24
669.097	476.34
669.543	498.74
669.989	470.54
670.435	443.84
670.881	440.64
671.327	441.54
671.773	466.24
672.219	489.14
672.665	537.74
673.11	584.44
673.556	615.34
674.002	654.24
674.448	651.54
674.893	540.74
675.339	469.94
675.785	436.34
676.23	418.04
676.676	383.34
677.122	383.24
677.567	366.84
678.013	369.34
678.458	346.54
678.904	352.14
679.349	350.94
679.794	352.74
680.24	350.54
680.685	343.64
681.131	344.44
681.576	348.34
682.021	345.64
682.466	341.94
682.912	345.04
683.357	346.04
683.802	377.74
684.247	404.64
684.692	459.54
685.137	494.24
685.583	525.94
686.028	549.44
686.473	517.84
686.918	447.84
687.363	411.24
687.807	388.24
688.252	362.14
688.697	350.04
689.142	331.14
689.587	319.64
690.032	313.34
690.477	343.64
690.921	351.74
691.366	367.24
691.811	401.74
692.255	433.44
692.7	464.04
693.145	498.44
693.589	696.44
694.034	1123.24
694.478	1537.54
694.923	1696.84
695.367	2235.84
695.812	1180.34
696.256	497.54
696.701	363.84
697.145	339.04
697.59	327.54
698.034	320.64
698.478	321.64
698.922	331.44
699.367	323.94
699.811	332.24
700.255	349.04
700.699	379.64
701.143	429.54
701.588	467.64
702.032	510.44
702.476	508.94
702.92	487.94
703.364	484.74
703.808	632.24
704.252	1041.44
704.696	1454.24
705.14	1648.24
705.584	2085.54
706.027	1044.74
706.471	504.84
706.915	393.34
707.359	341.44
707.803	314.94
708.246	301.74
708.69	307.34
709.134	305.24
709.577	310.84
710.021	308.84
710.465	303.54
710.908	298.64
711.352	296.74
711.795	309.84
712.239	352.24
712.682	385.34
713.126	411.34
713.569	461.94
714.012	362.04
714.456	324.44
714.899	300.04
715.342	267.24
715.786	263.64
716.229	251.64
716.672	257.34
717.115	249.54
717.558	249.94
718.002	248.24
718.445	265.04
718.888	279.94
719.331	286.84
719.774	310.24
720.217	299.74
720.66	277.44
721.103	259.14
721.546	252.74
721.989	244.14
722.432	236.34
722.874	227.44
723.317	231.94
723.76	231.84
724.203	259.44
724.645	311.44
725.088	441.04
725.531	561.44
725.974	631.74
726.416	534.84
726.859	297.54
727.301	246.44
727.744	235.64
728.187	233.94
728.629	233.54
729.071	236.24
729.514	258.54
729.956	266.64
730.399	280.04
730.841	276.44
731.283	271.74
731.726	262.64
732.168	254.74
732.61	259.44
733.053	281.44
733.495	320.64
733.937	352.34
734.379	392.64
734.821	428.24
735.263	543.14
735.705	845.84
736.148	1595.64
736.59	2561.14
737.032	3004.94
737.474	2426.74
737.916	801.54
738.357	422.64
738.799	324.94
739.241	295.44
739.683	282.84
740.125	290.64
740.567	288.14
741.008	306.24
741.45	307.64
741.892	313.44
742.334	346.54
742.775	354.84
743.217	331.84
743.658	265.34
744.1	254.04
744.542	260.54
744.983	310.34
745.425	336.64
745.866	332.64
746.307	278.74
746.749	276.44
747.19	329.44
747.632	454.44
748.073	901.24
748.514	1864.54
748.956	2842.74
749.397	3550.64
749.838	2935.34
750.279	2890.44
750.72	1467.34
751.162	546.44
751.603	317.74
752.044	249.94
752.485	210.74
752.926	206.94
753.367	195.04
753.808	192.34
754.249	187.24
754.69	187.94
755.131	181.24
755.572	178.24
756.013	177.44
756.453	179.64
756.894	177.44
757.335	189.44
757.776	192.14
758.216	193.94
758.657	190.44
759.098	198.54
759.538	220.94
759.979	264.64
760.42	377.24
760.86	721.14
761.301	1865.04
761.741	4434.24
762.182	6297.44
762.622	4415.04
763.063	1289.94
763.503	546.24
763.943	345.24
764.384	345.24
764.824	406.34
765.264	429.84
765.705	299.64
766.145	204.24
766.585	184.34
767.025	181.34
767.465	182.14
767.906	242.94
768.346	309.74
768.786	345.54
769.226	261.94
769.666	322.44
770.106	635.44
770.546	1571.94
770.986	2597.14
771.426	2332.34
771.866	778.24
772.306	325.14
772.745	205.04
773.185	170.84
773.625	163.64
774.065	164.24
774.505	202.24
774.944	308.34
775.384	693.84
775.824	1215.84
776.263	1175.44
776.703	501.34
777.142	223.54
777.582	155.04
778.021	140.04
778.461	135.54
778.9	137.54
779.34	129.34
779.779	118.74
780.219	107.24
780.658	110.04
781.097	107.44
781.537	111.44
781.976	104.14
782.415	102.94
782.855	100.44
783.294	101.94
783.733	108.14
784.172	104.64
784.611	95.04
785.05	110.14
785.489	103.54
785.928	115.24
786.367	117.94
786.806	120.84
787.245	128.24
787.684	135.34
788.123	148.04
788.562	131.44
789.001	125.64
789.44	119.84
789.879	111.14
790.317	110.94
790.756	123.44
791.195	126.64
791.634	141.04
792.072	198.04
792.511	372.34
792.95	1031.04
793.388	2113.94
793.827	1896.14
794.265	664.74
794.704	282.34
795.142	181.64
795.581	149.14
796.019	135.24
796.458	132.34
796.896	127.34
797.334	128.34
797.773	162.94
798.211	219.84
798.649	449.94
799.087	1008.74
799.526	1593.24
799.964	2006.04
800.402	1972.54
800.84	746.14
801.278	289.24
801.716	189.64
802.154	152.44
802.592	148.04
803.03	137.74
803.468	130.04
803.906	139.74
804.344	154.44
804.782	142.84
805.22	128.94
805.658	123.74
806.096	137.14
806.533	148.34
806.971	176.24
807.409	221.64
807.847	320.54
808.284	677.44
808.722	1877.64
809.16	3238.34
809.597	3128.34
810.035	5397.44
810.472	5622.74
810.91	2042.14
811.347	783.34
811.785	400.44
812.222	252.74
812.66	191.54
813.097	162.74
813.535	137.04
813.972	128.34
814.409	122.84
814.846	107.04
815.284	104.44
815.721	99.94
816.158	110.84
816.595	120.14
817.032	171.24
817.47	198.14
817.907	159.34
818.344	155.44
818.781	115.04
819.218	99.04
819.655	115.74
820.092	174.74
820.529	209.14
820.966	172.44
821.403	128.24
821.839	108.94
822.276	98.84
822.713	117.14
823.15	134.94
823.587	117.44
824.023	149.24
824.46	304.94
824.897	905.64
825.333	1319.24
825.77	565.34
826.206	223.64
826.643	132.04
827.08	98.04
827.516	80.04
827.953	74.44
828.389	73.44
828.825	65.24
829.262	64.54
829.698	55.44
830.135	59.54
830.571	60.14
831.007	66.04
831.443	60.34
831.88	62.74
832.316	61.84
832.752	58.84
833.188	61.94
833.624	60.04
834.06	65.24
834.497	66.04
834.933	74.04
835.369	75.14
835.805	70.44
836.241	70.54
836.677	82.74
837.112	83.64
837.548	103.74
837.984	128.54
838.42	199.94
838.856	503.44
839.292	1515.34
839.727	2267.44
840.163	1065.74
840.599	938.04
841.034	2015.34
841.47	2078.54
841.906	756.14
842.341	327.94
842.777	228.64
843.212	314.04
843.648	309.64
844.083	155.34
844.519	91.74
844.954	74.54
845.39	60.44
845.825	58.54
846.261	51.14
846.696	52.44
847.131	49.24
847.566	56.24
848.002	57.14
848.437	53.64
848.872	57.74
849.307	59.14
849.742	84.54
850.177	179.44
850.613	556.44
851.048	865.74
851.483	378.14
851.918	150.54
852.353	87.54
852.788	62.64
853.223	53.54
853.657	50.74
854.092	44.54
854.527	39.84
854.962	36.84
855.397	40.44
855.832	45.74
856.266	35.14
856.701	40.54
857.136	37.64
857.57	34.34
858.005	45.24
858.44	56.54
858.874	42.24
859.309	50.34
859.743	35.74
860.178	44.44
860.612	46.24
861.047	54.34
861.481	67.54
861.915	69.04
862.35	47.24
862.784	30.34
863.218	40.04
863.653	34.94
864.087	44.74
864.521	53.14
864.955	69.64
865.39	150.44
865.824	166.54
866.258	108.24
866.692	158.14
867.126	174.74
867.56	104.44
867.994	49.34
868.428	37.04
868.862	44.74
869.296	58.64
869.73	56.24
870.164	53.94
870.598	48.44
871.031	36.04
871.465	28.74
871.899	36.94
872.333	23.84
872.766	26.44
873.2	22.84
873.634	28.94
874.067	24.84
874.501	30.44
874.935	32.14
875.368	27.24
875.802	25.64
876.235	25.54
876.669	23.24
877.102	24.74
877.535	23.34
877.969	22.64
878.402	26.14
878.836	21.44
879.269	22.64
879.702	21.54
880.135	21.74
880.569	29.04
881.002	29.64
881.435	25.44
881.868	11.94
882.301	18.94
882.734	11.84
883.167	15.54
883.601	11.74
884.034	19.94
884.467	14.84
884.899	17.54
885.332	15.94
885.765	18.24
886.198	9.54
886.631	20.44
887.064	15.14
887.497	22.54
887.929	21.84
888.362	14.94
888.795	12.94
889.228	21.24
889.66	22.84
890.093	19.04
890.526	18.84
890.958	16.24
891.391	19.74
891.823	19.24
892.256	11.84
892.688	7.84
893.121	16.14
893.553	13.54
893.985	22.94
894.418	13.74
894.85	10.94
895.282	16.94
895.715	17.84
896.147	14.54
896.579	12.14
897.011	13.44
897.444	19.54
897.876	15.74
898.308	19.04
898.74	15.34
899.172	9.04
899.604	21.14
900.036	20.34
900.468	10.94
900.9	14.14
901.332	16.64
901.764	7.64
902.196	20.84
902.628	16.34
903.06	18.24
903.491	22.64
903.923	17.94
904.355	19.44
904.787	21.94
905.218	25.14
905.65	17.54
906.082	11.04
906.513	10.94
906.945	16.94
907.376	14.44
907.808	21.74
908.239	20.34
908.671	19.54
909.102	14.84
909.534	20.74
909.965	49.14
910.397	92.04
910.828	309.84
911.259	458.14
911.691	213.84
912.122	106.54
912.553	56.34
912.984	31.74
913.415	26.24
913.847	23.94
914.278	12.54
914.709	13.44
915.14	14.74
915.571	19.64
916.002	10.44
916.433	18.14
916.864	12.64
917.295	13.64
917.726	18.74
918.157	14.34
918.587	32.84
919.018	23.54
919.449	17.14
919.88	19.34
920.311	32.34
920.741	46.34
921.172	165.04
921.603	147.44
922.033	72.94
922.464	41.74
922.895	23.34
923.325	19.44
923.756	15.04
924.186	14.54
924.617	26.34
925.047	44.04
925.478	50.14
925.908	43.04
926.338	19.04
926.769	16.54
927.199	18.94
927.629	2.74
928.06	14.84
928.49	10.84
928.92	15.94
929.35	9.24
929.78	10.34
930.21	1.34
930.641	8.24
931.071	9.34
931.501	8.94
931.931	8.64
932.361	7.24
932.791	2.34
933.221	2.84
933.651	2.74
934.08	14.94
934.51	25.64
934.94	11.94
935.37	8.54
935.8	12.44
936.229	7.14
936.659	7.34
937.089	2.14
937.519	14.84
937.948	15.94
938.378	19.74
938.807	6.84
939.237	6.74
939.666	7.44
940.096	-6.66
940.525	-2.86
940.955	1.74
941.384	3.24
941.814	-10.16
942.243	-3.16
942.672	1.54
943.102	-3.56
943.531	-2.36
943.96	5.04
944.39	1.04
944.819	-1.96
945.248	-1.66
945.677	1.14
946.106	2.44
946.535	9.24
946.964	0.54
947.393	4.94
947.822	-2.46
948.251	-3.16
948.68	-3.16
949.109	8.04
949.538	1.94
949.967	1.64
950.396	-3.26
950.825	-3.16
951.254	-1.06
951.682	-7.86
952.111	6.24
952.54	6.04
952.969	-6.56
953.397	-6.56
953.826	3.74
954.254	-3.56
954.683	1.44
955.112	-2.96
955.54	2.04
955.969	2.14
956.397	-2.96
956.826	-7.06
957.254	1.24
957.682	0.34
958.111	4.24
958.539	-2.96
958.967	1.44
959.396	-1.96
959.824	-3.26
960.252	1.34
960.68	-4.06
961.109	-3.26
961.537	-5.16
961.965	-5.96
962.393	-0.26
962.821	-4.86
963.249	-1.56
963.677	6.04
964.105	4.44
964.533	43.34
964.961	39.44
965.389	21.44
965.817	9.54
966.245	0.34
966.672	2.54
967.1	-7.16
967.528	1.94
967.956	-6.26
968.383	0.94
968.811	-7.76
969.239	-6.76
969.666	-5.66
970.094	-3.76
970.522	-8.76
970.949	0.44
971.377	-0.76
971.804	-3.56
972.232	-3.86
972.659	-2.36
973.087	-5.46
973.514	-6.76
973.941	-5.16
974.369	1.24
974.796	0.84
975.223	4.24
975.651	-1.86
976.078	0.24
976.505	-0.96
976.932	8.44
977.359	7.94
977.786	8.04
978.214	-1.56
978.641	-3.06
979.068	-2.86
979.495	-9.86
979.922	1.14
980.349	-5.46
980.776	8.04
981.202	-6.56
981.629	5.24
982.056	4.74
982.483	-7.06
982.91	3.84
983.337	-6.76
983.763	1.74
984.19	-9.56
984.617	-2.26
985.043	-6.76
985.47	-1.56
985.897	-5.36
986.323	-6.76
986.75	1.74
987.176	-1.06
987.603	-0.46
988.029	0.54
988.456	-0.06
988.882	5.34
989.308	-3.76
989.735	-6.06
990.161	0.94
990.587	-1.56
991.014	0.34
991.44	-0.76
991.866	-3.76
992.292	-2.56
992.719	-7.86
993.145	3.84
993.571	-10.76
993.997	-4.36
994.423	0.54
994.849	-6.86
995.275	3.94
995.701	1.64
996.127	-8.46
996.553	-2.16
996.979	-9.26
997.405	-2.46
997.83	-2.26
998.256	-8.96
998.682	-6.26
999.108	-2.66
999.534	-3.26
999.959	-7.26
1000.385	-6.16
1000.811	-4.36
1001.236	-13.16
1001.662	-7.36
1002.087	-12.86
1002.513	0.84
1002.938	0.94
1003.364	-5.06
1003.789	2.34
1004.215	-3.66
1004.64	0.74
1005.066	4.64
1005.491	2.94
1005.916	-3.06
1006.342	-5.36
1006.767	-4.36
1007.192	-2.56
1007.617	-7.16
1008.042	-2.96
1008.468	-7.56
1008.893	-1.26
1009.318	-4.66
1009.743	-6.66
1010.168	0.14
1010.593	-1.96
1011.018	-8.36
1011.443	-4.76
1011.868	1.34
1012.293	-1.66
1012.718	-9.66
1013.143	-3.26
1013.567	5.54
1013.992	-3.96
1014.417	-11.46
1014.842	2.44
1015.267	-7.56
1015.691	-7.26
1016.116	4.24
1016.541	-1.86
1016.965	0.64
1017.39	3.84
1017.814	-3.06
1018.239	-1.26
1018.663	-5.66
1019.088	-10.96
1019.512	-2.66
1019.937	-1.46
1020.361	-2.06
1020.785	-8.26
1021.21	0.84
1021.634	-5.16
1022.058	-6.46
1022.483	4.64
1022.907	-3.16
1023.331	-8.86
1023.755	-10.96
1024.179	-1.26
1024.604	-11.26
1025.028	-6.06
1025.452	-5.66
1025.876	-2.86
1026.3	3.74
1026.724	-9.76
1027.148	-7.86
1027.572	-5.66
1027.996	-5.46
1028.42	0.54
1028.843	-2.46
1029.267	-5.76
1029.691	-2.86
1030.115	-7.36
1030.539	-6.26
1030.962	-5.16
1031.386	-5.36
1031.81	-2.96
1032.233	-4.06
1032.657	4.04
1033.08	-3.56
1033.504	-2.86
1033.927	-13.16
1034.351	-3.26
1034.774	-9.96
1035.198	-1.06
1035.621	-6.56
1036.045	-12.16
1036.468	-0.06
1036.891	-13.16
1037.315	-14.86
1037.738	-13.06
1038.161	-3.56
1038.584	-1.96
1039.008	-8.66
1039.431	-7.26
1039.854	-8.76
1040.277	-9.76
1040.7	-9.86
1041.123	2.24
1041.546	-9.56
1041.969	-8.36
1042.392	-2.96
1042.815	-2.76
1043.238	2.74
1043.661	0.14
1044.084	-1.06
1044.507	-4.86
1044.93	-6.66
1045.352	-8.56
1045.775	-1.06
1046.198	-2.46
1046.621	-11.06
1047.043	-6.16
1047.466	3.04
1047.889	-0.16
1048.311	-3.96
1048.734	-4.96
1049.156	-5.86
1049.579	-10.86
1050.001	-3.76
1050.424	-0.16
1050.846	-6.56
1051.269	-7.56
1051.691	-6.96
1052.113	-9.76
1052.536	-8.76
1052.958	-1.76
1053.38	-6.36
1053.802	-14.16
1054.225	-1.96
1054.647	-16.06
1055.069	-10.26
1055.491	-6.06
1055.913	-7.36
1056.335	-3.76
1056.757	-6.06
1057.179	-8.46
1057.601	-5.46
1058.023	-1.26
1058.445	-2.56
1058.867	-6.06
1059.289	-1.66
1059.711	-9.46
1060.133	-7.06
1060.555	-9.96
1060.976	-8.46
1061.398	-6.96
1061.82	-11.96
1062.241	-7.96
1062.663	-14.26
1063.085	-10.86
1063.506	-2.16
1063.928	-5.96
1064.35	-5.26
1064.771	-10.76
1065.193	-5.46
1065.614	-6.76
1066.035	1.24
1066.457	-4.26
1066.878	5.24
1067.3	-6.36
1067.721	-7.66
1068.142	-13.56
1068.564	-8.16
1068.985	-7.76
1069.406	-9.66
1069.827	-7.06
1070.248	-1.36
1070.67	-9.26
1071.091	-7.06
1071.512	-5.86
1071.933	-9.26
1072.354	-7.56
1072.775	-3.26
1073.196	-11.16
1073.617	-7.16
1074.038	-4.46
1074.459	-7.06
1074.88	-11.76
1075.3	0.44
1075.721	-5.16
1076.142	-5.46
1076.563	1.74
1076.983	-16.36
1077.404	-6.26
1077.825	-7.46
1078.246	-10.36
1078.666	-13.86
1079.087	-3.66
1079.507	-6.76
1079.928	-1.66
1080.348	-4.26
1080.769	-5.66
1081.189	-5.96
1081.61	-2.96
1082.03	-5.26
1082.451	-2.16
1082.871	-2.36
1083.291	-9.56
1083.711	-6.16
1084.132	-5.56
1084.552	-7.46
1084.972	-2.46
1085.392	-5.16
1085.813	-6.86
1086.233	-19.26
1086.653	-9.96
1087.073	-5.26
1087.493	-6.16
1087.913	-7.86
1088.333	-9.26
1088.753	-5.26
1089.173	-0.76
1089.593	-7.06
1090.013	-1.96
1090.433	-6.96
1090.852	-6.26
1091.272	-4.46
1091.692	-5.36
1092.112	-8.16
1092.531	-8.86
1092.951	-17.46
1093.371	-9.46
1093.79	-2.56
1094.21	-12.06
1094.63	-5.36
1095.049	-2.56
1095.469	-8.56
1095.888	-5.96
1096.308	-3.36
1096.727	-1.26
1097.146	-10.16
1097.566	-5.16
1097.985	-7.96
1098.405	-7.56
1098.824	-9.56
1099.243	-5.36
1099.662	-8.16
1100.082	-11.86
1100.501	2.14
1100.92	-6.86
1101.339	-8.06
1101.758	-6.36
