Data from 20171114-ORNL-Ar_H_NY_Subt18_08-04-12-981.txt Node
Date: Tue Nov 14 08:04:12 EST 2017
User: Ender
Spectrometer: HR+D1039
Trigger mode: 0
Integration Time (sec): 2.730000E-2
Scans to average: 10
Electric dark correction enabled: true
Nonlinearity correction enabled: false
Boxcar width: 0
XAxis mode: Wavelengths
Number of Pixels in Spectrum: 2048
>>>>>Begin Spectral Data<<<<<
187.836	-1.94
188.309	-1.94
188.782	-1.94
189.255	-0.74
189.728	-1.14
190.201	0.06
190.674	2.46
191.147	0.96
191.619	-5.54
192.092	-2.14
192.565	4.96
193.038	-0.54
193.511	2.06
193.984	0.36
194.456	-0.64
194.929	1.16
195.402	-1.64
195.874	2.26
196.347	-0.14
196.82	-5.84
197.292	3.46
197.765	-4.04
198.237	-8.44
198.71	-0.64
199.182	-3.84
199.655	2.56
200.127	0.76
200.6	-0.34
201.072	-5.24
201.544	-2.44
202.017	1.36
202.489	1.36
202.961	-2.74
203.433	-1.74
203.906	-4.94
204.378	-5.14
204.85	-5.84
205.322	-8.34
205.794	0.76
206.266	-6.24
206.739	-14.14
207.211	2.36
207.683	-9.34
208.155	-7.94
208.627	-6.14
209.099	-2.44
209.57	-7.24
210.042	-7.64
210.514	-3.84
210.986	-4.24
211.458	-10.24
211.93	0.46
212.402	3.36
212.873	-8.14
213.345	-3.34
213.817	-7.84
214.288	-6.14
214.76	-13.74
215.232	0.06
215.703	2.76
216.175	-5.74
216.646	-7.34
217.118	-7.54
217.589	-4.54
218.061	-0.54
218.532	-1.14
219.004	-0.54
219.475	5.46
219.946	-5.64
220.418	-4.04
220.889	1.76
221.36	0.26
221.832	-3.24
222.303	-4.04
222.774	-1.34
223.245	-7.64
223.717	-8.94
224.188	-2.24
224.659	-10.14
225.13	-5.04
225.601	0.36
226.072	0.56
226.543	0.86
227.014	0.16
227.485	-6.24
227.956	-2.84
228.427	-2.54
228.898	1.26
229.369	2.56
229.839	-0.84
230.31	-3.94
230.781	-2.14
231.252	-0.84
231.722	0.26
232.193	-2.04
232.664	3.66
233.135	-0.44
233.605	-0.24
234.076	-3.84
234.546	1.86
235.017	4.06
235.487	-0.64
235.958	-0.64
236.428	-3.94
236.899	2.26
237.369	1.56
237.84	-0.34
238.31	3.76
238.78	-1.74
239.251	0.06
239.721	1.26
240.191	5.46
240.662	4.26
241.132	-2.84
241.602	-3.64
242.072	2.76
242.542	10.66
243.013	1.16
243.483	5.86
243.953	0.46
244.423	6.96
244.893	-2.84
245.363	6.16
245.833	1.46
246.303	3.86
246.773	7.56
247.243	4.26
247.712	-2.34
248.182	5.86
248.652	6.76
249.122	-3.74
249.592	15.56
250.061	15.36
250.531	26.96
251.001	14.96
251.471	16.46
251.94	20.36
252.41	9.26
252.879	1.96
253.349	12.16
253.818	14.26
254.288	2.76
254.757	5.16
255.227	5.06
255.696	7.66
256.166	6.56
256.635	7.36
257.105	10.76
257.574	4.36
258.043	7.16
258.513	8.86
258.982	17.36
259.451	4.96
259.92	11.16
260.389	5.96
260.859	7.86
261.328	10.06
261.797	16.16
262.266	4.56
262.735	12.26
263.204	5.66
263.673	1.76
264.142	13.16
264.611	-1.24
265.08	1.96
265.549	-1.44
266.018	5.66
266.487	0.66
266.955	-5.84
267.424	-4.34
267.893	-0.14
268.362	3.96
268.83	-1.64
269.299	11.06
269.768	4.26
270.236	10.66
270.705	4.16
271.174	5.96
271.642	9.36
272.111	6.56
272.579	12.26
273.048	18.26
273.516	28.86
273.985	20.76
274.453	21.06
274.922	21.16
275.39	14.26
275.858	5.36
276.327	13.86
276.795	19.26
277.263	4.56
277.731	23.56
278.2	49.06
278.668	49.16
279.136	41.66
279.604	13.96
280.072	14.16
280.54	10.56
281.008	9.26
281.477	14.26
281.945	12.06
282.413	17.16
282.881	14.16
283.348	11.26
283.816	15.66
284.284	15.66
284.752	12.66
285.22	12.06
285.688	13.16
286.156	15.06
286.623	41.06
287.091	42.16
287.559	25.26
288.026	15.86
288.494	16.16
288.962	3.76
289.429	9.96
289.897	15.16
290.364	5.56
290.832	15.26
291.3	12.36
291.767	15.46
292.234	18.46
292.702	9.06
293.169	13.06
293.637	16.66
294.104	15.16
294.571	9.66
295.039	9.96
295.506	5.76
295.973	15.46
296.44	10.56
296.908	13.86
297.375	13.86
297.842	12.66
298.309	11.96
298.776	15.46
299.243	15.26
299.71	11.56
300.177	18.76
300.644	18.36
301.111	18.16
301.578	19.96
302.045	14.26
302.512	21.96
302.979	23.26
303.446	25.56
303.913	18.86
304.379	17.56
304.846	21.26
305.313	25.26
305.78	21.46
306.246	21.26
306.713	18.86
307.18	22.06
307.646	20.86
308.113	24.26
308.579	20.16
309.046	20.76
309.512	22.96
309.979	17.56
310.445	24.36
310.912	27.26
311.378	19.36
311.845	22.36
312.311	25.96
312.777	22.56
313.244	27.36
313.71	34.06
314.176	24.26
314.642	27.36
315.109	27.16
315.575	31.06
316.041	26.86
316.507	28.76
316.973	32.26
317.439	26.06
317.905	28.66
318.371	31.76
318.837	30.36
319.303	30.36
319.769	26.26
320.235	26.66
320.701	31.76
321.167	32.16
321.633	33.36
322.099	40.06
322.564	38.56
323.03	33.06
323.496	29.36
323.962	35.06
324.427	28.36
324.893	37.56
325.359	28.66
325.824	32.46
326.29	30.96
326.755	26.76
327.221	37.86
327.686	32.26
328.152	39.86
328.617	33.76
329.083	43.56
329.548	45.26
330.014	41.26
330.479	36.86
330.944	33.76
331.41	33.06
331.875	41.96
332.34	36.16
332.805	36.96
333.271	45.16
333.736	39.86
334.201	55.06
334.666	40.66
335.131	46.26
335.596	48.76
336.061	45.86
336.526	33.66
336.991	41.56
337.456	44.26
337.921	41.56
338.386	36.06
338.851	42.66
339.316	43.36
339.781	42.86
340.246	41.66
340.711	39.96
341.175	48.66
341.64	32.26
342.105	47.16
342.569	51.56
343.034	53.66
343.499	48.96
343.963	46.36
344.428	56.26
344.893	50.26
345.357	53.06
345.822	51.86
346.286	56.46
346.751	62.96
347.215	57.66
347.679	67.36
348.144	76.46
348.608	71.36
349.073	49.76
349.537	65.36
350.001	71.16
350.465	73.16
350.93	63.16
351.394	68.06
351.858	59.56
352.322	69.16
352.786	72.86
353.25	82.76
353.715	93.36
354.179	79.36
354.643	102.56
355.107	105.26
355.571	91.46
356.035	91.56
356.498	100.96
356.962	102.06
357.426	108.36
357.89	98.66
358.354	83.46
358.818	69.06
359.281	70.86
359.745	66.16
360.209	64.96
360.673	66.06
361.136	72.96
361.6	76.96
362.064	77.86
362.527	77.26
362.991	77.66
363.454	67.06
363.918	69.46
364.381	68.36
364.845	75.26
365.308	77.86
365.772	78.66
366.235	73.56
366.698	73.46
367.162	74.16
367.625	72.76
368.088	76.06
368.552	80.36
369.015	73.26
369.478	82.76
369.941	89.16
370.404	81.76
370.867	95.26
371.331	91.56
371.794	98.86
372.257	97.16
372.72	104.76
373.183	95.96
373.646	87.36
374.109	93.36
374.572	92.56
375.035	91.06
375.497	97.26
375.96	101.86
376.423	93.06
376.886	98.56
377.349	94.26
377.811	90.66
378.274	94.86
378.737	99.16
379.199	97.06
379.662	100.26
380.125	100.96
380.587	100.76
381.05	100.66
381.512	109.96
381.975	118.06
382.437	114.16
382.9	105.46
383.362	116.26
383.825	121.46
384.287	129.36
384.75	122.86
385.212	119.26
385.674	130.16
386.136	125.86
386.599	103.76
387.061	110.86
387.523	116.56
387.985	115.56
388.447	133.76
388.91	123.16
389.372	142.86
389.834	139.86
390.296	128.46
390.758	135.16
391.22	143.36
391.682	177.56
392.144	254.96
392.606	205.16
393.068	147.06
393.529	151.66
393.991	133.66
394.453	128.36
394.915	143.56
395.377	164.36
395.838	187.46
396.3	143.06
396.762	127.56
397.224	118.86
397.685	112.66
398.147	112.06
398.608	111.46
399.07	108.96
399.531	124.36
399.993	119.76
400.454	130.56
400.916	134.56
401.377	126.96
401.839	131.76
402.3	132.86
402.762	142.66
403.223	156.86
403.684	158.66
404.145	140.86
404.607	140.46
405.068	151.86
405.529	146.86
405.99	164.96
406.451	158.16
406.913	152.96
407.374	142.86
407.835	142.86
408.296	147.76
408.757	149.16
409.218	161.66
409.679	152.56
410.14	159.16
410.601	155.66
411.062	158.56
411.522	171.76
411.983	168.16
412.444	158.26
412.905	163.86
413.366	160.66
413.826	172.26
414.287	194.66
414.748	227.76
415.208	228.56
415.669	191.76
416.13	176.06
416.59	175.76
417.051	193.76
417.511	201.36
417.972	213.56
418.432	224.46
418.893	257.06
419.353	229.96
419.814	175.36
420.274	160.36
420.734	162.56
421.195	172.86
421.655	172.76
422.115	174.96
422.576	165.16
423.036	180.16
423.496	182.26
423.956	195.66
424.416	200.96
424.876	228.66
425.336	227.56
425.797	232.56
426.257	223.16
426.717	210.96
427.177	203.56
427.637	202.96
428.097	207.16
428.556	210.46
429.016	238.46
429.476	233.76
429.936	236.46
430.396	239.26
430.856	264.16
431.315	279.86
431.775	306.16
432.235	330.26
432.694	301.96
433.154	320.66
433.614	326.66
434.073	288.76
434.533	252.66
434.993	229.66
435.452	248.76
435.912	254.46
436.371	244.86
436.83	243.96
437.29	226.36
437.749	213.46
438.209	209.76
438.668	235.26
439.127	243.26
439.587	225.46
440.046	218.36
440.505	218.16
440.964	231.96
441.424	269.56
441.883	269.06
442.342	218.96
442.801	196.46
443.26	194.46
443.719	192.86
444.178	191.16
444.637	187.66
445.096	189.96
445.555	199.46
446.014	201.96
446.473	203.46
446.932	204.66
447.391	199.26
447.849	204.76
448.308	194.76
448.767	190.06
449.226	210.06
449.685	209.56
450.143	222.26
450.602	213.36
451.061	202.56
451.519	207.96
451.978	203.76
452.436	202.26
452.895	216.96
453.353	220.86
453.812	206.86
454.27	208.46
454.729	223.16
455.187	208.36
455.646	216.46
456.104	214.36
456.562	218.36
457.021	230.26
457.479	225.96
457.937	227.66
458.395	231.26
458.854	216.86
459.312	218.46
459.77	230.96
460.228	225.66
460.686	215.26
461.144	223.26
461.602	219.56
462.06	216.66
462.518	221.46
462.976	228.16
463.434	227.96
463.892	231.56
464.35	238.66
464.808	255.46
465.266	239.96
465.724	241.06
466.181	240.26
466.639	246.26
467.097	259.66
467.555	270.76
468.012	272.86
468.47	268.96
468.928	293.86
469.385	298.76
469.843	307.76
470.3	299.66
470.758	311.26
471.215	325.26
471.673	351.96
472.13	356.16
472.588	357.06
473.045	328.76
473.503	332.26
473.96	342.46
474.417	353.56
474.875	378.56
475.332	416.76
475.789	394.86
476.246	408.86
476.704	423.56
477.161	436.16
477.618	455.36
478.075	485.36
478.532	531.66
478.989	592.76
479.446	686.56
479.903	669.96
480.36	711.96
480.817	764.06
481.274	842.56
481.731	952.76
482.188	1021.56
482.645	1152.26
483.102	1242.16
483.558	1369.86
484.015	1418.66
484.472	1402.76
484.929	1358.86
485.385	1315.66
485.842	1278.56
486.299	1218.46
486.755	1141.16
487.212	954.46
487.668	827.66
488.125	757.96
488.582	692.26
489.038	654.46
489.494	628.86
489.951	598.46
490.407	590.36
490.864	563.26
491.32	571.36
491.776	564.96
492.233	561.86
492.689	533.06
493.145	520.46
493.602	525.66
494.058	534.56
494.514	535.26
494.97	551.36
495.426	562.76
495.882	544.06
496.338	535.16
496.794	554.06
497.251	538.26
497.707	553.56
498.163	554.86
498.618	562.96
499.074	572.16
499.53	584.06
499.986	570.16
500.442	564.36
500.898	554.46
501.354	551.06
501.809	563.76
502.265	567.46
502.721	578.56
503.177	583.56
503.632	582.76
504.088	591.66
504.543	620.96
504.999	624.76
505.455	578.76
505.91	555.26
506.366	563.16
506.821	555.36
507.277	554.26
507.732	548.26
508.187	545.26
508.643	552.66
509.098	545.76
509.553	573.16
510.009	585.06
510.464	577.06
510.919	595.36
511.375	605.86
511.83	605.26
512.285	620.06
512.74	665.46
513.195	680.36
513.65	672.86
514.105	674.56
514.56	667.86
515.015	681.76
515.47	699.56
515.925	689.46
516.38	683.56
516.835	697.76
517.29	691.26
517.745	680.66
518.2	666.46
518.655	655.46
519.109	651.16
519.564	651.16
520.019	630.36
520.474	629.86
520.928	634.26
521.383	627.76
521.838	616.36
522.292	616.96
522.747	625.06
523.201	605.16
523.656	604.46
524.11	603.96
524.565	604.66
525.019	587.36
525.474	600.76
525.928	610.36
526.382	604.96
526.837	605.66
527.291	598.96
527.745	602.56
528.2	604.06
528.654	586.66
529.108	598.46
529.562	590.96
530.016	588.36
530.47	592.36
530.925	595.06
531.379	597.66
531.833	609.06
532.287	605.26
532.741	606.56
533.195	612.86
533.649	605.96
534.103	624.46
534.556	612.86
535.01	619.46
535.464	617.86
535.918	621.56
536.372	623.16
536.826	617.96
537.279	606.06
537.733	609.46
538.187	608.36
538.64	610.36
539.094	621.16
539.548	622.66
540.001	616.86
540.455	625.06
540.908	626.16
541.362	632.16
541.815	638.66
542.269	648.76
542.722	647.36
543.175	663.06
543.629	653.06
544.082	667.96
544.536	675.16
544.989	680.46
545.442	670.16
545.895	680.66
546.349	688.86
546.802	680.56
547.255	684.86
547.708	696.26
548.161	690.86
548.614	704.16
549.067	711.66
549.52	705.06
549.973	687.06
550.426	680.46
550.879	674.46
551.332	678.16
551.785	682.96
552.238	682.06
552.691	696.56
553.144	711.46
553.596	707.76
554.049	733.16
554.502	761.06
554.955	768.36
555.407	758.26
555.86	755.66
556.313	746.66
556.765	737.26
557.218	735.16
557.67	749.26
558.123	742.86
558.576	731.96
559.028	734.96
559.48	747.26
559.933	735.36
560.385	709.66
560.838	677.66
561.29	663.76
561.742	662.26
562.195	644.06
562.647	639.96
563.099	655.46
563.551	649.16
564.004	656.26
564.456	648.26
564.908	648.16
565.36	626.76
565.812	622.16
566.264	609.76
566.716	608.76
567.168	603.56
567.62	607.66
568.072	590.16
568.524	582.86
568.976	571.96
569.428	564.76
569.88	567.46
570.332	559.26
570.784	560.46
571.235	562.46
571.687	575.26
572.139	592.36
572.59	595.96
573.042	598.06
573.494	594.16
573.945	581.66
574.397	569.46
574.849	561.86
575.3	573.36
575.752	566.16
576.203	556.86
576.655	559.46
577.106	556.06
577.557	541.66
578.009	553.16
578.46	549.46
578.912	550.26
579.363	545.36
579.814	547.86
580.265	543.66
580.717	561.86
581.168	555.16
581.619	553.46
582.07	564.16
582.521	556.96
582.972	547.16
583.423	550.86
583.875	550.06
584.326	578.36
584.777	607.36
585.227	683.06
585.678	753.06
586.129	827.06
586.58	910.96
587.031	973.06
587.482	1118.56
587.933	1281.36
588.384	1104.16
588.834	818.66
589.285	657.96
589.736	640.26
590.186	639.86
590.637	628.86
591.088	608.86
591.538	605.36
591.989	592.76
592.439	591.96
592.89	590.96
593.34	579.06
593.791	585.96
594.241	575.76
594.692	576.66
595.142	572.66
595.593	567.16
596.043	573.96
596.493	584.26
596.943	577.06
597.394	579.86
597.844	570.96
598.294	588.96
598.744	605.06
599.195	645.56
599.645	658.56
600.095	698.76
600.545	741.86
600.995	777.56
601.445	828.56
601.895	887.96
602.345	932.86
602.795	906.06
603.245	858.86
603.695	823.46
604.145	771.36
604.594	739.16
605.044	698.96
605.494	649.76
605.944	605.16
606.393	602.26
606.843	594.96
607.293	594.26
607.743	577.26
608.192	598.36
608.642	617.56
609.091	615.06
609.541	619.86
609.99	616.26
610.44	607.26
610.889	587.36
611.339	558.36
611.788	541.96
612.238	564.06
612.687	582.86
613.136	588.66
613.586	586.06
614.035	581.86
614.484	619.06
614.933	607.26
615.383	601.86
615.832	591.46
616.281	568.56
616.73	548.46
617.179	529.06
617.628	530.46
618.077	514.06
618.526	492.36
618.975	501.26
619.424	501.46
619.873	479.96
620.322	498.06
620.771	484.26
621.22	480.26
621.669	475.96
622.118	469.06
622.567	457.66
623.015	448.26
623.464	457.26
623.913	451.66
624.361	444.76
624.81	438.66
625.259	437.46
625.707	440.06
626.156	442.26
626.604	450.36
627.053	434.46
627.501	447.56
627.95	457.56
628.398	466.36
628.847	448.06
629.295	453.26
629.744	457.76
630.192	454.36
630.64	450.86
631.089	446.36
631.537	452.86
631.985	457.66
632.433	464.36
632.881	482.16
633.33	517.56
633.778	500.36
634.226	442.76
634.674	454.36
635.122	454.96
635.57	475.26
636.018	485.56
636.466	458.96
636.914	438.26
637.362	450.06
637.81	455.06
638.258	448.76
638.705	454.86
639.153	476.26
639.601	477.66
640.049	497.46
640.497	524.46
640.944	549.16
641.392	508.86
641.84	486.86
642.287	462.96
642.735	450.06
643.182	445.66
643.63	456.96
644.078	449.16
644.525	459.96
644.973	464.06
645.42	473.86
645.867	493.76
646.315	498.86
646.762	516.36
647.21	543.76
647.657	553.26
648.104	582.46
648.551	607.36
648.999	652.26
649.446	716.16
649.893	774.96
650.34	906.46
650.787	1067.96
651.234	1333.86
651.682	1719.86
652.129	2352.76
652.576	3394.66
653.023	5045.46
653.47	7003.36
653.917	8834.06
654.363	10397.66
654.81	11786.86
655.257	11160.96
655.704	7252.26
656.151	4226.76
656.598	2733.56
657.044	1926.66
657.491	1480.36
657.938	1183.86
658.385	978.16
658.831	842.66
659.278	763.76
659.724	668.16
660.171	615.66
660.618	567.76
661.064	538.96
661.511	517.56
661.957	504.36
662.404	489.86
662.85	497.46
663.296	470.76
663.743	433.16
664.189	419.96
664.635	408.56
665.082	409.56
665.528	411.96
665.974	398.06
666.42	387.96
666.867	388.06
667.313	380.46
667.759	378.56
668.205	374.16
668.651	371.56
669.097	382.86
669.543	391.96
669.989	368.16
670.435	355.36
670.881	347.36
671.327	347.36
671.773	364.16
672.219	378.26
672.665	410.26
673.11	447.26
673.556	489.16
674.002	516.46
674.448	516.66
674.893	433.06
675.339	366.16
675.785	341.06
676.23	320.96
676.676	303.06
677.122	288.96
677.567	280.86
678.013	281.76
678.458	283.86
678.904	277.06
679.349	259.96
679.794	277.86
680.24	268.26
680.685	273.16
681.131	265.46
681.576	266.46
682.021	275.56
682.466	263.26
682.912	264.76
683.357	267.66
683.802	293.16
684.247	309.76
684.692	344.36
685.137	381.06
685.583	413.96
686.028	432.46
686.473	400.36
686.918	348.56
687.363	315.06
687.807	297.76
688.252	284.56
688.697	274.66
689.142	253.96
689.587	252.76
690.032	242.46
690.477	258.06
690.921	268.56
691.366	297.66
691.811	304.36
692.255	332.26
692.7	351.26
693.145	388.36
693.589	523.16
694.034	838.26
694.478	1162.86
694.923	1366.66
695.367	1804.26
695.812	947.36
696.256	389.66
696.701	284.46
697.145	264.76
697.59	247.96
698.034	248.26
698.478	254.26
698.922	248.86
699.367	254.26
699.811	263.76
700.255	271.46
700.699	290.56
701.143	317.06
701.588	366.96
702.032	400.56
702.476	392.36
702.92	380.76
703.364	373.26
703.808	466.76
704.252	764.26
704.696	1095.86
705.14	1311.16
705.584	1689.26
706.027	834.76
706.471	403.06
706.915	306.96
707.359	267.16
707.803	242.86
708.246	234.16
708.69	235.36
709.134	239.66
709.577	241.26
710.021	246.26
710.465	228.86
710.908	231.96
711.352	230.46
711.795	243.06
712.239	266.36
712.682	283.56
713.126	321.86
713.569	358.86
714.012	285.46
714.456	248.06
714.899	231.16
715.342	208.76
715.786	198.66
716.229	192.46
716.672	190.36
717.115	190.46
717.558	194.36
718.002	195.46
718.445	202.06
718.888	218.06
719.331	221.26
719.774	231.76
720.217	231.06
720.66	213.26
721.103	198.46
721.546	193.16
721.989	198.06
722.432	176.66
722.874	184.76
723.317	168.66
723.76	182.46
724.203	192.96
724.645	234.16
725.088	332.66
725.531	435.86
725.974	507.76
726.416	425.06
726.859	233.56
727.301	181.76
727.744	174.96
728.187	183.66
728.629	189.96
729.071	184.66
729.514	202.96
729.956	202.06
730.399	217.56
730.841	222.46
731.283	204.16
731.726	206.06
732.168	197.86
732.61	198.16
733.053	214.76
733.495	237.56
733.937	264.46
734.379	303.66
734.821	330.36
735.263	403.06
735.705	613.26
736.148	1173.56
736.59	1974.16
737.032	2420.86
737.474	1972.96
737.916	632.56
738.357	322.76
738.799	252.56
739.241	229.16
739.683	218.86
740.125	217.56
740.567	224.96
741.008	243.46
741.45	245.46
741.892	245.06
742.334	260.96
742.775	285.16
743.217	267.86
743.658	205.86
744.1	192.66
744.542	200.16
744.983	233.26
745.425	267.16
745.866	268.86
746.307	216.06
746.749	217.36
747.19	241.36
747.632	337.36
748.073	638.36
748.514	1373.26
748.956	2186.26
749.397	2762.06
749.838	2282.46
750.279	2349.46
750.72	1188.26
751.162	416.76
751.603	241.16
752.044	201.26
752.485	161.66
752.926	155.06
753.367	150.06
753.808	149.86
754.249	150.66
754.69	144.66
755.131	140.36
755.572	140.26
756.013	133.56
756.453	134.86
756.894	143.06
757.335	139.76
757.776	149.86
758.216	146.16
758.657	152.96
759.098	152.56
759.538	173.76
759.979	204.86
760.42	272.36
760.86	513.86
761.301	1344.46
761.741	3351.06
762.182	5202.66
762.622	3666.36
763.063	1028.26
763.503	414.06
763.943	269.56
764.384	259.66
764.824	316.56
765.264	348.66
765.705	239.66
766.145	161.06
766.585	145.46
767.025	135.26
767.465	136.66
767.906	179.26
768.346	252.56
768.786	273.76
769.226	199.26
769.666	236.86
770.106	450.46
770.546	1148.66
770.986	2069.86
771.426	1901.76
771.866	614.46
772.306	249.06
772.745	159.56
773.185	132.16
773.625	129.36
774.065	125.46
774.505	155.86
774.944	231.86
775.384	508.36
775.824	985.46
776.263	972.36
776.703	400.36
777.142	171.86
777.582	123.16
778.021	96.56
778.461	109.56
778.9	107.56
779.34	103.86
779.779	88.96
780.219	86.16
780.658	81.26
781.097	84.76
781.537	84.06
781.976	81.46
782.415	76.86
782.855	72.56
783.294	85.26
783.733	79.36
784.172	81.06
784.611	80.16
785.05	84.56
785.489	91.06
785.928	91.66
786.367	98.26
786.806	91.56
787.245	97.06
787.684	102.86
788.123	112.06
788.562	99.76
789.001	95.26
789.44	86.66
789.879	78.96
790.317	86.66
790.756	95.36
791.195	96.56
791.634	115.46
792.072	159.06
792.511	266.16
792.95	734.36
793.388	1677.36
793.827	1565.56
794.265	528.06
794.704	217.26
795.142	140.36
795.581	118.16
796.019	101.96
796.458	105.26
796.896	99.66
797.334	96.56
797.773	117.26
798.211	158.86
798.649	327.66
799.087	772.66
799.526	1218.56
799.964	1536.56
800.402	1626.26
800.84	596.56
801.278	226.96
801.716	143.86
802.154	113.76
802.592	110.06
803.03	100.36
803.468	98.86
803.906	109.66
804.344	114.76
804.782	110.26
805.22	101.66
805.658	104.96
806.096	119.16
806.533	119.16
806.971	133.96
807.409	165.56
807.847	233.46
808.284	487.16
808.722	1407.46
809.16	2620.76
809.597	2383.66
810.035	4265.16
810.472	4798.96
810.91	1680.46
811.347	617.36
811.785	310.56
812.222	196.46
812.66	146.96
813.097	130.16
813.535	111.76
813.972	96.56
814.409	95.06
814.846	80.56
815.284	77.76
815.721	84.16
816.158	77.96
816.595	92.16
817.032	139.86
817.47	157.56
817.907	136.96
818.344	107.36
818.781	89.36
819.218	77.76
819.655	94.46
820.092	139.86
820.529	170.76
820.966	144.46
821.403	101.86
821.839	82.36
822.276	74.66
822.713	95.86
823.15	109.16
823.587	88.86
824.023	109.36
824.46	221.06
824.897	672.56
825.333	1080.86
825.77	460.96
826.206	184.96
826.643	99.16
827.08	81.76
827.516	63.46
827.953	59.76
828.389	65.46
828.825	56.56
829.262	54.86
829.698	49.26
830.135	48.46
830.571	46.96
831.007	53.46
831.443	51.56
831.88	48.26
832.316	46.76
832.752	48.26
833.188	56.56
833.624	50.56
834.06	49.86
834.497	51.46
834.933	58.96
835.369	56.06
835.805	52.46
836.241	59.06
836.677	60.76
837.112	67.36
837.548	76.86
837.984	105.66
838.42	151.46
838.856	369.06
839.292	1163.96
839.727	1863.86
840.163	849.76
840.599	690.86
841.034	1582.46
841.47	1750.06
841.906	626.06
842.341	253.06
842.777	171.56
843.212	245.56
843.648	251.86
844.083	123.06
844.519	71.66
844.954	59.56
845.39	47.46
845.825	45.06
846.261	39.36
846.696	44.16
847.131	35.76
847.566	41.86
848.002	38.56
848.437	38.46
848.872	48.06
849.307	45.66
849.742	62.66
850.177	123.76
850.613	422.76
851.048	701.16
851.483	299.96
851.918	115.66
852.353	64.16
852.788	45.56
853.223	42.96
853.657	49.96
854.092	37.56
854.527	33.66
854.962	28.96
855.397	32.76
855.832	40.46
856.266	34.96
856.701	30.86
857.136	26.86
857.57	25.76
858.005	33.96
858.44	41.96
858.874	31.66
859.309	43.86
859.743	28.66
860.178	31.16
860.612	29.36
861.047	37.06
861.481	48.26
861.915	64.56
862.35	39.06
862.784	21.76
863.218	23.76
863.653	20.76
864.087	35.06
864.521	45.36
864.955	47.26
865.39	120.66
865.824	145.06
866.258	91.96
866.692	132.36
867.126	148.26
867.56	84.86
867.994	39.56
868.428	23.06
868.862	34.46
869.296	42.96
869.73	44.06
870.164	43.06
870.598	41.06
871.031	29.26
871.465	24.56
871.899	25.46
872.333	17.26
872.766	20.56
873.2	17.46
873.634	25.26
874.067	11.76
874.501	13.16
874.935	20.86
875.368	19.76
875.802	21.26
876.235	14.56
876.669	20.96
877.102	24.26
877.535	22.46
877.969	14.16
878.402	18.56
878.836	11.46
879.269	17.26
879.702	13.36
880.135	18.46
880.569	15.36
881.002	22.86
881.435	18.36
881.868	13.66
882.301	16.56
882.734	9.66
883.167	14.06
883.601	16.26
884.034	15.86
884.467	15.06
884.899	13.06
885.332	15.06
885.765	13.16
886.198	10.86
886.631	15.76
887.064	11.16
887.497	14.26
887.929	18.86
888.362	15.96
888.795	7.16
889.228	7.66
889.66	21.46
890.093	10.16
890.526	11.26
890.958	9.06
891.391	16.46
891.823	18.16
892.256	14.46
892.688	12.06
893.121	13.86
893.553	14.06
893.985	14.66
894.418	8.76
894.85	3.96
895.282	12.36
895.715	13.36
896.147	14.16
896.579	12.56
897.011	11.66
897.444	17.16
897.876	14.76
898.308	7.46
898.74	16.46
899.172	9.36
899.604	24.66
900.036	11.26
900.468	11.06
900.9	16.16
901.332	17.46
901.764	7.56
902.196	16.26
902.628	9.56
903.06	4.86
903.491	21.16
903.923	23.06
904.355	17.66
904.787	18.86
905.218	15.36
905.65	18.06
906.082	13.76
906.513	8.56
906.945	14.66
907.376	7.76
907.808	10.26
908.239	15.96
908.671	13.96
909.102	16.76
909.534	20.56
909.965	30.86
910.397	70.56
910.828	243.06
911.259	396.26
911.691	183.06
912.122	84.46
912.553	40.76
912.984	29.06
913.415	22.26
913.847	18.56
914.278	11.86
914.709	13.56
915.14	14.66
915.571	15.46
916.002	8.96
916.433	13.36
916.864	16.96
917.295	10.96
917.726	15.76
918.157	12.66
918.587	18.56
919.018	16.56
919.449	18.76
919.88	13.56
920.311	20.86
920.741	37.16
921.172	124.36
921.603	122.36
922.033	51.36
922.464	33.76
922.895	20.06
923.325	19.06
923.756	13.86
924.186	17.56
924.617	18.46
925.047	35.76
925.478	42.86
925.908	33.96
926.338	19.96
926.769	15.76
927.199	13.76
927.629	13.96
928.06	15.76
928.49	5.66
928.92	10.66
929.35	6.56
929.78	8.06
930.21	12.76
930.641	5.16
931.071	5.36
931.501	5.16
931.931	6.26
932.361	4.36
932.791	1.76
933.221	4.86
933.651	0.16
934.08	10.76
934.51	16.86
934.94	6.76
935.37	-1.24
935.8	10.56
936.229	5.36
936.659	6.36
937.089	-3.44
937.519	12.96
937.948	18.36
938.378	17.26
938.807	2.36
939.237	2.96
939.666	6.86
940.096	-0.64
940.525	4.46
940.955	2.26
941.384	2.06
941.814	-5.44
942.243	-9.44
942.672	4.06
943.102	-6.34
943.531	1.76
943.96	2.56
944.39	-1.54
944.819	4.16
945.248	5.46
945.677	1.96
946.106	3.86
946.535	7.26
946.964	1.66
947.393	1.66
947.822	-4.74
948.251	-1.24
948.68	5.46
949.109	10.06
949.538	4.16
949.967	3.26
950.396	-0.74
950.825	-1.14
951.254	-2.44
951.682	-13.24
952.111	-2.24
952.54	8.76
952.969	-5.74
953.397	-5.44
953.826	-5.84
954.254	-3.64
954.683	-6.34
955.112	-4.14
955.54	-5.94
955.969	2.86
956.397	3.56
956.826	-0.34
957.254	5.96
957.682	-1.34
958.111	5.66
958.539	3.06
958.967	3.16
959.396	-4.24
959.824	0.86
960.252	4.16
960.68	-3.54
961.109	-4.54
961.537	-7.44
961.965	-1.44
962.393	-5.94
962.821	-7.34
963.249	1.26
963.677	6.96
964.105	-1.34
964.533	30.66
964.961	30.06
965.389	13.66
965.817	8.96
966.245	2.76
966.672	-0.94
967.1	-10.14
967.528	3.26
967.956	-7.34
968.383	-2.14
968.811	-2.94
969.239	-1.64
969.666	-5.04
970.094	-4.94
970.522	1.76
970.949	-0.34
971.377	-3.54
971.804	-2.44
972.232	-3.74
972.659	-3.24
973.087	0.86
973.514	-2.24
973.941	-6.34
974.369	-1.14
974.796	-0.24
975.223	-3.44
975.651	-6.04
976.078	2.96
976.505	-0.64
976.932	-4.04
977.359	16.06
977.786	11.46
978.214	-2.94
978.641	-5.24
979.068	-4.64
979.495	-1.34
979.922	-5.14
980.349	-2.84
980.776	2.46
981.202	-3.34
981.629	-1.34
982.056	6.06
982.483	-3.14
982.91	8.96
983.337	-7.84
983.763	3.16
984.19	-0.94
984.617	0.36
985.043	-5.24
985.47	1.66
985.897	-1.94
986.323	-10.44
986.75	2.26
987.176	0.16
987.603	5.86
988.029	-3.54
988.456	-3.84
988.882	6.36
989.308	-6.44
989.735	-6.44
990.161	-1.24
990.587	-5.94
991.014	-2.44
991.44	7.76
991.866	-0.74
992.292	-2.44
992.719	-5.44
993.145	-0.04
993.571	-8.84
993.997	-1.84
994.423	-1.54
994.849	-5.54
995.275	2.96
995.701	-0.44
996.127	-6.64
996.553	0.26
996.979	-6.84
997.405	-4.04
997.83	-7.14
998.256	-4.14
998.682	-5.24
999.108	-9.64
999.534	-2.24
999.959	-0.44
1000.385	-5.94
1000.811	5.96
1001.236	-6.54
1001.662	-12.04
1002.087	-7.54
1002.513	-1.94
1002.938	5.16
1003.364	0.96
1003.789	-3.14
1004.215	3.46
1004.64	-3.54
1005.066	4.16
1005.491	1.06
1005.916	0.66
1006.342	-1.24
1006.767	-6.14
1007.192	1.06
1007.617	-1.84
1008.042	-9.94
1008.468	-5.84
1008.893	0.06
1009.318	-3.54
1009.743	-0.54
1010.168	1.66
1010.593	4.56
1011.018	-7.24
1011.443	-0.24
1011.868	-2.34
1012.293	-3.84
1012.718	-8.74
1013.143	-5.04
1013.567	-2.64
1013.992	0.56
1014.417	-14.04
1014.842	1.66
1015.267	-5.94
1015.691	-4.34
1016.116	0.56
1016.541	-5.24
1016.965	3.56
1017.39	-0.34
1017.814	-3.54
1018.239	-3.34
1018.663	-4.04
1019.088	-13.94
1019.512	-2.24
1019.937	-0.34
1020.361	-8.54
1020.785	-5.84
1021.21	0.56
1021.634	0.76
1022.058	0.36
1022.483	8.66
1022.907	-1.34
1023.331	0.96
1023.755	1.06
1024.179	-4.94
1024.604	-2.54
1025.028	-3.54
1025.452	-5.04
1025.876	1.66
1026.3	-3.64
1026.724	-13.94
1027.148	-5.44
1027.572	-4.54
1027.996	-7.54
1028.42	1.26
1028.843	-1.24
1029.267	-6.14
1029.691	-3.74
1030.115	-4.94
1030.539	-4.14
1030.962	-3.44
1031.386	-9.14
1031.81	0.66
1032.233	0.36
1032.657	-6.14
1033.08	-0.04
1033.504	-4.04
1033.927	-5.14
1034.351	-2.44
1034.774	-5.04
1035.198	-1.24
1035.621	-4.74
1036.045	-2.14
1036.468	5.36
1036.891	-8.04
1037.315	-8.34
1037.738	-7.14
1038.161	3.06
1038.584	-3.94
1039.008	-12.84
1039.431	-4.64
1039.854	-3.44
1040.277	-5.54
1040.7	-9.24
1041.123	1.06
1041.546	-2.34
1041.969	-4.04
1042.392	-5.04
1042.815	1.66
1043.238	1.86
1043.661	-0.64
1044.084	-11.44
1044.507	-5.14
1044.93	-6.84
1045.352	-6.64
1045.775	-1.34
1046.198	-5.54
1046.621	1.56
1047.043	3.26
1047.466	3.86
1047.889	-8.44
1048.311	-3.94
1048.734	-8.94
1049.156	2.16
1049.579	-6.74
1050.001	-5.44
1050.424	1.06
1050.846	-2.94
1051.269	-4.34
1051.691	0.46
1052.113	-12.84
1052.536	-3.74
1052.958	-0.24
1053.38	-3.44
1053.802	-12.54
1054.225	-3.84
1054.647	-10.64
1055.069	-9.24
1055.491	-3.24
1055.913	-1.94
1056.335	-2.84
1056.757	-0.84
1057.179	-6.04
1057.601	-5.04
1058.023	-4.84
1058.445	1.96
1058.867	-9.24
1059.289	-9.14
1059.711	-4.14
1060.133	-3.84
1060.555	-6.04
1060.976	-5.84
1061.398	-5.24
1061.82	-7.64
1062.241	-11.54
1062.663	-8.44
1063.085	-4.14
1063.506	0.96
1063.928	-5.74
1064.35	1.76
1064.771	-8.14
1065.193	-1.04
1065.614	-7.84
1066.035	-1.24
1066.457	-4.24
1066.878	3.36
1067.3	-5.54
1067.721	-10.14
1068.142	-6.04
1068.564	0.96
1068.985	-3.84
1069.406	-7.14
1069.827	-3.44
1070.248	4.86
1070.67	-6.54
1071.091	-5.24
1071.512	-3.54
1071.933	-7.24
1072.354	-3.44
1072.775	-3.34
1073.196	-5.84
1073.617	-6.64
1074.038	-6.74
1074.459	-3.34
1074.88	-12.94
1075.3	1.76
1075.721	-9.54
1076.142	-1.94
1076.563	-1.64
1076.983	-9.24
1077.404	-5.94
1077.825	-9.94
1078.246	-5.84
1078.666	-8.94
1079.087	-4.64
1079.507	-4.94
1079.928	1.26
1080.348	-4.24
1080.769	-4.74
1081.189	-2.44
1081.61	-4.34
1082.03	-1.04
1082.451	-3.64
1082.871	-4.54
1083.291	-6.24
1083.711	-7.84
1084.132	-4.84
1084.552	-0.34
1084.972	-1.94
1085.392	-6.14
1085.813	-7.34
1086.233	-4.74
1086.653	-1.44
1087.073	-6.34
1087.493	-9.14
1087.913	-8.94
1088.333	-8.04
1088.753	-4.34
1089.173	6.46
1089.593	-2.34
1090.013	1.56
1090.433	-2.04
1090.852	-5.04
1091.272	0.26
1091.692	-0.54
1092.112	-6.54
1092.531	-9.04
1092.951	-12.54
1093.371	-5.44
1093.79	3.46
1094.21	-6.14
1094.63	-6.14
1095.049	-6.04
1095.469	-0.44
1095.888	-1.54
1096.308	3.56
1096.727	6.66
1097.146	-7.64
1097.566	-3.44
1097.985	-8.44
1098.405	-2.94
1098.824	-7.24
1099.243	-2.54
1099.662	-2.74
1100.082	-10.04
1100.501	-3.64
1100.92	-3.54
1101.339	-4.94
1101.758	-9.14
