Data from 20171114-ORNL-Ar_H_NY_Subt18_08-06-34-383.txt Node
Date: Tue Nov 14 08:06:34 EST 2017
User: Ender
Spectrometer: HR+D1039
Trigger mode: 0
Integration Time (sec): 2.730000E-2
Scans to average: 10
Electric dark correction enabled: true
Nonlinearity correction enabled: false
Boxcar width: 0
XAxis mode: Wavelengths
Number of Pixels in Spectrum: 2048
>>>>>Begin Spectral Data<<<<<
187.836	-3.57
188.309	-3.57
188.782	-3.57
189.255	2.33
189.728	-6.37
190.201	8.43
190.674	-1.67
191.147	7.03
191.619	-6.87
192.092	-0.47
192.565	4.53
193.038	-0.17
193.511	-3.07
193.984	-1.37
194.456	-1.37
194.929	2.43
195.402	0.63
195.874	-0.47
196.347	-1.57
196.82	-3.17
197.292	1.73
197.765	1.13
198.237	-5.47
198.71	-1.67
199.182	-0.27
199.655	0.73
200.127	-0.57
200.6	-6.57
201.072	0.53
201.544	-1.67
202.017	2.33
202.489	3.23
202.961	4.33
203.433	-3.67
203.906	-9.17
204.378	-3.67
204.85	-2.27
205.322	-12.07
205.794	-2.07
206.266	-2.17
206.739	-8.57
207.211	1.93
207.683	-5.87
208.155	-5.77
208.627	-9.27
209.099	-5.27
209.57	-10.07
210.042	-0.97
210.514	0.13
210.986	-0.57
211.458	-9.67
211.93	-3.97
212.402	-4.97
212.873	0.23
213.345	-2.77
213.817	-11.87
214.288	-2.07
214.76	-10.37
215.232	-4.57
215.703	-2.67
216.175	-7.87
216.646	-7.57
217.118	-0.27
217.589	-7.07
218.061	0.43
218.532	-9.77
219.004	2.33
219.475	-4.47
219.946	-4.17
220.418	-4.87
220.889	0.53
221.36	-1.87
221.832	-4.37
222.303	-2.17
222.774	-1.57
223.245	-7.07
223.717	-8.37
224.188	-1.07
224.659	-7.97
225.13	-5.67
225.601	-3.27
226.072	1.13
226.543	-6.87
227.014	-0.57
227.485	2.23
227.956	-5.07
228.427	-2.27
228.898	-0.07
229.369	8.23
229.839	-1.97
230.31	-7.07
230.781	1.23
231.252	-7.47
231.722	-2.17
232.193	-1.67
232.664	0.33
233.135	-4.47
233.605	-5.77
234.076	-6.07
234.546	-1.57
235.017	6.03
235.487	-0.07
235.958	3.43
236.428	-6.17
236.899	6.73
237.369	-0.37
237.84	-3.87
238.31	5.03
238.78	-4.87
239.251	7.23
239.721	0.13
240.191	1.53
240.662	-2.37
241.132	1.73
241.602	1.53
242.072	-1.77
242.542	8.63
243.013	1.43
243.483	0.43
243.953	1.33
244.423	-0.27
244.893	-3.17
245.363	6.43
245.833	3.93
246.303	1.43
246.773	4.93
247.243	1.73
247.712	5.83
248.182	13.73
248.652	9.33
249.122	-3.67
249.592	8.63
250.061	15.63
250.531	35.63
251.001	15.43
251.471	21.13
251.94	15.33
252.41	8.53
252.879	6.93
253.349	9.33
253.818	12.93
254.288	7.93
254.757	4.23
255.227	-0.77
255.696	-1.77
256.166	5.53
256.635	7.53
257.105	10.03
257.574	4.43
258.043	6.73
258.513	16.53
258.982	17.93
259.451	7.93
259.92	12.13
260.389	16.53
260.859	11.43
261.328	12.13
261.797	17.33
262.266	7.73
262.735	16.13
263.204	6.73
263.673	3.33
264.142	9.03
264.611	-0.47
265.08	-2.57
265.549	2.53
266.018	1.53
266.487	0.73
266.955	-1.67
267.424	0.33
267.893	8.53
268.362	0.43
268.83	4.93
269.299	8.43
269.768	8.23
270.236	6.93
270.705	6.53
271.174	7.13
271.642	5.03
272.111	6.93
272.579	15.13
273.048	26.43
273.516	28.13
273.985	28.53
274.453	26.93
274.922	19.83
275.39	10.43
275.858	6.63
276.327	13.93
276.795	16.53
277.263	10.33
277.731	35.13
278.2	51.83
278.668	63.23
279.136	44.53
279.604	24.53
280.072	22.23
280.54	10.53
281.008	11.53
281.477	16.33
281.945	15.03
282.413	15.83
282.881	15.13
283.348	9.03
283.816	16.93
284.284	16.23
284.752	20.93
285.22	17.13
285.688	16.33
286.156	23.53
286.623	41.13
287.091	54.33
287.559	36.73
288.026	16.73
288.494	13.43
288.962	10.63
289.429	11.73
289.897	18.43
290.364	11.33
290.832	15.53
291.3	10.93
291.767	15.23
292.234	17.23
292.702	21.43
293.169	24.33
293.637	21.23
294.104	25.33
294.571	11.93
295.039	14.23
295.506	18.83
295.973	17.03
296.44	17.73
296.908	16.73
297.375	24.13
297.842	18.73
298.309	20.33
298.776	16.43
299.243	21.53
299.71	13.83
300.177	24.03
300.644	26.43
301.111	22.53
301.578	26.13
302.045	18.33
302.512	21.13
302.979	18.83
303.446	25.83
303.913	13.33
304.379	20.63
304.846	27.53
305.313	24.63
305.78	22.63
306.246	29.33
306.713	23.13
307.18	23.63
307.646	28.53
308.113	31.63
308.579	29.63
309.046	26.83
309.512	27.93
309.979	12.53
310.445	31.13
310.912	26.53
311.378	32.93
311.845	26.43
312.311	26.43
312.777	34.23
313.244	27.43
313.71	38.53
314.176	28.73
314.642	33.93
315.109	35.53
315.575	37.43
316.041	38.33
316.507	33.93
316.973	38.13
317.439	36.63
317.905	37.53
318.371	29.13
318.837	37.83
319.303	26.43
319.769	32.33
320.235	34.73
320.701	38.83
321.167	46.03
321.633	33.63
322.099	40.73
322.564	44.33
323.03	40.33
323.496	38.93
323.962	43.63
324.427	34.73
324.893	39.83
325.359	36.13
325.824	34.53
326.29	35.43
326.755	34.03
327.221	45.03
327.686	42.73
328.152	48.63
328.617	45.03
329.083	44.03
329.548	49.83
330.014	48.73
330.479	44.23
330.944	42.43
331.41	46.53
331.875	45.63
332.34	42.73
332.805	41.23
333.271	48.43
333.736	45.63
334.201	52.63
334.666	50.43
335.131	56.03
335.596	57.33
336.061	53.33
336.526	43.83
336.991	46.93
337.456	61.23
337.921	51.33
338.386	35.63
338.851	51.03
339.316	51.03
339.781	45.03
340.246	47.13
340.711	51.43
341.175	54.93
341.64	48.83
342.105	54.83
342.569	57.43
343.034	56.93
343.499	57.03
343.963	49.43
344.428	65.03
344.893	63.93
345.357	64.23
345.822	63.83
346.286	75.03
346.751	75.73
347.215	63.03
347.679	71.03
348.144	95.83
348.608	79.33
349.073	70.13
349.537	67.03
350.001	79.93
350.465	87.73
350.93	74.23
351.394	75.93
351.858	72.83
352.322	89.43
352.786	85.73
353.25	99.63
353.715	112.33
354.179	99.73
354.643	123.33
355.107	129.23
355.571	111.23
356.035	103.03
356.498	116.93
356.962	126.33
357.426	133.33
357.89	117.33
358.354	90.33
358.818	84.03
359.281	82.53
359.745	81.93
360.209	74.83
360.673	74.73
361.136	78.83
361.6	86.33
362.064	83.53
362.527	81.83
362.991	93.73
363.454	83.93
363.918	80.43
364.381	76.73
364.845	79.43
365.308	88.13
365.772	90.03
366.235	88.23
366.698	85.13
367.162	96.53
367.625	94.93
368.088	89.13
368.552	92.73
369.015	92.43
369.478	96.73
369.941	104.93
370.404	96.13
370.867	107.33
371.331	111.83
371.794	112.03
372.257	115.93
372.72	113.33
373.183	112.13
373.646	107.43
374.109	107.53
374.572	109.73
375.035	109.63
375.497	107.93
375.96	110.23
376.423	99.03
376.886	110.33
377.349	112.13
377.811	105.93
378.274	113.13
378.737	111.23
379.199	115.53
379.662	108.53
380.125	120.33
380.587	120.33
381.05	126.53
381.512	132.43
381.975	134.63
382.437	136.33
382.9	132.73
383.362	138.73
383.825	139.63
384.287	148.43
384.75	143.93
385.212	147.63
385.674	139.43
386.136	142.13
386.599	127.43
387.061	129.23
387.523	134.13
387.985	140.13
388.447	152.83
388.91	147.53
389.372	161.03
389.834	156.43
390.296	149.33
390.758	162.53
391.22	174.43
391.682	217.13
392.144	308.63
392.606	239.03
393.068	167.13
393.529	176.53
393.991	163.13
394.453	157.43
394.915	154.13
395.377	205.63
395.838	227.03
396.3	164.73
396.762	143.43
397.224	139.83
397.685	129.63
398.147	129.03
398.608	135.93
399.07	132.93
399.531	136.93
399.993	142.33
400.454	151.13
400.916	146.33
401.377	147.73
401.839	154.23
402.3	154.83
402.762	174.53
403.223	189.43
403.684	167.63
404.145	168.73
404.607	160.03
405.068	160.63
405.529	174.83
405.99	196.23
406.451	180.43
406.913	175.83
407.374	166.33
407.835	163.53
408.296	176.13
408.757	171.43
409.218	183.53
409.679	184.73
410.14	179.73
410.601	178.73
411.062	185.03
411.522	193.23
411.983	194.83
412.444	182.23
412.905	186.83
413.366	181.33
413.826	200.93
414.287	220.63
414.748	264.03
415.208	256.63
415.669	212.83
416.13	209.93
416.59	203.73
417.051	213.83
417.511	225.03
417.972	235.33
418.432	252.43
418.893	286.03
419.353	249.53
419.814	197.63
420.274	181.43
420.734	185.23
421.195	204.63
421.655	201.33
422.115	197.83
422.576	196.03
423.036	198.43
423.496	213.73
423.956	219.03
424.416	232.63
424.876	267.13
425.336	265.73
425.797	266.73
426.257	262.63
426.717	251.03
427.177	241.33
427.637	228.13
428.097	235.63
428.556	254.13
429.016	275.73
429.476	271.33
429.936	278.63
430.396	287.23
430.856	301.43
431.315	322.43
431.775	356.33
432.235	387.73
432.694	367.43
433.154	375.33
433.614	402.33
434.073	352.03
434.533	288.73
434.993	277.13
435.452	288.93
435.912	306.53
436.371	286.33
436.83	284.23
437.29	277.93
437.749	255.63
438.209	254.13
438.668	273.53
439.127	290.03
439.587	268.23
440.046	246.63
440.505	262.43
440.964	289.13
441.424	331.33
441.883	314.33
442.342	271.13
442.801	226.83
443.26	225.43
443.719	220.63
444.178	225.03
444.637	216.23
445.096	227.73
445.555	228.73
446.014	220.03
446.473	226.13
446.932	236.93
447.391	235.13
447.849	227.63
448.308	223.93
448.767	222.93
449.226	239.63
449.685	235.93
450.143	256.53
450.602	239.53
451.061	233.43
451.519	237.83
451.978	244.73
452.436	244.33
452.895	242.83
453.353	264.33
453.812	242.33
454.27	247.73
454.729	245.43
455.187	240.33
455.646	250.53
456.104	254.93
456.562	270.53
457.021	267.63
457.479	263.73
457.937	273.83
458.395	272.43
458.854	252.33
459.312	257.53
459.77	285.33
460.228	255.93
460.686	243.13
461.144	255.63
461.602	242.43
462.06	243.13
462.518	262.73
462.976	262.13
463.434	260.03
463.892	270.13
464.35	281.63
464.808	289.23
465.266	272.93
465.724	269.43
466.181	272.53
466.639	265.93
467.097	290.33
467.555	306.23
468.012	309.53
468.47	310.43
468.928	335.83
469.385	350.43
469.843	353.93
470.3	355.13
470.758	368.13
471.215	386.13
471.673	410.93
472.13	415.53
472.588	417.83
473.045	384.23
473.503	390.63
473.96	403.83
474.417	410.93
474.875	440.83
475.332	487.93
475.789	466.83
476.246	478.93
476.704	497.23
477.161	515.03
477.618	536.43
478.075	571.33
478.532	627.03
478.989	707.53
479.446	815.23
479.903	786.53
480.36	823.33
480.817	893.63
481.274	993.63
481.731	1092.73
482.188	1195.43
482.645	1326.33
483.102	1442.13
483.558	1582.23
484.015	1642.73
484.472	1621.23
484.929	1552.73
485.385	1508.63
485.842	1468.93
486.299	1397.73
486.755	1336.23
487.212	1119.23
487.668	942.73
488.125	863.63
488.582	788.33
489.038	756.63
489.494	722.03
489.951	699.83
490.407	674.03
490.864	653.53
491.32	655.33
491.776	651.73
492.233	649.13
492.689	620.93
493.145	617.43
493.602	611.13
494.058	620.33
494.514	635.63
494.97	646.73
495.426	663.83
495.882	626.23
496.338	620.23
496.794	641.43
497.251	634.33
497.707	649.03
498.163	642.43
498.618	652.23
499.074	650.83
499.53	681.13
499.986	695.03
500.442	664.13
500.898	644.33
501.354	636.53
501.809	644.83
502.265	660.43
502.721	671.23
503.177	689.23
503.632	673.43
504.088	680.93
504.543	725.23
504.999	712.63
505.455	666.43
505.91	629.93
506.366	648.03
506.821	633.63
507.277	627.73
507.732	635.03
508.187	640.53
508.643	631.63
509.098	635.63
509.553	660.73
510.009	678.03
510.464	682.43
510.919	700.93
511.375	703.13
511.83	720.53
512.285	736.73
512.74	775.83
513.195	801.53
513.65	780.83
514.105	778.43
514.56	786.43
515.015	801.93
515.47	815.33
515.925	804.43
516.38	800.43
516.835	805.63
517.29	791.23
517.745	782.03
518.2	777.23
518.655	760.43
519.109	755.03
519.564	753.53
520.019	742.03
520.474	731.53
520.928	739.63
521.383	732.13
521.838	721.13
522.292	727.73
522.747	717.83
523.201	708.43
523.656	706.83
524.11	702.63
524.565	699.73
525.019	700.03
525.474	709.23
525.928	708.33
526.382	710.13
526.837	706.83
527.291	707.93
527.745	701.23
528.2	710.83
528.654	704.03
529.108	699.13
529.562	704.23
530.016	694.73
530.47	697.63
530.925	698.93
531.379	708.53
531.833	716.83
532.287	724.13
532.741	725.43
533.195	718.03
533.649	716.13
534.103	726.23
534.556	721.63
535.01	724.23
535.464	720.93
535.918	728.23
536.372	727.43
536.826	727.63
537.279	714.33
537.733	718.03
538.187	723.33
538.64	724.03
539.094	734.93
539.548	739.03
540.001	736.43
540.455	735.43
540.908	739.93
541.362	744.63
541.815	760.43
542.269	769.43
542.722	763.63
543.175	784.63
543.629	788.93
544.082	802.13
544.536	798.93
544.989	804.73
545.442	804.43
545.895	799.13
546.349	802.13
546.802	804.53
547.255	817.73
547.708	821.63
548.161	826.13
548.614	837.83
549.067	836.93
549.52	834.43
549.973	813.93
550.426	818.33
550.879	806.03
551.332	807.53
551.785	820.93
552.238	810.13
552.691	835.43
553.144	838.23
553.596	856.73
554.049	876.73
554.502	912.23
554.955	926.83
555.407	915.23
555.86	911.23
556.313	908.03
556.765	899.43
557.218	898.13
557.67	894.33
558.123	887.63
558.576	876.53
559.028	891.23
559.48	898.93
559.933	884.53
560.385	855.83
560.838	820.13
561.29	797.03
561.742	795.73
562.195	774.03
562.647	779.93
563.099	788.93
563.551	783.53
564.004	797.23
564.456	781.33
564.908	774.23
565.36	754.63
565.812	749.23
566.264	733.63
566.716	733.93
567.168	731.93
567.62	737.33
568.072	721.63
568.524	713.03
568.976	698.33
569.428	684.53
569.88	682.93
570.332	693.23
570.784	694.83
571.235	698.63
571.687	698.53
572.139	718.33
572.59	725.23
573.042	716.83
573.494	716.63
573.945	725.43
574.397	688.43
574.849	702.03
575.3	701.13
575.752	688.23
576.203	688.43
576.655	691.23
577.106	670.83
577.557	682.33
578.009	684.03
578.46	678.23
578.912	670.63
579.363	666.93
579.814	674.43
580.265	672.43
580.717	677.03
581.168	675.33
581.619	685.83
582.07	690.73
582.521	684.93
582.972	684.23
583.423	695.73
583.875	694.53
584.326	713.43
584.777	767.43
585.227	837.23
585.678	931.93
586.129	1025.13
586.58	1100.63
587.031	1194.73
587.482	1356.63
587.933	1544.43
588.384	1350.23
588.834	996.73
589.285	831.93
589.736	801.53
590.186	796.93
590.637	765.43
591.088	755.63
591.538	747.03
591.989	739.23
592.439	729.73
592.89	724.43
593.34	712.73
593.791	708.23
594.241	714.93
594.692	730.63
595.142	710.43
595.593	712.93
596.043	712.13
596.493	721.73
596.943	732.23
597.394	725.83
597.844	732.23
598.294	735.83
598.744	757.53
599.195	782.23
599.645	840.13
600.095	872.63
600.545	931.03
600.995	980.43
601.445	1041.83
601.895	1112.03
602.345	1158.63
602.795	1127.93
603.245	1071.63
603.695	1013.63
604.145	964.73
604.594	916.63
605.044	879.13
605.494	799.03
605.944	767.03
606.393	746.93
606.843	733.23
607.293	742.53
607.743	748.03
608.192	753.83
608.642	773.43
609.091	765.83
609.541	781.73
609.99	779.73
610.44	783.63
610.889	739.23
611.339	705.53
611.788	697.73
612.238	712.23
612.687	728.73
613.136	733.33
613.586	748.53
614.035	754.13
614.484	768.43
614.933	775.23
615.383	755.73
615.832	755.73
616.281	737.73
616.73	700.93
617.179	671.03
617.628	661.03
618.077	640.33
618.526	623.83
618.975	619.83
619.424	629.33
619.873	624.33
620.322	631.33
620.771	604.73
621.22	618.53
621.669	599.43
622.118	592.13
622.567	586.43
623.015	581.93
623.464	579.23
623.913	566.53
624.361	566.23
624.81	563.43
625.259	566.13
625.707	565.33
626.156	567.33
626.604	578.63
627.053	558.53
627.501	567.83
627.95	576.23
628.398	582.03
628.847	581.53
629.295	578.73
629.744	571.43
630.192	573.43
630.64	568.23
631.089	575.23
631.537	587.23
631.985	589.63
632.433	604.83
632.881	614.43
633.33	666.93
633.778	650.53
634.226	575.43
634.674	579.63
635.122	580.73
635.57	604.33
636.018	634.63
636.466	586.73
636.914	561.83
637.362	581.83
637.81	574.73
638.258	584.83
638.705	587.43
639.153	615.33
639.601	628.93
640.049	646.53
640.497	679.23
640.944	703.73
641.392	652.63
641.84	614.43
642.287	585.93
642.735	562.83
643.182	579.63
643.63	582.33
644.078	580.03
644.525	599.63
644.973	599.13
645.42	612.43
645.867	626.63
646.315	655.13
646.762	668.73
647.21	709.63
647.657	727.03
648.104	757.13
648.551	797.43
648.999	854.13
649.446	929.43
649.893	1023.63
650.34	1182.03
650.787	1414.93
651.234	1756.53
651.682	2308.63
652.129	3179.63
652.576	4577.83
653.023	6744.23
653.47	9298.93
653.917	11570.73
654.363	13386.63
654.81	14770.33
655.257	14036.53
655.704	9210.93
656.151	5400.53
656.598	3522.03
657.044	2476.83
657.491	1897.03
657.938	1514.93
658.385	1260.63
658.831	1095.13
659.278	959.43
659.724	868.23
660.171	802.93
660.618	732.23
661.064	709.03
661.511	679.73
661.957	668.33
662.404	649.03
662.85	658.03
663.296	628.43
663.743	569.03
664.189	543.43
664.635	532.13
665.082	536.93
665.528	534.63
665.974	518.03
666.42	517.33
666.867	515.43
667.313	494.73
667.759	491.13
668.205	487.33
668.651	488.63
669.097	499.73
669.543	514.63
669.989	477.43
670.435	461.53
670.881	453.83
671.327	460.93
671.773	470.03
672.219	490.03
672.665	538.43
673.11	589.73
673.556	639.53
674.002	683.53
674.448	655.83
674.893	550.43
675.339	472.53
675.785	443.43
676.23	415.93
676.676	395.23
677.122	385.03
677.567	370.83
678.013	372.13
678.458	366.93
678.904	358.43
679.349	353.93
679.794	352.73
680.24	358.43
680.685	346.33
681.131	353.13
681.576	345.13
682.021	354.23
682.466	350.23
682.912	345.43
683.357	355.53
683.802	384.53
684.247	417.93
684.692	452.33
685.137	502.93
685.583	536.53
686.028	560.23
686.473	517.93
686.918	449.43
687.363	413.53
687.807	399.03
688.252	375.53
688.697	365.73
689.142	328.83
689.587	325.53
690.032	325.83
690.477	341.03
690.921	346.33
691.366	382.33
691.811	397.03
692.255	428.73
692.7	464.83
693.145	511.43
693.589	706.03
694.034	1145.33
694.478	1542.33
694.923	1731.73
695.367	2276.63
695.812	1204.43
696.256	499.73
696.701	372.13
697.145	350.43
697.59	336.73
698.034	316.53
698.478	332.63
698.922	338.03
699.367	328.33
699.811	336.83
700.255	353.13
700.699	382.23
701.143	431.63
701.588	482.63
702.032	526.13
702.476	523.93
702.92	493.03
703.364	495.43
703.808	634.83
704.252	1031.23
704.696	1463.03
705.14	1665.03
705.584	2134.43
706.027	1049.43
706.471	528.93
706.915	394.43
707.359	341.73
707.803	328.73
708.246	314.83
708.69	310.13
709.134	310.63
709.577	312.13
710.021	315.23
710.465	308.43
710.908	307.13
711.352	304.23
711.795	314.03
712.239	351.83
712.682	391.03
713.126	421.83
713.569	469.53
714.012	379.33
714.456	328.53
714.899	296.63
715.342	280.93
715.786	261.33
716.229	267.73
716.672	261.43
717.115	256.73
717.558	251.73
718.002	248.83
718.445	263.43
718.888	286.83
719.331	297.73
719.774	302.63
720.217	301.13
720.66	282.23
721.103	270.13
721.546	258.13
721.989	249.23
722.432	239.03
722.874	243.23
723.317	241.33
723.76	236.43
724.203	257.53
724.645	320.63
725.088	451.53
725.531	565.73
725.974	645.83
726.416	544.13
726.859	310.03
727.301	245.13
727.744	236.93
728.187	230.33
728.629	247.13
729.071	248.53
729.514	259.43
729.956	274.63
730.399	284.53
730.841	289.83
731.283	278.53
731.726	265.93
732.168	255.03
732.61	262.63
733.053	289.13
733.495	315.83
733.937	354.93
734.379	396.83
734.821	438.13
735.263	537.73
735.705	831.43
736.148	1578.53
736.59	2570.53
737.032	3070.23
737.474	2469.93
737.916	809.33
738.357	431.83
738.799	330.33
739.241	296.83
739.683	289.03
740.125	290.33
740.567	291.63
741.008	313.73
741.45	319.43
741.892	323.23
742.334	343.13
742.775	356.73
743.217	342.23
743.658	265.03
744.1	246.23
744.542	263.63
744.983	311.83
745.425	345.53
745.866	341.73
746.307	285.13
746.749	282.83
747.19	333.23
747.632	457.53
748.073	883.93
748.514	1877.43
748.956	2847.73
749.397	3562.13
749.838	2971.83
750.279	2957.83
750.72	1489.63
751.162	538.63
751.603	316.43
752.044	255.13
752.485	212.23
752.926	209.93
753.367	201.23
753.808	195.43
754.249	189.23
754.69	192.33
755.131	182.93
755.572	185.83
756.013	184.73
756.453	185.23
756.894	180.33
757.335	191.03
757.776	202.13
758.216	193.23
758.657	200.43
759.098	202.43
759.538	225.13
759.979	266.73
760.42	378.23
760.86	701.93
761.301	1815.23
761.741	4412.33
762.182	6443.73
762.622	4525.73
763.063	1298.23
763.503	543.73
763.943	349.43
764.384	351.23
764.824	407.63
765.264	448.83
765.705	311.43
766.145	212.63
766.585	194.63
767.025	194.53
767.465	190.53
767.906	250.13
768.346	331.43
768.786	361.53
769.226	267.53
769.666	317.83
770.106	619.33
770.546	1548.23
770.986	2651.43
771.426	2364.43
771.866	792.63
772.306	323.23
772.745	211.13
773.185	181.33
773.625	170.43
774.065	168.63
774.505	201.73
774.944	317.13
775.384	700.93
775.824	1276.33
776.263	1250.83
776.703	527.73
777.142	223.43
777.582	164.13
778.021	134.13
778.461	139.13
778.9	142.53
779.34	135.43
779.779	113.03
780.219	111.33
780.658	111.03
781.097	112.63
781.537	116.63
781.976	115.13
782.415	105.13
782.855	102.93
783.294	103.33
783.733	109.13
784.172	108.03
784.611	113.03
785.05	110.83
785.489	114.43
785.928	118.43
786.367	120.33
786.806	114.13
787.245	123.63
787.684	136.23
788.123	155.53
788.562	135.03
789.001	125.73
789.44	131.83
789.879	115.33
790.317	119.13
790.756	128.43
791.195	132.13
791.634	153.33
792.072	208.03
792.511	364.83
792.95	1012.83
793.388	2136.73
793.827	1938.93
794.265	684.43
794.704	284.33
795.142	185.83
795.581	151.23
796.019	135.43
796.458	131.53
796.896	114.73
797.334	127.43
797.773	160.03
798.211	218.53
798.649	436.03
799.087	1015.53
799.526	1598.13
799.964	2008.33
800.402	2005.63
800.84	748.73
801.278	300.43
801.716	184.43
802.154	152.13
802.592	144.03
803.03	138.03
803.468	133.83
803.906	144.43
804.344	153.73
804.782	145.63
805.22	135.73
805.658	126.93
806.096	149.63
806.533	155.23
806.971	174.13
807.409	218.23
807.847	317.73
808.284	659.23
808.722	1850.23
809.16	3272.93
809.597	3108.93
810.035	5403.73
810.472	5726.23
810.91	2068.03
811.347	790.93
811.785	398.63
812.222	250.13
812.66	194.23
813.097	165.23
813.535	137.33
813.972	128.93
814.409	125.03
814.846	102.33
815.284	111.43
815.721	101.43
816.158	106.03
816.595	119.93
817.032	188.03
817.47	198.43
817.907	179.53
818.344	155.13
818.781	118.13
819.218	107.03
819.655	123.53
820.092	188.93
820.529	212.53
820.966	185.13
821.403	135.13
821.839	111.13
822.276	101.43
822.713	120.53
823.15	139.53
823.587	120.63
824.023	147.63
824.46	297.73
824.897	886.83
825.333	1353.53
825.77	580.53
826.206	228.03
826.643	133.03
827.08	101.23
827.516	83.23
827.953	76.83
828.389	74.43
828.825	67.33
829.262	68.83
829.698	64.53
830.135	66.43
830.571	64.13
831.007	67.43
831.443	64.83
831.88	65.53
832.316	64.93
832.752	66.53
833.188	65.03
833.624	67.73
834.06	72.03
834.497	72.53
834.933	73.33
835.369	71.53
835.805	60.43
836.241	74.63
836.677	79.43
837.112	88.23
837.548	104.93
837.984	134.43
838.42	195.03
838.856	502.53
839.292	1514.83
839.727	2287.93
840.163	1056.33
840.599	917.03
841.034	2014.83
841.47	2114.43
841.906	776.93
842.341	329.03
842.777	232.53
843.212	325.13
843.648	318.73
844.083	150.03
844.519	95.53
844.954	72.13
845.39	61.43
845.825	56.93
846.261	58.13
846.696	55.23
847.131	55.03
847.566	57.93
848.002	56.53
848.437	59.33
848.872	57.63
849.307	62.73
849.742	86.83
850.177	178.23
850.613	557.13
851.048	869.53
851.483	371.23
851.918	151.53
852.353	89.63
852.788	64.33
853.223	56.33
853.657	54.63
854.092	47.23
854.527	41.43
854.962	37.63
855.397	45.53
855.832	48.13
856.266	44.43
856.701	45.33
857.136	34.13
857.57	42.03
858.005	47.43
858.44	54.13
858.874	47.23
859.309	56.23
859.743	43.23
860.178	45.03
860.612	50.03
861.047	53.73
861.481	66.33
861.915	68.13
862.35	50.53
862.784	36.43
863.218	36.13
863.653	35.23
864.087	44.33
864.521	54.63
864.955	72.03
865.39	160.63
865.824	180.43
866.258	118.13
866.692	162.53
867.126	178.93
867.56	109.03
867.994	55.23
868.428	38.13
868.862	54.23
869.296	51.73
869.73	52.63
870.164	52.53
870.598	48.93
871.031	42.63
871.465	30.63
871.899	33.53
872.333	19.93
872.766	27.33
873.2	21.13
873.634	28.43
874.067	24.13
874.501	25.63
874.935	37.33
875.368	31.33
875.802	26.73
876.235	22.73
876.669	25.43
877.102	20.83
877.535	31.73
877.969	22.13
878.402	25.13
878.836	13.53
879.269	21.43
879.702	29.63
880.135	19.53
880.569	21.63
881.002	23.23
881.435	21.63
881.868	19.13
882.301	22.93
882.734	14.53
883.167	20.73
883.601	22.63
884.034	22.33
884.467	16.63
884.899	21.43
885.332	22.13
885.765	20.03
886.198	20.13
886.631	17.63
887.064	20.53
887.497	21.63
887.929	22.03
888.362	16.63
888.795	15.73
889.228	22.93
889.66	24.13
890.093	19.23
890.526	23.53
890.958	17.43
891.391	19.23
891.823	25.83
892.256	20.93
892.688	12.43
893.121	19.03
893.553	12.33
893.985	22.23
894.418	19.93
894.85	14.23
895.282	14.93
895.715	20.63
896.147	17.03
896.579	15.23
897.011	16.83
897.444	15.03
897.876	18.23
898.308	17.83
898.74	15.83
899.172	15.43
899.604	18.83
900.036	21.33
900.468	16.33
900.9	17.63
901.332	17.13
901.764	14.63
902.196	24.23
902.628	20.43
903.06	16.63
903.491	31.13
903.923	21.63
904.355	27.63
904.787	21.83
905.218	24.33
905.65	23.53
906.082	8.73
906.513	13.93
906.945	9.93
907.376	7.33
907.808	21.03
908.239	20.23
908.671	21.03
909.102	25.83
909.534	21.73
909.965	44.23
910.397	92.03
910.828	314.13
911.259	469.93
911.691	208.13
912.122	112.73
912.553	56.63
912.984	42.03
913.415	26.83
913.847	24.93
914.278	15.53
914.709	20.73
915.14	19.93
915.571	18.53
916.002	12.83
916.433	16.43
916.864	14.23
917.295	11.13
917.726	26.53
918.157	13.23
918.587	28.03
919.018	24.63
919.449	19.13
919.88	22.93
920.311	36.13
920.741	51.73
921.172	161.43
921.603	153.43
922.033	74.53
922.464	42.03
922.895	23.33
923.325	18.73
923.756	15.13
924.186	17.63
924.617	29.83
925.047	37.33
925.478	55.03
925.908	50.73
926.338	26.23
926.769	22.43
927.199	22.43
927.629	12.43
928.06	14.83
928.49	11.23
928.92	13.73
929.35	13.93
929.78	9.03
930.21	8.23
930.641	6.53
931.071	9.73
931.501	7.23
931.931	12.03
932.361	5.93
932.791	-0.07
933.221	6.93
933.651	6.93
934.08	17.33
934.51	31.23
934.94	12.03
935.37	9.33
935.8	7.43
936.229	4.83
936.659	15.23
937.089	4.63
937.519	11.83
937.948	24.63
938.378	12.93
938.807	8.33
939.237	7.53
939.666	7.13
940.096	-3.47
940.525	9.23
940.955	1.43
941.384	3.83
941.814	-1.07
942.243	2.83
942.672	2.23
943.102	0.83
943.531	0.13
943.96	12.03
944.39	4.83
944.819	2.23
945.248	5.73
945.677	0.03
946.106	6.23
946.535	6.13
946.964	-2.07
947.393	7.83
947.822	7.13
948.251	-1.37
948.68	1.73
949.109	7.03
949.538	4.83
949.967	-0.07
950.396	2.83
950.825	-1.97
951.254	0.93
951.682	-1.17
952.111	3.33
952.54	7.93
952.969	-4.57
953.397	1.23
953.826	3.73
954.254	-2.07
954.683	0.73
955.112	5.63
955.54	0.13
955.969	1.93
956.397	-2.07
956.826	-0.17
957.254	4.93
957.682	6.93
958.111	4.73
958.539	1.83
958.967	1.63
959.396	5.53
959.824	0.13
960.252	-2.07
960.68	-6.37
961.109	-2.17
961.537	-2.67
961.965	-3.07
962.393	7.83
962.821	-2.97
963.249	2.93
963.677	6.53
964.105	6.13
964.533	36.83
964.961	38.73
965.389	25.43
965.817	6.83
966.245	-0.77
966.672	-0.47
967.1	-2.07
967.528	-2.97
967.956	-1.57
968.383	2.43
968.811	-3.87
969.239	-6.17
969.666	-9.87
970.094	-0.47
970.522	2.93
970.949	0.63
971.377	2.83
971.804	-6.97
972.232	3.33
972.659	1.13
973.087	-4.07
973.514	-3.27
973.941	-5.37
974.369	2.53
974.796	1.43
975.223	3.73
975.651	-1.47
976.078	0.73
976.505	-5.77
976.932	-0.67
977.359	16.13
977.786	20.63
978.214	5.93
978.641	-3.77
979.068	0.63
979.495	-7.97
979.922	0.63
980.349	-0.97
980.776	7.33
981.202	-5.67
981.629	7.53
982.056	-1.07
982.483	-1.17
982.91	5.83
983.337	-1.07
983.763	6.93
984.19	1.23
984.617	-0.77
985.043	-4.87
985.47	-1.27
985.897	-2.07
986.323	-4.87
986.75	4.93
987.176	-0.97
987.603	-4.07
988.029	3.93
988.456	-3.67
988.882	6.03
989.308	-5.27
989.735	-6.47
990.161	3.33
990.587	-3.47
991.014	4.73
991.44	8.33
991.866	-5.87
992.292	-3.67
992.719	-0.47
993.145	7.53
993.571	-1.17
993.997	-1.87
994.423	-5.97
994.849	-6.57
995.275	-3.47
995.701	3.43
996.127	-0.27
996.553	5.13
996.979	-3.57
997.405	3.03
997.83	-5.97
998.256	-5.07
998.682	-6.27
999.108	-10.37
999.534	2.63
999.959	-1.07
1000.385	-7.47
1000.811	-2.57
1001.236	-4.97
1001.662	-7.37
1002.087	-17.27
1002.513	-0.37
1002.938	-0.17
1003.364	-5.07
1003.789	-2.37
1004.215	1.53
1004.64	0.13
1005.066	4.53
1005.491	-2.47
1005.916	-2.07
1006.342	0.93
1006.767	-6.87
1007.192	2.53
1007.617	-3.57
1008.042	0.83
1008.468	-1.57
1008.893	-3.47
1009.318	-3.27
1009.743	-0.27
1010.168	7.13
1010.593	-0.87
1011.018	-8.47
1011.443	-2.77
1011.868	0.43
1012.293	-5.77
1012.718	-1.87
1013.143	4.63
1013.567	0.63
1013.992	-0.27
1014.417	-14.87
1014.842	-1.07
1015.267	-3.47
1015.691	-6.27
1016.116	5.63
1016.541	-4.07
1016.965	1.93
1017.39	2.13
1017.814	-0.67
1018.239	-1.07
1018.663	-4.87
1019.088	-6.57
1019.512	-1.77
1019.937	-4.27
1020.361	-2.87
1020.785	-9.27
1021.21	-7.77
1021.634	-4.87
1022.058	-7.47
1022.483	2.33
1022.907	-4.27
1023.331	0.73
1023.755	-0.07
1024.179	-0.87
1024.604	-5.47
1025.028	-8.77
1025.452	-3.77
1025.876	0.83
1026.3	2.03
1026.724	-9.27
1027.148	-5.17
1027.572	-12.17
1027.996	-3.17
1028.42	1.63
1028.843	-2.17
1029.267	-5.17
1029.691	-0.67
1030.115	-6.37
1030.539	-8.37
1030.962	-5.37
1031.386	-3.87
1031.81	-6.47
1032.233	-2.97
1032.657	1.53
1033.08	0.13
1033.504	-4.17
1033.927	-3.17
1034.351	-4.37
1034.774	-4.17
1035.198	-0.87
1035.621	-3.67
1036.045	-6.57
1036.468	0.33
1036.891	-7.97
1037.315	-7.77
1037.738	-4.17
1038.161	-0.17
1038.584	-7.77
1039.008	-2.37
1039.431	-2.07
1039.854	-7.67
1040.277	-14.37
1040.7	-13.27
1041.123	0.13
1041.546	-8.87
1041.969	-2.17
1042.392	-5.07
1042.815	-10.37
1043.238	1.33
1043.661	-0.27
1044.084	-6.67
1044.507	-8.37
1044.93	-8.67
1045.352	-3.47
1045.775	-2.57
1046.198	-0.17
1046.621	-5.17
1047.043	-4.97
1047.466	1.33
1047.889	-1.27
1048.311	-2.17
1048.734	-4.57
1049.156	-2.97
1049.579	1.03
1050.001	-2.07
1050.424	-1.47
1050.846	-7.77
1051.269	-1.77
1051.691	-8.87
1052.113	-3.77
1052.536	-1.47
1052.958	-3.97
1053.38	-5.47
1053.802	-10.07
1054.225	-0.57
1054.647	-9.77
1055.069	-7.37
1055.491	-0.57
1055.913	-2.97
1056.335	-1.97
1056.757	-5.57
1057.179	-9.47
1057.601	-3.77
1058.023	-2.77
1058.445	-1.77
1058.867	-4.67
1059.289	-6.87
1059.711	-5.77
1060.133	0.53
1060.555	-1.47
1060.976	-4.57
1061.398	-7.77
1061.82	-5.47
1062.241	-4.87
1062.663	-4.27
1063.085	-0.87
1063.506	-9.37
1063.928	-4.17
1064.35	-5.27
1064.771	-10.47
1065.193	-4.07
1065.614	-7.57
1066.035	-2.67
1066.457	-2.27
1066.878	-4.17
1067.3	-0.47
1067.721	-5.07
1068.142	-4.17
1068.564	-1.77
1068.985	-5.77
1069.406	-6.17
1069.827	-8.97
1070.248	1.53
1070.67	-8.27
1071.091	-0.67
1071.512	-6.77
1071.933	-8.17
1072.354	-10.37
1072.775	-3.27
1073.196	-6.77
1073.617	-0.47
1074.038	-2.27
1074.459	-6.07
1074.88	-7.07
1075.3	-5.57
1075.721	-9.97
1076.142	3.63
1076.563	0.73
1076.983	-11.97
1077.404	-5.27
1077.825	-13.77
1078.246	-2.27
1078.666	-7.17
1079.087	-4.17
1079.507	-8.27
1079.928	-6.87
1080.348	-5.47
1080.769	-7.27
1081.189	-4.47
1081.61	-1.97
1082.03	-12.47
1082.451	-7.47
1082.871	-4.77
1083.291	-7.17
1083.711	-9.47
1084.132	-11.87
1084.552	-5.37
1084.972	-2.77
1085.392	-6.67
1085.813	-11.67
1086.233	-6.37
1086.653	-5.57
1087.073	-1.97
1087.493	-8.27
1087.913	-8.17
1088.333	-5.07
1088.753	-2.37
1089.173	8.43
1089.593	-1.07
1090.013	-3.37
1090.433	1.43
1090.852	-5.57
1091.272	-8.07
1091.692	-5.17
1092.112	-4.17
1092.531	-8.97
1092.951	-7.07
1093.371	-4.07
1093.79	1.73
1094.21	-7.97
1094.63	-6.77
1095.049	-3.17
1095.469	3.73
1095.888	-9.17
1096.308	-3.07
1096.727	4.33
1097.146	-2.37
1097.566	-6.17
1097.985	-7.07
1098.405	-3.37
1098.824	-1.27
1099.243	-5.57
1099.662	-14.07
1100.082	-2.97
1100.501	-0.57
1100.92	-1.47
1101.339	-2.97
1101.758	-7.57
