Data from 20171114-ORNL-Ar_H_NY_Subt18_08-06-16-639.txt Node
Date: Tue Nov 14 08:06:16 EST 2017
User: Ender
Spectrometer: HR+D1039
Trigger mode: 0
Integration Time (sec): 2.730000E-2
Scans to average: 10
Electric dark correction enabled: true
Nonlinearity correction enabled: false
Boxcar width: 0
XAxis mode: Wavelengths
Number of Pixels in Spectrum: 2048
>>>>>Begin Spectral Data<<<<<
187.836	-6.43
188.309	-6.43
188.782	-6.43
189.255	-3.23
189.728	-2.33
190.201	2.87
190.674	0.47
191.147	-0.73
191.619	-8.33
192.092	0.17
192.565	7.27
193.038	2.27
193.511	3.27
193.984	2.97
194.456	-1.83
194.929	4.57
195.402	-4.43
195.874	3.38
196.347	-0.53
196.82	-3.43
197.292	8.07
197.765	-2.52
198.237	-5.43
198.71	4.07
199.182	1.67
199.655	-0.83
200.127	-0.13
200.6	0.37
201.072	-1.03
201.544	-3.53
202.017	-3.43
202.489	3.97
202.961	-0.43
203.433	-0.43
203.906	-4.73
204.378	-1.93
204.85	4.77
205.322	-7.73
205.794	-1.53
206.266	0.47
206.739	-1.33
207.211	0.07
207.683	-2.43
208.155	-5.73
208.627	-5.73
209.099	-0.73
209.57	-5.23
210.042	-8.93
210.514	-6.12
210.986	0.57
211.458	-10.83
211.93	2.17
212.402	-0.63
212.873	-4.73
213.345	-6.12
213.817	-11.83
214.288	-3.13
214.76	-13.63
215.232	-4.12
215.703	-3.93
216.175	-3.03
216.646	-0.62
217.118	-11.03
217.589	-2.83
218.061	3.27
218.532	-3.93
219.004	1.97
219.475	1.17
219.946	-0.43
220.418	-2.23
220.889	5.07
221.36	0.27
221.832	-5.73
222.303	-10.73
222.774	0.07
223.245	-4.33
223.717	-7.03
224.188	-4.43
224.659	-6.13
225.13	-4.73
225.601	0.17
226.072	-1.93
226.543	-0.23
227.014	4.47
227.485	-1.53
227.956	-4.62
228.427	2.47
228.898	9.38
229.369	1.27
229.839	7.47
230.31	-6.23
230.781	6.87
231.252	-2.33
231.722	0.47
232.193	-4.02
232.664	-6.03
233.135	1.57
233.605	-0.33
234.076	-3.13
234.546	2.67
235.017	3.27
235.487	5.57
235.958	-7.43
236.428	-2.63
236.899	8.48
237.369	7.57
237.84	0.47
238.31	4.97
238.78	4.48
239.251	5.77
239.721	2.38
240.191	2.38
240.662	1.57
241.132	3.27
241.602	-0.53
242.072	1.17
242.542	5.77
243.013	6.07
243.483	2.77
243.953	4.17
244.423	-0.83
244.893	2.87
245.363	1.57
245.833	3.07
246.303	1.67
246.773	6.57
247.243	4.77
247.712	7.47
248.182	7.27
248.652	7.97
249.122	0.77
249.592	9.97
250.061	23.07
250.531	31.67
251.001	20.17
251.471	25.67
251.94	17.27
252.41	5.48
252.879	1.38
253.349	14.07
253.818	8.57
254.288	8.88
254.757	3.38
255.227	-2.33
255.696	6.87
256.166	9.38
256.635	5.27
257.105	13.67
257.574	5.77
258.043	12.07
258.513	15.17
258.982	21.67
259.451	14.27
259.92	12.57
260.389	19.57
260.859	18.77
261.328	16.27
261.797	23.57
262.266	10.37
262.735	8.57
263.204	9.17
263.673	3.67
264.142	4.17
264.611	-0.53
265.08	1.67
265.549	2.98
266.018	8.38
266.487	4.77
266.955	-2.53
267.424	4.67
267.893	11.07
268.362	5.98
268.83	4.17
269.299	7.88
269.768	9.47
270.236	7.27
270.705	8.67
271.174	8.48
271.642	6.37
272.111	9.57
272.579	20.27
273.048	30.27
273.516	29.47
273.985	32.17
274.453	27.47
274.922	20.97
275.39	19.67
275.858	-1.73
276.327	13.57
276.795	14.07
277.263	14.27
277.731	31.27
278.2	53.17
278.668	49.47
279.136	58.57
279.604	17.67
280.072	19.57
280.54	9.38
281.008	11.17
281.477	15.77
281.945	17.67
282.413	16.67
282.881	18.97
283.348	13.77
283.816	18.77
284.284	12.37
284.752	27.27
285.22	17.88
285.688	25.47
286.156	18.27
286.623	49.87
287.091	55.07
287.559	34.67
288.026	19.57
288.494	16.57
288.962	7.67
289.429	8.17
289.897	18.27
290.364	12.57
290.832	19.38
291.3	14.97
291.767	22.77
292.234	17.27
292.702	21.77
293.169	21.27
293.637	22.57
294.104	21.17
294.571	14.07
295.039	18.07
295.506	10.47
295.973	20.17
296.44	12.88
296.908	21.17
297.375	19.57
297.842	23.27
298.309	23.17
298.776	19.38
299.243	25.27
299.71	14.07
300.177	20.77
300.644	27.67
301.111	21.27
301.578	25.77
302.045	22.07
302.512	26.07
302.979	29.38
303.446	27.67
303.913	19.27
304.379	22.37
304.846	26.38
305.313	27.87
305.78	26.47
306.246	28.27
306.713	32.57
307.18	28.07
307.646	26.97
308.113	26.77
308.579	24.87
309.046	30.67
309.512	35.77
309.979	21.87
310.445	28.57
310.912	30.67
311.378	32.27
311.845	27.38
312.311	32.57
312.777	39.07
313.244	27.67
313.71	40.67
314.176	28.27
314.642	32.27
315.109	33.67
315.575	37.97
316.041	38.47
316.507	34.37
316.973	43.77
317.439	34.37
317.905	37.88
318.371	39.37
318.837	33.98
319.303	35.37
319.769	39.07
320.235	37.77
320.701	39.27
321.167	44.87
321.633	36.27
322.099	44.97
322.564	49.17
323.03	36.67
323.496	39.77
323.962	42.27
324.427	38.37
324.893	46.07
325.359	41.37
325.824	38.87
326.29	38.67
326.755	39.07
327.221	40.17
327.686	45.17
328.152	45.98
328.617	45.07
329.083	50.47
329.548	52.97
330.014	47.47
330.479	44.47
330.944	41.57
331.41	45.87
331.875	50.48
332.34	49.38
332.805	49.97
333.271	46.87
333.736	51.77
334.201	53.88
334.666	53.57
335.131	51.67
335.596	55.67
336.061	58.77
336.526	47.97
336.991	50.48
337.456	50.88
337.921	46.07
338.386	49.67
338.851	45.57
339.316	47.87
339.781	46.27
340.246	51.67
340.711	51.97
341.175	46.27
341.64	46.97
342.105	54.17
342.569	54.77
343.034	55.47
343.499	58.57
343.963	54.48
344.428	70.17
344.893	65.57
345.357	59.37
345.822	59.07
346.286	71.77
346.751	71.88
347.215	70.67
347.679	75.57
348.144	97.67
348.608	86.38
349.073	68.07
349.537	75.67
350.001	76.07
350.465	87.07
350.93	86.97
351.394	81.77
351.858	68.07
352.322	85.48
352.786	87.38
353.25	109.97
353.715	116.47
354.179	100.07
354.643	129.98
355.107	126.47
355.571	116.97
356.035	109.97
356.498	123.67
356.962	128.27
357.426	134.67
357.89	120.27
358.354	100.27
358.818	90.17
359.281	84.88
359.745	77.38
360.209	74.57
360.673	78.57
361.136	91.67
361.6	83.77
362.064	86.07
362.527	89.37
362.991	89.67
363.454	79.57
363.918	84.87
364.381	81.47
364.845	88.37
365.308	85.87
365.772	91.87
366.235	85.07
366.698	83.87
367.162	96.97
367.625	92.17
368.088	88.07
368.552	91.77
369.015	94.88
369.478	101.07
369.941	104.77
370.404	98.77
370.867	103.57
371.331	111.67
371.794	119.17
372.257	119.17
372.72	119.27
373.183	111.27
373.646	109.27
374.109	106.07
374.572	107.87
375.035	107.67
375.497	111.27
375.96	109.67
376.423	111.47
376.886	117.07
377.349	109.87
377.811	111.67
378.274	114.17
378.737	101.27
379.199	115.67
379.662	118.67
380.125	116.17
380.587	114.88
381.05	126.38
381.512	136.97
381.975	135.27
382.437	138.47
382.9	123.27
383.362	133.77
383.825	147.07
384.287	150.57
384.75	142.27
385.212	145.77
385.674	145.77
386.136	141.38
386.599	128.47
387.061	137.98
387.523	133.37
387.985	144.97
388.447	150.17
388.91	148.67
389.372	165.77
389.834	156.47
390.296	152.27
390.758	165.77
391.22	177.67
391.682	220.27
392.144	302.47
392.606	232.17
393.068	175.57
393.529	172.57
393.991	157.38
394.453	154.97
394.915	168.37
395.377	195.17
395.838	221.77
396.3	158.47
396.762	154.27
397.224	138.27
397.685	139.87
398.147	137.38
398.608	141.57
399.07	136.47
399.531	136.07
399.993	143.38
400.454	157.57
400.916	146.77
401.377	143.57
401.839	152.47
402.3	157.77
402.762	170.57
403.223	184.67
403.684	176.37
404.145	167.37
404.607	169.67
405.068	177.17
405.529	180.07
405.99	191.38
406.451	178.57
406.913	181.47
407.374	167.77
407.835	161.17
408.296	176.57
408.757	178.97
409.218	190.17
409.679	183.67
410.14	184.48
410.601	185.17
411.062	191.57
411.522	193.17
411.983	191.47
412.444	181.27
412.905	184.07
413.366	179.87
413.826	195.47
414.287	223.38
414.748	266.08
415.208	252.77
415.669	211.07
416.13	211.57
416.59	205.87
417.051	213.67
417.511	219.67
417.972	247.07
418.432	251.27
418.893	296.97
419.353	259.98
419.814	205.97
420.274	189.67
420.734	189.57
421.195	204.97
421.655	204.98
422.115	206.27
422.576	200.07
423.036	201.67
423.496	216.87
423.956	220.68
424.416	236.77
424.876	277.48
425.336	262.77
425.797	277.17
426.257	262.57
426.717	243.27
427.177	240.97
427.637	233.98
428.097	243.47
428.556	255.67
429.016	284.27
429.476	272.57
429.936	280.37
430.396	284.57
430.856	304.27
431.315	321.57
431.775	353.47
432.235	392.38
432.694	366.67
433.154	375.77
433.614	406.17
434.073	355.98
434.533	299.27
434.993	284.77
435.452	286.77
435.912	298.77
436.371	293.68
436.83	298.37
437.29	280.77
437.749	256.97
438.209	257.67
438.668	286.57
439.127	301.27
439.587	270.68
440.046	259.17
440.505	266.87
440.964	291.07
441.424	336.17
441.883	316.77
442.342	270.37
442.801	229.27
443.26	225.38
443.719	230.58
444.178	224.17
444.637	220.27
445.096	227.48
445.555	234.57
446.014	228.67
446.473	237.47
446.932	237.87
447.391	233.57
447.849	233.27
448.308	222.67
448.767	228.37
449.226	237.48
449.685	246.27
450.143	259.77
450.602	250.77
451.061	231.27
451.519	238.57
451.978	243.77
452.436	240.38
452.895	246.18
453.353	261.67
453.812	251.98
454.27	249.07
454.729	248.18
455.187	243.07
455.646	250.37
456.104	254.17
456.562	268.07
457.021	279.67
457.479	275.97
457.937	283.17
458.395	277.37
458.854	257.47
459.312	268.17
459.77	280.17
460.228	260.07
460.686	246.47
461.144	251.27
461.602	246.48
462.06	252.67
462.518	254.57
462.976	266.47
463.434	257.67
463.892	272.77
464.35	284.77
464.808	295.88
465.266	271.77
465.724	285.27
466.181	283.47
466.639	282.17
467.097	299.17
467.555	304.67
468.012	310.17
468.47	313.88
468.928	336.37
469.385	357.57
469.843	360.88
470.3	361.77
470.758	371.08
471.215	397.38
471.673	418.47
472.13	426.07
472.588	429.17
473.045	387.77
473.503	394.87
473.96	410.47
474.417	416.38
474.875	446.37
475.332	483.27
475.789	471.17
476.246	479.97
476.704	503.67
477.161	517.97
477.618	542.88
478.075	584.27
478.532	636.97
478.989	716.77
479.446	834.48
479.903	799.48
480.36	834.07
480.817	891.57
481.274	989.87
481.731	1100.28
482.188	1203.27
482.645	1348.88
483.102	1451.88
483.558	1593.77
484.015	1647.78
484.472	1618.07
484.929	1558.97
485.385	1516.57
485.842	1477.97
486.299	1407.17
486.755	1338.57
487.212	1133.47
487.668	954.87
488.125	876.77
488.582	810.07
489.038	779.47
489.494	731.48
489.951	705.97
490.407	682.57
490.864	658.27
491.32	664.58
491.776	665.38
492.233	662.57
492.689	635.88
493.145	624.37
493.602	622.97
494.058	634.67
494.514	631.27
494.97	656.18
495.426	671.88
495.882	648.97
496.338	637.88
496.794	635.38
497.251	641.57
497.707	657.07
498.163	662.77
498.618	658.87
499.074	665.58
499.53	703.77
499.986	698.17
500.442	671.48
500.898	651.98
501.354	636.27
501.809	656.87
502.265	670.67
502.721	674.17
503.177	691.98
503.632	686.38
504.088	695.17
504.543	730.27
504.999	725.88
505.455	674.57
505.91	643.58
506.366	642.57
506.821	651.87
507.277	648.07
507.732	645.77
508.187	639.47
508.643	650.58
509.098	638.67
509.553	672.47
510.009	684.48
510.464	684.57
510.919	694.47
511.375	715.37
511.83	728.27
512.285	744.37
512.74	775.08
513.195	798.47
513.65	790.18
514.105	793.97
514.56	787.47
515.015	811.18
515.47	828.08
515.925	814.68
516.38	805.17
516.835	815.57
517.29	799.87
517.745	790.57
518.2	785.87
518.655	764.87
519.109	763.57
519.564	758.67
520.019	744.38
520.474	743.27
520.928	746.17
521.383	738.07
521.838	731.88
522.292	729.58
522.747	735.77
523.201	719.97
523.656	708.08
524.11	715.27
524.565	703.58
525.019	720.27
525.474	717.27
525.928	726.98
526.382	714.97
526.837	713.97
527.291	722.07
527.745	717.87
528.2	700.98
528.654	702.58
529.108	705.17
529.562	703.47
530.016	715.48
530.47	708.88
530.925	718.47
531.379	724.38
531.833	723.48
532.287	709.77
532.741	722.27
533.195	722.48
533.649	732.88
534.103	739.38
534.556	722.97
535.01	729.07
535.464	737.17
535.918	729.77
536.372	741.67
536.826	732.48
537.279	724.98
537.733	727.38
538.187	732.77
538.64	728.47
539.094	738.77
539.548	742.27
540.001	731.17
540.455	739.17
540.908	745.38
541.362	748.08
541.815	765.77
542.269	761.87
542.722	777.27
543.175	786.67
543.629	795.67
544.082	802.67
544.536	812.27
544.989	797.77
545.442	813.67
545.895	812.97
546.349	809.27
546.802	815.27
547.255	804.97
547.708	827.17
548.161	841.17
548.614	841.37
549.067	854.77
549.52	833.67
549.973	832.07
550.426	826.87
550.879	813.47
551.332	811.57
551.785	818.47
552.238	828.97
552.691	842.98
553.144	849.97
553.596	865.57
554.049	880.57
554.502	916.17
554.955	940.08
555.407	933.37
555.86	924.57
556.313	911.08
556.765	900.98
557.218	909.07
557.67	900.27
558.123	896.37
558.576	899.17
559.028	894.27
559.48	911.67
559.933	890.77
560.385	859.07
560.838	831.47
561.29	798.38
561.742	796.68
562.195	778.27
562.647	786.18
563.099	794.37
563.551	791.88
564.004	805.07
564.456	787.48
564.908	775.67
565.36	761.38
565.812	748.17
566.264	738.48
566.716	740.27
567.168	731.87
567.62	742.98
568.072	722.58
568.524	715.37
568.976	706.77
569.428	696.47
569.88	690.07
570.332	688.27
570.784	698.57
571.235	705.27
571.687	702.97
572.139	724.07
572.59	724.87
573.042	725.77
573.494	723.17
573.945	723.37
574.397	693.97
574.849	703.07
575.3	704.38
575.752	703.38
576.203	689.87
576.655	692.17
577.106	683.08
577.557	679.57
578.009	681.07
578.46	679.07
578.912	675.57
579.363	682.77
579.814	677.67
580.265	672.57
580.717	677.27
581.168	689.07
581.619	699.68
582.07	699.18
582.521	687.97
582.972	684.77
583.423	698.37
583.875	693.97
584.326	721.97
584.777	750.27
585.227	840.88
585.678	925.67
586.129	1015.38
586.58	1073.77
587.031	1168.17
587.482	1327.67
587.933	1516.17
588.384	1319.88
588.834	994.48
589.285	822.87
589.736	790.88
590.186	785.77
590.637	783.97
591.088	763.37
591.538	747.27
591.989	749.27
592.439	736.67
592.89	732.47
593.34	729.47
593.791	717.17
594.241	706.48
594.692	723.38
595.142	710.47
595.593	713.38
596.043	722.98
596.493	726.58
596.943	726.68
597.394	729.67
597.844	722.77
598.294	744.68
598.744	765.27
599.195	791.47
599.645	823.77
600.095	877.98
600.545	926.48
600.995	977.47
601.445	1038.97
601.895	1097.27
602.345	1164.97
602.795	1128.57
603.245	1080.07
603.695	1020.07
604.145	969.38
604.594	920.98
605.044	873.57
605.494	811.48
605.944	765.07
606.393	760.27
606.843	750.77
607.293	752.07
607.743	752.08
608.192	759.57
608.642	773.38
609.091	781.77
609.541	786.27
609.99	779.57
610.44	773.48
610.889	733.37
611.339	709.47
611.788	696.68
612.238	712.48
612.687	732.67
613.136	733.58
613.586	748.48
614.035	749.68
614.484	768.07
614.933	766.77
615.383	761.67
615.832	752.27
616.281	732.77
616.73	691.08
617.179	669.07
617.628	653.47
618.077	646.07
618.526	630.27
618.975	634.77
619.424	620.97
619.873	626.07
620.322	631.07
620.771	608.27
621.22	620.37
621.669	605.68
622.118	599.98
622.567	585.77
623.015	577.38
623.464	577.07
623.913	565.67
624.361	563.17
624.81	561.77
625.259	562.48
625.707	565.77
626.156	563.88
626.604	570.87
627.053	579.27
627.501	582.97
627.95	573.68
628.398	591.17
628.847	566.27
629.295	579.38
629.744	586.37
630.192	570.98
630.64	574.57
631.089	571.17
631.537	583.47
631.985	592.97
632.433	604.97
632.881	618.37
633.33	652.17
633.778	654.57
634.226	572.68
634.674	587.18
635.122	581.48
635.57	606.07
636.018	635.07
636.466	591.88
636.914	564.77
637.362	588.57
637.81	583.98
638.258	590.27
638.705	577.88
639.153	609.38
639.601	621.67
640.049	643.37
640.497	676.77
640.944	706.37
641.392	653.57
641.84	606.37
642.287	597.38
642.735	579.87
643.182	578.68
643.63	581.67
644.078	580.77
644.525	605.57
644.973	595.57
645.42	609.87
645.867	637.58
646.315	643.48
646.762	669.48
647.21	695.48
647.657	723.37
648.104	749.57
648.551	771.88
648.999	838.77
649.446	925.88
649.893	1018.28
650.34	1165.28
650.787	1407.47
651.234	1743.17
651.682	2277.67
652.129	3118.07
652.576	4495.28
653.023	6627.57
653.47	9095.58
653.917	11368.88
654.363	13130.48
654.81	14515.18
655.257	13817.08
655.704	9051.07
656.151	5368.48
656.598	3474.28
657.044	2446.57
657.491	1902.07
657.938	1516.88
658.385	1263.47
658.831	1090.98
659.278	973.87
659.724	862.67
660.171	800.17
660.618	725.47
661.064	693.48
661.511	674.97
661.957	658.98
662.404	656.88
662.85	654.98
663.296	628.47
663.743	569.77
664.189	540.77
664.635	540.97
665.082	533.38
665.528	532.87
665.974	525.67
666.42	518.17
666.867	506.07
667.313	495.97
667.759	489.87
668.205	475.17
668.651	489.87
669.097	490.27
669.543	512.67
669.989	474.17
670.435	449.77
670.881	441.27
671.327	445.17
671.773	473.87
672.219	495.97
672.665	548.87
673.11	583.37
673.556	630.88
674.002	673.67
674.448	658.67
674.893	555.17
675.339	476.57
675.785	441.97
676.23	427.17
676.676	392.47
677.122	386.98
677.567	374.97
678.013	369.67
678.458	367.17
678.904	360.07
679.349	350.38
679.794	352.67
680.24	344.27
680.685	357.97
681.131	353.07
681.576	353.77
682.021	354.27
682.466	349.77
682.912	354.47
683.357	349.08
683.802	379.07
684.247	410.87
684.692	460.37
685.137	492.77
685.583	541.07
686.028	559.97
686.473	516.17
686.918	451.47
687.363	422.98
687.807	390.27
688.252	380.57
688.697	362.48
689.142	333.77
689.587	340.48
690.032	326.27
690.477	341.77
690.921	349.77
691.366	386.97
691.811	403.37
692.255	434.77
692.7	461.38
693.145	492.98
693.589	690.27
694.034	1122.47
694.478	1531.77
694.923	1724.88
695.367	2250.17
695.812	1187.47
696.256	499.77
696.701	374.77
697.145	344.08
697.59	333.37
698.034	320.87
698.478	328.37
698.922	322.68
699.367	335.97
699.811	334.17
700.255	355.68
700.699	382.67
701.143	425.87
701.588	481.87
702.032	512.17
702.476	518.07
702.92	500.27
703.364	488.07
703.808	630.47
704.252	1018.27
704.696	1437.27
705.14	1662.17
705.584	2143.47
706.027	1056.27
706.471	519.37
706.915	401.07
707.359	354.38
707.803	322.27
708.246	310.27
708.69	315.27
709.134	315.38
709.577	309.77
710.021	321.57
710.465	305.48
710.908	298.07
711.352	300.77
711.795	309.57
712.239	361.38
712.682	386.77
713.126	424.07
713.569	467.17
714.012	372.67
714.456	321.68
714.899	292.27
715.342	278.68
715.786	261.58
716.229	255.87
716.672	256.88
717.115	252.17
717.558	253.07
718.002	258.77
718.445	265.17
718.888	286.07
719.331	292.07
719.774	310.07
720.217	307.67
720.66	290.37
721.103	269.48
721.546	254.57
721.989	251.37
722.432	237.88
722.874	239.97
723.317	234.38
723.76	239.67
724.203	254.77
724.645	313.88
725.088	450.87
725.531	571.77
725.974	642.57
726.416	546.87
726.859	305.57
727.301	246.88
727.744	236.48
728.187	239.37
728.629	241.57
729.071	244.47
729.514	257.67
729.956	270.67
730.399	285.77
730.841	293.07
731.283	276.37
731.726	264.07
732.168	260.07
732.61	262.57
733.053	290.37
733.495	313.07
733.937	353.87
734.379	395.97
734.821	432.27
735.263	546.17
735.705	827.77
736.148	1550.78
736.59	2561.47
737.032	3055.27
737.474	2464.27
737.916	801.88
738.357	423.27
738.799	323.27
739.241	302.27
739.683	285.77
740.125	293.67
740.567	291.77
741.008	320.57
741.45	318.38
741.892	314.08
742.334	347.87
742.775	361.37
743.217	345.57
743.658	269.48
744.1	257.37
744.542	256.88
744.983	306.67
745.425	338.48
745.866	345.88
746.307	289.27
746.749	291.38
747.19	316.77
747.632	445.87
748.073	861.17
748.514	1830.17
748.956	2842.88
749.397	3539.77
749.838	2959.38
750.279	2943.88
750.72	1486.37
751.162	546.97
751.603	317.98
752.044	255.17
752.485	215.77
752.926	207.98
753.367	201.67
753.808	191.57
754.249	187.97
754.69	187.57
755.131	185.17
755.572	184.77
756.013	185.37
756.453	178.07
756.894	188.48
757.335	191.27
757.776	191.57
758.216	192.57
758.657	190.77
759.098	201.27
759.538	223.27
759.979	265.57
760.42	358.97
760.86	693.77
761.301	1789.17
761.741	4384.78
762.182	6399.68
762.622	4503.68
763.063	1292.57
763.503	532.77
763.943	346.27
764.384	338.37
764.824	402.18
765.264	427.07
765.705	306.27
766.145	205.67
766.585	183.57
767.025	182.17
767.465	184.47
767.906	239.97
768.346	310.37
768.786	339.48
769.226	269.58
769.666	315.07
770.106	602.47
770.546	1532.67
770.986	2640.57
771.426	2363.77
771.866	784.18
772.306	330.47
772.745	206.88
773.185	176.27
773.625	170.27
774.065	167.97
774.505	194.37
774.944	310.17
775.384	678.07
775.824	1235.47
776.263	1194.07
776.703	498.37
777.142	223.27
777.582	158.47
778.021	146.47
778.461	147.88
778.9	133.97
779.34	131.67
779.779	117.97
780.219	117.38
780.658	103.77
781.097	109.67
781.537	117.67
781.976	114.67
782.415	111.27
782.855	110.97
783.294	100.98
783.733	109.47
784.172	109.17
784.611	103.17
785.05	110.57
785.489	115.57
785.928	117.67
786.367	121.67
786.806	113.07
787.245	132.37
787.684	131.67
788.123	149.37
788.562	142.47
789.001	123.57
789.44	124.38
789.879	117.57
790.317	121.37
790.756	128.27
791.195	132.67
791.634	148.88
792.072	197.98
792.511	363.27
792.95	983.88
793.388	2125.17
793.827	1916.88
794.265	671.77
794.704	275.17
795.142	182.98
795.581	150.77
796.019	135.27
796.458	128.17
796.896	116.77
797.334	133.57
797.773	152.37
798.211	221.07
798.649	434.17
799.087	1010.87
799.526	1567.97
799.964	1988.67
800.402	2014.47
800.84	752.47
801.278	301.27
801.716	185.27
802.154	155.77
802.592	152.17
803.03	134.48
803.468	139.77
803.906	152.57
804.344	145.17
804.782	134.38
805.22	132.87
805.658	127.57
806.096	144.88
806.533	152.87
806.971	174.57
807.409	220.37
807.847	317.77
808.284	649.57
808.722	1835.57
809.16	3248.57
809.597	3066.68
810.035	5367.48
810.472	5755.48
810.91	2060.67
811.347	783.98
811.785	399.37
812.222	253.27
812.66	194.27
813.097	161.77
813.535	143.47
813.972	128.97
814.409	122.17
814.846	106.57
815.284	111.67
815.721	107.17
816.158	100.38
816.595	118.57
817.032	181.47
817.47	192.67
817.907	168.88
818.344	149.17
818.781	114.48
819.218	101.97
819.655	129.57
820.092	187.97
820.529	216.97
820.966	180.27
821.403	136.07
821.839	106.57
822.276	97.57
822.713	122.07
823.15	146.38
823.587	119.47
824.023	145.27
824.46	297.98
824.897	876.67
825.333	1357.97
825.77	582.97
826.206	228.07
826.643	136.27
827.08	101.07
827.516	82.88
827.953	79.77
828.389	79.67
828.825	66.87
829.262	58.47
829.698	63.27
830.135	64.57
830.571	62.77
831.007	58.88
831.443	62.87
831.88	67.77
832.316	63.97
832.752	70.27
833.188	62.77
833.624	64.88
834.06	71.07
834.497	66.47
834.933	68.07
835.369	74.57
835.805	65.87
836.241	76.47
836.677	83.98
837.112	93.27
837.548	102.17
837.984	125.27
838.42	200.87
838.856	479.77
839.292	1493.77
839.727	2272.27
840.163	1059.28
840.599	909.27
841.034	2004.77
841.47	2114.97
841.906	765.68
842.341	338.57
842.777	231.87
843.212	316.77
843.648	312.97
844.083	147.07
844.519	103.88
844.954	76.27
845.39	60.67
845.825	58.77
846.261	57.98
846.696	59.47
847.131	56.77
847.566	56.87
848.002	52.97
848.437	57.17
848.872	63.27
849.307	61.17
849.742	84.67
850.177	172.98
850.613	544.77
851.048	871.07
851.483	379.57
851.918	152.37
852.353	86.77
852.788	63.77
853.223	63.47
853.657	57.57
854.092	46.88
854.527	43.07
854.962	45.07
855.397	46.07
855.832	52.17
856.266	43.48
856.701	39.27
857.136	40.27
857.57	39.98
858.005	52.17
858.44	62.97
858.874	43.48
859.309	53.98
859.743	41.47
860.178	45.07
860.612	36.17
861.047	48.27
861.481	70.67
861.915	69.38
862.35	48.37
862.784	36.77
863.218	35.47
863.653	39.57
864.087	39.67
864.521	52.07
864.955	71.38
865.39	152.07
865.824	176.27
866.258	109.27
866.692	159.67
867.126	164.47
867.56	109.57
867.994	49.97
868.428	39.87
868.862	52.67
869.296	55.27
869.73	59.77
870.164	58.57
870.598	49.07
871.031	35.67
871.465	31.27
871.899	28.77
872.333	19.57
872.766	27.88
873.2	30.47
873.634	35.27
874.067	28.77
874.501	30.17
874.935	36.27
875.368	26.67
875.802	30.17
876.235	29.47
876.669	26.38
877.102	21.47
877.535	30.48
877.969	24.67
878.402	23.87
878.836	19.87
879.269	20.38
879.702	23.27
880.135	19.57
880.569	21.47
881.002	26.17
881.435	19.67
881.868	17.97
882.301	23.38
882.734	12.37
883.167	25.07
883.601	22.27
884.034	15.77
884.467	16.77
884.899	23.47
885.332	15.47
885.765	14.07
886.198	16.47
886.631	18.17
887.064	18.47
887.497	20.27
887.929	28.97
888.362	11.37
888.795	8.37
889.228	19.47
889.66	20.27
890.093	18.77
890.526	16.27
890.958	18.67
891.391	18.17
891.823	21.38
892.256	17.97
892.688	11.67
893.121	14.98
893.553	13.77
893.985	23.67
894.418	18.77
894.85	17.27
895.282	14.57
895.715	14.17
896.147	18.77
896.579	21.17
897.011	19.38
897.444	19.88
897.876	18.07
898.308	18.57
898.74	13.48
899.172	15.47
899.604	21.88
900.036	22.27
900.468	18.57
900.9	20.07
901.332	18.77
901.764	14.17
902.196	19.57
902.628	17.97
903.06	11.07
903.491	33.27
903.923	24.17
904.355	28.98
904.787	28.97
905.218	22.98
905.65	19.37
906.082	11.37
906.513	11.87
906.945	15.07
907.376	15.67
907.808	22.77
908.239	32.48
908.671	25.88
909.102	26.27
909.534	28.48
909.965	45.77
910.397	94.47
910.828	314.97
911.259	475.27
911.691	215.07
912.122	104.07
912.553	59.37
912.984	40.88
913.415	27.88
913.847	19.57
914.278	8.67
914.709	12.47
915.14	22.67
915.571	20.47
916.002	11.97
916.433	18.77
916.864	16.07
917.295	12.27
917.726	17.17
918.157	21.77
918.587	27.87
919.018	18.48
919.449	19.38
919.88	27.97
920.311	30.38
920.741	45.87
921.172	165.77
921.603	147.47
922.033	71.27
922.464	40.88
922.895	26.97
923.325	18.57
923.756	17.27
924.186	14.57
924.617	26.07
925.047	44.77
925.478	57.38
925.908	44.87
926.338	24.07
926.769	11.17
927.199	16.27
927.629	11.67
928.06	15.67
928.49	16.67
928.92	12.87
929.35	13.17
929.78	15.07
930.21	9.67
930.641	13.07
931.071	16.97
931.501	8.38
931.931	9.77
932.361	9.27
932.791	-1.13
933.221	1.88
933.651	8.48
934.08	22.37
934.51	31.17
934.94	14.17
935.37	12.48
935.8	10.77
936.229	8.87
936.659	12.47
937.089	0.57
937.519	18.27
937.948	18.37
938.378	16.47
938.807	3.57
939.237	11.07
939.666	7.27
940.096	-4.43
940.525	3.57
940.955	2.67
941.384	10.77
941.814	-1.03
942.243	8.47
942.672	-0.53
943.102	-8.83
943.531	-2.33
943.96	5.77
944.39	6.07
944.819	2.67
945.248	10.67
945.677	7.87
946.106	10.47
946.535	5.17
946.964	2.47
947.393	1.17
947.822	3.88
948.251	-7.53
948.68	11.07
949.109	11.27
949.538	8.38
949.967	-3.03
950.396	-2.93
950.825	1.07
951.254	4.07
951.682	-7.93
952.111	1.97
952.54	8.88
952.969	-2.53
953.397	-2.53
953.826	0.67
954.254	-7.83
954.683	2.27
955.112	-1.93
955.54	-1.52
955.969	0.38
956.397	-2.23
956.826	-2.93
957.254	9.77
957.682	1.27
958.111	8.07
958.539	0.38
958.967	3.77
959.396	3.07
959.824	-1.12
960.252	2.37
960.68	-6.63
961.109	-2.73
961.537	-0.73
961.965	3.17
962.393	2.07
962.821	-7.52
963.249	4.77
963.677	6.77
964.105	7.17
964.533	45.77
964.961	45.57
965.389	19.48
965.817	7.47
966.245	2.57
966.672	-0.83
967.1	-10.73
967.528	3.67
967.956	3.67
968.383	1.77
968.811	-0.53
969.239	3.77
969.666	-7.33
970.094	3.97
970.522	3.37
970.949	2.57
971.377	-2.93
971.804	-6.62
972.232	3.67
972.659	-2.93
973.087	-4.63
973.514	-7.43
973.941	-7.33
974.369	7.27
974.796	4.77
975.223	1.67
975.651	2.48
976.078	7.27
976.505	5.07
976.932	7.17
977.359	19.27
977.786	19.37
978.214	0.27
978.641	-1.23
979.068	-4.63
979.495	0.57
979.922	4.67
980.349	0.07
980.776	8.67
981.202	1.57
981.629	4.67
982.056	3.27
982.483	2.88
982.91	2.67
983.337	-7.23
983.763	4.67
984.19	-1.73
984.617	-3.03
985.043	-5.43
985.47	-4.43
985.897	-3.62
986.323	-8.93
986.75	2.88
987.176	-4.33
987.603	5.07
988.029	-2.93
988.456	0.67
988.882	2.67
989.308	-1.33
989.735	1.77
990.161	-1.33
990.587	-4.53
991.014	0.67
991.44	8.67
991.866	-2.33
992.292	-1.43
992.719	2.27
993.145	7.27
993.571	-12.02
993.997	-2.63
994.423	-1.13
994.849	-8.83
995.275	2.88
995.701	0.67
996.127	-5.93
996.553	1.47
996.979	0.97
997.405	0.38
997.83	-6.83
998.256	-7.33
998.682	-4.52
999.108	-14.03
999.534	-0.03
999.959	-4.13
1000.385	-1.03
1000.811	4.27
1001.236	-7.93
1001.662	-5.03
1002.087	-9.62
1002.513	-1.23
1002.938	5.27
1003.364	0.48
1003.789	0.57
1004.215	5.77
1004.64	-2.43
1005.066	-0.23
1005.491	-0.52
1005.916	-10.53
1006.342	-1.83
1006.767	-10.12
1007.192	8.77
1007.617	-1.43
1008.042	-1.12
1008.468	-7.33
1008.893	-8.02
1009.318	-2.23
1009.743	-7.13
1010.168	5.97
1010.593	4.67
1011.018	-11.23
1011.443	-1.63
1011.868	0.27
1012.293	-5.12
1012.718	-9.02
1013.143	6.07
1013.567	-1.93
1013.992	4.67
1014.417	-13.83
1014.842	7.67
1015.267	-0.93
1015.691	-0.33
1016.116	5.97
1016.541	0.07
1016.965	-0.23
1017.39	4.37
1017.814	3.17
1018.239	-3.83
1018.663	-3.03
1019.088	-14.73
1019.512	-1.43
1019.937	-0.53
1020.361	-6.23
1020.785	-9.43
1021.21	-2.63
1021.634	-3.83
1022.058	1.67
1022.483	7.27
1022.907	0.97
1023.331	-0.73
1023.755	-3.73
1024.179	-3.63
1024.604	-8.33
1025.028	0.07
1025.452	-3.13
1025.876	-5.83
1026.3	4.27
1026.724	-12.83
1027.148	-5.73
1027.572	-1.43
1027.996	-3.13
1028.42	1.57
1028.843	-7.23
1029.267	0.97
1029.691	-2.13
1030.115	-0.13
1030.539	-8.63
1030.962	-7.33
1031.386	-9.02
1031.81	0.07
1032.233	-0.53
1032.657	-7.83
1033.08	-2.13
1033.504	-4.23
1033.927	-1.52
1034.351	0.38
1034.774	1.47
1035.198	-2.63
1035.621	-6.23
1036.045	-5.33
1036.468	-0.13
1036.891	-8.83
1037.315	-9.33
1037.738	-8.93
1038.161	4.97
1038.584	-7.43
1039.008	-4.53
1039.431	-4.33
1039.854	-5.73
1040.277	-6.83
1040.7	-16.53
1041.123	3.97
1041.546	-2.33
1041.969	-9.03
1042.392	-2.53
1042.815	1.27
1043.238	1.37
1043.661	0.77
1044.084	-6.33
1044.507	-10.53
1044.93	-7.73
1045.352	-8.83
1045.775	-9.83
1046.198	-5.43
1046.621	0.77
1047.043	-2.62
1047.466	4.47
1047.889	-2.93
1048.311	-3.03
1048.734	-1.33
1049.156	-1.93
1049.579	-0.23
1050.001	-4.73
1050.424	-2.73
1050.846	-3.23
1051.269	-4.93
1051.691	-6.93
1052.113	-2.73
1052.536	-4.23
1052.958	-1.73
1053.38	-0.73
1053.802	-5.03
1054.225	2.97
1054.647	-7.73
1055.069	-1.23
1055.491	4.27
1055.913	-7.53
1056.335	-3.43
1056.757	-4.83
1057.179	-6.93
1057.601	-4.53
1058.023	-3.23
1058.445	-2.33
1058.867	-9.23
1059.289	0.17
1059.711	-5.33
1060.133	-6.63
1060.555	-4.23
1060.976	-7.33
1061.398	-7.93
1061.82	-5.53
1062.241	-1.43
1062.663	-6.33
1063.085	-0.63
1063.506	6.27
1063.928	1.17
1064.35	7.97
1064.771	-12.53
1065.193	1.67
1065.614	-4.13
1066.035	0.38
1066.457	-1.23
1066.878	-7.93
1067.3	-4.03
1067.721	1.27
1068.142	1.57
1068.564	-4.03
1068.985	-4.53
1069.406	-4.33
1069.827	-3.23
1070.248	-2.43
1070.67	-8.03
1071.091	-1.23
1071.512	-0.83
1071.933	-4.03
1072.354	-7.62
1072.775	-6.62
1073.196	-1.23
1073.617	2.57
1074.038	-10.23
1074.459	2.38
1074.88	-8.03
1075.3	-2.93
1075.721	-7.43
1076.142	-0.33
1076.563	-3.63
1076.983	-6.53
1077.404	-7.93
1077.825	-12.02
1078.246	-5.73
1078.666	-10.43
1079.087	-2.93
1079.507	-5.13
1079.928	0.97
1080.348	-1.52
1080.769	-9.23
1081.189	0.38
1081.61	-1.62
1082.03	-6.53
1082.451	-6.83
1082.871	-2.83
1083.291	-7.83
1083.711	-11.03
1084.132	0.38
1084.552	-6.73
1084.972	6.38
1085.392	-10.53
1085.813	-13.43
1086.233	-2.33
1086.653	-9.03
1087.073	-1.43
1087.493	-9.93
1087.913	-3.33
1088.333	-3.63
1088.753	-2.83
1089.173	3.07
1089.593	-1.73
1090.013	2.97
1090.433	4.37
1090.852	2.87
1091.272	0.47
1091.692	-1.53
1092.112	-2.83
1092.531	-1.93
1092.951	-12.33
1093.371	-5.33
1093.79	2.48
1094.21	0.07
1094.63	-11.33
1095.049	-5.53
1095.469	2.67
1095.888	-6.33
1096.308	2.97
1096.727	2.27
1097.146	-3.93
1097.566	4.97
1097.985	-12.23
1098.405	-6.02
1098.824	-2.73
1099.243	-6.93
1099.662	-10.43
1100.082	-2.02
1100.501	-1.43
1100.92	-3.83
1101.339	1.47
1101.758	-5.43
