Data from 20171114-ORNL-Ar_H_NY_Subt18_08-04-01-789.txt Node
Date: Tue Nov 14 08:04:01 EST 2017
User: Ender
Spectrometer: HR+D1039
Trigger mode: 0
Integration Time (sec): 2.730000E-2
Scans to average: 10
Electric dark correction enabled: true
Nonlinearity correction enabled: false
Boxcar width: 0
XAxis mode: Wavelengths
Number of Pixels in Spectrum: 2048
>>>>>Begin Spectral Data<<<<<
187.836	-2.88
188.309	-2.88
188.782	-2.88
189.255	1.32
189.728	-1.68
190.201	5.52
190.674	1.62
191.147	1.12
191.619	-8.58
192.092	1.02
192.565	3.32
193.038	2.92
193.511	2.12
193.984	-0.08
194.456	0.22
194.929	-1.88
195.402	-3.18
195.874	-0.88
196.347	-4.08
196.82	-7.38
197.292	12.22
197.765	-3.88
198.237	-4.58
198.71	1.42
199.182	-1.78
199.655	-0.78
200.127	2.42
200.6	-1.78
201.072	-10.48
201.544	-4.18
202.017	-4.78
202.489	7.62
202.961	0.32
203.433	0.32
203.906	-2.48
204.378	-3.48
204.85	-0.58
205.322	-12.08
205.794	-3.08
206.266	-6.38
206.739	-5.28
207.211	1.32
207.683	-7.88
208.155	-2.08
208.627	-5.68
209.099	2.12
209.57	-7.28
210.042	-3.78
210.514	-2.68
210.986	3.62
211.458	-6.08
211.93	1.82
212.402	-1.68
212.873	-10.28
213.345	-6.98
213.817	-13.58
214.288	-5.08
214.76	-10.08
215.232	-3.88
215.703	-1.08
216.175	-2.98
216.646	-3.58
217.118	-10.58
217.589	-10.28
218.061	-5.28
218.532	1.02
219.004	-1.98
219.475	-5.18
219.946	-0.98
220.418	-0.38
220.889	2.22
221.36	3.02
221.832	-0.38
222.303	-1.78
222.774	5.62
223.245	-9.78
223.717	0.92
224.188	-3.38
224.659	-7.08
225.13	-4.18
225.601	-1.48
226.072	7.32
226.543	-2.38
227.014	-0.68
227.485	-4.48
227.956	-2.58
228.427	-6.08
228.898	-0.98
229.369	7.02
229.839	-1.28
230.31	-8.68
230.781	2.92
231.252	-3.48
231.722	-4.88
232.193	-4.78
232.664	-1.88
233.135	0.52
233.605	-2.38
234.076	-4.18
234.546	-1.38
235.017	3.12
235.487	3.42
235.958	-3.38
236.428	-1.68
236.899	2.42
237.369	1.42
237.84	-1.28
238.31	9.52
238.78	0.72
239.251	2.42
239.721	6.62
240.191	-2.78
240.662	-3.98
241.132	-2.88
241.602	-5.78
242.072	-3.88
242.542	4.82
243.013	3.22
243.483	2.32
243.953	-3.08
244.423	-0.58
244.893	-5.18
245.363	2.52
245.833	6.52
246.303	-8.18
246.773	3.82
247.243	3.22
247.712	4.62
248.182	2.62
248.652	2.42
249.122	-2.18
249.592	1.42
250.061	13.42
250.531	20.12
251.001	8.32
251.471	13.22
251.94	16.32
252.41	4.12
252.879	-2.88
253.349	11.12
253.818	3.22
254.288	4.42
254.757	7.72
255.227	1.72
255.696	3.92
256.166	11.32
256.635	5.02
257.105	2.32
257.574	7.22
258.043	3.82
258.513	9.52
258.982	9.62
259.451	-0.28
259.92	8.32
260.389	3.62
260.859	13.32
261.328	9.12
261.797	10.92
262.266	0.62
262.735	11.42
263.204	-5.28
263.673	-2.38
264.142	2.32
264.611	-3.88
265.08	0.62
265.549	1.52
266.018	6.02
266.487	-4.68
266.955	-2.68
267.424	0.22
267.893	4.12
268.362	-3.48
268.83	3.42
269.299	11.82
269.768	9.52
270.236	5.12
270.705	-4.98
271.174	4.02
271.642	2.82
272.111	6.02
272.579	7.62
273.048	10.42
273.516	6.82
273.985	12.72
274.453	9.42
274.922	7.12
275.39	8.92
275.858	3.32
276.327	6.12
276.795	14.72
277.263	3.52
277.731	21.52
278.2	25.92
278.668	33.92
279.136	27.72
279.604	8.72
280.072	5.42
280.54	8.72
281.008	6.62
281.477	7.32
281.945	7.92
282.413	6.62
282.881	12.92
283.348	2.42
283.816	14.32
284.284	3.92
284.752	19.02
285.22	4.12
285.688	14.22
286.156	9.12
286.623	28.02
287.091	26.32
287.559	16.32
288.026	12.22
288.494	13.22
288.962	-1.78
289.429	7.92
289.897	10.62
290.364	8.62
290.832	13.52
291.3	11.42
291.767	6.82
292.234	16.32
292.702	7.22
293.169	11.12
293.637	9.22
294.104	19.22
294.571	9.32
295.039	4.72
295.506	8.72
295.973	14.82
296.44	15.32
296.908	11.62
297.375	16.52
297.842	9.82
298.309	6.62
298.776	5.92
299.243	10.52
299.71	5.42
300.177	16.12
300.644	17.32
301.111	11.42
301.578	18.72
302.045	11.52
302.512	18.72
302.979	19.62
303.446	17.72
303.913	9.32
304.379	15.02
304.846	20.92
305.313	25.32
305.78	12.42
306.246	14.32
306.713	18.02
307.18	13.52
307.646	13.42
308.113	15.62
308.579	14.62
309.046	19.72
309.512	14.22
309.979	13.82
310.445	18.72
310.912	23.72
311.378	30.22
311.845	24.42
312.311	22.52
312.777	25.32
313.244	27.02
313.71	26.12
314.176	22.32
314.642	20.92
315.109	25.32
315.575	27.62
316.041	29.82
316.507	21.52
316.973	26.32
317.439	31.12
317.905	27.12
318.371	29.12
318.837	21.22
319.303	26.32
319.769	23.72
320.235	22.32
320.701	20.42
321.167	30.22
321.633	25.52
322.099	26.32
322.564	33.52
323.03	26.82
323.496	26.02
323.962	34.22
324.427	25.42
324.893	33.32
325.359	30.82
325.824	27.52
326.29	29.52
326.755	26.82
327.221	28.82
327.686	28.42
328.152	38.42
328.617	27.72
329.083	38.62
329.548	45.12
330.014	33.92
330.479	27.02
330.944	35.92
331.41	29.72
331.875	31.42
332.34	33.42
332.805	32.82
333.271	36.52
333.736	33.62
334.201	38.62
334.666	37.42
335.131	43.42
335.596	44.62
336.061	43.82
336.526	33.12
336.991	40.02
337.456	42.62
337.921	43.22
338.386	37.62
338.851	33.22
339.316	33.52
339.781	34.02
340.246	41.62
340.711	42.82
341.175	37.42
341.64	37.12
342.105	40.62
342.569	41.52
343.034	49.52
343.499	44.12
343.963	44.52
344.428	53.42
344.893	44.92
345.357	46.12
345.822	50.82
346.286	57.22
346.751	55.02
347.215	57.72
347.679	52.82
348.144	66.62
348.608	61.52
349.073	56.12
349.537	58.62
350.001	53.52
350.465	62.02
350.93	60.62
351.394	62.92
351.858	55.82
352.322	70.22
352.786	65.62
353.25	77.12
353.715	82.52
354.179	79.92
354.643	91.92
355.107	91.92
355.571	88.22
356.035	79.12
356.498	89.92
356.962	99.72
357.426	95.92
357.89	87.32
358.354	74.82
358.818	67.72
359.281	67.52
359.745	63.42
360.209	67.52
360.673	65.72
361.136	66.62
361.6	71.92
362.064	67.52
362.527	69.32
362.991	76.82
363.454	69.32
363.918	61.22
364.381	65.02
364.845	70.62
365.308	70.72
365.772	69.72
366.235	70.62
366.698	67.42
367.162	75.72
367.625	66.12
368.088	74.42
368.552	75.72
369.015	78.42
369.478	79.92
369.941	84.92
370.404	79.22
370.867	85.92
371.331	89.52
371.794	94.12
372.257	94.42
372.72	90.62
373.183	97.52
373.646	84.82
374.109	91.12
374.572	90.22
375.035	87.62
375.497	91.72
375.96	96.02
376.423	86.12
376.886	90.92
377.349	93.92
377.811	93.52
378.274	93.12
378.737	95.22
379.199	94.72
379.662	98.12
380.125	98.42
380.587	94.62
381.05	106.82
381.512	110.72
381.975	113.72
382.437	116.32
382.9	107.52
383.362	115.62
383.825	115.42
384.287	127.32
384.75	120.32
385.212	117.92
385.674	117.32
386.136	118.32
386.599	110.32
387.061	115.32
387.523	110.32
387.985	117.52
388.447	127.82
388.91	127.12
389.372	132.32
389.834	131.92
390.296	120.12
390.758	130.22
391.22	140.02
391.682	167.62
392.144	235.62
392.606	190.52
393.068	144.92
393.529	142.42
393.991	133.32
394.453	132.22
394.915	136.32
395.377	156.32
395.838	176.02
396.3	131.62
396.762	134.12
397.224	120.72
397.685	120.02
398.147	117.82
398.608	115.82
399.07	120.12
399.531	113.02
399.993	133.02
400.454	130.82
400.916	128.72
401.377	134.42
401.839	126.12
402.3	136.02
402.762	145.82
403.223	164.32
403.684	147.92
404.145	145.22
404.607	144.32
405.068	140.42
405.529	144.52
405.99	162.32
406.451	154.82
406.913	153.22
407.374	148.22
407.835	147.12
408.296	149.02
408.757	150.52
409.218	158.92
409.679	157.52
410.14	157.02
410.601	160.92
411.062	167.22
411.522	168.42
411.983	169.42
412.444	156.32
412.905	157.02
413.366	167.72
413.826	177.62
414.287	197.02
414.748	242.52
415.208	225.52
415.669	194.22
416.13	183.82
416.59	185.32
417.051	193.62
417.511	197.22
417.972	213.72
418.432	225.32
418.893	259.72
419.353	225.62
419.814	187.02
420.274	162.32
420.734	158.12
421.195	178.22
421.655	171.82
422.115	177.62
422.576	177.62
423.036	178.62
423.496	191.82
423.956	192.62
424.416	209.22
424.876	243.02
425.336	232.12
425.797	230.92
426.257	230.62
426.717	205.02
427.177	211.62
427.637	201.32
428.097	212.92
428.556	221.82
429.016	239.52
429.476	227.82
429.936	243.52
430.396	248.02
430.856	258.12
431.315	281.82
431.775	305.52
432.235	335.22
432.694	307.02
433.154	318.62
433.614	327.42
434.073	290.92
434.533	247.52
434.993	239.62
435.452	249.32
435.912	239.82
436.371	246.92
436.83	245.02
437.29	228.02
437.749	216.12
438.209	213.92
438.668	231.12
439.127	232.52
439.587	221.72
440.046	204.02
440.505	224.52
440.964	233.72
441.424	262.32
441.883	255.52
442.342	225.32
442.801	203.72
443.26	199.92
443.719	203.02
444.178	198.52
444.637	198.32
445.096	196.92
445.555	204.32
446.014	196.92
446.473	207.72
446.932	201.22
447.391	205.92
447.849	201.02
448.308	198.52
448.767	194.22
449.226	214.22
449.685	211.92
450.143	223.62
450.602	219.42
451.061	205.82
451.519	219.32
451.978	210.12
452.436	210.02
452.895	212.42
453.353	221.82
453.812	219.32
454.27	220.82
454.729	216.32
455.187	214.42
455.646	218.62
456.104	217.02
456.562	222.92
457.021	231.22
457.479	224.32
457.937	233.52
458.395	224.42
458.854	216.82
459.312	220.12
459.77	234.72
460.228	220.12
460.686	220.22
461.144	227.82
461.602	216.42
462.06	218.32
462.518	228.02
462.976	231.82
463.434	227.92
463.892	230.92
464.35	238.42
464.808	242.42
465.266	238.42
465.724	236.32
466.181	244.82
466.639	241.02
467.097	259.82
467.555	268.82
468.012	270.32
468.47	269.52
468.928	289.82
469.385	297.72
469.843	300.92
470.3	296.32
470.758	310.42
471.215	327.42
471.673	347.02
472.13	346.52
472.588	351.22
473.045	327.12
473.503	333.62
473.96	342.12
474.417	347.42
474.875	374.42
475.332	407.52
475.789	401.32
476.246	416.12
476.704	424.12
477.161	443.92
477.618	448.62
478.075	477.02
478.532	522.22
478.989	575.52
479.446	672.32
479.903	660.62
480.36	703.32
480.817	755.02
481.274	845.12
481.731	924.62
482.188	1014.82
482.645	1124.02
483.102	1210.62
483.558	1323.22
484.015	1397.72
484.472	1368.12
484.929	1333.12
485.385	1280.82
485.842	1239.12
486.299	1182.62
486.755	1125.82
487.212	946.22
487.668	810.72
488.125	738.82
488.582	679.72
489.038	657.02
489.494	619.42
489.951	601.52
490.407	584.32
490.864	559.02
491.32	561.82
491.776	553.52
492.233	555.32
492.689	535.42
493.145	522.52
493.602	522.02
494.058	538.32
494.514	535.02
494.97	545.42
495.426	555.72
495.882	532.82
496.338	533.82
496.794	541.02
497.251	526.32
497.707	543.82
498.163	545.62
498.618	548.52
499.074	546.82
499.53	567.72
499.986	579.62
500.442	553.22
500.898	546.92
501.354	531.62
501.809	550.02
502.265	541.92
502.721	566.92
503.177	566.82
503.632	563.82
504.088	581.82
504.543	597.12
504.999	598.22
505.455	568.92
505.91	549.12
506.366	543.82
506.821	540.52
507.277	543.72
507.732	545.72
508.187	530.22
508.643	547.42
509.098	542.82
509.553	564.72
510.009	568.32
510.464	579.02
510.919	588.52
511.375	596.72
511.83	599.92
512.285	607.62
512.74	648.32
513.195	667.22
513.65	658.22
514.105	658.02
514.56	659.12
515.015	674.82
515.47	689.02
515.925	675.12
516.38	687.42
516.835	681.32
517.29	669.32
517.745	665.32
518.2	661.42
518.655	643.92
519.109	632.62
519.564	634.12
520.019	621.52
520.474	606.52
520.928	611.82
521.383	609.42
521.838	603.12
522.292	598.42
522.747	600.52
523.201	602.82
523.656	582.42
524.11	587.82
524.565	589.72
525.019	586.52
525.474	606.52
525.928	587.02
526.382	585.12
526.837	590.02
527.291	590.12
527.745	583.02
528.2	589.12
528.654	581.22
529.108	579.72
529.562	584.02
530.016	577.82
530.47	581.22
530.925	587.22
531.379	593.72
531.833	598.82
532.287	581.12
532.741	583.52
533.195	584.72
533.649	586.82
534.103	600.02
534.556	587.92
535.01	596.02
535.464	596.82
535.918	590.02
536.372	597.82
536.826	598.12
537.279	589.22
537.733	592.22
538.187	597.02
538.64	593.22
539.094	600.62
539.548	610.12
540.001	596.82
540.455	607.42
540.908	608.12
541.362	610.62
541.815	618.42
542.269	630.42
542.722	627.02
543.175	633.52
543.629	641.62
544.082	648.02
544.536	652.12
544.989	652.42
545.442	654.72
545.895	648.32
546.349	650.42
546.802	655.32
547.255	662.42
547.708	665.92
548.161	671.62
548.614	672.72
549.067	683.12
549.52	684.12
549.973	663.52
550.426	661.22
550.879	655.62
551.332	653.22
551.785	664.52
552.238	653.92
552.691	661.72
553.144	686.22
553.596	694.42
554.049	713.32
554.502	725.82
554.955	747.62
555.407	747.52
555.86	735.52
556.313	734.12
556.765	722.42
557.218	722.62
557.67	711.82
558.123	709.12
558.576	713.12
559.028	703.72
559.48	723.92
559.933	715.42
560.385	679.72
560.838	656.22
561.29	638.72
561.742	642.62
562.195	619.12
562.647	630.72
563.099	633.12
563.551	628.22
564.004	646.32
564.456	606.52
564.908	612.42
565.36	597.02
565.812	589.62
566.264	574.42
566.716	576.62
567.168	570.72
567.62	582.72
568.072	557.72
568.524	555.92
568.976	553.82
569.428	539.92
569.88	531.52
570.332	539.52
570.784	540.02
571.235	543.72
571.687	548.92
572.139	558.52
572.59	572.22
573.042	566.22
573.494	569.32
573.945	563.92
574.397	540.72
574.849	561.12
575.3	543.32
575.752	541.72
576.203	539.02
576.655	543.32
577.106	528.82
577.557	527.02
578.009	527.52
578.46	520.72
578.912	517.82
579.363	517.12
579.814	527.92
580.265	522.52
580.717	529.62
581.168	519.92
581.619	521.72
582.07	541.22
582.521	528.42
582.972	530.42
583.423	536.62
583.875	536.12
584.326	549.92
584.777	579.02
585.227	632.12
585.678	702.12
586.129	780.32
586.58	824.82
587.031	900.02
587.482	1031.92
587.933	1170.72
588.384	1023.22
588.834	763.42
589.285	637.72
589.736	607.02
590.186	611.92
590.637	600.02
591.088	584.42
591.538	581.12
591.989	573.72
592.439	564.52
592.89	564.92
593.34	539.82
593.791	549.92
594.241	543.82
594.692	543.22
595.142	541.82
595.593	531.92
596.043	553.22
596.493	541.02
596.943	554.22
597.394	546.42
597.844	549.42
598.294	558.82
598.744	588.12
599.195	593.52
599.645	629.02
600.095	656.42
600.545	700.02
600.995	742.62
601.445	780.32
601.895	836.62
602.345	874.62
602.795	858.42
603.245	820.82
603.695	777.62
604.145	743.32
604.594	688.72
605.044	656.12
605.494	603.72
605.944	563.02
606.393	560.42
606.843	555.32
607.293	560.92
607.743	553.22
608.192	569.62
608.642	575.52
609.091	581.22
609.541	583.62
609.99	580.62
610.44	584.52
610.889	542.32
611.339	530.92
611.788	514.12
612.238	527.82
612.687	548.82
613.136	553.32
613.586	562.82
614.035	545.82
614.484	559.22
614.933	566.52
615.383	557.52
615.832	547.92
616.281	544.42
616.73	516.82
617.179	507.82
617.628	489.32
618.077	476.62
618.526	473.72
618.975	466.82
619.424	464.22
619.873	460.42
620.322	466.42
620.771	453.82
621.22	453.82
621.669	448.42
622.118	441.22
622.567	436.52
623.015	417.82
623.464	424.32
623.913	421.22
624.361	417.72
624.81	415.12
625.259	419.92
625.707	412.72
626.156	411.82
626.604	432.22
627.053	421.32
627.501	423.42
627.95	425.02
628.398	427.82
628.847	426.92
629.295	427.82
629.744	431.62
630.192	422.72
630.64	423.12
631.089	414.32
631.537	417.32
631.985	419.12
632.433	428.22
632.881	417.12
633.33	462.72
633.778	435.02
634.226	414.02
634.674	413.52
635.122	416.52
635.57	428.92
636.018	448.92
636.466	428.42
636.914	416.52
637.362	419.52
637.81	426.92
638.258	431.82
638.705	427.22
639.153	447.22
639.601	463.02
640.049	471.62
640.497	498.72
640.944	517.92
641.392	475.92
641.84	455.42
642.287	432.62
642.735	415.22
643.182	425.02
643.63	421.62
644.078	414.12
644.525	432.72
644.973	437.82
645.42	447.22
645.867	448.42
646.315	467.52
646.762	482.22
647.21	506.12
647.657	521.12
648.104	541.82
648.551	558.22
648.999	592.42
649.446	656.12
649.893	720.42
650.34	825.42
650.787	990.42
651.234	1226.62
651.682	1582.82
652.129	2167.92
652.576	3103.22
653.023	4560.12
653.47	6388.62
653.917	8086.72
654.363	9545.22
654.81	10802.92
655.257	10264.02
655.704	6667.32
656.151	3904.02
656.598	2513.12
657.044	1772.82
657.491	1366.42
657.938	1090.42
658.385	917.82
658.831	788.92
659.278	702.02
659.724	623.82
660.171	576.32
660.618	528.62
661.064	495.12
661.511	478.12
661.957	466.22
662.404	454.92
662.85	460.82
663.296	442.02
663.743	419.02
664.189	392.42
664.635	386.92
665.082	383.52
665.528	379.22
665.974	372.92
666.42	366.92
666.867	352.72
667.313	354.42
667.759	341.02
668.205	347.52
668.651	353.22
669.097	348.62
669.543	358.72
669.989	344.62
670.435	325.42
670.881	330.12
671.327	318.22
671.773	328.82
672.219	356.72
672.665	397.02
673.11	415.82
673.556	449.52
674.002	485.62
674.448	477.22
674.893	400.22
675.339	354.42
675.785	313.32
676.23	301.72
676.676	276.32
677.122	277.32
677.567	266.02
678.013	270.22
678.458	251.32
678.904	262.72
679.349	245.72
679.794	260.02
680.24	251.32
680.685	245.32
681.131	247.32
681.576	254.92
682.021	263.72
682.466	249.12
682.912	249.42
683.357	245.82
683.802	277.12
684.247	292.82
684.692	327.12
685.137	353.72
685.583	384.32
686.028	415.32
686.473	378.12
686.918	323.02
687.363	299.72
687.807	280.22
688.252	258.42
688.697	256.02
689.142	242.02
689.587	236.72
690.032	227.92
690.477	241.32
690.921	247.22
691.366	272.62
691.811	292.02
692.255	306.92
692.7	323.92
693.145	356.02
693.589	478.72
694.034	784.12
694.478	1089.32
694.923	1273.12
695.367	1708.92
695.812	885.02
696.256	361.92
696.701	265.62
697.145	248.22
697.59	232.72
698.034	231.12
698.478	240.02
698.922	232.52
699.367	229.42
699.811	238.12
700.255	258.82
700.699	275.92
701.143	305.22
701.588	338.62
702.032	375.12
702.476	369.32
702.92	346.62
703.364	344.72
703.808	434.12
704.252	720.32
704.696	1023.82
705.14	1225.42
705.584	1609.72
706.027	782.32
706.471	378.42
706.915	277.92
707.359	256.02
707.803	222.52
708.246	217.42
708.69	224.82
709.134	227.82
709.577	224.62
710.021	230.52
710.465	215.02
710.908	215.62
711.352	217.12
711.795	211.92
712.239	249.22
712.682	264.42
713.126	295.22
713.569	333.32
714.012	268.82
714.456	224.92
714.899	209.72
715.342	196.02
715.786	179.52
716.229	188.02
716.672	179.32
717.115	176.32
717.558	171.92
718.002	181.22
718.445	187.82
718.888	205.12
719.331	210.32
719.774	216.62
720.217	215.42
720.66	204.12
721.103	197.62
721.546	179.72
721.989	171.22
722.432	153.92
722.874	170.52
723.317	164.22
723.76	165.52
724.203	182.72
724.645	222.22
725.088	300.22
725.531	400.12
725.974	470.02
726.416	400.72
726.859	219.82
727.301	172.82
727.744	171.42
728.187	163.42
728.629	172.02
729.071	169.72
729.514	180.12
729.956	190.62
730.399	192.92
730.841	202.02
731.283	197.12
731.726	192.02
732.168	185.72
732.61	189.52
733.053	203.52
733.495	213.12
733.937	242.82
734.379	280.42
734.821	302.72
735.263	380.62
735.705	581.72
736.148	1084.02
736.59	1838.82
737.032	2281.02
737.474	1865.32
737.916	596.12
738.357	306.32
738.799	232.52
739.241	221.62
739.683	204.42
740.125	204.62
740.567	207.92
741.008	231.32
741.45	226.22
741.892	220.72
742.334	250.72
742.775	261.62
743.217	246.12
743.658	191.02
744.1	183.22
744.542	184.92
744.983	224.22
745.425	253.22
745.866	253.72
746.307	208.82
746.749	201.72
747.19	226.22
747.632	315.62
748.073	592.52
748.514	1284.62
748.956	2077.42
749.397	2561.62
749.838	2154.62
750.279	2230.02
750.72	1114.42
751.162	400.32
751.603	228.02
752.044	180.52
752.485	147.12
752.926	152.72
753.367	140.42
753.808	135.42
754.249	139.02
754.69	136.42
755.131	127.12
755.572	131.92
756.013	130.62
756.453	122.22
756.894	127.22
757.335	131.22
757.776	139.62
758.216	132.72
758.657	140.72
759.098	145.52
759.538	158.82
759.979	181.52
760.42	253.72
760.86	488.82
761.301	1251.72
761.741	3141.72
762.182	4941.02
762.622	3481.82
763.063	976.02
763.503	399.62
763.943	251.02
764.384	240.62
764.824	291.82
765.264	322.62
765.705	220.72
766.145	144.92
766.585	134.92
767.025	127.92
767.465	129.52
767.906	176.72
768.346	234.22
768.786	251.62
769.226	183.82
769.666	222.02
770.106	417.92
770.546	1067.82
770.986	1950.02
771.426	1806.12
771.866	585.02
772.306	235.02
772.745	142.72
773.185	122.72
773.625	119.82
774.065	110.12
774.505	133.12
774.944	203.22
775.384	431.22
775.824	836.02
776.263	841.12
776.703	354.52
777.142	149.92
777.582	105.62
778.021	92.82
778.461	103.72
778.9	99.22
779.34	98.62
779.779	80.42
780.219	76.22
780.658	75.82
781.097	81.72
781.537	80.42
781.976	76.22
782.415	72.62
782.855	75.52
783.294	72.72
783.733	74.92
784.172	77.52
784.611	81.22
785.05	80.62
785.489	77.12
785.928	78.12
786.367	91.92
786.806	88.42
787.245	97.12
787.684	98.82
788.123	112.92
788.562	97.32
789.001	90.32
789.44	84.12
789.879	78.32
790.317	85.42
790.756	90.62
791.195	93.42
791.634	102.42
792.072	144.92
792.511	253.22
792.95	701.52
793.388	1585.22
793.827	1486.42
794.265	501.42
794.704	200.12
795.142	133.12
795.581	105.52
796.019	95.62
796.458	82.72
796.896	86.62
797.334	86.62
797.773	110.32
798.211	151.92
798.649	296.22
799.087	711.32
799.526	1161.92
799.964	1464.32
800.402	1530.12
800.84	564.52
801.278	220.22
801.716	128.92
802.154	104.12
802.592	109.02
803.03	102.72
803.468	87.72
803.906	106.52
804.344	106.62
804.782	104.52
805.22	100.22
805.658	94.12
806.096	104.22
806.533	110.52
806.971	121.52
807.409	153.52
807.847	223.32
808.284	452.52
808.722	1320.02
809.16	2481.52
809.597	2253.72
810.035	4042.02
810.472	4604.32
810.91	1616.02
811.347	592.52
811.785	295.92
812.222	185.02
812.66	143.02
813.097	122.02
813.535	107.82
813.972	92.62
814.409	87.32
814.846	83.42
815.284	80.62
815.721	76.42
816.158	78.82
816.595	87.12
817.032	123.02
817.47	149.82
817.907	121.62
818.344	105.02
818.781	75.62
819.218	71.02
819.655	91.92
820.092	141.12
820.529	162.42
820.966	126.12
821.403	98.02
821.839	72.02
822.276	70.82
822.713	89.62
823.15	98.92
823.587	84.42
824.023	100.52
824.46	203.12
824.897	642.22
825.333	1022.12
825.77	438.02
826.206	167.92
826.643	102.72
827.08	85.32
827.516	57.62
827.953	51.52
828.389	65.82
828.825	46.22
829.262	44.32
829.698	45.42
830.135	45.72
830.571	47.12
831.007	44.42
831.443	43.42
831.88	39.42
832.316	46.02
832.752	41.12
833.188	44.32
833.624	36.62
834.06	45.62
834.497	42.92
834.933	52.82
835.369	56.92
835.805	48.22
836.241	59.72
836.677	58.02
837.112	64.52
837.548	65.72
837.984	97.82
838.42	148.02
838.856	352.82
839.292	1100.62
839.727	1772.02
840.163	812.82
840.599	657.52
841.034	1510.52
841.47	1664.72
841.906	592.12
842.341	241.62
842.777	161.52
843.212	217.52
843.648	221.72
844.083	115.02
844.519	71.12
844.954	58.12
845.39	41.82
845.825	45.22
846.261	37.82
846.696	35.62
847.131	39.42
847.566	48.92
848.002	43.32
848.437	41.22
848.872	42.12
849.307	44.82
849.742	61.42
850.177	121.72
850.613	396.12
851.048	661.12
851.483	278.52
851.918	112.82
852.353	58.02
852.788	39.32
853.223	41.52
853.657	42.12
854.092	34.02
854.527	37.02
854.962	29.62
855.397	27.22
855.832	42.02
856.266	30.52
856.701	23.42
857.136	23.52
857.57	24.02
858.005	36.82
858.44	43.42
858.874	35.32
859.309	42.72
859.743	30.82
860.178	33.62
860.612	35.52
861.047	39.72
861.481	53.12
861.915	55.62
862.35	35.92
862.784	20.82
863.218	28.62
863.653	26.52
864.087	36.12
864.521	37.42
864.955	47.32
865.39	107.42
865.824	131.72
866.258	87.22
866.692	128.22
867.126	146.12
867.56	81.62
867.994	39.12
868.428	30.92
868.862	34.32
869.296	40.32
869.73	44.42
870.164	39.02
870.598	33.12
871.031	26.82
871.465	17.82
871.899	21.22
872.333	18.22
872.766	22.62
873.2	20.02
873.634	21.12
874.067	24.02
874.501	20.72
874.935	27.22
875.368	26.72
875.802	23.72
876.235	26.92
876.669	18.22
877.102	18.12
877.535	17.72
877.969	19.32
878.402	18.62
878.836	14.92
879.269	14.82
879.702	21.82
880.135	13.52
880.569	22.52
881.002	23.32
881.435	15.12
881.868	17.22
882.301	14.92
882.734	9.52
883.167	19.72
883.601	11.72
884.034	15.32
884.467	14.32
884.899	17.52
885.332	11.42
885.765	16.52
886.198	14.62
886.631	13.72
887.064	16.02
887.497	18.12
887.929	22.92
888.362	7.42
888.795	6.62
889.228	8.92
889.66	17.12
890.093	11.62
890.526	15.42
890.958	9.82
891.391	14.12
891.823	17.92
892.256	12.32
892.688	10.92
893.121	10.92
893.553	9.42
893.985	17.72
894.418	22.72
894.85	7.62
895.282	11.82
895.715	8.72
896.147	20.02
896.579	18.02
897.011	10.52
897.444	13.02
897.876	6.32
898.308	11.02
898.74	7.62
899.172	5.12
899.604	11.92
900.036	21.52
900.468	12.02
900.9	8.72
901.332	18.32
901.764	15.52
902.196	14.02
902.628	9.52
903.06	10.62
903.491	22.52
903.923	15.72
904.355	13.62
904.787	19.42
905.218	22.42
905.65	12.12
906.082	7.42
906.513	7.92
906.945	11.32
907.376	4.32
907.808	18.32
908.239	19.32
908.671	14.22
909.102	23.22
909.534	20.12
909.965	36.82
910.397	65.22
910.828	232.22
911.259	373.22
911.691	163.62
912.122	81.82
912.553	43.62
912.984	29.72
913.415	21.32
913.847	21.32
914.278	11.52
914.709	7.22
915.14	13.02
915.571	13.12
916.002	8.52
916.433	17.12
916.864	15.52
917.295	9.92
917.726	16.92
918.157	8.92
918.587	25.22
919.018	14.82
919.449	13.52
919.88	17.72
920.311	31.42
920.741	36.82
921.172	122.32
921.603	115.42
922.033	51.12
922.464	37.12
922.895	14.92
923.325	21.02
923.756	11.22
924.186	12.32
924.617	15.82
925.047	30.22
925.478	43.12
925.908	29.62
926.338	14.92
926.769	15.12
927.199	16.62
927.629	5.12
928.06	20.02
928.49	12.72
928.92	10.22
929.35	10.72
929.78	3.72
930.21	4.42
930.641	2.72
931.071	7.42
931.501	8.92
931.931	5.42
932.361	9.32
932.791	2.92
933.221	6.22
933.651	5.22
934.08	5.82
934.51	22.62
934.94	5.52
935.37	9.02
935.8	17.42
936.229	6.72
936.659	7.12
937.089	-2.38
937.519	13.42
937.948	20.42
938.378	13.62
938.807	7.52
939.237	-0.28
939.666	11.02
940.096	-7.88
940.525	4.32
940.955	5.22
941.384	3.32
941.814	-5.48
942.243	0.92
942.672	10.52
943.102	-1.58
943.531	1.12
943.96	3.42
944.39	3.82
944.819	0.52
945.248	4.32
945.677	3.62
946.106	6.12
946.535	7.02
946.964	0.12
947.393	5.02
947.822	2.52
948.251	-3.68
948.68	-1.18
949.109	1.82
949.538	6.82
949.967	-1.78
950.396	1.52
950.825	0.92
951.254	-2.28
951.682	-3.38
952.111	-0.18
952.54	5.62
952.969	-0.98
953.397	-5.88
953.826	3.62
954.254	-6.88
954.683	5.22
955.112	4.32
955.54	0.62
955.969	1.12
956.397	2.12
956.826	0.42
957.254	4.52
957.682	-0.08
958.111	4.42
958.539	0.82
958.967	5.42
959.396	-1.98
959.824	3.92
960.252	-0.18
960.68	-2.48
961.109	-1.78
961.537	-5.58
961.965	1.32
962.393	1.42
962.821	-2.78
963.249	0.92
963.677	5.42
964.105	2.92
964.533	32.92
964.961	29.42
965.389	17.52
965.817	8.72
966.245	-1.08
966.672	1.62
967.1	-6.88
967.528	3.22
967.956	-3.18
968.383	10.72
968.811	-3.08
969.239	-0.18
969.666	-2.88
970.094	-1.88
970.522	4.02
970.949	-2.88
971.377	-8.28
971.804	-0.08
972.232	-4.48
972.659	2.42
973.087	0.72
973.514	2.22
973.941	-6.98
974.369	6.72
974.796	-0.28
975.223	7.52
975.651	5.92
976.078	8.92
976.505	1.82
976.932	5.42
977.359	14.82
977.786	8.32
978.214	-0.68
978.641	-7.68
979.068	-1.68
979.495	-3.88
979.922	-1.68
980.349	2.82
980.776	4.92
981.202	-0.98
981.629	1.62
982.056	4.22
982.483	-2.38
982.91	7.52
983.337	-7.28
983.763	1.02
984.19	-0.48
984.617	-7.28
985.043	-5.78
985.47	-0.38
985.897	-4.88
986.323	-5.68
986.75	0.32
987.176	-2.38
987.603	2.82
988.029	-2.08
988.456	-0.68
988.882	6.22
989.308	-4.98
989.735	-1.78
990.161	0.02
990.587	-5.18
991.014	-0.88
991.44	7.02
991.866	0.62
992.292	-2.88
992.719	-5.68
993.145	2.92
993.571	-10.68
993.997	-2.18
994.423	-2.38
994.849	-3.68
995.275	-1.38
995.701	6.62
996.127	1.72
996.553	2.92
996.979	0.12
997.405	4.92
997.83	0.92
998.256	-2.68
998.682	-5.78
999.108	-7.98
999.534	0.32
999.959	1.12
1000.385	-2.28
1000.811	-1.78
1001.236	-4.98
1001.662	-10.58
1002.087	-7.98
1002.513	4.02
1002.938	0.12
1003.364	-4.68
1003.789	1.42
1004.215	2.32
1004.64	-1.38
1005.066	4.32
1005.491	4.82
1005.916	0.22
1006.342	-4.98
1006.767	-4.38
1007.192	3.22
1007.617	-0.18
1008.042	-8.18
1008.468	-4.58
1008.893	-1.88
1009.318	1.22
1009.743	-4.68
1010.168	6.52
1010.593	-2.08
1011.018	-1.98
1011.443	0.62
1011.868	4.12
1012.293	0.42
1012.718	-2.78
1013.143	0.82
1013.567	8.32
1013.992	-2.28
1014.417	-7.78
1014.842	2.42
1015.267	-2.18
1015.691	-5.98
1016.116	7.42
1016.541	0.32
1016.965	7.92
1017.39	4.52
1017.814	6.02
1018.239	0.72
1018.663	-6.78
1019.088	-8.78
1019.512	-7.28
1019.937	-1.58
1020.361	2.32
1020.785	-5.38
1021.21	-2.48
1021.634	-5.08
1022.058	4.22
1022.483	3.22
1022.907	1.32
1023.331	-6.78
1023.755	3.62
1024.179	-5.48
1024.604	-7.68
1025.028	-1.68
1025.452	-0.68
1025.876	0.12
1026.3	4.72
1026.724	-2.98
1027.148	-6.58
1027.572	-4.68
1027.996	-6.18
1028.42	2.02
1028.843	-2.08
1029.267	2.52
1029.691	-1.68
1030.115	-6.38
1030.539	-4.18
1030.962	-3.88
1031.386	-5.18
1031.81	-1.18
1032.233	-3.08
1032.657	0.52
1033.08	2.42
1033.504	-0.08
1033.927	-0.98
1034.351	-1.88
1034.774	-9.18
1035.198	-3.28
1035.621	-4.88
1036.045	-4.68
1036.468	6.22
1036.891	-9.68
1037.315	-7.28
1037.738	-7.18
1038.161	2.02
1038.584	-6.48
1039.008	-2.48
1039.431	-2.28
1039.854	0.62
1040.277	-4.18
1040.7	-9.88
1041.123	2.02
1041.546	-6.08
1041.969	-2.38
1042.392	-9.28
1042.815	1.42
1043.238	5.72
1043.661	4.72
1044.084	-1.18
1044.507	-0.98
1044.93	-3.48
1045.352	-2.08
1045.775	-4.38
1046.198	2.02
1046.621	3.02
1047.043	-2.28
1047.466	5.72
1047.889	-3.28
1048.311	-2.28
1048.734	-0.58
1049.156	3.92
1049.579	2.72
1050.001	-6.98
1050.424	0.12
1050.846	-5.78
1051.269	-1.78
1051.691	-2.68
1052.113	3.42
1052.536	-0.88
1052.958	-0.08
1053.38	-1.18
1053.802	-10.58
1054.225	-0.88
1054.647	-8.98
1055.069	-3.48
1055.491	3.12
1055.913	-5.18
1056.335	2.92
1056.757	1.32
1057.179	-4.58
1057.601	-3.18
1058.023	1.52
1058.445	-8.68
1058.867	-4.18
1059.289	-1.98
1059.711	-1.38
1060.133	-2.08
1060.555	-4.58
1060.976	-5.08
1061.398	-6.08
1061.82	-1.08
1062.241	-2.38
1062.663	-1.28
1063.085	-2.98
1063.506	5.62
1063.928	-3.08
1064.35	-2.88
1064.771	-11.28
1065.193	-5.88
1065.614	-5.98
1066.035	-0.48
1066.457	-3.68
1066.878	0.22
1067.3	-6.78
1067.721	-0.78
1068.142	-2.58
1068.564	-10.58
1068.985	-0.78
1069.406	-4.78
1069.827	0.82
1070.248	2.72
1070.67	-8.68
1071.091	-3.18
1071.512	-1.98
1071.933	-5.18
1072.354	-3.98
1072.775	2.52
1073.196	-5.78
1073.617	-2.98
1074.038	-2.98
1074.459	-0.58
1074.88	-2.58
1075.3	-3.78
1075.721	0.52
1076.142	-2.88
1076.563	4.12
1076.983	-5.98
1077.404	-0.88
1077.825	-10.18
1078.246	-3.58
1078.666	-10.78
1079.087	-8.08
1079.507	-3.98
1079.928	2.42
1080.348	-1.08
1080.769	-1.68
1081.189	3.72
1081.61	-3.78
1082.03	-3.18
1082.451	-8.88
1082.871	2.62
1083.291	0.62
1083.711	-9.28
1084.132	-1.98
1084.552	-0.28
1084.972	-1.38
1085.392	-11.38
1085.813	-7.58
1086.233	-12.38
1086.653	-9.98
1087.073	-0.18
1087.493	-4.08
1087.913	-3.48
1088.333	-7.68
1088.753	0.02
1089.173	2.72
1089.593	-4.38
1090.013	-0.68
1090.433	-2.58
1090.852	-6.18
1091.272	-1.68
1091.692	-0.78
1092.112	-2.58
1092.531	-10.88
1092.951	-9.18
1093.371	-5.28
1093.79	5.92
1094.21	-1.78
1094.63	-0.98
1095.049	-1.58
1095.469	-1.88
1095.888	-6.48
1096.308	4.12
1096.727	10.12
1097.146	-11.98
1097.566	0.22
1097.985	-5.68
1098.405	4.62
1098.824	-7.68
1099.243	-9.98
1099.662	-7.88
1100.082	-1.08
1100.501	6.42
1100.92	-2.08
1101.339	3.52
1101.758	-5.68
