Data from 20171114-ORNL-Ar_H_NY_Subt18_08-07-55-457.txt Node
Date: Tue Nov 14 08:07:55 EST 2017
User: Ender
Spectrometer: HR+D1039
Trigger mode: 0
Integration Time (sec): 2.730000E-2
Scans to average: 10
Electric dark correction enabled: true
Nonlinearity correction enabled: false
Boxcar width: 0
XAxis mode: Wavelengths
Number of Pixels in Spectrum: 2048
>>>>>Begin Spectral Data<<<<<
187.836	-1.14
188.309	-1.14
188.782	-1.14
189.255	-1.84
189.728	-2.64
190.201	10.06
190.674	0.26
191.147	2.56
191.619	-5.04
192.092	1.56
192.565	1.06
193.038	2.66
193.511	-1.64
193.984	-0.34
194.456	-6.54
194.929	-1.14
195.402	-0.14
195.874	2.36
196.347	3.16
196.82	-7.14
197.292	3.26
197.765	2.36
198.237	-8.24
198.71	0.96
199.182	-0.84
199.655	1.36
200.127	5.36
200.6	-2.54
201.072	0.46
201.544	-3.74
202.017	3.16
202.489	-0.04
202.961	-3.34
203.433	-6.54
203.906	-1.74
204.378	-12.44
204.85	-9.54
205.322	-13.04
205.794	-3.94
206.266	-6.24
206.739	-9.14
207.211	0.96
207.683	-6.14
208.155	-6.64
208.627	-8.94
209.099	-5.94
209.57	-8.74
210.042	-4.94
210.514	-1.64
210.986	-2.14
211.458	-11.24
211.93	-6.64
212.402	-2.34
212.873	-8.54
213.345	-9.14
213.817	-14.64
214.288	-7.84
214.76	-7.44
215.232	-3.24
215.703	1.26
216.175	-1.74
216.646	-4.14
217.118	-14.74
217.589	-8.54
218.061	-3.24
218.532	-3.14
219.004	1.86
219.475	0.36
219.946	-0.04
220.418	-10.84
220.889	3.56
221.36	-6.24
221.832	-3.64
222.303	-6.84
222.774	1.06
223.245	-9.84
223.717	-6.84
224.188	-4.54
224.659	-4.34
225.13	-5.04
225.601	-6.14
226.072	3.26
226.543	-0.54
227.014	-1.84
227.485	-5.14
227.956	-11.24
228.427	-4.64
228.898	-2.54
229.369	1.56
229.839	-9.54
230.31	-3.14
230.781	-0.04
231.252	-2.54
231.722	-4.84
232.193	-4.74
232.664	-1.64
233.135	1.26
233.605	-3.24
234.076	-2.74
234.546	0.46
235.017	2.26
235.487	-0.24
235.958	-0.74
236.428	-6.14
236.899	2.56
237.369	-0.24
237.84	-0.74
238.31	1.36
238.78	-3.44
239.251	-3.54
239.721	4.56
240.191	-0.94
240.662	1.96
241.132	0.46
241.602	1.16
242.072	1.66
242.542	0.36
243.013	-2.84
243.483	0.16
243.953	5.56
244.423	1.86
244.893	-6.64
245.363	-1.44
245.833	3.76
246.303	-0.24
246.773	6.66
247.243	2.06
247.712	2.56
248.182	3.46
248.652	5.86
249.122	-0.94
249.592	9.16
250.061	13.96
250.531	29.26
251.001	13.76
251.471	16.56
251.94	11.16
252.41	8.76
252.879	-4.14
253.349	9.46
253.818	8.66
254.288	2.76
254.757	3.56
255.227	1.16
255.696	5.86
256.166	8.26
256.635	10.06
257.105	6.16
257.574	1.46
258.043	11.06
258.513	12.56
258.982	14.26
259.451	4.56
259.92	13.06
260.389	7.16
260.859	12.26
261.328	6.76
261.797	17.66
262.266	10.06
262.735	8.86
263.204	1.26
263.673	-0.04
264.142	-3.14
264.611	0.06
265.08	4.86
265.549	-4.44
266.018	0.86
266.487	2.96
266.955	2.66
267.424	-1.94
267.893	4.96
268.362	-3.44
268.83	-0.84
269.299	8.66
269.768	4.16
270.236	7.56
270.705	0.26
271.174	5.26
271.642	14.06
272.111	10.56
272.579	20.26
273.048	23.76
273.516	27.16
273.985	19.66
274.453	20.76
274.922	17.46
275.39	8.86
275.858	3.86
276.327	6.46
276.795	14.16
277.263	11.26
277.731	28.06
278.2	46.66
278.668	52.86
279.136	45.96
279.604	14.96
280.072	15.26
280.54	15.26
281.008	12.26
281.477	15.16
281.945	13.26
282.413	11.96
282.881	12.16
283.348	8.06
283.816	13.36
284.284	14.96
284.752	17.56
285.22	13.86
285.688	21.06
286.156	18.26
286.623	40.26
287.091	47.16
287.559	24.76
288.026	13.86
288.494	16.26
288.962	5.86
289.429	11.16
289.897	16.26
290.364	14.26
290.832	16.96
291.3	10.66
291.767	17.86
292.234	23.66
292.702	14.06
293.169	15.16
293.637	24.46
294.104	16.46
294.571	6.26
295.039	9.66
295.506	18.76
295.973	19.86
296.44	13.06
296.908	16.66
297.375	20.56
297.842	20.06
298.309	16.06
298.776	10.96
299.243	18.66
299.71	15.96
300.177	14.56
300.644	21.66
301.111	15.56
301.578	21.46
302.045	17.06
302.512	21.86
302.979	24.26
303.446	18.86
303.913	18.16
304.379	20.36
304.846	22.56
305.313	16.36
305.78	20.76
306.246	27.16
306.713	21.86
307.18	24.56
307.646	25.16
308.113	23.36
308.579	22.96
309.046	22.56
309.512	26.36
309.979	15.86
310.445	26.76
310.912	21.66
311.378	35.66
311.845	30.96
312.311	30.36
312.777	28.46
313.244	33.96
313.71	33.66
314.176	31.26
314.642	27.36
315.109	26.76
315.575	32.86
316.041	33.66
316.507	33.76
316.973	39.26
317.439	29.26
317.905	33.26
318.371	33.36
318.837	34.16
319.303	28.76
319.769	34.76
320.235	29.36
320.701	35.16
321.167	37.56
321.633	27.96
322.099	33.96
322.564	35.66
323.03	38.96
323.496	39.66
323.962	38.66
324.427	37.46
324.893	38.46
325.359	35.16
325.824	36.76
326.29	31.26
326.755	36.66
327.221	36.96
327.686	36.56
328.152	41.26
328.617	42.76
329.083	44.86
329.548	46.96
330.014	45.46
330.479	39.46
330.944	36.36
331.41	34.66
331.875	42.26
332.34	40.56
332.805	42.16
333.271	46.66
333.736	47.86
334.201	50.86
334.666	45.06
335.131	50.26
335.596	56.46
336.061	48.16
336.526	39.66
336.991	41.76
337.456	54.46
337.921	39.16
338.386	39.16
338.851	44.36
339.316	44.36
339.781	44.06
340.246	47.96
340.711	43.76
341.175	54.86
341.64	47.46
342.105	50.46
342.569	54.66
343.034	55.26
343.499	53.46
343.963	44.86
344.428	66.56
344.893	58.06
345.357	60.76
345.822	61.06
346.286	64.86
346.751	65.86
347.215	64.76
347.679	78.06
348.144	102.76
348.608	76.76
349.073	68.16
349.537	74.46
350.001	77.76
350.465	84.26
350.93	78.76
351.394	82.06
351.858	72.56
352.322	87.46
352.786	80.56
353.25	99.86
353.715	113.66
354.179	98.66
354.643	123.86
355.107	124.36
355.571	104.76
356.035	97.56
356.498	114.36
356.962	116.16
357.426	126.96
357.89	122.26
358.354	89.66
358.818	81.16
359.281	79.36
359.745	72.06
360.209	76.76
360.673	67.96
361.136	79.26
361.6	82.66
362.064	86.86
362.527	87.06
362.991	88.76
363.454	75.26
363.918	79.66
364.381	84.56
364.845	85.66
365.308	84.76
365.772	85.06
366.235	82.26
366.698	80.96
367.162	85.36
367.625	80.56
368.088	91.96
368.552	92.36
369.015	93.46
369.478	99.26
369.941	100.16
370.404	94.16
370.867	107.06
371.331	108.06
371.794	113.86
372.257	112.46
372.72	120.36
373.183	112.56
373.646	109.76
374.109	106.56
374.572	109.96
375.035	112.86
375.497	110.66
375.96	109.46
376.423	104.06
376.886	111.66
377.349	112.86
377.811	106.36
378.274	103.16
378.737	104.36
379.199	108.66
379.662	111.06
380.125	121.66
380.587	119.36
381.05	123.76
381.512	130.06
381.975	131.36
382.437	137.16
382.9	128.16
383.362	133.16
383.825	137.16
384.287	148.16
384.75	139.86
385.212	141.76
385.674	147.16
386.136	140.26
386.599	121.16
387.061	129.36
387.523	130.46
387.985	138.26
388.447	157.46
388.91	146.56
389.372	161.86
389.834	156.56
390.296	147.36
390.758	162.06
391.22	168.56
391.682	208.76
392.144	295.56
392.606	229.26
393.068	171.76
393.529	180.36
393.991	159.76
394.453	156.26
394.915	159.56
395.377	198.86
395.838	219.46
396.3	165.26
396.762	141.56
397.224	135.16
397.685	134.36
398.147	133.36
398.608	127.96
399.07	133.46
399.531	141.66
399.993	142.56
400.454	156.46
400.916	147.36
401.377	150.86
401.839	150.26
402.3	147.86
402.762	162.56
403.223	187.36
403.684	174.06
404.145	161.56
404.607	159.06
405.068	173.16
405.529	177.46
405.99	189.26
406.451	182.36
406.913	172.96
407.374	169.56
407.835	161.36
408.296	169.16
408.757	172.86
409.218	187.96
409.679	176.46
410.14	177.46
410.601	181.36
411.062	191.96
411.522	204.66
411.983	196.66
412.444	185.56
412.905	179.96
413.366	188.36
413.826	205.56
414.287	227.46
414.748	271.46
415.208	250.46
415.669	208.36
416.13	212.36
416.59	205.46
417.051	220.06
417.511	232.46
417.972	240.96
418.432	259.76
418.893	289.86
419.353	261.76
419.814	202.96
420.274	183.76
420.734	182.66
421.195	203.06
421.655	207.56
422.115	198.06
422.576	195.86
423.036	196.26
423.496	207.16
423.956	216.66
424.416	227.96
424.876	265.36
425.336	274.76
425.797	267.56
426.257	258.96
426.717	253.56
427.177	240.36
427.637	227.56
428.097	245.46
428.556	251.16
429.016	275.46
429.476	273.06
429.936	281.46
430.396	284.96
430.856	305.06
431.315	323.16
431.775	355.26
432.235	392.46
432.694	349.56
433.154	384.16
433.614	403.36
434.073	351.86
434.533	296.46
434.993	275.46
435.452	286.96
435.912	295.56
436.371	293.36
436.83	291.46
437.29	270.76
437.749	249.66
438.209	255.76
438.668	280.46
439.127	292.56
439.587	271.26
440.046	253.86
440.505	262.36
440.964	283.36
441.424	326.86
441.883	319.36
442.342	264.46
442.801	232.26
443.26	228.66
443.719	231.06
444.178	223.96
444.637	225.16
445.096	226.86
445.555	226.76
446.014	228.86
446.473	240.06
446.932	242.86
447.391	236.46
447.849	233.56
448.308	222.96
448.767	221.66
449.226	239.06
449.685	247.86
450.143	255.46
450.602	245.36
451.061	239.46
451.519	238.26
451.978	236.56
452.436	242.06
452.895	246.36
453.353	263.26
453.812	244.46
454.27	247.26
454.729	238.36
455.187	244.66
455.646	243.66
456.104	250.76
456.562	264.56
457.021	273.96
457.479	261.96
457.937	282.26
458.395	269.06
458.854	259.36
459.312	267.56
459.77	290.46
460.228	262.76
460.686	248.16
461.144	257.96
461.602	251.66
462.06	257.86
462.518	261.96
462.976	260.86
463.434	266.56
463.892	263.96
464.35	276.46
464.808	292.16
465.266	266.46
465.724	272.26
466.181	277.56
466.639	273.06
467.097	293.86
467.555	313.66
468.012	308.06
468.47	316.26
468.928	339.46
469.385	347.46
469.843	354.26
470.3	360.16
470.758	371.36
471.215	388.96
471.673	412.96
472.13	416.56
472.588	422.56
473.045	383.56
473.503	379.46
473.96	394.96
474.417	407.56
474.875	441.16
475.332	479.16
475.789	475.36
476.246	479.06
476.704	489.76
477.161	516.96
477.618	532.16
478.075	570.76
478.532	621.96
478.989	702.86
479.446	817.16
479.903	797.36
480.36	821.76
480.817	872.66
481.274	982.36
481.731	1086.66
482.188	1183.56
482.645	1314.66
483.102	1413.76
483.558	1564.66
484.015	1613.76
484.472	1587.36
484.929	1528.86
485.385	1489.06
485.842	1451.76
486.299	1382.06
486.755	1311.66
487.212	1114.26
487.668	936.26
488.125	861.46
488.582	793.16
489.038	754.66
489.494	718.96
489.951	692.36
490.407	677.76
490.864	652.36
491.32	656.76
491.776	643.26
492.233	663.16
492.689	625.26
493.145	615.56
493.602	611.96
494.058	625.86
494.514	626.76
494.97	651.86
495.426	653.76
495.882	639.26
496.338	612.36
496.794	624.56
497.251	620.66
497.707	641.96
498.163	639.46
498.618	649.26
499.074	654.16
499.53	686.26
499.986	687.66
500.442	655.06
500.898	641.86
501.354	630.16
501.809	649.26
502.265	655.86
502.721	674.66
503.177	682.46
503.632	678.06
504.088	686.86
504.543	719.46
504.999	723.16
505.455	661.26
505.91	639.16
506.366	639.06
506.821	628.86
507.277	634.26
507.732	624.56
508.187	629.86
508.643	651.16
509.098	649.96
509.553	664.86
510.009	677.46
510.464	686.96
510.919	689.66
511.375	704.26
511.83	718.36
512.285	726.76
512.74	763.06
513.195	800.96
513.65	779.26
514.105	781.26
514.56	780.66
515.015	798.46
515.47	816.86
515.925	802.56
516.38	796.66
516.835	795.56
517.29	785.16
517.745	785.86
518.2	773.86
518.655	759.16
519.109	749.26
519.564	751.76
520.019	741.26
520.474	742.16
520.928	744.96
521.383	728.86
521.838	717.36
522.292	713.26
522.747	718.86
523.201	716.26
523.656	707.16
524.11	705.06
524.565	698.46
525.019	697.86
525.474	697.86
525.928	705.36
526.382	704.86
526.837	702.06
527.291	709.66
527.745	710.76
528.2	701.36
528.654	699.36
529.108	695.76
529.562	705.06
530.016	703.96
530.47	703.86
530.925	699.56
531.379	707.56
531.833	720.46
532.287	704.76
532.741	709.36
533.195	710.86
533.649	721.76
534.103	717.06
534.556	714.56
535.01	724.96
535.464	712.06
535.918	726.66
536.372	725.96
536.826	725.86
537.279	712.26
537.733	716.46
538.187	725.36
538.64	720.76
539.094	738.76
539.548	733.66
540.001	727.86
540.455	735.86
540.908	739.16
541.362	749.36
541.815	751.66
542.269	769.46
542.722	767.66
543.175	778.46
543.629	779.16
544.082	785.86
544.536	793.86
544.989	788.46
545.442	802.36
545.895	795.26
546.349	796.06
546.802	800.86
547.255	806.36
547.708	813.16
548.161	823.26
548.614	825.56
549.067	835.86
549.52	838.96
549.973	813.46
550.426	816.26
550.879	798.06
551.332	814.86
551.785	815.06
552.238	819.46
552.691	828.26
553.144	844.46
553.596	854.76
554.049	871.06
554.502	910.66
554.955	919.86
555.407	905.76
555.86	911.86
556.313	899.66
556.765	895.86
557.218	891.16
557.67	891.66
558.123	887.46
558.576	889.36
559.028	889.16
559.48	890.76
559.933	882.06
560.385	852.36
560.838	817.96
561.29	791.06
561.742	793.96
562.195	773.86
562.647	774.16
563.099	783.36
563.551	774.76
564.004	790.96
564.456	777.06
564.908	773.46
565.36	762.36
565.812	745.96
566.264	739.96
566.716	741.46
567.168	725.96
567.62	734.16
568.072	722.06
568.524	707.56
568.976	702.96
569.428	690.06
569.88	687.96
570.332	690.06
570.784	695.86
571.235	692.16
571.687	705.86
572.139	707.26
572.59	716.56
573.042	726.36
573.494	714.66
573.945	711.46
574.397	693.46
574.849	699.46
575.3	692.76
575.752	689.46
576.203	692.56
576.655	689.96
577.106	684.76
577.557	676.06
578.009	682.96
578.46	671.16
578.912	664.76
579.363	681.36
579.814	687.06
580.265	677.76
580.717	684.16
581.168	681.36
581.619	694.86
582.07	679.06
582.521	677.56
582.972	684.46
583.423	677.86
583.875	693.46
584.326	711.16
584.777	761.16
585.227	844.76
585.678	932.46
586.129	1012.26
586.58	1081.96
587.031	1174.46
587.482	1317.26
587.933	1503.36
588.384	1304.86
588.834	982.46
589.285	829.56
589.736	792.36
590.186	793.76
590.637	775.76
591.088	756.76
591.538	756.46
591.989	735.76
592.439	741.66
592.89	729.16
593.34	724.06
593.791	722.76
594.241	717.96
594.692	720.86
595.142	725.16
595.593	713.76
596.043	729.46
596.493	727.26
596.943	727.86
597.394	729.26
597.844	723.26
598.294	740.16
598.744	759.06
599.195	787.06
599.645	827.66
600.095	875.56
600.545	922.46
600.995	992.76
601.445	1042.26
601.895	1094.06
602.345	1157.76
602.795	1132.86
603.245	1077.56
603.695	1021.56
604.145	980.56
604.594	926.46
605.044	872.16
605.494	813.66
605.944	765.06
606.393	757.06
606.843	738.26
607.293	740.06
607.743	742.66
608.192	751.26
608.642	778.06
609.091	773.56
609.541	774.56
609.99	777.66
610.44	776.76
610.889	736.56
611.339	716.46
611.788	701.06
612.238	711.56
612.687	730.96
613.136	735.46
613.586	759.16
614.035	751.86
614.484	760.76
614.933	775.86
615.383	759.36
615.832	747.66
616.281	734.06
616.73	702.36
617.179	685.26
617.628	657.86
618.077	644.06
618.526	628.46
618.975	619.86
619.424	632.36
619.873	620.96
620.322	627.66
620.771	614.56
621.22	610.56
621.669	596.26
622.118	598.36
622.567	585.56
623.015	581.36
623.464	576.56
623.913	562.96
624.361	564.86
624.81	563.26
625.259	561.76
625.707	566.46
626.156	567.06
626.604	580.56
627.053	569.66
627.501	574.96
627.95	583.66
628.398	593.26
628.847	583.26
629.295	581.56
629.744	578.76
630.192	576.66
630.64	582.96
631.089	570.66
631.537	589.86
631.985	589.96
632.433	615.76
632.881	616.26
633.33	676.86
633.778	654.86
634.226	584.96
634.674	577.26
635.122	587.06
635.57	613.06
636.018	634.46
636.466	590.36
636.914	569.86
637.362	577.16
637.81	589.86
638.258	588.26
638.705	595.96
639.153	615.16
639.601	628.86
640.049	654.26
640.497	685.66
640.944	701.86
641.392	644.66
641.84	619.96
642.287	595.86
642.735	583.66
643.182	580.06
643.63	582.16
644.078	588.56
644.525	600.66
644.973	609.06
645.42	621.26
645.867	631.76
646.315	653.76
646.762	661.76
647.21	708.86
647.657	729.26
648.104	762.06
648.551	786.26
648.999	856.26
649.446	933.46
649.893	1034.46
650.34	1187.36
650.787	1430.96
651.234	1780.56
651.682	2314.26
652.129	3197.36
652.576	4610.86
653.023	6772.86
653.47	9272.76
653.917	11504.16
654.363	13169.26
654.81	14463.36
655.257	13769.46
655.704	9042.16
656.151	5338.36
656.598	3470.36
657.044	2450.36
657.491	1892.36
657.938	1514.16
658.385	1268.16
658.831	1101.96
659.278	984.56
659.724	870.66
660.171	803.06
660.618	728.36
661.064	706.26
661.511	683.86
661.957	672.36
662.404	639.86
662.85	663.76
663.296	631.96
663.743	572.76
664.189	551.36
664.635	546.26
665.082	539.86
665.528	534.36
665.974	520.46
666.42	518.56
666.867	515.06
667.313	497.16
667.759	487.76
668.205	488.66
668.651	485.86
669.097	487.86
669.543	505.16
669.989	482.36
670.435	454.66
670.881	447.86
671.327	454.56
671.773	480.06
672.219	497.86
672.665	561.06
673.11	588.46
673.556	644.16
674.002	677.26
674.448	664.36
674.893	559.26
675.339	484.86
675.785	448.36
676.23	429.06
676.676	396.76
677.122	392.46
677.567	379.26
678.013	374.76
678.458	362.86
678.904	364.66
679.349	352.06
679.794	363.26
680.24	359.86
680.685	354.16
681.131	345.46
681.576	355.96
682.021	357.56
682.466	350.96
682.912	356.36
683.357	355.46
683.802	383.16
684.247	420.36
684.692	465.26
685.137	505.56
685.583	537.96
686.028	565.26
686.473	523.36
686.918	453.26
687.363	421.46
687.807	407.26
688.252	366.86
688.697	358.36
689.142	343.96
689.587	336.46
690.032	329.36
690.477	347.16
690.921	359.16
691.366	393.86
691.811	409.16
692.255	435.66
692.7	471.36
693.145	520.26
693.589	717.96
694.034	1161.36
694.478	1570.16
694.923	1753.76
695.367	2281.46
695.812	1202.86
696.256	506.56
696.701	379.56
697.145	346.86
697.59	339.26
698.034	336.26
698.478	336.16
698.922	327.36
699.367	335.26
699.811	343.96
700.255	371.86
700.699	398.46
701.143	431.66
701.588	488.06
702.032	519.56
702.476	512.56
702.92	497.56
703.364	506.56
703.808	669.76
704.252	1073.36
704.696	1496.96
705.14	1697.46
705.584	2142.96
706.027	1073.96
706.471	532.76
706.915	404.16
707.359	358.26
707.803	318.76
708.246	319.16
708.69	319.86
709.134	314.46
709.577	321.96
710.021	319.56
710.465	309.06
710.908	310.26
711.352	299.26
711.795	318.76
712.239	357.76
712.682	390.86
713.126	423.46
713.569	473.06
714.012	371.26
714.456	327.46
714.899	298.36
715.342	278.56
715.786	267.26
716.229	264.16
716.672	256.46
717.115	254.16
717.558	251.56
718.002	260.96
718.445	268.96
718.888	291.86
719.331	300.16
719.774	313.66
720.217	309.96
720.66	290.26
721.103	276.96
721.546	261.66
721.989	254.96
722.432	235.86
722.874	242.26
723.317	233.96
723.76	241.66
724.203	267.66
724.645	333.76
725.088	462.56
725.531	579.36
725.974	651.76
726.416	554.46
726.859	306.76
727.301	247.36
727.744	247.56
728.187	245.46
728.629	247.76
729.071	247.66
729.514	260.66
729.956	277.26
730.399	285.16
730.841	289.56
731.283	278.76
731.726	273.76
732.168	264.66
732.61	269.46
733.053	289.46
733.495	315.46
733.937	361.06
734.379	398.16
734.821	441.26
735.263	554.86
735.705	865.46
736.148	1643.06
736.59	2631.76
737.032	3063.86
737.474	2497.46
737.916	806.16
738.357	437.06
738.799	332.36
739.241	307.86
739.683	289.36
740.125	296.96
740.567	300.16
741.008	321.96
741.45	314.16
741.892	324.36
742.334	356.86
742.775	363.26
743.217	336.86
743.658	273.96
744.1	256.46
744.542	270.56
744.983	317.66
745.425	346.86
745.866	341.26
746.307	288.56
746.749	288.26
747.19	339.36
747.632	474.46
748.073	932.86
748.514	1932.06
748.956	2897.26
749.397	3631.96
749.838	3006.96
750.279	2969.66
750.72	1509.36
751.162	553.76
751.603	320.76
752.044	253.96
752.485	224.46
752.926	217.26
753.367	204.96
753.808	197.76
754.249	187.56
754.69	191.26
755.131	188.46
755.572	183.66
756.013	183.96
756.453	191.96
756.894	189.56
757.335	193.36
757.776	204.56
758.216	202.06
758.657	194.96
759.098	208.16
759.538	228.76
759.979	264.86
760.42	383.76
760.86	730.56
761.301	1913.86
761.741	4566.26
762.182	6418.56
762.622	4510.36
763.063	1325.36
763.503	548.46
763.943	351.76
764.384	348.46
764.824	420.76
765.264	440.76
765.705	325.96
766.145	210.36
766.585	188.96
767.025	182.06
767.465	188.56
767.906	249.76
768.346	331.56
768.786	348.46
769.226	280.16
769.666	332.56
770.106	644.86
770.546	1628.96
770.986	2658.36
771.426	2365.26
771.866	810.06
772.306	332.86
772.745	210.66
773.185	176.36
773.625	171.36
774.065	171.96
774.505	205.76
774.944	315.56
775.384	692.76
775.824	1223.86
776.263	1172.56
776.703	516.96
777.142	224.06
777.582	156.26
778.021	138.56
778.461	142.96
778.9	152.76
779.34	136.66
779.779	125.56
780.219	116.86
780.658	109.36
781.097	117.26
781.537	114.66
781.976	108.36
782.415	109.16
782.855	103.06
783.294	101.86
783.733	113.26
784.172	111.06
784.611	102.56
785.05	111.46
785.489	113.46
785.928	126.76
786.367	128.26
786.806	123.56
787.245	124.46
787.684	140.26
788.123	152.26
788.562	131.66
789.001	129.76
789.44	122.96
789.879	116.66
790.317	124.46
790.756	129.56
791.195	124.16
791.634	152.96
792.072	212.86
792.511	379.96
792.95	1051.86
793.388	2161.56
793.827	1940.26
794.265	682.16
794.704	287.66
795.142	187.66
795.581	153.26
796.019	130.86
796.458	134.16
796.896	121.76
797.334	134.16
797.773	158.36
798.211	224.36
798.649	456.46
799.087	1044.96
799.526	1632.76
799.964	2047.66
800.402	2005.26
800.84	765.46
801.278	308.76
801.716	191.96
802.154	156.36
802.592	144.36
803.03	141.46
803.468	134.96
803.906	144.26
804.344	141.46
804.782	144.26
805.22	135.96
805.658	137.86
806.096	156.26
806.533	159.36
806.971	178.66
807.409	222.16
807.847	329.76
808.284	698.46
808.722	1938.16
809.16	3321.56
809.597	3208.06
810.035	5490.26
810.472	5720.36
810.91	2088.26
811.347	814.26
811.785	411.96
812.222	254.46
812.66	199.56
813.097	169.16
813.535	140.66
813.972	135.56
814.409	125.26
814.846	110.26
815.284	110.66
815.721	100.76
816.158	108.86
816.595	122.96
817.032	183.96
817.47	199.16
817.907	166.96
818.344	153.26
818.781	119.36
819.218	101.76
819.655	125.06
820.092	190.16
820.529	208.06
820.966	177.56
821.403	137.46
821.839	115.06
822.276	106.26
822.713	124.86
823.15	141.56
823.587	119.46
824.023	148.46
824.46	320.76
824.897	930.06
825.333	1356.26
825.77	583.46
826.206	236.76
826.643	136.76
827.08	105.36
827.516	87.96
827.953	87.96
828.389	82.16
828.825	73.96
829.262	70.96
829.698	62.76
830.135	58.86
830.571	61.16
831.007	64.66
831.443	65.66
831.88	61.26
832.316	65.96
832.752	73.66
833.188	61.16
833.624	65.16
834.06	65.76
834.497	73.36
834.933	70.26
835.369	80.56
835.805	69.86
836.241	74.86
836.677	87.46
837.112	94.36
837.548	105.96
837.984	131.06
838.42	198.56
838.856	522.36
839.292	1544.26
839.727	2299.06
840.163	1083.66
840.599	955.46
841.034	2068.96
841.47	2100.56
841.906	783.46
842.341	342.26
842.777	232.26
843.212	321.06
843.648	312.16
844.083	152.06
844.519	98.66
844.954	79.96
845.39	64.06
845.825	55.06
846.261	56.96
846.696	56.26
847.131	58.86
847.566	59.76
848.002	54.96
848.437	56.56
848.872	64.36
849.307	59.96
849.742	87.26
850.177	187.16
850.613	575.86
851.048	877.46
851.483	379.86
851.918	155.36
852.353	84.86
852.788	67.76
853.223	58.66
853.657	56.06
854.092	47.16
854.527	44.06
854.962	41.76
855.397	47.46
855.832	52.06
856.266	47.06
856.701	46.16
857.136	37.66
857.57	40.96
858.005	51.96
858.44	55.36
858.874	52.96
859.309	55.06
859.743	44.96
860.178	51.56
860.612	36.06
861.047	51.36
861.481	66.96
861.915	65.66
862.35	49.06
862.784	38.36
863.218	35.56
863.653	33.76
864.087	52.56
864.521	58.06
864.955	71.46
865.39	166.96
865.824	180.46
866.258	113.86
866.692	163.46
867.126	170.76
867.56	104.66
867.994	52.46
868.428	34.26
868.862	46.46
869.296	56.26
869.73	60.66
870.164	53.06
870.598	47.76
871.031	37.96
871.465	29.36
871.899	31.26
872.333	26.06
872.766	28.36
873.2	24.56
873.634	26.86
874.067	24.06
874.501	23.06
874.935	30.26
875.368	30.26
875.802	23.06
876.235	24.06
876.669	18.86
877.102	23.06
877.535	29.66
877.969	21.46
878.402	26.36
878.836	16.86
879.269	24.76
879.702	27.76
880.135	20.86
880.569	22.16
881.002	29.16
881.435	17.06
881.868	21.76
882.301	32.16
882.734	15.66
883.167	21.26
883.601	19.96
884.034	21.56
884.467	15.46
884.899	14.76
885.332	18.66
885.765	18.36
886.198	10.46
886.631	20.26
887.064	25.06
887.497	21.66
887.929	24.56
888.362	14.36
888.795	8.26
889.228	16.46
889.66	18.76
890.093	25.26
890.526	18.76
890.958	16.76
891.391	18.56
891.823	20.56
892.256	19.16
892.688	10.66
893.121	18.16
893.553	12.06
893.985	25.96
894.418	20.26
894.85	13.06
895.282	13.26
895.715	17.76
896.147	13.56
896.579	19.26
897.011	14.06
897.444	16.76
897.876	14.06
898.308	18.46
898.74	12.96
899.172	11.76
899.604	23.26
900.036	19.46
900.468	13.96
900.9	13.66
901.332	17.16
901.764	9.26
902.196	26.46
902.628	24.86
903.06	17.26
903.491	26.96
903.923	24.46
904.355	19.16
904.787	24.16
905.218	23.06
905.65	23.26
906.082	16.16
906.513	13.66
906.945	16.86
907.376	11.86
907.808	26.46
908.239	16.76
908.671	23.46
909.102	27.26
909.534	22.46
909.965	48.96
910.397	98.56
910.828	316.66
911.259	482.66
911.691	222.66
912.122	109.66
912.553	56.76
912.984	33.16
913.415	28.96
913.847	23.86
914.278	18.26
914.709	13.76
915.14	16.16
915.571	21.26
916.002	12.16
916.433	16.16
916.864	19.06
917.295	12.86
917.726	19.26
918.157	18.16
918.587	31.46
919.018	24.56
919.449	24.86
919.88	20.76
920.311	26.46
920.741	50.26
921.172	171.26
921.603	152.36
922.033	71.16
922.464	45.06
922.895	23.76
923.325	19.16
923.756	17.06
924.186	17.76
924.617	24.16
925.047	42.16
925.478	52.36
925.908	46.46
926.338	21.96
926.769	19.56
927.199	23.56
927.629	8.66
928.06	13.16
928.49	20.66
928.92	18.96
929.35	11.66
929.78	6.76
930.21	8.56
930.641	8.86
931.071	7.76
931.501	8.36
931.931	7.66
932.361	7.16
932.791	-2.64
933.221	3.66
933.651	8.96
934.08	15.86
934.51	30.76
934.94	6.76
935.37	6.16
935.8	10.46
936.229	9.16
936.659	8.36
937.089	1.36
937.519	7.36
937.948	21.76
938.378	17.76
938.807	3.46
939.237	-0.84
939.666	6.46
940.096	-3.04
940.525	0.56
940.955	7.36
941.384	6.66
941.814	-3.24
942.243	-2.64
942.672	-1.54
943.102	-0.94
943.531	1.86
943.96	5.36
944.39	0.26
944.819	-3.74
945.248	5.86
945.677	2.36
946.106	14.36
946.535	6.46
946.964	-0.74
947.393	-1.14
947.822	-2.64
948.251	-1.04
948.68	5.36
949.109	1.76
949.538	9.76
949.967	1.36
950.396	-0.94
950.825	-4.14
951.254	-0.14
951.682	-3.94
952.111	1.16
952.54	7.56
952.969	-4.84
953.397	-5.24
953.826	0.26
954.254	0.26
954.683	-0.14
955.112	-7.24
955.54	1.06
955.969	2.26
956.397	3.36
956.826	-4.14
957.254	2.46
957.682	-3.14
958.111	5.26
958.539	3.36
958.967	0.96
959.396	1.76
959.824	1.96
960.252	7.86
960.68	-5.74
961.109	1.16
961.537	-4.54
961.965	-4.94
962.393	4.36
962.821	-3.94
963.249	-3.64
963.677	1.96
964.105	4.86
964.533	47.46
964.961	43.76
965.389	22.46
965.817	6.36
966.245	0.16
966.672	3.46
967.1	-6.44
967.528	-1.74
967.956	-4.54
968.383	0.36
968.811	-4.84
969.239	-3.44
969.666	-5.14
970.094	0.56
970.522	6.86
970.949	-7.44
971.377	-5.34
971.804	-0.34
972.232	0.86
972.659	-1.24
973.087	-8.24
973.514	-5.54
973.941	-1.34
974.369	7.16
974.796	-4.04
975.223	-1.34
975.651	2.86
976.078	3.56
976.505	0.36
976.932	3.96
977.359	11.76
977.786	15.36
978.214	2.26
978.641	-2.74
979.068	-0.14
979.495	-4.74
979.922	1.46
980.349	-0.94
980.776	4.96
981.202	0.06
981.629	6.36
982.056	6.16
982.483	-3.44
982.91	2.06
983.337	-7.44
983.763	0.96
984.19	-7.54
984.617	-4.64
985.043	-4.54
985.47	-3.74
985.897	-10.14
986.323	-12.44
986.75	6.26
987.176	1.26
987.603	1.26
988.029	-4.04
988.456	-9.24
988.882	1.66
989.308	-7.94
989.735	-0.94
990.161	0.76
990.587	-6.24
991.014	-4.94
991.44	7.66
991.866	1.26
992.292	-4.64
992.719	-2.74
993.145	1.76
993.571	-0.94
993.997	-0.34
994.423	-0.24
994.849	-3.24
995.275	2.96
995.701	-3.24
996.127	-10.44
996.553	1.36
996.979	-1.84
997.405	1.36
997.83	-9.24
998.256	-10.74
998.682	-7.04
999.108	-7.54
999.534	-0.44
999.959	-0.14
1000.385	-7.14
1000.811	-0.14
1001.236	-9.64
1001.662	-6.24
1002.087	-4.64
1002.513	5.26
1002.938	-0.14
1003.364	-5.14
1003.789	-7.54
1004.215	-0.94
1004.64	3.86
1005.066	3.86
1005.491	-0.34
1005.916	-5.74
1006.342	-0.04
1006.767	-13.14
1007.192	2.86
1007.617	-2.84
1008.042	-5.64
1008.468	-4.64
1008.893	-4.44
1009.318	-1.34
1009.743	-2.64
1010.168	-0.84
1010.593	-1.64
1011.018	-4.14
1011.443	-4.44
1011.868	1.06
1012.293	-8.04
1012.718	-10.74
1013.143	0.46
1013.567	0.96
1013.992	-4.84
1014.417	-12.74
1014.842	3.16
1015.267	-1.84
1015.691	-4.34
1016.116	5.46
1016.541	-6.74
1016.965	5.56
1017.39	3.26
1017.814	-1.54
1018.239	5.56
1018.663	-5.94
1019.088	-11.94
1019.512	-1.94
1019.937	-6.94
1020.361	-0.24
1020.785	-8.14
1021.21	1.26
1021.634	-3.04
1022.058	-2.74
1022.483	1.86
1022.907	-1.94
1023.331	-10.14
1023.755	-3.74
1024.179	-2.14
1024.604	-5.84
1025.028	-3.44
1025.452	-5.34
1025.876	-0.44
1026.3	-4.94
1026.724	-12.54
1027.148	0.06
1027.572	-6.64
1027.996	-2.04
1028.42	3.16
1028.843	-7.04
1029.267	-6.04
1029.691	-0.44
1030.115	-6.64
1030.539	-9.84
1030.962	-5.94
1031.386	-7.74
1031.81	2.86
1032.233	-3.24
1032.657	-0.74
1033.08	-0.84
1033.504	-5.14
1033.927	-1.04
1034.351	4.26
1034.774	-9.44
1035.198	-6.84
1035.621	-7.44
1036.045	-11.94
1036.468	0.46
1036.891	-7.54
1037.315	-5.54
1037.738	-12.14
1038.161	-5.04
1038.584	-4.14
1039.008	-11.44
1039.431	-2.04
1039.854	-2.64
1040.277	-8.44
1040.7	-12.24
1041.123	-0.94
1041.546	-9.74
1041.969	-10.94
1042.392	-7.94
1042.815	-5.84
1043.238	2.26
1043.661	0.56
1044.084	-6.94
1044.507	-7.34
1044.93	-3.24
1045.352	-6.44
1045.775	-0.64
1046.198	-5.04
1046.621	1.66
1047.043	4.56
1047.466	6.86
1047.889	-4.24
1048.311	-9.74
1048.734	-6.84
1049.156	2.46
1049.579	2.36
1050.001	-4.44
1050.424	-6.04
1050.846	-5.64
1051.269	0.06
1051.691	-4.54
1052.113	-2.34
1052.536	-2.14
1052.958	-5.84
1053.38	0.76
1053.802	-3.74
1054.225	-1.74
1054.647	-15.24
1055.069	-5.34
1055.491	3.06
1055.913	-11.34
1056.335	-2.44
1056.757	-0.14
1057.179	-6.54
1057.601	-3.64
1058.023	-4.74
1058.445	-8.14
1058.867	1.36
1059.289	-4.14
1059.711	-4.84
1060.133	-0.14
1060.555	-5.84
1060.976	-8.24
1061.398	-8.94
1061.82	-8.34
1062.241	-9.94
1062.663	-9.64
1063.085	-11.14
1063.506	-4.94
1063.928	-9.04
1064.35	-5.84
1064.771	-4.84
1065.193	-9.14
1065.614	-12.54
1066.035	-3.64
1066.457	-2.54
1066.878	2.66
1067.3	-2.64
1067.721	-4.24
1068.142	-9.74
1068.564	-3.84
1068.985	-3.24
1069.406	-5.94
1069.827	-5.34
1070.248	0.06
1070.67	-9.74
1071.091	-5.54
1071.512	0.66
1071.933	-3.64
1072.354	-6.34
1072.775	-8.94
1073.196	-0.94
1073.617	-1.74
1074.038	-4.74
1074.459	-2.44
1074.88	-5.84
1075.3	-2.84
1075.721	-11.34
1076.142	2.96
1076.563	-1.24
1076.983	-15.74
1077.404	-7.64
1077.825	-4.94
1078.246	0.76
1078.666	-13.84
1079.087	-2.94
1079.507	-9.04
1079.928	2.96
1080.348	-5.14
1080.769	-5.04
1081.189	-1.54
1081.61	-4.44
1082.03	-5.74
1082.451	-6.94
1082.871	-2.74
1083.291	-6.74
1083.711	-14.44
1084.132	-9.64
1084.552	-1.94
1084.972	0.16
1085.392	-11.34
1085.813	-7.74
1086.233	-7.54
1086.653	-10.94
1087.073	-6.34
1087.493	-8.54
1087.913	-4.04
1088.333	-6.44
1088.753	-4.14
1089.173	-0.14
1089.593	-4.14
1090.013	2.66
1090.433	-4.24
1090.852	-2.34
1091.272	-0.24
1091.692	1.46
1092.112	-7.14
1092.531	-6.94
1092.951	-13.74
1093.371	-6.34
1093.79	-3.74
1094.21	-7.84
1094.63	-5.84
1095.049	-11.14
1095.469	0.26
1095.888	-4.04
1096.308	1.76
1096.727	0.96
1097.146	-3.44
1097.566	-1.84
1097.985	-5.14
1098.405	-0.14
1098.824	-10.84
1099.243	-11.34
1099.662	-8.14
1100.082	-4.34
1100.501	-1.54
1100.92	-5.64
1101.339	-5.14
1101.758	-2.94
