Data from 20171114-ORNL-Ar_H_NY_Subt18_08-06-31-926.txt Node
Date: Tue Nov 14 08:06:31 EST 2017
User: Ender
Spectrometer: HR+D1039
Trigger mode: 0
Integration Time (sec): 2.730000E-2
Scans to average: 10
Electric dark correction enabled: true
Nonlinearity correction enabled: false
Boxcar width: 0
XAxis mode: Wavelengths
Number of Pixels in Spectrum: 2048
>>>>>Begin Spectral Data<<<<<
187.836	-1.31
188.309	-1.31
188.782	-1.31
189.255	2.29
189.728	-2.61
190.201	5.69
190.674	-3.21
191.147	-0.81
191.619	-7.41
192.092	3.79
192.565	2.99
193.038	1.39
193.511	1.19
193.984	-0.41
194.456	-1.51
194.929	-2.31
195.402	0.89
195.874	1.29
196.347	-2.41
196.82	-2.51
197.292	5.49
197.765	-2.41
198.237	-3.41
198.71	2.89
199.182	2.29
199.655	4.19
200.127	1.09
200.6	-5.41
201.072	-4.51
201.544	-8.31
202.017	-4.61
202.489	0.99
202.961	-4.81
203.433	-2.01
203.906	-5.01
204.378	-1.81
204.85	-3.81
205.322	-9.51
205.794	-0.11
206.266	-7.81
206.739	-9.21
207.211	0.29
207.683	-5.01
208.155	-7.51
208.627	-9.51
209.099	-1.31
209.57	-7.81
210.042	-7.41
210.514	-3.21
210.986	1.79
211.458	-5.41
211.93	0.49
212.402	1.59
212.873	-4.51
213.345	-8.21
213.817	-14.71
214.288	-0.01
214.76	-9.01
215.232	0.69
215.703	-1.91
216.175	-9.11
216.646	-8.61
217.118	-11.31
217.589	-9.31
218.061	-4.11
218.532	-1.21
219.004	-4.51
219.475	-2.01
219.946	-3.51
220.418	-7.41
220.889	-0.01
221.36	-3.61
221.832	2.89
222.303	-9.31
222.774	3.59
223.245	-11.81
223.717	-4.51
224.188	-0.51
224.659	-9.41
225.13	-10.51
225.601	-6.11
226.072	3.89
226.543	-3.71
227.014	1.29
227.485	-4.01
227.956	-6.21
228.427	0.39
228.898	-1.71
229.369	5.79
229.839	-3.31
230.31	-5.71
230.781	-0.01
231.252	-2.51
231.722	-1.81
232.193	-0.01
232.664	-6.81
233.135	2.99
233.605	-3.01
234.076	-10.61
234.546	1.39
235.017	5.99
235.487	-1.41
235.958	0.59
236.428	3.49
236.899	1.19
237.369	6.99
237.84	2.29
238.31	9.89
238.78	4.69
239.251	-1.81
239.721	3.99
240.191	0.39
240.662	-0.01
241.132	-4.01
241.602	-2.91
242.072	-0.61
242.542	5.59
243.013	0.59
243.483	-0.31
243.953	5.19
244.423	-5.91
244.893	-1.31
245.363	2.69
245.833	7.09
246.303	-2.81
246.773	7.99
247.243	3.59
247.712	0.49
248.182	4.89
248.652	2.59
249.122	-6.41
249.592	6.19
250.061	18.29
250.531	34.29
251.001	18.99
251.471	21.39
251.94	14.19
252.41	6.09
252.879	2.69
253.349	13.39
253.818	7.79
254.288	3.19
254.757	4.59
255.227	6.59
255.696	2.99
256.166	4.49
256.635	13.09
257.105	9.19
257.574	6.89
258.043	3.79
258.513	13.09
258.982	12.29
259.451	5.59
259.92	10.99
260.389	9.89
260.859	21.99
261.328	11.29
261.797	13.79
262.266	10.99
262.735	4.89
263.204	7.09
263.673	1.79
264.142	6.59
264.611	-3.61
265.08	2.19
265.549	-0.91
266.018	8.09
266.487	-1.91
266.955	-1.71
267.424	-4.51
267.893	4.99
268.362	3.89
268.83	5.59
269.299	8.29
269.768	5.49
270.236	5.49
270.705	3.59
271.174	4.29
271.642	11.29
272.111	8.49
272.579	12.69
273.048	29.09
273.516	27.69
273.985	23.89
274.453	21.19
274.922	19.49
275.39	12.79
275.858	7.69
276.327	13.49
276.795	20.19
277.263	10.89
277.731	30.09
278.2	52.99
278.668	55.89
279.136	48.39
279.604	20.59
280.072	15.29
280.54	10.79
281.008	8.59
281.477	13.39
281.945	10.79
282.413	15.79
282.881	16.59
283.348	5.69
283.816	15.59
284.284	8.99
284.752	19.59
285.22	12.19
285.688	16.49
286.156	16.69
286.623	40.89
287.091	52.79
287.559	28.89
288.026	15.79
288.494	19.79
288.962	6.69
289.429	8.99
289.897	18.19
290.364	16.49
290.832	18.39
291.3	14.69
291.767	19.89
292.234	11.69
292.702	10.09
293.169	21.89
293.637	22.39
294.104	20.09
294.571	8.29
295.039	12.59
295.506	12.09
295.973	21.39
296.44	22.09
296.908	21.29
297.375	18.89
297.842	18.09
298.309	12.99
298.776	12.69
299.243	17.79
299.71	11.79
300.177	19.79
300.644	21.09
301.111	24.39
301.578	21.59
302.045	15.39
302.512	25.19
302.979	22.99
303.446	25.29
303.913	17.49
304.379	18.19
304.846	29.19
305.313	23.59
305.78	22.59
306.246	25.79
306.713	29.69
307.18	23.49
307.646	29.29
308.113	24.39
308.579	22.39
309.046	25.29
309.512	28.29
309.979	19.89
310.445	26.79
310.912	32.89
311.378	29.89
311.845	29.19
312.311	32.19
312.777	36.09
313.244	30.99
313.71	37.19
314.176	28.19
314.642	25.59
315.109	34.99
315.575	34.59
316.041	39.29
316.507	33.99
316.973	35.89
317.439	39.29
317.905	39.59
318.371	37.09
318.837	39.89
319.303	32.99
319.769	34.49
320.235	38.49
320.701	40.29
321.167	32.59
321.633	40.49
322.099	34.79
322.564	38.69
323.03	39.59
323.496	38.29
323.962	37.29
324.427	39.29
324.893	43.79
325.359	40.49
325.824	35.89
326.29	32.79
326.755	47.59
327.221	39.29
327.686	42.29
328.152	47.69
328.617	38.29
329.083	42.19
329.548	53.29
330.014	43.09
330.479	31.59
330.944	41.29
331.41	35.19
331.875	44.39
332.34	37.69
332.805	42.29
333.271	48.29
333.736	47.99
334.201	53.39
334.666	48.79
335.131	51.99
335.596	55.29
336.061	49.99
336.526	44.19
336.991	53.39
337.456	52.59
337.921	46.39
338.386	41.09
338.851	41.19
339.316	45.49
339.781	46.49
340.246	55.69
340.711	43.59
341.175	53.29
341.64	48.59
342.105	57.39
342.569	54.49
343.034	59.49
343.499	63.29
343.963	52.89
344.428	71.19
344.893	63.49
345.357	57.99
345.822	56.49
346.286	80.69
346.751	73.49
347.215	63.69
347.679	77.49
348.144	94.59
348.608	80.99
349.073	74.79
349.537	75.39
350.001	82.09
350.465	83.89
350.93	79.79
351.394	86.99
351.858	76.69
352.322	90.19
352.786	84.89
353.25	100.59
353.715	112.99
354.179	99.89
354.643	124.89
355.107	130.59
355.571	110.99
356.035	106.89
356.498	121.39
356.962	124.69
357.426	137.09
357.89	118.29
358.354	91.09
358.818	83.99
359.281	85.89
359.745	77.29
360.209	76.19
360.673	72.19
361.136	83.09
361.6	85.19
362.064	91.69
362.527	82.39
362.991	90.89
363.454	82.99
363.918	81.79
364.381	76.39
364.845	86.69
365.308	94.29
365.772	84.29
366.235	90.29
366.698	82.59
367.162	87.79
367.625	86.49
368.088	89.09
368.552	93.99
369.015	94.29
369.478	105.19
369.941	95.39
370.404	100.59
370.867	105.19
371.331	117.69
371.794	122.29
372.257	110.29
372.72	115.79
373.183	110.59
373.646	103.09
374.109	104.19
374.572	109.19
375.035	114.89
375.497	114.99
375.96	107.59
376.423	106.89
376.886	113.59
377.349	111.39
377.811	105.39
378.274	108.09
378.737	108.29
379.199	108.69
379.662	114.59
380.125	121.59
380.587	117.29
381.05	127.19
381.512	134.69
381.975	139.39
382.437	135.49
382.9	136.89
383.362	134.59
383.825	146.09
384.287	148.99
384.75	149.89
385.212	142.49
385.674	140.19
386.136	140.09
386.599	126.39
387.061	132.69
387.523	138.79
387.985	142.79
388.447	149.99
388.91	155.99
389.372	165.49
389.834	151.19
390.296	154.49
390.758	161.49
391.22	182.29
391.682	219.69
392.144	318.89
392.606	238.59
393.068	174.09
393.529	172.19
393.991	163.89
394.453	152.59
394.915	162.99
395.377	207.79
395.838	224.69
396.3	160.09
396.762	145.09
397.224	141.59
397.685	138.29
398.147	136.79
398.608	137.09
399.07	124.79
399.531	141.69
399.993	145.09
400.454	160.49
400.916	152.79
401.377	152.39
401.839	150.09
402.3	158.59
402.762	164.79
403.223	188.29
403.684	184.99
404.145	169.89
404.607	165.69
405.068	170.09
405.529	174.99
405.99	187.99
406.451	184.99
406.913	177.29
407.374	167.39
407.835	170.69
408.296	174.99
408.757	183.59
409.218	197.09
409.679	190.29
410.14	179.79
410.601	181.79
411.062	200.39
411.522	197.09
411.983	203.29
412.444	178.49
412.905	185.79
413.366	192.49
413.826	207.29
414.287	223.39
414.748	268.99
415.208	247.69
415.669	222.79
416.13	217.99
416.59	211.79
417.051	219.99
417.511	226.59
417.972	251.19
418.432	254.89
418.893	297.59
419.353	258.29
419.814	201.89
420.274	186.79
420.734	184.79
421.195	205.69
421.655	204.99
422.115	206.39
422.576	204.69
423.036	208.39
423.496	219.39
423.956	220.59
424.416	235.39
424.876	270.49
425.336	267.59
425.797	267.89
426.257	271.59
426.717	253.39
427.177	245.09
427.637	231.99
428.097	244.59
428.556	252.69
429.016	277.39
429.476	271.59
429.936	289.19
430.396	289.89
430.856	306.09
431.315	326.89
431.775	362.89
432.235	398.69
432.694	372.79
433.154	382.59
433.614	411.79
434.073	359.69
434.533	306.89
434.993	275.99
435.452	303.79
435.912	308.19
436.371	300.29
436.83	294.09
437.29	279.19
437.749	260.39
438.209	260.59
438.668	290.49
439.127	300.39
439.587	273.69
440.046	248.09
440.505	259.89
440.964	280.09
441.424	338.49
441.883	330.29
442.342	267.89
442.801	228.49
443.26	230.89
443.719	226.99
444.178	228.89
444.637	226.99
445.096	223.99
445.555	233.09
446.014	226.39
446.473	235.99
446.932	239.49
447.391	229.19
447.849	236.39
448.308	227.19
448.767	229.59
449.226	244.19
449.685	245.79
450.143	252.59
450.602	246.69
451.061	234.09
451.519	239.89
451.978	240.09
452.436	243.59
452.895	247.49
453.353	255.49
453.812	250.59
454.27	247.49
454.729	245.69
455.187	247.99
455.646	256.49
456.104	255.89
456.562	271.09
457.021	276.79
457.479	268.59
457.937	287.99
458.395	271.49
458.854	257.59
459.312	266.29
459.77	283.09
460.228	268.29
460.686	254.29
461.144	261.29
461.602	247.29
462.06	246.89
462.518	255.29
462.976	260.49
463.434	269.49
463.892	270.89
464.35	282.19
464.808	299.29
465.266	271.19
465.724	271.99
466.181	283.19
466.639	283.19
467.097	300.59
467.555	303.29
468.012	311.59
468.47	324.89
468.928	335.79
469.385	346.49
469.843	357.59
470.3	371.29
470.758	376.59
471.215	396.19
471.673	423.39
472.13	413.49
472.588	426.49
473.045	380.69
473.503	395.79
473.96	409.89
474.417	414.89
474.875	445.79
475.332	489.99
475.789	478.29
476.246	485.89
476.704	504.19
477.161	527.39
477.618	544.59
478.075	584.49
478.532	644.39
478.989	712.39
479.446	829.39
479.903	798.39
480.36	835.59
480.817	898.09
481.274	1001.29
481.731	1109.19
482.188	1204.49
482.645	1355.29
483.102	1461.29
483.558	1610.39
484.015	1677.09
484.472	1637.09
484.929	1571.99
485.385	1522.89
485.842	1484.49
486.299	1416.09
486.755	1347.99
487.212	1128.59
487.668	959.79
488.125	882.79
488.582	798.39
489.038	771.49
489.494	729.29
489.951	699.29
490.407	690.89
490.864	672.59
491.32	663.79
491.776	663.89
492.233	664.69
492.689	629.39
493.145	619.99
493.602	626.99
494.058	644.19
494.514	638.89
494.97	661.69
495.426	675.19
495.882	647.39
496.338	640.49
496.794	647.09
497.251	638.29
497.707	650.29
498.163	653.59
498.618	654.89
499.074	667.59
499.53	689.99
499.986	697.69
500.442	678.59
500.898	650.79
501.354	639.99
501.809	657.69
502.265	660.89
502.721	680.59
503.177	686.89
503.632	682.29
504.088	685.89
504.543	730.29
504.999	729.69
505.455	673.19
505.91	652.59
506.366	646.49
506.821	640.29
507.277	642.39
507.732	644.99
508.187	645.89
508.643	651.29
509.098	648.79
509.553	676.39
510.009	682.89
510.464	688.99
510.919	704.69
511.375	719.19
511.83	722.19
512.285	732.69
512.74	778.79
513.195	795.39
513.65	791.49
514.105	796.09
514.56	793.99
515.015	814.89
515.47	829.69
515.925	824.49
516.38	807.19
516.835	816.79
517.29	808.39
517.745	796.79
518.2	789.59
518.655	770.99
519.109	771.09
519.564	769.89
520.019	738.19
520.474	748.99
520.928	748.79
521.383	740.79
521.838	737.29
522.292	729.69
522.747	722.99
523.201	727.39
523.656	720.79
524.11	711.99
524.565	710.69
525.019	712.99
525.474	723.69
525.928	713.69
526.382	719.49
526.837	724.59
527.291	716.19
527.745	712.29
528.2	710.29
528.654	708.99
529.108	707.59
529.562	718.09
530.016	699.89
530.47	715.29
530.925	713.29
531.379	722.79
531.833	719.19
532.287	715.79
532.741	728.79
533.195	722.49
533.649	741.49
534.103	730.79
534.556	728.19
535.01	722.99
535.464	730.59
535.918	737.79
536.372	739.59
536.826	732.29
537.279	724.59
537.733	727.19
538.187	739.29
538.64	733.89
539.094	739.09
539.548	747.39
540.001	738.09
540.455	736.39
540.908	756.79
541.362	758.09
541.815	768.59
542.269	781.99
542.722	783.39
543.175	791.09
543.629	789.39
544.082	799.09
544.536	798.19
544.989	801.09
545.442	816.99
545.895	806.59
546.349	802.39
546.802	814.39
547.255	820.09
547.708	829.89
548.161	827.79
548.614	841.99
549.067	851.69
549.52	842.59
549.973	825.29
550.426	833.69
550.879	809.79
551.332	820.59
551.785	825.99
552.238	824.89
552.691	835.99
553.144	856.59
553.596	865.19
554.049	880.89
554.502	898.69
554.955	928.79
555.407	934.99
555.86	927.59
556.313	919.99
556.765	897.89
557.218	904.59
557.67	908.29
558.123	895.29
558.576	893.29
559.028	902.89
559.48	912.29
559.933	899.09
560.385	863.89
560.838	822.39
561.29	800.69
561.742	794.59
562.195	783.69
562.647	791.09
563.099	797.19
563.551	791.99
564.004	797.69
564.456	793.09
564.908	777.79
565.36	762.39
565.812	752.39
566.264	742.19
566.716	742.99
567.168	730.19
567.62	736.89
568.072	720.99
568.524	711.89
568.976	707.29
569.428	697.29
569.88	689.29
570.332	701.49
570.784	707.79
571.235	696.39
571.687	705.79
572.139	717.59
572.59	721.19
573.042	731.69
573.494	740.79
573.945	712.89
574.397	700.39
574.849	704.19
575.3	707.19
575.752	700.99
576.203	690.39
576.655	706.49
577.106	679.19
577.557	678.49
578.009	681.29
578.46	687.29
578.912	664.59
579.363	681.49
579.814	687.99
580.265	679.39
580.717	681.39
581.168	691.79
581.619	694.89
582.07	700.29
582.521	697.99
582.972	687.49
583.423	696.59
583.875	698.89
584.326	720.39
584.777	763.99
585.227	847.49
585.678	941.89
586.129	1030.49
586.58	1106.59
587.031	1200.89
587.482	1366.99
587.933	1542.49
588.384	1342.49
588.834	1000.79
589.285	822.19
589.736	798.39
590.186	796.49
590.637	787.69
591.088	763.79
591.538	752.99
591.989	752.19
592.439	750.49
592.89	742.09
593.34	726.29
593.791	730.09
594.241	720.89
594.692	720.69
595.142	717.69
595.593	724.49
596.043	723.59
596.493	724.79
596.943	732.79
597.394	727.49
597.844	734.29
598.294	748.79
598.744	763.29
599.195	792.49
599.645	832.99
600.095	867.39
600.545	936.09
600.995	987.59
601.445	1040.79
601.895	1114.09
602.345	1152.99
602.795	1134.79
603.245	1081.39
603.695	1035.19
604.145	980.89
604.594	924.39
605.044	878.39
605.494	822.49
605.944	765.39
606.393	765.59
606.843	739.99
607.293	749.79
607.743	748.49
608.192	756.89
608.642	781.69
609.091	782.89
609.541	793.29
609.99	779.99
610.44	780.19
610.889	734.89
611.339	714.39
611.788	702.09
612.238	716.99
612.687	737.39
613.136	737.19
613.586	758.29
614.035	749.39
614.484	775.19
614.933	780.49
615.383	763.59
615.832	753.59
616.281	743.39
616.73	706.09
617.179	672.59
617.628	674.99
618.077	651.89
618.526	628.99
618.975	624.79
619.424	625.39
619.873	624.09
620.322	625.99
620.771	618.99
621.22	615.69
621.669	602.39
622.118	596.39
622.567	591.19
623.015	588.59
623.464	583.19
623.913	574.79
624.361	558.99
624.81	564.49
625.259	562.79
625.707	569.79
626.156	564.29
626.604	583.19
627.053	572.79
627.501	564.99
627.95	582.19
628.398	598.29
628.847	578.89
629.295	575.39
629.744	587.89
630.192	575.89
630.64	576.29
631.089	567.79
631.537	577.89
631.985	603.19
632.433	616.59
632.881	622.59
633.33	677.99
633.778	654.99
634.226	578.09
634.674	584.89
635.122	588.39
635.57	612.59
636.018	639.29
636.466	588.79
636.914	562.99
637.362	581.29
637.81	585.59
638.258	587.59
638.705	584.79
639.153	611.09
639.601	627.69
640.049	652.39
640.497	682.09
640.944	699.59
641.392	641.59
641.84	622.89
642.287	590.69
642.735	570.09
643.182	583.09
643.63	583.29
644.078	580.59
644.525	600.89
644.973	609.59
645.42	613.99
645.867	630.49
646.315	652.09
646.762	679.79
647.21	711.29
647.657	724.09
648.104	765.29
648.551	786.09
648.999	862.19
649.446	936.89
649.893	1022.09
650.34	1188.89
650.787	1423.59
651.234	1764.79
651.682	2304.79
652.129	3168.89
652.576	4572.09
653.023	6741.79
653.47	9229.09
653.917	11553.09
654.363	13292.09
654.81	14698.29
655.257	13951.29
655.704	9152.39
656.151	5424.89
656.598	3486.89
657.044	2483.49
657.491	1900.89
657.938	1506.49
658.385	1267.19
658.831	1107.59
659.278	987.49
659.724	869.99
660.171	799.69
660.618	731.09
661.064	715.49
661.511	679.49
661.957	662.89
662.404	655.29
662.85	663.79
663.296	627.59
663.743	571.09
664.189	547.29
664.635	539.39
665.082	528.69
665.528	534.89
665.974	529.69
666.42	519.29
666.867	513.69
667.313	499.19
667.759	497.19
668.205	483.59
668.651	490.39
669.097	501.39
669.543	512.29
669.989	481.99
670.435	458.39
670.881	448.79
671.327	460.29
671.773	481.29
672.219	493.29
672.665	555.49
673.11	600.19
673.556	648.69
674.002	674.59
674.448	657.69
674.893	553.29
675.339	471.39
675.785	447.59
676.23	419.39
676.676	400.29
677.122	385.49
677.567	376.09
678.013	379.39
678.458	363.89
678.904	370.79
679.349	351.69
679.794	361.69
680.24	361.09
680.685	351.39
681.131	350.89
681.576	347.29
682.021	350.89
682.466	345.09
682.912	349.49
683.357	346.39
683.802	383.09
684.247	414.99
684.692	455.79
685.137	498.79
685.583	541.09
686.028	576.99
686.473	523.69
686.918	441.49
687.363	417.89
687.807	396.19
688.252	372.39
688.697	368.29
689.142	340.79
689.587	336.09
690.032	326.39
690.477	347.59
690.921	358.29
691.366	385.69
691.811	402.39
692.255	434.59
692.7	470.79
693.145	504.09
693.589	704.89
694.034	1135.29
694.478	1535.39
694.923	1750.49
695.367	2286.39
695.812	1199.59
696.256	484.89
696.701	367.99
697.145	350.09
697.59	334.39
698.034	327.79
698.478	332.69
698.922	328.59
699.367	330.79
699.811	345.99
700.255	358.19
700.699	388.79
701.143	432.69
701.588	477.79
702.032	522.19
702.476	512.59
702.92	493.29
703.364	496.89
703.808	640.19
704.252	1034.09
704.696	1474.49
705.14	1683.19
705.584	2169.89
706.027	1078.19
706.471	522.59
706.915	408.39
707.359	361.29
707.803	318.69
708.246	304.99
708.69	318.09
709.134	318.09
709.577	320.49
710.021	328.19
710.465	306.29
710.908	303.79
711.352	300.19
711.795	312.59
712.239	355.59
712.682	397.99
713.126	417.99
713.569	474.99
714.012	374.89
714.456	325.69
714.899	312.59
715.342	276.89
715.786	262.39
716.229	255.39
716.672	253.79
717.115	247.49
717.558	254.59
718.002	254.79
718.445	263.09
718.888	287.99
719.331	292.39
719.774	309.29
720.217	302.59
720.66	292.59
721.103	271.79
721.546	261.89
721.989	250.99
722.432	229.49
722.874	242.49
723.317	232.79
723.76	246.29
724.203	258.79
724.645	324.29
725.088	445.79
725.531	572.69
725.974	646.49
726.416	553.09
726.859	309.39
727.301	248.89
727.744	240.29
728.187	237.99
728.629	242.99
729.071	247.29
729.514	261.09
729.956	280.29
730.399	284.29
730.841	294.59
731.283	280.19
731.726	275.09
732.168	265.19
732.61	267.99
733.053	282.49
733.495	327.89
733.937	360.29
734.379	396.19
734.821	431.29
735.263	550.79
735.705	840.89
736.148	1590.39
736.59	2591.19
737.032	3090.99
737.474	2491.39
737.916	806.29
738.357	427.69
738.799	325.89
739.241	297.79
739.683	282.89
740.125	287.09
740.567	291.09
741.008	310.09
741.45	310.49
741.892	319.39
742.334	354.89
742.775	364.79
743.217	344.09
743.658	273.89
744.1	254.69
744.542	268.59
744.983	306.09
745.425	336.99
745.866	345.69
746.307	294.29
746.749	282.29
747.19	323.19
747.632	457.99
748.073	890.59
748.514	1879.69
748.956	2873.99
749.397	3609.39
749.838	2987.59
750.279	2998.19
750.72	1494.49
751.162	551.79
751.603	322.29
752.044	249.99
752.485	214.49
752.926	211.99
753.367	200.29
753.808	196.59
754.249	192.19
754.69	188.79
755.131	178.79
755.572	184.39
756.013	178.49
756.453	190.19
756.894	190.59
757.335	190.19
757.776	199.89
758.216	205.59
758.657	195.69
759.098	200.99
759.538	233.89
759.979	271.29
760.42	376.19
760.86	704.89
761.301	1824.09
761.741	4430.49
762.182	6470.49
762.622	4519.39
763.063	1299.59
763.503	545.69
763.943	349.39
764.384	351.49
764.824	420.69
765.264	457.79
765.705	310.19
766.145	208.29
766.585	193.49
767.025	182.09
767.465	189.09
767.906	248.49
768.346	322.89
768.786	361.99
769.226	269.39
769.666	314.89
770.106	622.89
770.546	1558.49
770.986	2650.39
771.426	2387.99
771.866	794.19
772.306	332.09
772.745	213.19
773.185	177.89
773.625	176.69
774.065	168.99
774.505	195.49
774.944	311.99
775.384	687.79
775.824	1247.09
776.263	1209.49
776.703	516.29
777.142	214.19
777.582	157.49
778.021	141.89
778.461	142.59
778.9	138.39
779.34	130.39
779.779	119.39
780.219	113.89
780.658	112.29
781.097	110.19
781.537	112.29
781.976	114.49
782.415	107.29
782.855	107.59
783.294	102.49
783.733	110.29
784.172	111.19
784.611	96.19
785.05	112.59
785.489	112.69
785.928	117.59
786.367	115.49
786.806	121.09
787.245	127.59
787.684	145.99
788.123	152.59
788.562	130.89
789.001	122.79
789.44	121.39
789.879	117.59
790.317	126.99
790.756	131.29
791.195	136.89
791.634	154.19
792.072	204.29
792.511	362.59
792.95	1011.59
793.388	2143.49
793.827	1931.39
794.265	679.39
794.704	284.09
795.142	190.49
795.581	153.29
796.019	143.19
796.458	129.79
796.896	128.19
797.334	135.49
797.773	158.39
798.211	218.39
798.649	439.89
799.087	1026.89
799.526	1594.69
799.964	2013.39
800.402	2009.69
800.84	752.59
801.278	302.69
801.716	184.19
802.154	158.29
802.592	143.29
803.03	133.19
803.468	130.99
803.906	145.09
804.344	149.39
804.782	138.89
805.22	131.69
805.658	129.59
806.096	144.39
806.533	151.39
806.971	171.39
807.409	212.59
807.847	313.39
808.284	659.29
808.722	1866.49
809.16	3292.59
809.597	3102.79
810.035	5418.39
810.472	5802.59
810.91	2082.39
811.347	795.59
811.785	397.19
812.222	257.09
812.66	194.19
813.097	167.69
813.535	147.29
813.972	124.89
814.409	118.89
814.846	113.19
815.284	110.79
815.721	103.39
816.158	110.49
816.595	125.59
817.032	177.59
817.47	195.99
817.907	170.69
818.344	150.89
818.781	114.69
819.218	110.29
819.655	116.59
820.092	177.79
820.529	214.39
820.966	175.99
821.403	137.09
821.839	107.99
822.276	102.89
822.713	123.19
823.15	134.89
823.587	112.49
824.023	146.99
824.46	301.89
824.897	887.49
825.333	1373.79
825.77	584.99
826.206	235.39
826.643	127.99
827.08	99.89
827.516	79.19
827.953	77.59
828.389	83.09
828.825	75.39
829.262	67.79
829.698	68.59
830.135	68.89
830.571	60.69
831.007	60.89
831.443	66.39
831.88	62.39
832.316	58.39
832.752	57.59
833.188	62.79
833.624	59.99
834.06	72.19
834.497	68.39
834.933	77.79
835.369	77.29
835.805	70.39
836.241	75.89
836.677	86.99
837.112	94.09
837.548	100.19
837.984	133.29
838.42	196.89
838.856	490.69
839.292	1503.99
839.727	2296.19
840.163	1065.89
840.599	921.59
841.034	2035.99
841.47	2129.09
841.906	774.69
842.341	331.39
842.777	224.59
843.212	313.59
843.648	318.19
844.083	151.79
844.519	101.69
844.954	82.69
845.39	58.79
845.825	59.89
846.261	62.49
846.696	55.19
847.131	52.09
847.566	63.99
848.002	48.49
848.437	55.19
848.872	60.29
849.307	56.49
849.742	83.99
850.177	174.39
850.613	563.09
851.048	884.89
851.483	387.09
851.918	153.39
852.353	87.39
852.788	60.49
853.223	56.59
853.657	50.99
854.092	45.19
854.527	38.69
854.962	36.39
855.397	46.39
855.832	49.79
856.266	44.69
856.701	41.49
857.136	35.69
857.57	44.49
858.005	51.69
858.44	56.59
858.874	44.49
859.309	54.29
859.743	37.59
860.178	46.09
860.612	44.29
861.047	52.09
861.481	64.79
861.915	64.99
862.35	54.89
862.784	33.99
863.218	39.49
863.653	36.09
864.087	46.49
864.521	52.99
864.955	71.59
865.39	160.19
865.824	180.29
866.258	114.59
866.692	159.19
867.126	178.49
867.56	106.19
867.994	55.69
868.428	33.89
868.862	51.29
869.296	55.69
869.73	55.39
870.164	57.09
870.598	42.69
871.031	39.59
871.465	32.49
871.899	32.89
872.333	28.69
872.766	23.69
873.2	24.99
873.634	27.79
874.067	28.09
874.501	24.59
874.935	34.29
875.368	31.39
875.802	37.29
876.235	20.39
876.669	23.69
877.102	27.29
877.535	25.59
877.969	19.09
878.402	23.09
878.836	23.99
879.269	20.49
879.702	25.39
880.135	21.79
880.569	26.19
881.002	29.19
881.435	28.19
881.868	20.99
882.301	28.09
882.734	21.29
883.167	23.29
883.601	16.49
884.034	22.39
884.467	10.99
884.899	14.59
885.332	9.49
885.765	18.49
886.198	14.19
886.631	20.59
887.064	21.59
887.497	19.89
887.929	19.89
888.362	16.49
888.795	11.79
889.228	11.09
889.66	22.09
890.093	12.19
890.526	14.29
890.958	17.39
891.391	16.99
891.823	20.19
892.256	15.19
892.688	9.39
893.121	20.09
893.553	18.49
893.985	15.99
894.418	20.89
894.85	10.59
895.282	18.39
895.715	14.29
896.147	17.79
896.579	11.59
897.011	14.79
897.444	16.59
897.876	8.79
898.308	17.89
898.74	14.69
899.172	18.39
899.604	21.29
900.036	19.89
900.468	12.59
900.9	16.89
901.332	15.29
901.764	13.29
902.196	11.39
902.628	14.39
903.06	17.69
903.491	31.09
903.923	19.29
904.355	18.49
904.787	30.59
905.218	22.09
905.65	20.09
906.082	13.69
906.513	9.59
906.945	19.19
907.376	13.99
907.808	16.19
908.239	20.59
908.671	19.49
909.102	21.69
909.534	26.19
909.965	44.59
910.397	92.59
910.828	318.59
911.259	476.09
911.691	220.79
912.122	109.29
912.553	57.19
912.984	33.09
913.415	22.19
913.847	24.59
914.278	16.79
914.709	12.49
915.14	21.19
915.571	15.99
916.002	12.39
916.433	23.59
916.864	15.39
917.295	17.29
917.726	24.29
918.157	17.09
918.587	29.89
919.018	12.59
919.449	21.89
919.88	25.49
920.311	29.99
920.741	50.49
921.172	170.39
921.603	147.19
922.033	73.39
922.464	43.69
922.895	17.19
923.325	21.69
923.756	15.59
924.186	16.19
924.617	23.99
925.047	38.29
925.478	56.29
925.908	48.99
926.338	26.29
926.769	16.59
927.199	24.59
927.629	10.69
928.06	19.99
928.49	15.19
928.92	13.19
929.35	9.49
929.78	4.99
930.21	7.89
930.641	3.79
931.071	10.09
931.501	2.89
931.931	11.39
932.361	4.99
932.791	2.19
933.221	5.09
933.651	2.09
934.08	20.89
934.51	30.89
934.94	6.59
935.37	11.59
935.8	10.89
936.229	10.69
936.659	20.79
937.089	5.89
937.519	13.49
937.948	29.99
938.378	17.69
938.807	10.79
939.237	2.59
939.666	6.29
940.096	-4.31
940.525	2.29
940.955	0.19
941.384	1.19
941.814	-5.41
942.243	-2.51
942.672	6.79
943.102	0.39
943.531	-4.41
943.96	-2.31
944.39	6.79
944.819	7.09
945.248	3.09
945.677	4.09
946.106	-0.11
946.535	9.29
946.964	0.79
947.393	6.29
947.822	-0.41
948.251	-3.61
948.68	8.19
949.109	0.59
949.538	8.89
949.967	-2.51
950.396	2.39
950.825	-2.61
951.254	-1.71
951.682	-5.31
952.111	7.49
952.54	0.69
952.969	-6.71
953.397	-1.71
953.826	-3.91
954.254	-6.51
954.683	-3.51
955.112	-3.71
955.54	3.59
955.969	4.49
956.397	-1.91
956.826	1.49
957.254	-0.61
957.682	5.29
958.111	7.89
958.539	-4.01
958.967	5.19
959.396	-0.21
959.824	3.69
960.252	6.59
960.68	0.89
961.109	-2.41
961.537	-6.41
961.965	2.99
962.393	0.59
962.821	3.09
963.249	-3.11
963.677	0.59
964.105	3.59
964.533	41.59
964.961	42.29
965.389	20.99
965.817	8.49
966.245	4.59
966.672	5.89
967.1	-7.91
967.528	1.19
967.956	-5.51
968.383	0.59
968.811	-0.01
969.239	-2.51
969.666	-0.61
970.094	-0.31
970.522	4.39
970.949	-2.31
971.377	-4.31
971.804	0.09
972.232	-2.11
972.659	2.29
973.087	-3.91
973.514	1.29
973.941	-5.31
974.369	4.79
974.796	6.89
975.223	5.49
975.651	-4.21
976.078	6.79
976.505	-4.81
976.932	3.29
977.359	16.19
977.786	13.69
978.214	-0.21
978.641	-2.21
979.068	-3.81
979.495	-3.61
979.922	0.99
980.349	0.09
980.776	3.99
981.202	-2.41
981.629	5.19
982.056	7.29
982.483	-3.21
982.91	4.09
983.337	-6.81
983.763	7.09
984.19	-3.01
984.617	-3.81
985.043	-5.51
985.47	-4.21
985.897	-2.01
986.323	-10.11
986.75	-1.81
987.176	-6.01
987.603	3.49
988.029	0.39
988.456	0.09
988.882	5.69
989.308	-4.41
989.735	-4.71
990.161	5.19
990.587	-8.01
991.014	0.59
991.44	9.19
991.866	-4.21
992.292	-6.31
992.719	1.89
993.145	3.89
993.571	-8.81
993.997	-4.51
994.423	1.29
994.849	-1.81
995.275	-0.61
995.701	-3.71
996.127	-2.21
996.553	4.59
996.979	-0.21
997.405	-0.51
997.83	-5.21
998.256	-10.71
998.682	-14.21
999.108	-8.41
999.534	-0.51
999.959	-0.91
1000.385	-7.61
1000.811	4.29
1001.236	-7.61
1001.662	-9.01
1002.087	-9.91
1002.513	-1.91
1002.938	0.19
1003.364	-4.01
1003.789	-2.11
1004.215	4.99
1004.64	4.09
1005.066	-2.31
1005.491	-4.21
1005.916	4.09
1006.342	0.49
1006.767	-5.61
1007.192	3.69
1007.617	-4.71
1008.042	-2.61
1008.468	-8.71
1008.893	-3.71
1009.318	-5.91
1009.743	-2.31
1010.168	1.89
1010.593	5.29
1011.018	-2.31
1011.443	-4.01
1011.868	-0.21
1012.293	1.09
1012.718	-7.81
1013.143	-0.41
1013.567	-2.61
1013.992	-10.51
1014.417	-12.71
1014.842	1.69
1015.267	-3.91
1015.691	-4.51
1016.116	2.99
1016.541	-5.21
1016.965	0.19
1017.39	0.89
1017.814	-1.21
1018.239	-1.01
1018.663	-8.51
1019.088	-11.81
1019.512	-0.91
1019.937	-5.21
1020.361	-1.81
1020.785	-13.61
1021.21	4.09
1021.634	-2.51
1022.058	0.89
1022.483	1.79
1022.907	-0.61
1023.331	-7.31
1023.755	-8.61
1024.179	3.39
1024.604	-9.51
1025.028	-1.81
1025.452	-8.91
1025.876	-4.81
1026.3	1.09
1026.724	-11.01
1027.148	-2.81
1027.572	-4.61
1027.996	-5.71
1028.42	-6.01
1028.843	-3.81
1029.267	-8.31
1029.691	-6.11
1030.115	-8.81
1030.539	-5.01
1030.962	-10.51
1031.386	-8.71
1031.81	-3.11
1032.233	-2.01
1032.657	2.59
1033.08	1.19
1033.504	-2.51
1033.927	-4.81
1034.351	4.59
1034.774	-10.41
1035.198	-0.71
1035.621	-5.31
1036.045	-9.21
1036.468	-5.31
1036.891	-17.21
1037.315	-6.01
1037.738	-12.31
1038.161	4.29
1038.584	-6.61
1039.008	-8.41
1039.431	-3.31
1039.854	-7.71
1040.277	-8.41
1040.7	-13.61
1041.123	-1.91
1041.546	-10.51
1041.969	-6.21
1042.392	-6.11
1042.815	-1.51
1043.238	-4.01
1043.661	1.59
1044.084	-7.01
1044.507	-8.01
1044.93	-7.21
1045.352	-6.61
1045.775	-2.11
1046.198	-3.71
1046.621	-1.61
1047.043	-4.41
1047.466	4.29
1047.889	-5.51
1048.311	-10.61
1048.734	-6.31
1049.156	0.19
1049.579	-2.01
1050.001	-10.01
1050.424	-2.11
1050.846	-9.31
1051.269	-4.01
1051.691	-5.71
1052.113	-2.71
1052.536	-2.41
1052.958	-3.91
1053.38	-1.31
1053.802	-12.61
1054.225	0.39
1054.647	-11.41
1055.069	-10.91
1055.491	3.79
1055.913	-6.21
1056.335	-2.21
1056.757	-6.01
1057.179	-6.91
1057.601	-4.71
1058.023	0.99
1058.445	-6.01
1058.867	-6.01
1059.289	-4.31
1059.711	-12.31
1060.133	-3.11
1060.555	-5.11
1060.976	-5.31
1061.398	-3.11
1061.82	-7.61
1062.241	-13.61
1062.663	-10.11
1063.085	-1.11
1063.506	0.89
1063.928	-2.91
1064.35	-1.21
1064.771	-8.51
1065.193	-0.91
1065.614	-4.21
1066.035	-3.71
1066.457	-4.11
1066.878	-4.71
1067.3	-9.31
1067.721	-7.81
1068.142	-9.91
1068.564	-3.81
1068.985	-0.11
1069.406	-6.21
1069.827	-7.11
1070.248	2.09
1070.67	-12.31
1071.091	-3.91
1071.512	-5.91
1071.933	-2.81
1072.354	-2.81
1072.775	-6.01
1073.196	-6.21
1073.617	-3.91
1074.038	-3.41
1074.459	-10.91
1074.88	-8.41
1075.3	0.99
1075.721	-7.81
1076.142	2.09
1076.563	-5.31
1076.983	-15.11
1077.404	-7.41
1077.825	-9.31
1078.246	-2.11
1078.666	-11.41
1079.087	-8.81
1079.507	-11.11
1079.928	-3.71
1080.348	-2.61
1080.769	-7.31
1081.189	-1.41
1081.61	-5.31
1082.03	-10.91
1082.451	-5.01
1082.871	-11.21
1083.291	-9.41
1083.711	-9.81
1084.132	-8.01
1084.552	-5.21
1084.972	-9.11
1085.392	-7.41
1085.813	-12.81
1086.233	-8.01
1086.653	-8.31
1087.073	-3.51
1087.493	-6.01
1087.913	-6.51
1088.333	-7.41
1088.753	-6.91
1089.173	0.59
1089.593	-8.91
1090.013	-2.01
1090.433	-4.61
1090.852	-7.21
1091.272	-4.31
1091.692	-8.31
1092.112	-2.71
1092.531	-9.91
1092.951	-6.61
1093.371	-4.71
1093.79	5.69
1094.21	-10.81
1094.63	-11.81
1095.049	-14.51
1095.469	-1.61
1095.888	0.99
1096.308	-2.81
1096.727	-0.21
1097.146	-9.21
1097.566	3.39
1097.985	-8.91
1098.405	-5.21
1098.824	-7.11
1099.243	-13.11
1099.662	-6.81
1100.082	-2.81
1100.501	-7.31
1100.92	-10.61
1101.339	-4.81
1101.758	-6.91
