Data from 20171114-ORNL-Ar_H_NY_Subt18_08-07-06-048.txt Node
Date: Tue Nov 14 08:07:06 EST 2017
User: Ender
Spectrometer: HR+D1039
Trigger mode: 0
Integration Time (sec): 2.730000E-2
Scans to average: 10
Electric dark correction enabled: true
Nonlinearity correction enabled: false
Boxcar width: 0
XAxis mode: Wavelengths
Number of Pixels in Spectrum: 2048
>>>>>Begin Spectral Data<<<<<
187.836	0.16
188.309	0.16
188.782	0.16
189.255	1.06
189.728	3.06
190.201	3.26
190.674	1.26
191.147	3.16
191.619	-4.04
192.092	0.56
192.565	1.76
193.038	0.66
193.511	-3.44
193.984	0.46
194.456	-9.14
194.929	0.36
195.402	-1.94
195.874	2.86
196.347	-3.74
196.82	-3.14
197.292	3.16
197.765	-5.14
198.237	-4.64
198.71	3.66
199.182	-2.54
199.655	1.86
200.127	0.06
200.6	-1.44
201.072	-3.24
201.544	-6.04
202.017	-5.24
202.489	3.66
202.961	-4.74
203.433	-5.24
203.906	-9.94
204.378	-7.54
204.85	-9.44
205.322	-10.34
205.794	-4.94
206.266	-6.74
206.739	-10.74
207.211	-3.34
207.683	-5.64
208.155	-5.44
208.627	-9.14
209.099	-7.34
209.57	-10.64
210.042	-10.44
210.514	-7.34
210.986	0.36
211.458	-13.14
211.93	-3.54
212.402	-1.64
212.873	-7.64
213.345	-11.24
213.817	-10.44
214.288	-5.64
214.76	-11.44
215.232	-5.84
215.703	-4.74
216.175	-6.94
216.646	-8.94
217.118	-11.54
217.589	-10.24
218.061	-11.04
218.532	-3.74
219.004	-1.24
219.475	-8.14
219.946	-3.94
220.418	-9.64
220.889	-10.04
221.36	-3.94
221.832	-4.64
222.303	-11.84
222.774	-2.24
223.245	-4.14
223.717	-7.54
224.188	-6.74
224.659	-6.94
225.13	-5.44
225.601	-6.94
226.072	0.06
226.543	-5.34
227.014	-2.54
227.485	-6.94
227.956	-4.24
228.427	-0.44
228.898	-0.44
229.369	4.06
229.839	-2.14
230.31	-11.64
230.781	0.86
231.252	-3.04
231.722	-2.04
232.193	1.76
232.664	-3.04
233.135	-5.64
233.605	-8.94
234.076	-4.84
234.546	-5.34
235.017	1.36
235.487	-4.34
235.958	-3.94
236.428	-6.54
236.899	-4.64
237.369	-5.74
237.84	-9.14
238.31	1.16
238.78	-6.24
239.251	-7.64
239.721	-6.94
240.191	-7.64
240.662	-6.24
241.132	0.56
241.602	-6.74
242.072	-2.24
242.542	-5.44
243.013	-6.54
243.483	1.56
243.953	-6.84
244.423	-3.04
244.893	-11.24
245.363	-0.34
245.833	-6.74
246.303	-6.74
246.773	0.86
247.243	-4.84
247.712	-3.24
248.182	2.76
248.652	3.06
249.122	-6.34
249.592	-0.54
250.061	3.46
250.531	7.86
251.001	-0.74
251.471	-1.34
251.94	1.86
252.41	-6.54
252.879	-7.34
253.349	4.86
253.818	3.76
254.288	0.96
254.757	3.26
255.227	-5.24
255.696	-5.54
256.166	0.86
256.635	-2.04
257.105	1.26
257.574	-3.34
258.043	6.76
258.513	-6.34
258.982	-4.54
259.451	-1.64
259.92	-1.84
260.389	2.46
260.859	4.66
261.328	-2.54
261.797	-5.54
262.266	-2.04
262.735	0.06
263.204	-3.04
263.673	-5.44
264.142	-1.84
264.611	-6.84
265.08	-9.94
265.549	-1.84
266.018	-1.04
266.487	-5.54
266.955	-10.84
267.424	-7.34
267.893	-2.24
268.362	-4.74
268.83	2.26
269.299	3.06
269.768	2.46
270.236	-0.74
270.705	-3.74
271.174	-1.04
271.642	-0.34
272.111	-0.64
272.579	-5.04
273.048	-0.94
273.516	-5.04
273.985	1.06
274.453	3.66
274.922	8.26
275.39	-0.64
275.858	-5.24
276.327	2.36
276.795	2.86
277.263	4.36
277.731	4.96
278.2	-1.04
278.668	1.56
279.136	7.76
279.604	0.16
280.072	6.56
280.54	13.56
281.008	4.56
281.477	4.56
281.945	3.56
282.413	7.86
282.881	7.66
283.348	-8.14
283.816	10.46
284.284	7.86
284.752	15.46
285.22	6.66
285.688	13.16
286.156	7.26
286.623	9.86
287.091	10.66
287.559	15.06
288.026	8.36
288.494	10.56
288.962	0.46
289.429	7.86
289.897	13.56
290.364	0.16
290.832	6.76
291.3	7.76
291.767	5.66
292.234	9.66
292.702	6.06
293.169	6.66
293.637	16.56
294.104	13.16
294.571	2.76
295.039	6.16
295.506	12.36
295.973	13.56
296.44	5.66
296.908	12.16
297.375	8.66
297.842	8.86
298.309	7.56
298.776	5.26
299.243	14.66
299.71	6.16
300.177	17.06
300.644	17.36
301.111	13.26
301.578	17.66
302.045	14.16
302.512	18.16
302.979	11.66
303.446	16.06
303.913	7.26
304.379	12.16
304.846	16.66
305.313	13.96
305.78	13.96
306.246	14.26
306.713	16.76
307.18	16.66
307.646	19.76
308.113	15.56
308.579	13.46
309.046	24.96
309.512	20.86
309.979	10.76
310.445	20.86
310.912	23.96
311.378	24.56
311.845	22.16
312.311	24.86
312.777	26.16
313.244	20.46
313.71	32.26
314.176	16.46
314.642	21.96
315.109	24.96
315.575	26.86
316.041	30.86
316.507	23.26
316.973	26.86
317.439	23.16
317.905	30.36
318.371	29.96
318.837	23.26
319.303	25.56
319.769	27.96
320.235	24.26
320.701	26.76
321.167	27.36
321.633	22.16
322.099	30.56
322.564	33.56
323.03	30.16
323.496	33.86
323.962	30.96
324.427	28.66
324.893	40.36
325.359	28.76
325.824	31.26
326.29	28.36
326.755	29.86
327.221	23.36
327.686	31.56
328.152	42.46
328.617	31.06
329.083	39.16
329.548	40.96
330.014	36.96
330.479	35.56
330.944	34.46
331.41	38.26
331.875	32.06
332.34	35.76
332.805	40.06
333.271	36.96
333.736	30.46
334.201	42.36
334.666	43.26
335.131	49.46
335.596	38.16
336.061	38.86
336.526	31.36
336.991	37.96
337.456	40.66
337.921	44.86
338.386	28.86
338.851	40.06
339.316	45.66
339.781	43.16
340.246	48.16
340.711	44.36
341.175	47.36
341.64	38.96
342.105	41.06
342.569	47.76
343.034	48.86
343.499	46.56
343.963	41.66
344.428	59.96
344.893	52.46
345.357	56.26
345.822	46.16
346.286	58.66
346.751	59.46
347.215	63.16
347.679	59.66
348.144	80.36
348.608	69.46
349.073	56.16
349.537	61.06
350.001	70.36
350.465	67.26
350.93	65.86
351.394	68.76
351.858	59.86
352.322	78.46
352.786	75.16
353.25	83.06
353.715	93.16
354.179	82.06
354.643	98.16
355.107	100.16
355.571	86.36
356.035	87.86
356.498	94.36
356.962	102.36
357.426	100.76
357.89	87.76
358.354	76.76
358.818	70.96
359.281	72.76
359.745	66.96
360.209	72.96
360.673	73.96
361.136	77.36
361.6	82.76
362.064	71.66
362.527	72.26
362.991	82.36
363.454	73.66
363.918	68.36
364.381	65.06
364.845	78.46
365.308	77.86
365.772	82.56
366.235	79.16
366.698	72.56
367.162	79.46
367.625	75.76
368.088	81.56
368.552	77.16
369.015	83.86
369.478	83.16
369.941	84.66
370.404	86.06
370.867	88.86
371.331	90.96
371.794	95.96
372.257	84.76
372.72	92.56
373.183	94.66
373.646	83.96
374.109	93.76
374.572	94.96
375.035	97.46
375.497	97.86
375.96	93.96
376.423	94.86
376.886	99.66
377.349	99.06
377.811	91.06
378.274	97.56
378.737	102.66
379.199	101.16
379.662	101.66
380.125	101.06
380.587	107.36
381.05	101.06
381.512	104.86
381.975	113.06
382.437	110.06
382.9	110.66
383.362	114.96
383.825	123.26
384.287	117.86
384.75	115.66
385.212	114.56
385.674	126.16
386.136	132.26
386.599	110.96
387.061	116.16
387.523	115.26
387.985	121.06
388.447	119.36
388.91	119.86
389.372	124.46
389.834	124.56
390.296	120.66
390.758	129.56
391.22	129.86
391.682	140.26
392.144	139.16
392.606	139.46
393.068	138.56
393.529	145.56
393.991	127.76
394.453	128.26
394.915	136.86
395.377	126.46
395.838	131.36
396.3	127.46
396.762	131.46
397.224	132.26
397.685	125.26
398.147	126.76
398.608	124.16
399.07	124.96
399.531	133.16
399.993	139.66
400.454	154.66
400.916	154.86
401.377	146.76
401.839	142.06
402.3	154.16
402.762	163.16
403.223	174.56
403.684	166.46
404.145	154.86
404.607	155.06
405.068	159.56
405.529	160.16
405.99	176.26
406.451	173.46
406.913	167.46
407.374	167.36
407.835	162.16
408.296	162.36
408.757	174.16
409.218	183.76
409.679	176.06
410.14	177.26
410.601	179.66
411.062	174.96
411.522	179.46
411.983	174.56
412.444	180.16
412.905	178.96
413.366	186.86
413.826	207.36
414.287	222.36
414.748	269.36
415.208	255.76
415.669	219.66
416.13	205.46
416.59	202.96
417.051	223.06
417.511	229.36
417.972	246.36
418.432	251.66
418.893	299.46
419.353	250.96
419.814	208.26
420.274	185.26
420.734	187.46
421.195	197.96
421.655	192.46
422.115	199.26
422.576	203.66
423.036	206.26
423.496	215.36
423.956	220.96
424.416	235.76
424.876	277.16
425.336	270.26
425.797	265.96
426.257	252.26
426.717	249.46
427.177	241.96
427.637	220.86
428.097	237.96
428.556	248.96
429.016	273.86
429.476	263.06
429.936	267.96
430.396	271.26
430.856	280.36
431.315	311.96
431.775	346.66
432.235	377.36
432.694	343.96
433.154	359.36
433.614	379.76
434.073	326.36
434.533	289.36
434.993	264.36
435.452	285.46
435.912	290.86
436.371	289.06
436.83	277.16
437.29	262.56
437.749	250.86
438.209	247.36
438.668	272.56
439.127	286.06
439.587	273.46
440.046	251.36
440.505	263.66
440.964	272.96
441.424	327.26
441.883	309.96
442.342	269.56
442.801	238.86
443.26	228.86
443.719	226.06
444.178	221.66
444.637	221.86
445.096	233.36
445.555	232.86
446.014	232.16
446.473	238.06
446.932	242.66
447.391	237.26
447.849	245.36
448.308	227.86
448.767	237.06
449.226	248.46
449.685	251.06
450.143	263.66
450.602	257.06
451.061	240.06
451.519	243.26
451.978	244.86
452.436	250.86
452.895	251.86
453.353	263.76
453.812	249.96
454.27	247.06
454.729	249.06
455.187	248.46
455.646	260.56
456.104	262.56
456.562	269.46
457.021	280.96
457.479	268.46
457.937	281.16
458.395	279.76
458.854	256.96
459.312	266.46
459.77	283.16
460.228	277.06
460.686	260.36
461.144	270.26
461.602	259.66
462.06	266.26
462.518	268.96
462.976	270.86
463.434	272.56
463.892	283.46
464.35	293.86
464.808	296.16
465.266	284.86
465.724	282.56
466.181	291.96
466.639	282.56
467.097	309.56
467.555	314.06
468.012	320.26
468.47	329.26
468.928	351.66
469.385	363.56
469.843	368.46
470.3	368.16
470.758	382.26
471.215	406.96
471.673	425.06
472.13	421.06
472.588	438.96
473.045	392.46
473.503	396.86
473.96	408.36
474.417	431.46
474.875	454.86
475.332	490.36
475.789	476.96
476.246	493.86
476.704	506.66
477.161	526.36
477.618	542.26
478.075	582.46
478.532	643.56
478.989	707.66
479.446	814.56
479.903	781.06
480.36	822.76
480.817	855.56
481.274	958.66
481.731	1048.16
482.188	1135.46
482.645	1263.76
483.102	1347.66
483.558	1464.66
484.015	1507.26
484.472	1482.06
484.929	1437.56
485.385	1408.06
485.842	1361.16
486.299	1306.36
486.755	1269.66
487.212	1080.76
487.668	933.76
488.125	864.26
488.582	799.26
489.038	772.56
489.494	737.16
489.951	715.36
490.407	696.96
490.864	673.06
491.32	673.46
491.776	662.16
492.233	680.76
492.689	647.16
493.145	642.96
493.602	634.96
494.058	649.46
494.514	641.16
494.97	665.56
495.426	677.56
495.882	654.06
496.338	635.86
496.794	653.86
497.251	646.56
497.707	663.66
498.163	668.16
498.618	676.26
499.074	671.16
499.53	692.86
499.986	704.86
500.442	661.96
500.898	655.76
501.354	643.36
501.809	659.26
502.265	656.16
502.721	661.66
503.177	669.66
503.632	677.66
504.088	689.96
504.543	699.76
504.999	731.06
505.455	686.16
505.91	671.56
506.366	678.46
506.821	670.86
507.277	667.96
507.732	670.46
508.187	668.06
508.643	672.76
509.098	680.26
509.553	705.86
510.009	711.06
510.464	717.26
510.919	741.66
511.375	735.76
511.83	760.86
512.285	759.86
512.74	799.66
513.195	832.46
513.65	814.06
514.105	803.86
514.56	806.56
515.015	826.76
515.47	850.06
515.925	824.26
516.38	833.26
516.835	832.46
517.29	827.36
517.745	823.16
518.2	802.96
518.655	789.46
519.109	787.06
519.564	781.86
520.019	782.16
520.474	758.46
520.928	753.86
521.383	765.46
521.838	752.86
522.292	759.46
522.747	752.46
523.201	754.06
523.656	741.16
524.11	743.26
524.565	737.66
525.019	729.16
525.474	743.56
525.928	735.26
526.382	740.66
526.837	733.36
527.291	742.76
527.745	734.96
528.2	740.86
528.654	733.46
529.108	734.06
529.562	729.06
530.016	726.76
530.47	728.76
530.925	723.76
531.379	735.66
531.833	743.06
532.287	740.66
532.741	737.86
533.195	735.86
533.649	752.76
534.103	760.26
534.556	757.66
535.01	746.16
535.464	748.46
535.918	754.76
536.372	758.76
536.826	753.16
537.279	737.76
537.733	750.56
538.187	764.16
538.64	757.76
539.094	759.26
539.548	773.96
540.001	758.66
540.455	765.26
540.908	782.36
541.362	785.56
541.815	792.06
542.269	790.46
542.722	809.56
543.175	813.46
543.629	816.46
544.082	832.56
544.536	832.06
544.989	834.16
545.442	836.76
545.895	841.76
546.349	839.96
546.802	838.06
547.255	851.26
547.708	858.06
548.161	867.56
548.614	870.36
549.067	883.16
549.52	873.86
549.973	867.46
550.426	861.46
550.879	853.96
551.332	846.86
551.785	855.56
552.238	861.16
552.691	879.46
553.144	879.56
553.596	896.76
554.049	912.16
554.502	954.06
554.955	969.86
555.407	958.26
555.86	965.26
556.313	942.76
556.765	940.06
557.218	934.86
557.67	931.06
558.123	940.56
558.576	932.86
559.028	932.06
559.48	941.86
559.933	936.46
560.385	890.56
560.838	861.46
561.29	840.26
561.742	835.16
562.195	822.26
562.647	807.86
563.099	821.06
563.551	818.56
564.004	840.56
564.456	817.86
564.908	815.26
565.36	783.36
565.812	771.66
566.264	762.16
566.716	764.96
567.168	751.86
567.62	748.76
568.072	732.86
568.524	735.86
568.976	734.76
569.428	712.96
569.88	723.66
570.332	719.26
570.784	724.76
571.235	723.76
571.687	737.36
572.139	746.46
572.59	757.26
573.042	757.76
573.494	757.26
573.945	753.36
574.397	719.26
574.849	732.56
575.3	732.26
575.752	726.06
576.203	725.26
576.655	730.26
577.106	710.96
577.557	704.26
578.009	695.66
578.46	699.56
578.912	701.76
579.363	709.16
579.814	698.76
580.265	701.46
580.717	711.06
581.168	708.26
581.619	709.76
582.07	719.56
582.521	717.26
582.972	708.16
583.423	711.56
583.875	712.16
584.326	726.66
584.777	740.96
585.227	752.06
585.678	764.26
586.129	773.76
586.58	785.36
587.031	812.46
587.482	838.66
587.933	857.66
588.384	854.06
588.834	835.06
589.285	812.16
589.736	815.96
590.186	814.66
590.637	803.96
591.088	785.46
591.538	776.46
591.989	768.96
592.439	765.06
592.89	756.66
593.34	746.86
593.791	730.26
594.241	730.86
594.692	731.26
595.142	724.96
595.593	734.76
596.043	737.16
596.493	739.16
596.943	745.46
597.394	755.06
597.844	753.76
598.294	770.56
598.744	794.16
599.195	822.26
599.645	862.96
600.095	907.76
600.545	964.36
600.995	1017.16
601.445	1082.76
601.895	1150.06
602.345	1189.26
602.795	1176.86
603.245	1125.66
603.695	1071.26
604.145	1016.86
604.594	972.96
605.044	913.66
605.494	854.66
605.944	795.46
606.393	772.26
606.843	763.76
607.293	765.66
607.743	767.56
608.192	778.76
608.642	789.06
609.091	792.06
609.541	799.26
609.99	803.36
610.44	794.96
610.889	741.36
611.339	721.46
611.788	714.56
612.238	727.26
612.687	740.66
613.136	721.06
613.586	735.96
614.035	737.26
614.484	746.96
614.933	745.36
615.383	738.76
615.832	740.96
616.281	738.66
616.73	703.26
617.179	685.46
617.628	676.86
618.077	650.06
618.526	653.96
618.975	649.96
619.424	648.36
619.873	641.46
620.322	643.36
620.771	632.66
621.22	631.76
621.669	615.66
622.118	615.46
622.567	606.56
623.015	594.76
623.464	595.36
623.913	581.66
624.361	578.56
624.81	579.46
625.259	581.66
625.707	589.86
626.156	574.86
626.604	596.66
627.053	594.56
627.501	586.06
627.95	597.46
628.398	605.16
628.847	593.76
629.295	601.36
629.744	604.36
630.192	588.36
630.64	581.66
631.089	572.86
631.537	572.16
631.985	553.46
632.433	551.76
632.881	542.86
633.33	547.16
633.778	554.16
634.226	547.96
634.674	560.56
635.122	565.26
635.57	574.46
636.018	577.56
636.466	588.56
636.914	566.76
637.362	590.26
637.81	597.46
638.258	615.96
638.705	614.36
639.153	627.36
639.601	652.86
640.049	671.46
640.497	719.06
640.944	724.16
641.392	667.76
641.84	633.06
642.287	609.26
642.735	578.76
643.182	574.46
643.63	583.46
644.078	586.66
644.525	597.36
644.973	603.76
645.42	618.06
645.867	641.86
646.315	655.36
646.762	678.86
647.21	703.66
647.657	726.16
648.104	750.76
648.551	780.56
648.999	842.86
649.446	912.26
649.893	999.76
650.34	1143.06
650.787	1361.76
651.234	1659.56
651.682	2154.56
652.129	2909.96
652.576	4133.46
653.023	6023.36
653.47	8139.76
653.917	10116.26
654.363	11652.06
654.81	12872.46
655.257	12205.36
655.704	8077.96
656.151	4847.36
656.598	3200.26
657.044	2292.96
657.491	1778.36
657.938	1453.56
658.385	1213.86
658.831	1056.56
659.278	955.86
659.724	852.66
660.171	797.66
660.618	725.76
661.064	696.36
661.511	683.16
661.957	664.86
662.404	655.56
662.85	659.96
663.296	644.36
663.743	579.96
664.189	546.76
664.635	557.16
665.082	542.36
665.528	553.46
665.974	538.86
666.42	529.46
666.867	521.46
667.313	500.96
667.759	482.36
668.205	469.56
668.651	464.86
669.097	468.96
669.543	463.16
669.989	462.76
670.435	463.76
670.881	461.66
671.327	466.86
671.773	495.46
672.219	510.56
672.665	563.36
673.11	611.26
673.556	665.06
674.002	706.06
674.448	691.96
674.893	578.06
675.339	501.16
675.785	464.86
676.23	444.36
676.676	410.26
677.122	404.46
677.567	393.56
678.013	386.96
678.458	377.16
678.904	375.66
679.349	367.66
679.794	369.16
680.24	368.06
680.685	366.36
681.131	357.96
681.576	363.56
682.021	371.16
682.466	358.16
682.912	366.96
683.357	370.96
683.802	394.46
684.247	426.26
684.692	481.56
685.137	523.56
685.583	569.96
686.028	587.96
686.473	547.96
686.918	466.86
687.363	439.26
687.807	416.16
688.252	388.26
688.697	375.76
689.142	356.96
689.587	352.86
690.032	336.96
690.477	359.96
690.921	369.06
691.366	402.46
691.811	429.56
692.255	444.96
692.7	478.96
693.145	530.16
693.589	741.66
694.034	1200.06
694.478	1630.66
694.923	1822.16
695.367	2392.66
695.812	1273.76
696.256	530.86
696.701	389.26
697.145	357.76
697.59	341.56
698.034	341.96
698.478	340.46
698.922	331.76
699.367	332.96
699.811	349.46
700.255	363.16
700.699	400.36
701.143	445.26
701.588	498.16
702.032	540.56
702.476	538.76
702.92	513.26
703.364	519.06
703.808	678.86
704.252	1100.76
704.696	1547.86
705.14	1769.46
705.584	2254.96
706.027	1123.46
706.471	543.96
706.915	420.26
707.359	376.66
707.803	335.16
708.246	326.96
708.69	328.96
709.134	326.36
709.577	330.86
710.021	330.36
710.465	325.36
710.908	315.16
711.352	312.06
711.795	329.86
712.239	370.26
712.682	400.16
713.126	430.86
713.569	473.76
714.012	374.26
714.456	315.26
714.899	298.86
715.342	281.46
715.786	273.36
716.229	268.26
716.672	271.56
717.115	258.06
717.558	260.96
718.002	273.96
718.445	282.46
718.888	293.36
719.331	303.36
719.774	320.56
720.217	316.26
720.66	293.36
721.103	279.06
721.546	272.16
721.989	262.96
722.432	243.36
722.874	249.16
723.317	243.56
723.76	241.76
724.203	267.46
724.645	333.86
725.088	466.56
725.531	605.96
725.974	669.26
726.416	576.76
726.859	323.66
727.301	260.36
727.744	241.36
728.187	239.76
728.629	248.26
729.071	246.56
729.514	275.46
729.956	284.56
730.399	302.26
730.841	300.86
731.283	290.86
731.726	282.06
732.168	275.16
732.61	285.36
733.053	300.86
733.495	330.76
733.937	366.66
734.379	420.76
734.821	458.26
735.263	577.26
735.705	892.06
736.148	1710.26
736.59	2763.26
737.032	3251.46
737.474	2643.56
737.916	858.46
738.357	453.36
738.799	342.76
739.241	322.06
739.683	297.76
740.125	302.96
740.567	312.96
741.008	339.36
741.45	331.46
741.892	344.76
742.334	365.66
742.775	389.26
743.217	366.86
743.658	281.46
744.1	277.46
744.542	281.76
744.983	332.36
745.425	366.26
745.866	358.86
746.307	293.36
746.749	291.36
747.19	346.76
747.632	485.66
748.073	948.26
748.514	1991.16
748.956	3028.56
749.397	3844.36
749.838	3176.26
750.279	3152.86
750.72	1591.76
751.162	576.16
751.603	334.16
752.044	260.86
752.485	227.16
752.926	222.96
753.367	217.46
753.808	199.66
754.249	208.66
754.69	193.06
755.131	196.36
755.572	189.46
756.013	189.26
756.453	194.16
756.894	189.96
757.335	202.36
757.776	205.66
758.216	206.56
758.657	203.66
759.098	213.56
759.538	247.86
759.979	278.16
760.42	398.26
760.86	756.16
761.301	1973.86
761.741	4759.76
762.182	6820.96
762.622	4836.56
763.063	1404.36
763.503	565.66
763.943	337.06
764.384	276.66
764.824	248.56
765.264	236.06
765.705	211.56
766.145	195.26
766.585	181.16
767.025	182.26
767.465	168.76
767.906	185.86
768.346	195.66
768.786	204.16
769.226	229.06
769.666	316.56
770.106	663.26
770.546	1669.96
770.986	2806.66
771.426	2496.36
771.866	841.16
772.306	347.36
772.745	210.46
773.185	178.96
773.625	163.56
774.065	154.46
774.505	172.26
774.944	204.56
775.384	370.16
775.824	593.66
776.263	584.06
776.703	289.26
777.142	162.86
777.582	136.26
778.021	127.16
778.461	127.56
778.9	131.16
779.34	133.06
779.779	121.26
780.219	116.36
780.658	107.56
781.097	111.06
781.537	118.56
781.976	109.46
782.415	102.06
782.855	108.46
783.294	103.26
783.733	112.56
784.172	117.66
784.611	111.16
785.05	114.86
785.489	124.36
785.928	121.86
786.367	125.46
786.806	129.66
787.245	134.76
787.684	141.86
788.123	150.76
788.562	139.86
789.001	135.76
789.44	122.36
789.879	120.46
790.317	130.36
790.756	139.86
791.195	128.66
791.634	155.16
792.072	209.76
792.511	388.26
792.95	1073.26
793.388	2244.56
793.827	2012.76
794.265	700.56
794.704	294.66
795.142	188.56
795.581	160.66
796.019	144.76
796.458	138.66
796.896	127.06
797.334	131.06
797.773	159.86
798.211	232.56
798.649	467.16
799.087	1090.76
799.526	1688.16
799.964	2132.06
800.402	2135.06
800.84	803.66
801.278	321.56
801.716	199.06
802.154	157.46
802.592	144.46
803.03	144.46
803.468	142.66
803.906	148.96
804.344	153.76
804.782	144.36
805.22	147.06
805.658	143.96
806.096	147.96
806.533	168.26
806.971	185.66
807.409	227.16
807.847	331.06
808.284	716.86
808.722	2012.76
809.16	3507.66
809.597	3376.36
810.035	5794.16
810.472	6140.46
810.91	2217.16
811.347	855.26
811.785	431.36
812.222	274.46
812.66	204.86
813.097	173.16
813.535	154.16
813.972	130.36
814.409	129.06
814.846	117.96
815.284	121.36
815.721	103.76
816.158	108.56
816.595	112.76
817.032	160.46
817.47	187.96
817.907	146.66
818.344	109.56
818.781	100.96
819.218	100.36
819.655	125.56
820.092	204.16
820.529	230.26
820.966	181.36
821.403	133.76
821.839	106.56
822.276	104.16
822.713	139.46
823.15	150.26
823.587	126.56
824.023	159.86
824.46	322.16
824.897	952.86
825.333	1432.56
825.77	611.96
826.206	241.86
826.643	141.26
827.08	106.76
827.516	80.66
827.953	84.06
828.389	82.46
828.825	73.06
829.262	69.56
829.698	73.06
830.135	67.06
830.571	60.96
831.007	69.36
831.443	63.86
831.88	65.66
832.316	61.96
832.752	62.36
833.188	68.56
833.624	59.66
834.06	68.96
834.497	71.96
834.933	74.26
835.369	75.96
835.805	75.16
836.241	78.66
836.677	88.76
837.112	92.16
837.548	109.06
837.984	142.06
838.42	216.36
838.856	534.86
839.292	1617.76
839.727	2453.26
840.163	1155.16
840.599	980.36
841.034	2171.96
841.47	2253.86
841.906	820.56
842.341	348.46
842.777	203.06
843.212	205.16
843.648	188.96
844.083	118.96
844.519	74.66
844.954	76.26
845.39	58.06
845.825	56.86
846.261	59.86
846.696	57.46
847.131	49.66
847.566	58.66
848.002	49.26
848.437	55.06
848.872	63.46
849.307	62.96
849.742	88.96
850.177	185.56
850.613	588.26
851.048	929.06
851.483	406.86
851.918	166.46
852.353	95.26
852.788	56.16
853.223	56.36
853.657	51.16
854.092	46.76
854.527	44.66
854.962	44.86
855.397	46.26
855.832	49.46
856.266	40.76
856.701	42.76
857.136	44.06
857.57	44.66
858.005	56.06
858.44	64.96
858.874	45.86
859.309	55.86
859.743	45.86
860.178	45.06
860.612	43.36
861.047	52.86
861.481	74.46
861.915	73.36
862.35	52.46
862.784	34.16
863.218	38.76
863.653	42.16
864.087	43.46
864.521	52.96
864.955	66.86
865.39	163.16
865.824	180.46
866.258	119.26
866.692	181.06
867.126	188.96
867.56	113.36
867.994	59.66
868.428	37.66
868.862	47.56
869.296	52.46
869.73	56.66
870.164	55.86
870.598	47.26
871.031	40.26
871.465	34.56
871.899	32.66
872.333	24.76
872.766	23.96
873.2	23.36
873.634	26.96
874.067	24.06
874.501	27.16
874.935	32.06
875.368	33.66
875.802	28.06
876.235	29.16
876.669	27.06
877.102	19.26
877.535	25.56
877.969	23.16
878.402	20.96
878.836	21.36
879.269	23.86
879.702	21.06
880.135	23.16
880.569	28.16
881.002	25.46
881.435	23.86
881.868	15.46
882.301	19.96
882.734	18.36
883.167	19.46
883.601	18.16
884.034	22.46
884.467	18.96
884.899	22.76
885.332	20.16
885.765	13.86
886.198	19.26
886.631	15.96
887.064	19.56
887.497	25.16
887.929	26.46
888.362	15.96
888.795	7.36
889.228	20.66
889.66	20.56
890.093	20.96
890.526	17.56
890.958	17.16
891.391	10.26
891.823	18.16
892.256	12.56
892.688	10.46
893.121	16.16
893.553	15.86
893.985	22.46
894.418	21.26
894.85	10.86
895.282	17.96
895.715	16.76
896.147	23.26
896.579	18.66
897.011	14.06
897.444	17.36
897.876	12.26
898.308	15.26
898.74	10.56
899.172	4.56
899.604	20.06
900.036	25.96
900.468	20.76
900.9	11.26
901.332	14.76
901.764	12.86
902.196	13.96
902.628	8.96
903.06	20.46
903.491	29.66
903.923	27.56
904.355	17.76
904.787	22.56
905.218	17.56
905.65	16.26
906.082	11.66
906.513	12.76
906.945	15.16
907.376	15.86
907.808	13.06
908.239	22.36
908.671	19.86
909.102	12.36
909.534	27.16
909.965	48.46
910.397	96.86
910.828	337.46
911.259	510.06
911.691	235.86
912.122	118.16
912.553	60.56
912.984	32.06
913.415	27.16
913.847	29.76
914.278	14.76
914.709	10.16
915.14	17.06
915.571	15.76
916.002	1.56
916.433	16.66
916.864	13.56
917.295	10.36
917.726	25.36
918.157	13.36
918.587	27.46
919.018	23.96
919.449	18.76
919.88	22.66
920.311	36.26
920.741	51.56
921.172	177.86
921.603	154.96
922.033	70.06
922.464	43.56
922.895	18.56
923.325	25.06
923.756	9.06
924.186	13.66
924.617	16.66
925.047	23.16
925.478	20.86
925.908	26.06
926.338	12.46
926.769	15.36
927.199	19.46
927.629	5.46
928.06	15.66
928.49	9.66
928.92	8.86
929.35	6.66
929.78	8.86
930.21	2.46
930.641	10.66
931.071	11.46
931.501	1.06
931.931	6.36
932.361	8.56
932.791	4.56
933.221	1.76
933.651	5.76
934.08	13.76
934.51	22.16
934.94	9.26
935.37	5.06
935.8	8.56
936.229	4.16
936.659	11.16
937.089	2.26
937.519	9.66
937.948	19.46
938.378	16.76
938.807	9.26
939.237	1.86
939.666	4.96
940.096	-9.44
940.525	2.86
940.955	4.26
941.384	11.06
941.814	0.96
942.243	1.76
942.672	0.46
943.102	0.06
943.531	-1.94
943.96	1.46
944.39	0.26
944.819	-3.94
945.248	10.66
945.677	1.16
946.106	2.46
946.535	1.16
946.964	0.56
947.393	-0.44
947.822	1.76
948.251	-1.54
948.68	-1.24
949.109	8.26
949.538	-0.74
949.967	-1.14
950.396	5.66
950.825	-1.44
951.254	-4.94
951.682	-11.94
952.111	1.46
952.54	9.36
952.969	-7.04
953.397	-1.44
953.826	-2.74
954.254	-2.94
954.683	-1.14
955.112	-5.54
955.54	0.06
955.969	2.66
956.397	-4.64
956.826	-1.64
957.254	4.36
957.682	-0.64
958.111	1.96
958.539	3.26
958.967	-1.24
959.396	-3.04
959.824	2.76
960.252	-3.94
960.68	-4.54
961.109	-2.44
961.537	-2.94
961.965	0.36
962.393	-3.44
962.821	-0.84
963.249	-0.74
963.677	2.46
964.105	-1.24
964.533	47.76
964.961	42.06
965.389	22.76
965.817	10.66
966.245	4.46
966.672	-2.34
967.1	-5.14
967.528	0.86
967.956	-2.34
968.383	1.56
968.811	-5.94
969.239	-3.34
969.666	-12.54
970.094	-1.64
970.522	-0.84
970.949	-1.24
971.377	-2.84
971.804	-1.14
972.232	-1.64
972.659	-5.64
973.087	-1.34
973.514	-0.04
973.941	-3.54
974.369	3.36
974.796	-0.84
975.223	1.46
975.651	-6.44
976.078	2.96
976.505	-4.24
976.932	1.66
977.359	19.36
977.786	18.66
978.214	-1.04
978.641	-5.64
979.068	-4.54
979.495	-9.94
979.922	-2.54
980.349	-3.74
980.776	-2.54
981.202	0.46
981.629	4.56
982.056	3.26
982.483	-2.14
982.91	1.96
983.337	-11.34
983.763	4.56
984.19	-12.44
984.617	0.36
985.043	-8.44
985.47	-2.74
985.897	-3.74
986.323	-9.04
986.75	1.66
987.176	-4.94
987.603	-0.64
988.029	-0.64
988.456	-4.04
988.882	1.86
989.308	-9.64
989.735	-6.74
990.161	-1.94
990.587	-7.84
991.014	-5.84
991.44	1.56
991.866	-2.34
992.292	-6.44
992.719	-0.94
993.145	-4.04
993.571	-13.64
993.997	-12.64
994.423	-5.54
994.849	-5.04
995.275	-3.44
995.701	-1.04
996.127	-7.64
996.553	-4.24
996.979	-8.54
997.405	-5.64
997.83	-3.14
998.256	-6.34
998.682	-5.64
999.108	-7.04
999.534	0.96
999.959	-5.14
1000.385	-5.54
1000.811	0.66
1001.236	-9.84
1001.662	-5.44
1002.087	-9.04
1002.513	-2.94
1002.938	6.76
1003.364	-1.74
1003.789	-2.24
1004.215	-2.54
1004.64	-1.04
1005.066	2.16
1005.491	3.96
1005.916	0.86
1006.342	-2.34
1006.767	-6.54
1007.192	-0.64
1007.617	-12.24
1008.042	-1.74
1008.468	-8.44
1008.893	-4.84
1009.318	-3.74
1009.743	-4.84
1010.168	5.46
1010.593	1.36
1011.018	-10.04
1011.443	-4.74
1011.868	-0.44
1012.293	-5.34
1012.718	-11.64
1013.143	0.86
1013.567	2.46
1013.992	-6.64
1014.417	-12.44
1014.842	-5.34
1015.267	-3.84
1015.691	-5.64
1016.116	2.16
1016.541	-1.14
1016.965	5.26
1017.39	3.36
1017.814	-3.44
1018.239	-5.14
1018.663	-10.24
1019.088	-9.94
1019.512	-4.64
1019.937	-1.84
1020.361	-5.54
1020.785	-12.24
1021.21	-7.14
1021.634	-7.64
1022.058	-4.24
1022.483	1.16
1022.907	-13.64
1023.331	-7.84
1023.755	-3.94
1024.179	-2.14
1024.604	-11.94
1025.028	-4.44
1025.452	-9.94
1025.876	-5.14
1026.3	-4.04
1026.724	-14.34
1027.148	-2.94
1027.572	-14.24
1027.996	-8.14
1028.42	-0.04
1028.843	-8.44
1029.267	-5.04
1029.691	-2.14
1030.115	-15.14
1030.539	-7.94
1030.962	-7.44
1031.386	-7.54
1031.81	-0.34
1032.233	-7.44
1032.657	0.76
1033.08	-6.44
1033.504	-5.84
1033.927	-3.94
1034.351	0.06
1034.774	-7.94
1035.198	-4.94
1035.621	-13.84
1036.045	-9.14
1036.468	2.56
1036.891	-14.44
1037.315	-7.94
1037.738	-8.34
1038.161	-4.54
1038.584	-2.24
1039.008	-5.84
1039.431	-5.64
1039.854	-10.54
1040.277	-9.84
1040.7	-13.74
1041.123	-3.44
1041.546	-3.04
1041.969	-4.64
1042.392	-0.84
1042.815	-1.14
1043.238	-5.14
1043.661	-2.04
1044.084	-9.44
1044.507	-8.64
1044.93	-2.94
1045.352	-8.74
1045.775	-5.74
1046.198	-3.64
1046.621	-2.84
1047.043	2.46
1047.466	9.26
1047.889	-1.24
1048.311	-7.84
1048.734	-4.14
1049.156	-8.84
1049.579	-5.54
1050.001	-4.84
1050.424	-3.34
1050.846	-9.34
1051.269	-2.44
1051.691	-10.54
1052.113	-5.44
1052.536	-2.74
1052.958	-4.84
1053.38	-5.34
1053.802	-16.44
1054.225	0.66
1054.647	-12.04
1055.069	-4.04
1055.491	1.66
1055.913	-9.84
1056.335	-1.14
1056.757	-6.84
1057.179	-7.64
1057.601	-3.34
1058.023	-4.94
1058.445	-7.14
1058.867	-3.54
1059.289	-10.64
1059.711	-4.24
1060.133	-6.24
1060.555	-10.94
1060.976	-8.94
1061.398	-8.44
1061.82	-12.14
1062.241	-6.84
1062.663	-7.94
1063.085	-4.84
1063.506	-1.94
1063.928	-1.94
1064.35	-10.64
1064.771	-14.74
1065.193	-4.34
1065.614	-15.74
1066.035	-5.44
1066.457	-5.34
1066.878	-0.84
1067.3	-7.44
1067.721	-4.64
1068.142	-9.54
1068.564	-6.74
1068.985	-12.24
1069.406	-5.54
1069.827	-10.74
1070.248	-1.44
1070.67	-8.94
1071.091	-6.24
1071.512	-6.84
1071.933	-7.94
1072.354	-11.34
1072.775	-3.84
1073.196	-10.54
1073.617	-2.94
1074.038	-7.64
1074.459	-5.34
1074.88	-6.14
1075.3	0.16
1075.721	-7.34
1076.142	3.36
1076.563	-5.74
1076.983	-7.34
1077.404	-12.94
1077.825	-12.04
1078.246	-11.24
1078.666	-10.34
1079.087	-7.34
1079.507	-6.24
1079.928	-0.74
1080.348	-4.54
1080.769	-7.44
1081.189	-6.44
1081.61	-0.74
1082.03	-15.54
1082.451	-8.74
1082.871	-10.64
1083.291	-7.24
1083.711	-5.14
1084.132	-6.04
1084.552	-5.24
1084.972	-0.54
1085.392	-8.34
1085.813	-11.34
1086.233	-11.44
1086.653	-15.44
1087.073	-6.84
1087.493	-6.34
1087.913	-7.54
1088.333	-11.04
1088.753	-3.74
1089.173	3.56
1089.593	-6.24
1090.013	-0.34
1090.433	-1.74
1090.852	-3.14
1091.272	-4.34
1091.692	-4.94
1092.112	-10.74
1092.531	-11.04
1092.951	-13.04
1093.371	-6.44
1093.79	-1.94
1094.21	-5.04
1094.63	-3.64
1095.049	-10.24
1095.469	-2.94
1095.888	-1.04
1096.308	-0.74
1096.727	4.16
1097.146	-5.44
1097.566	0.46
1097.985	-7.84
1098.405	-10.24
1098.824	-11.54
1099.243	-8.74
1099.662	-8.94
1100.082	-10.34
1100.501	-5.74
1100.92	-10.54
1101.339	-8.74
1101.758	-4.34
