Data from 20171114-ORNL-Ar_H_NY_Subt18_08-07-03-591.txt Node
Date: Tue Nov 14 08:07:03 EST 2017
User: Ender
Spectrometer: HR+D1039
Trigger mode: 0
Integration Time (sec): 2.730000E-2
Scans to average: 10
Electric dark correction enabled: true
Nonlinearity correction enabled: false
Boxcar width: 0
XAxis mode: Wavelengths
Number of Pixels in Spectrum: 2048
>>>>>Begin Spectral Data<<<<<
187.836	-3.73
188.309	-3.73
188.782	-3.73
189.255	2.17
189.728	0.77
190.201	6.17
190.674	7.07
191.147	2.37
191.619	-4.23
192.092	1.97
192.565	2.97
193.038	-0.73
193.511	-2.43
193.984	3.47
194.456	-4.93
194.929	-0.33
195.402	-7.13
195.874	-3.43
196.347	-4.23
196.82	-7.13
197.292	3.87
197.765	0.67
198.237	-6.73
198.71	-3.23
199.182	2.17
199.655	1.77
200.127	5.17
200.6	-2.53
201.072	-6.83
201.544	-5.43
202.017	-4.83
202.489	1.77
202.961	-7.63
203.433	-3.13
203.906	-6.33
204.378	-0.83
204.85	-6.23
205.322	-7.93
205.794	-0.53
206.266	2.97
206.739	-9.33
207.211	-4.53
207.683	-8.13
208.155	-5.83
208.627	-8.83
209.099	-1.53
209.57	-6.43
210.042	-3.53
210.514	-2.53
210.986	-2.73
211.458	-12.93
211.93	0.07
212.402	2.27
212.873	-0.53
213.345	-9.23
213.817	-10.43
214.288	-2.03
214.76	-18.43
215.232	-0.03
215.703	-4.33
216.175	0.47
216.646	-1.73
217.118	-7.83
217.589	-7.33
218.061	-1.23
218.532	-5.03
219.004	-0.43
219.475	-5.23
219.946	-2.23
220.418	-3.33
220.889	-0.63
221.36	-1.93
221.832	-7.33
222.303	-6.03
222.774	-1.03
223.245	-10.53
223.717	-4.83
224.188	-7.43
224.659	-7.43
225.13	-11.03
225.601	-3.13
226.072	-7.13
226.543	-5.23
227.014	-1.63
227.485	-5.13
227.956	-5.53
228.427	-1.93
228.898	1.57
229.369	0.87
229.839	-1.63
230.31	-9.13
230.781	1.47
231.252	-6.93
231.722	-8.53
232.193	0.97
232.664	-6.03
233.135	2.07
233.605	0.87
234.076	-2.83
234.546	-2.03
235.017	0.57
235.487	-0.83
235.958	-6.53
236.428	-7.03
236.899	-9.73
237.369	3.87
237.84	-8.13
238.31	4.57
238.78	-5.43
239.251	-5.33
239.721	-9.23
240.191	-4.33
240.662	-1.63
241.132	-4.73
241.602	-2.93
242.072	-2.13
242.542	1.97
243.013	-5.43
243.483	1.97
243.953	-3.23
244.423	-4.43
244.893	-11.13
245.363	-2.03
245.833	2.37
246.303	-9.43
246.773	2.07
247.243	-6.13
247.712	-5.03
248.182	-0.83
248.652	-3.33
249.122	-8.73
249.592	1.17
250.061	4.87
250.531	7.17
251.001	0.07
251.471	2.87
251.94	7.17
252.41	-0.73
252.879	-12.23
253.349	7.77
253.818	5.37
254.288	4.47
254.757	2.07
255.227	-5.43
255.696	-4.13
256.166	3.17
256.635	-2.73
257.105	-1.13
257.574	-1.83
258.043	-0.83
258.513	-12.03
258.982	-0.73
259.451	-5.53
259.92	-2.13
260.389	4.17
260.859	5.77
261.328	3.87
261.797	-0.63
262.266	1.87
262.735	7.57
263.204	-3.23
263.673	-0.73
264.142	-0.83
264.611	-6.73
265.08	-0.83
265.549	-4.03
266.018	-4.73
266.487	-4.53
266.955	-2.13
267.424	-2.83
267.893	-0.33
268.362	-4.63
268.83	-2.03
269.299	2.37
269.768	8.17
270.236	0.17
270.705	0.77
271.174	1.17
271.642	1.37
272.111	2.47
272.579	2.87
273.048	3.27
273.516	3.47
273.985	1.07
274.453	11.07
274.922	4.17
275.39	4.67
275.858	-3.53
276.327	7.97
276.795	8.37
277.263	-0.83
277.731	9.07
278.2	11.27
278.668	7.77
279.136	7.17
279.604	-0.23
280.072	8.27
280.54	10.97
281.008	1.37
281.477	8.17
281.945	5.37
282.413	11.87
282.881	6.37
283.348	1.37
283.816	6.07
284.284	9.47
284.752	17.47
285.22	3.57
285.688	9.17
286.156	7.47
286.623	15.27
287.091	3.37
287.559	11.07
288.026	7.47
288.494	11.87
288.962	5.67
289.429	4.27
289.897	14.27
290.364	9.07
290.832	14.37
291.3	12.47
291.767	5.17
292.234	15.27
292.702	3.87
293.169	8.67
293.637	18.07
294.104	9.17
294.571	1.57
295.039	6.37
295.506	4.97
295.973	16.57
296.44	11.37
296.908	9.57
297.375	6.67
297.842	13.47
298.309	10.97
298.776	4.27
299.243	8.97
299.71	3.97
300.177	16.77
300.644	15.37
301.111	10.17
301.578	16.37
302.045	5.17
302.512	17.17
302.979	17.57
303.446	22.67
303.913	11.77
304.379	17.17
304.846	17.77
305.313	23.07
305.78	14.07
306.246	16.87
306.713	21.67
307.18	19.67
307.646	23.37
308.113	21.47
308.579	16.37
309.046	24.07
309.512	15.07
309.979	12.57
310.445	19.07
310.912	21.97
311.378	23.57
311.845	21.67
312.311	27.37
312.777	28.37
313.244	27.47
313.71	31.27
314.176	23.67
314.642	21.27
315.109	24.37
315.575	27.97
316.041	29.97
316.507	21.97
316.973	30.47
317.439	27.07
317.905	25.97
318.371	24.87
318.837	24.87
319.303	25.57
319.769	24.47
320.235	25.87
320.701	27.47
321.167	33.97
321.633	23.07
322.099	35.57
322.564	33.07
323.03	23.67
323.496	36.77
323.962	35.87
324.427	22.77
324.893	37.67
325.359	36.87
325.824	31.17
326.29	28.77
326.755	29.07
327.221	34.87
327.686	31.87
328.152	34.97
328.617	36.47
329.083	37.87
329.548	42.97
330.014	42.57
330.479	33.17
330.944	35.67
331.41	32.67
331.875	40.87
332.34	39.77
332.805	43.47
333.271	37.07
333.736	35.57
334.201	37.17
334.666	51.57
335.131	46.37
335.596	39.17
336.061	41.77
336.526	29.87
336.991	43.37
337.456	53.07
337.921	39.97
338.386	37.07
338.851	35.37
339.316	36.27
339.781	35.67
340.246	43.27
340.711	42.47
341.175	51.87
341.64	42.47
342.105	45.17
342.569	47.07
343.034	51.27
343.499	39.97
343.963	40.77
344.428	56.37
344.893	50.57
345.357	55.47
345.822	52.37
346.286	61.87
346.751	56.37
347.215	58.27
347.679	65.37
348.144	78.97
348.608	66.27
349.073	62.87
349.537	62.27
350.001	59.27
350.465	76.57
350.93	67.27
351.394	71.07
351.858	62.67
352.322	76.17
352.786	73.07
353.25	85.87
353.715	92.37
354.179	79.67
354.643	100.87
355.107	98.17
355.571	100.07
356.035	84.47
356.498	98.47
356.962	93.37
357.426	104.47
357.89	95.17
358.354	72.37
358.818	77.47
359.281	73.37
359.745	63.37
360.209	67.87
360.673	64.37
361.136	70.87
361.6	74.97
362.064	77.57
362.527	72.37
362.991	84.27
363.454	67.67
363.918	74.27
364.381	73.97
364.845	74.87
365.308	71.37
365.772	80.57
366.235	74.87
366.698	77.87
367.162	69.67
367.625	73.17
368.088	80.27
368.552	83.27
369.015	78.07
369.478	84.77
369.941	93.07
370.404	78.97
370.867	91.17
371.331	92.87
371.794	101.47
372.257	94.37
372.72	97.27
373.183	92.67
373.646	85.27
374.109	83.97
374.572	97.47
375.035	88.57
375.497	101.17
375.96	100.77
376.423	96.77
376.886	98.17
377.349	104.97
377.811	92.27
378.274	98.07
378.737	98.07
379.199	97.57
379.662	98.77
380.125	93.97
380.587	106.17
381.05	91.77
381.512	103.97
381.975	104.27
382.437	107.77
382.9	108.17
383.362	114.67
383.825	116.17
384.287	107.17
384.75	110.87
385.212	112.27
385.674	124.87
386.136	125.17
386.599	117.37
387.061	113.37
387.523	105.87
387.985	123.77
388.447	124.57
388.91	122.47
389.372	122.67
389.834	121.87
390.296	119.17
390.758	128.57
391.22	122.77
391.682	139.07
392.144	141.47
392.606	134.77
393.068	136.67
393.529	148.77
393.991	140.27
394.453	126.97
394.915	134.37
395.377	126.07
395.838	134.17
396.3	131.57
396.762	133.97
397.224	128.57
397.685	119.97
398.147	130.77
398.608	129.97
399.07	136.57
399.531	131.97
399.993	139.07
400.454	146.17
400.916	147.47
401.377	143.07
401.839	144.17
402.3	151.27
402.762	156.57
403.223	168.67
403.684	165.27
404.145	156.27
404.607	157.77
405.068	156.57
405.529	162.87
405.99	177.77
406.451	173.67
406.913	163.37
407.374	159.17
407.835	157.57
408.296	170.27
408.757	164.17
409.218	179.97
409.679	165.77
410.14	171.07
410.601	174.37
411.062	179.77
411.522	174.77
411.983	171.77
412.444	180.67
412.905	177.27
413.366	181.27
413.826	201.17
414.287	214.97
414.748	268.37
415.208	249.57
415.669	225.77
416.13	209.67
416.59	207.27
417.051	218.27
417.511	219.57
417.972	239.27
418.432	242.57
418.893	282.57
419.353	254.27
419.814	206.47
420.274	179.07
420.734	185.37
421.195	192.97
421.655	194.27
422.115	197.97
422.576	199.97
423.036	200.87
423.496	210.37
423.956	222.77
424.416	233.07
424.876	274.47
425.336	262.77
425.797	263.47
426.257	257.97
426.717	244.37
427.177	236.27
427.637	221.47
428.097	233.47
428.556	243.37
429.016	271.77
429.476	264.27
429.936	272.17
430.396	272.77
430.856	284.37
431.315	306.47
431.775	331.87
432.235	368.87
432.694	344.37
433.154	355.97
433.614	380.37
434.073	328.17
434.533	279.17
434.993	265.07
435.452	282.57
435.912	292.67
436.371	284.67
436.83	276.77
437.29	265.17
437.749	245.07
438.209	243.87
438.668	268.27
439.127	283.87
439.587	267.67
440.046	254.17
440.505	263.17
440.964	280.77
441.424	327.27
441.883	310.87
442.342	272.37
442.801	235.57
443.26	232.07
443.719	224.37
444.178	226.07
444.637	217.17
445.096	222.57
445.555	232.17
446.014	228.27
446.473	235.87
446.932	234.17
447.391	237.97
447.849	241.37
448.308	227.67
448.767	235.37
449.226	253.27
449.685	251.07
450.143	259.37
450.602	249.67
451.061	239.07
451.519	246.37
451.978	248.97
452.436	241.37
452.895	252.17
453.353	255.07
453.812	247.07
454.27	248.07
454.729	251.07
455.187	248.37
455.646	251.17
456.104	258.57
456.562	273.67
457.021	285.77
457.479	270.97
457.937	287.57
458.395	278.07
458.854	263.47
459.312	266.77
459.77	284.77
460.228	264.87
460.686	257.77
461.144	256.17
461.602	255.77
462.06	259.27
462.518	259.07
462.976	275.77
463.434	263.17
463.892	276.87
464.35	286.17
464.808	298.07
465.266	275.87
465.724	281.97
466.181	297.47
466.639	282.67
467.097	305.47
467.555	313.97
468.012	321.77
468.47	324.47
468.928	350.07
469.385	358.17
469.843	360.17
470.3	361.67
470.758	372.57
471.215	406.07
471.673	418.37
472.13	424.17
472.588	430.57
473.045	392.97
473.503	398.67
473.96	414.17
474.417	419.57
474.875	454.37
475.332	493.07
475.789	477.77
476.246	481.07
476.704	509.37
477.161	526.47
477.618	540.17
478.075	574.97
478.532	633.67
478.989	698.17
479.446	806.17
479.903	780.97
480.36	814.57
480.817	854.17
481.274	947.47
481.731	1051.87
482.188	1115.87
482.645	1238.37
483.102	1328.97
483.558	1451.77
484.015	1485.87
484.472	1465.97
484.929	1409.17
485.385	1385.07
485.842	1347.47
486.299	1304.17
486.755	1254.87
487.212	1078.37
487.668	921.87
488.125	849.47
488.582	785.87
489.038	763.17
489.494	721.87
489.951	700.57
490.407	685.97
490.864	672.07
491.32	663.37
491.776	665.77
492.233	671.17
492.689	643.67
493.145	638.37
493.602	627.77
494.058	639.87
494.514	633.07
494.97	662.77
495.426	679.27
495.882	648.57
496.338	631.47
496.794	648.27
497.251	637.47
497.707	655.27
498.163	668.27
498.618	672.77
499.074	659.87
499.53	697.47
499.986	697.47
500.442	663.37
500.898	646.57
501.354	633.87
501.809	649.57
502.265	651.67
502.721	659.57
503.177	672.37
503.632	676.47
504.088	681.07
504.543	698.97
504.999	719.67
505.455	697.37
505.91	668.87
506.366	669.47
506.821	668.67
507.277	668.97
507.732	658.07
508.187	659.67
508.643	671.07
509.098	679.27
509.553	699.57
510.009	707.57
510.464	707.67
510.919	723.27
511.375	740.57
511.83	757.07
512.285	760.07
512.74	791.27
513.195	811.77
513.65	810.97
514.105	804.17
514.56	808.77
515.015	818.17
515.47	824.87
515.925	820.17
516.38	831.87
516.835	827.17
517.29	820.37
517.745	822.67
518.2	808.77
518.655	799.27
519.109	782.67
519.564	781.07
520.019	769.27
520.474	762.67
520.928	765.97
521.383	755.17
521.838	751.67
522.292	751.67
522.747	747.97
523.201	747.37
523.656	738.07
524.11	729.07
524.565	724.47
525.019	725.07
525.474	737.17
525.928	737.07
526.382	731.57
526.837	734.87
527.291	741.37
527.745	736.37
528.2	739.67
528.654	736.07
529.108	723.57
529.562	731.67
530.016	728.67
530.47	728.07
530.925	735.07
531.379	730.97
531.833	728.17
532.287	736.57
532.741	733.27
533.195	732.37
533.649	742.47
534.103	751.57
534.556	751.37
535.01	741.07
535.464	737.97
535.918	761.17
536.372	763.77
536.826	751.27
537.279	741.37
537.733	758.77
538.187	751.67
538.64	756.47
539.094	764.47
539.548	775.67
540.001	761.97
540.455	763.07
540.908	774.27
541.362	778.57
541.815	794.57
542.269	792.77
542.722	795.97
543.175	801.87
543.629	816.67
544.082	833.27
544.536	831.57
544.989	827.67
545.442	835.27
545.895	839.67
546.349	836.17
546.802	845.17
547.255	843.27
547.708	848.07
548.161	864.77
548.614	863.57
549.067	871.17
549.52	869.17
549.973	851.07
550.426	849.37
550.879	844.37
551.332	843.87
551.785	855.37
552.238	848.47
552.691	867.17
553.144	890.87
553.596	893.67
554.049	926.97
554.502	941.87
554.955	965.77
555.407	965.17
555.86	946.07
556.313	938.07
556.765	935.37
557.218	934.97
557.67	930.07
558.123	923.07
558.576	922.17
559.028	933.57
559.48	943.87
559.933	935.07
560.385	884.67
560.838	864.57
561.29	838.07
561.742	828.17
562.195	816.37
562.647	809.77
563.099	818.57
563.551	817.07
564.004	831.87
564.456	812.57
564.908	803.17
565.36	785.07
565.812	772.57
566.264	756.77
566.716	762.67
567.168	751.67
567.62	751.97
568.072	745.97
568.524	727.67
568.976	727.57
569.428	710.67
569.88	719.17
570.332	726.97
570.784	730.77
571.235	716.97
571.687	735.97
572.139	745.67
572.59	758.87
573.042	760.37
573.494	753.67
573.945	747.67
574.397	743.47
574.849	735.67
575.3	734.17
575.752	722.47
576.203	717.47
576.655	725.97
577.106	704.07
577.557	709.77
578.009	712.37
578.46	709.47
578.912	698.17
579.363	702.97
579.814	709.67
580.265	698.87
580.717	697.27
581.168	703.97
581.619	711.87
582.07	713.57
582.521	712.47
582.972	711.27
583.423	708.67
583.875	709.87
584.326	710.37
584.777	735.17
585.227	757.37
585.678	761.87
586.129	776.27
586.58	797.87
587.031	815.87
587.482	840.17
587.933	863.77
588.384	850.87
588.834	823.67
589.285	815.97
589.736	818.47
590.186	819.97
590.637	798.07
591.088	787.47
591.538	775.87
591.989	772.87
592.439	762.77
592.89	755.67
593.34	739.87
593.791	736.07
594.241	728.87
594.692	736.87
595.142	730.97
595.593	735.67
596.043	737.77
596.493	742.17
596.943	743.07
597.394	752.47
597.844	758.57
598.294	773.37
598.744	790.17
599.195	825.37
599.645	859.87
600.095	900.17
600.545	962.07
600.995	1016.87
601.445	1081.97
601.895	1144.27
602.345	1186.77
602.795	1174.67
603.245	1126.97
603.695	1077.27
604.145	1015.17
604.594	960.17
605.044	921.27
605.494	846.07
605.944	798.77
606.393	777.77
606.843	762.57
607.293	759.37
607.743	764.87
608.192	780.57
608.642	795.57
609.091	795.07
609.541	792.27
609.99	797.67
610.44	795.27
610.889	753.87
611.339	729.17
611.788	717.87
612.238	724.27
612.687	731.97
613.136	727.67
613.586	743.67
614.035	730.57
614.484	750.17
614.933	735.57
615.383	734.17
615.832	730.57
616.281	728.77
616.73	700.27
617.179	685.77
617.628	668.17
618.077	660.67
618.526	650.77
618.975	645.67
619.424	649.67
619.873	636.67
620.322	655.07
620.771	629.97
621.22	634.17
621.669	625.47
622.118	617.87
622.567	611.97
623.015	593.17
623.464	594.77
623.913	586.27
624.361	588.47
624.81	571.07
625.259	575.67
625.707	581.97
626.156	588.17
626.604	594.87
627.053	583.77
627.501	589.17
627.95	597.97
628.398	608.87
628.847	595.77
629.295	599.67
629.744	605.17
630.192	598.67
630.64	597.47
631.089	567.67
631.537	561.57
631.985	553.47
632.433	545.67
632.881	539.47
633.33	561.07
633.778	549.07
634.226	541.97
634.674	561.47
635.122	565.57
635.57	582.27
636.018	584.57
636.466	582.47
636.914	574.97
637.362	589.07
637.81	605.77
638.258	606.87
638.705	614.27
639.153	637.87
639.601	646.37
640.049	666.87
640.497	700.37
640.944	719.67
641.392	671.97
641.84	640.37
642.287	602.57
642.735	595.27
643.182	592.07
643.63	584.77
644.078	580.37
644.525	600.17
644.973	600.67
645.42	609.87
645.867	639.97
646.315	650.37
646.762	676.27
647.21	700.57
647.657	730.77
648.104	756.07
648.551	775.67
648.999	844.47
649.446	906.97
649.893	1011.77
650.34	1141.97
650.787	1371.27
651.234	1673.47
651.682	2132.27
652.129	2892.07
652.576	4130.47
653.023	5987.47
653.47	8108.47
653.917	10077.87
654.363	11608.97
654.81	12803.47
655.257	12119.17
655.704	8049.17
656.151	4860.87
656.598	3191.27
657.044	2297.17
657.491	1778.77
657.938	1438.97
658.385	1212.37
658.831	1070.77
659.278	953.47
659.724	855.57
660.171	795.47
660.618	728.27
661.064	696.17
661.511	672.97
661.957	665.97
662.404	650.07
662.85	670.97
663.296	631.47
663.743	579.57
664.189	548.37
664.635	557.57
665.082	551.47
665.528	547.67
665.974	532.37
666.42	531.17
666.867	517.37
667.313	504.27
667.759	486.07
668.205	472.47
668.651	472.57
669.097	460.37
669.543	463.87
669.989	458.37
670.435	460.57
670.881	462.17
671.327	468.27
671.773	491.17
672.219	511.17
672.665	575.17
673.11	613.97
673.556	655.67
674.002	699.07
674.448	671.07
674.893	580.37
675.339	505.97
675.785	460.87
676.23	438.37
676.676	421.67
677.122	388.97
677.567	386.67
678.013	389.97
678.458	375.37
678.904	377.67
679.349	362.27
679.794	371.67
680.24	374.37
680.685	366.27
681.131	362.87
681.576	372.27
682.021	375.47
682.466	368.87
682.912	364.57
683.357	370.17
683.802	413.17
684.247	426.67
684.692	472.87
685.137	523.07
685.583	561.47
686.028	586.27
686.473	538.67
686.918	469.67
687.363	439.47
687.807	412.77
688.252	382.57
688.697	375.67
689.142	348.67
689.587	343.87
690.032	335.07
690.477	357.67
690.921	371.77
691.366	393.67
691.811	428.87
692.255	455.07
692.7	488.57
693.145	528.47
693.589	739.77
694.034	1205.67
694.478	1637.57
694.923	1840.37
695.367	2377.57
695.812	1267.57
696.256	524.57
696.701	389.07
697.145	360.87
697.59	344.07
698.034	332.87
698.478	335.77
698.922	334.67
699.367	337.57
699.811	348.67
700.255	365.77
700.699	406.17
701.143	432.67
701.588	491.37
702.032	530.37
702.476	529.17
702.92	510.07
703.364	523.07
703.808	679.17
704.252	1094.17
704.696	1552.07
705.14	1756.67
705.584	2258.77
706.027	1124.47
706.471	549.37
706.915	421.77
707.359	374.27
707.803	340.17
708.246	331.77
708.69	332.67
709.134	330.77
709.577	331.27
710.021	332.17
710.465	318.67
710.908	315.27
711.352	312.27
711.795	324.57
712.239	374.47
712.682	400.77
713.126	423.97
713.569	468.27
714.012	365.37
714.456	316.27
714.899	296.27
715.342	283.87
715.786	271.27
716.229	264.97
716.672	275.97
717.115	261.37
717.558	263.67
718.002	263.17
718.445	279.87
718.888	294.77
719.331	306.67
719.774	318.07
720.217	322.77
720.66	292.07
721.103	279.37
721.546	265.67
721.989	256.97
722.432	238.87
722.874	246.87
723.317	237.17
723.76	247.67
724.203	266.27
724.645	334.87
725.088	468.87
725.531	605.37
725.974	668.27
726.416	577.07
726.859	323.57
727.301	254.17
727.744	250.27
728.187	242.47
728.629	256.47
729.071	260.27
729.514	269.17
729.956	284.87
730.399	301.27
730.841	301.67
731.283	288.77
731.726	280.27
732.168	277.87
732.61	279.17
733.053	293.67
733.495	340.77
733.937	371.37
734.379	420.17
734.821	459.07
735.263	579.97
735.705	893.37
736.148	1698.17
736.59	2746.47
737.032	3240.77
737.474	2641.37
737.916	852.97
738.357	455.87
738.799	344.67
739.241	316.77
739.683	296.27
740.125	316.87
740.567	313.07
741.008	329.17
741.45	328.27
741.892	334.57
742.334	367.47
742.775	388.37
743.217	362.97
743.658	283.97
744.1	269.17
744.542	279.87
744.983	335.87
745.425	370.67
745.866	362.77
746.307	295.57
746.749	285.97
747.19	338.47
747.632	479.67
748.073	944.17
748.514	1987.67
748.956	3030.17
749.397	3819.37
749.838	3157.67
750.279	3129.07
750.72	1585.87
751.162	589.97
751.603	341.37
752.044	257.17
752.485	227.67
752.926	219.07
753.367	219.27
753.808	205.67
754.249	198.87
754.69	187.97
755.131	188.47
755.572	189.87
756.013	188.87
756.453	196.07
756.894	195.57
757.335	197.77
757.776	201.77
758.216	201.97
758.657	201.37
759.098	208.67
759.538	239.27
759.979	281.37
760.42	401.97
760.86	756.57
761.301	1964.27
761.741	4731.17
762.182	6803.47
762.622	4813.27
763.063	1402.77
763.503	568.17
763.943	349.57
764.384	282.07
764.824	247.67
765.264	235.37
765.705	215.17
766.145	195.67
766.585	180.47
767.025	176.97
767.465	166.87
767.906	186.87
768.346	190.67
768.786	204.77
769.226	225.17
769.666	321.77
770.106	665.37
770.546	1647.17
770.986	2796.07
771.426	2515.57
771.866	835.67
772.306	337.67
772.745	220.97
773.185	181.67
773.625	170.97
774.065	155.47
774.505	170.07
774.944	208.37
775.384	366.47
775.824	609.47
776.263	583.07
776.703	286.37
777.142	168.47
777.582	132.97
778.021	128.57
778.461	128.37
778.9	128.17
779.34	133.77
779.779	116.17
780.219	114.97
780.658	110.87
781.097	115.97
781.537	112.67
781.976	109.97
782.415	105.67
782.855	112.27
783.294	108.57
783.733	115.97
784.172	115.37
784.611	103.97
785.05	106.57
785.489	110.37
785.928	125.17
786.367	119.87
786.806	125.07
787.245	132.07
787.684	140.47
788.123	153.07
788.562	138.37
789.001	136.57
789.44	129.07
789.879	120.67
790.317	124.07
790.756	136.17
791.195	135.17
791.634	155.87
792.072	208.27
792.511	384.77
792.95	1053.97
793.388	2225.57
793.827	2010.67
794.265	704.27
794.704	295.07
795.142	190.37
795.581	157.27
796.019	140.47
796.458	139.97
796.896	123.37
797.334	138.97
797.773	166.37
798.211	230.47
798.649	473.37
799.087	1079.27
799.526	1710.77
799.964	2142.17
800.402	2122.17
800.84	810.27
801.278	323.67
801.716	201.37
802.154	160.27
802.592	149.57
803.03	144.27
803.468	145.67
803.906	145.77
804.344	151.97
804.782	144.67
805.22	143.97
805.658	141.87
806.096	154.57
806.533	168.27
806.971	184.47
807.409	226.97
807.847	337.67
808.284	714.87
808.722	1984.67
809.16	3476.47
809.597	3344.77
810.035	5775.57
810.472	6109.37
810.91	2225.07
811.347	855.77
811.785	429.07
812.222	273.97
812.66	205.17
813.097	176.57
813.535	146.17
813.972	141.27
814.409	127.27
814.846	121.37
815.284	114.27
815.721	104.37
816.158	111.67
816.595	111.47
817.032	159.27
817.47	186.87
817.907	146.67
818.344	106.67
818.781	101.87
819.218	98.87
819.655	129.67
820.092	200.17
820.529	225.57
820.966	182.27
821.403	132.87
821.839	100.57
822.276	106.27
822.713	125.47
823.15	142.47
823.587	124.77
824.023	151.47
824.46	310.67
824.897	955.97
825.333	1435.57
825.77	607.07
826.206	239.67
826.643	145.77
827.08	108.37
827.516	84.37
827.953	80.77
828.389	82.67
828.825	74.67
829.262	69.67
829.698	64.67
830.135	68.87
830.571	62.17
831.007	61.27
831.443	59.57
831.88	66.67
832.316	59.47
832.752	64.57
833.188	64.87
833.624	60.87
834.06	71.47
834.497	70.37
834.933	75.67
835.369	73.67
835.805	70.27
836.241	78.47
836.677	84.47
837.112	92.57
837.548	116.57
837.984	143.17
838.42	215.97
838.856	532.27
839.292	1615.27
839.727	2418.27
840.163	1144.87
840.599	987.17
841.034	2172.47
841.47	2256.07
841.906	827.97
842.341	351.47
842.777	210.87
843.212	212.77
843.648	189.07
844.083	109.47
844.519	92.07
844.954	71.27
845.39	63.17
845.825	59.77
846.261	54.47
846.696	51.67
847.131	56.87
847.566	62.07
848.002	52.07
848.437	56.47
848.872	61.07
849.307	67.07
849.742	90.37
850.177	197.77
850.613	588.77
851.048	924.87
851.483	396.37
851.918	156.27
852.353	93.97
852.788	56.37
853.223	55.37
853.657	56.47
854.092	52.47
854.527	41.77
854.962	36.87
855.397	53.07
855.832	46.87
856.266	45.47
856.701	42.47
857.136	39.67
857.57	43.87
858.005	48.47
858.44	59.67
858.874	47.67
859.309	61.97
859.743	35.77
860.178	53.57
860.612	41.07
861.047	56.67
861.481	70.47
861.915	71.17
862.35	51.77
862.784	32.57
863.218	40.47
863.653	34.57
864.087	46.97
864.521	51.07
864.955	72.17
865.39	157.67
865.824	187.47
866.258	127.07
866.692	175.37
867.126	190.17
867.56	108.47
867.994	57.27
868.428	32.37
868.862	53.67
869.296	56.47
869.73	63.87
870.164	59.87
870.598	48.07
871.031	39.77
871.465	30.47
871.899	33.57
872.333	27.47
872.766	19.87
873.2	24.07
873.634	31.27
874.067	24.97
874.501	24.47
874.935	36.37
875.368	31.57
875.802	27.67
876.235	25.27
876.669	24.17
877.102	22.07
877.535	28.07
877.969	19.97
878.402	18.57
878.836	20.87
879.269	24.47
879.702	25.27
880.135	19.37
880.569	24.87
881.002	22.27
881.435	17.67
881.868	21.57
882.301	23.57
882.734	17.57
883.167	19.97
883.601	19.87
884.034	20.67
884.467	15.07
884.899	15.47
885.332	16.37
885.765	16.97
886.198	19.97
886.631	24.17
887.064	9.47
887.497	22.07
887.929	21.37
888.362	19.37
888.795	15.77
889.228	24.37
889.66	18.87
890.093	17.57
890.526	22.17
890.958	15.47
891.391	17.87
891.823	23.37
892.256	16.07
892.688	11.87
893.121	23.67
893.553	17.67
893.985	18.97
894.418	24.77
894.85	15.37
895.282	19.67
895.715	19.67
896.147	23.17
896.579	14.07
897.011	12.67
897.444	20.27
897.876	14.07
898.308	21.47
898.74	7.67
899.172	14.77
899.604	21.27
900.036	22.57
900.468	12.97
900.9	20.17
901.332	14.77
901.764	14.47
902.196	21.37
902.628	18.07
903.06	16.67
903.491	27.67
903.923	26.87
904.355	20.77
904.787	25.17
905.218	20.87
905.65	18.47
906.082	16.17
906.513	16.27
906.945	18.47
907.376	12.87
907.808	14.67
908.239	17.87
908.671	24.97
909.102	21.27
909.534	20.77
909.965	49.17
910.397	101.77
910.828	329.27
911.259	495.17
911.691	227.97
912.122	112.07
912.553	51.47
912.984	29.77
913.415	28.57
913.847	25.97
914.278	16.07
914.709	16.37
915.14	16.97
915.571	12.17
916.002	10.57
916.433	20.67
916.864	18.07
917.295	10.17
917.726	22.77
918.157	9.77
918.587	30.57
919.018	14.97
919.449	24.87
919.88	19.67
920.311	34.87
920.741	50.97
921.172	172.97
921.603	159.77
922.033	75.27
922.464	47.07
922.895	25.47
923.325	19.97
923.756	6.17
924.186	13.47
924.617	18.87
925.047	24.17
925.478	24.47
925.908	21.97
926.338	14.47
926.769	17.67
927.199	12.27
927.629	6.97
928.06	17.57
928.49	15.07
928.92	12.07
929.35	12.77
929.78	7.67
930.21	8.97
930.641	17.27
931.071	11.17
931.501	5.07
931.931	10.07
932.361	12.47
932.791	2.87
933.221	2.57
933.651	5.37
934.08	12.37
934.51	25.47
934.94	6.77
935.37	13.57
935.8	11.37
936.229	8.87
936.659	9.57
937.089	4.17
937.519	17.77
937.948	24.07
938.378	19.97
938.807	4.87
939.237	6.17
939.666	8.77
940.096	-7.23
940.525	2.67
940.955	6.17
941.384	5.57
941.814	-5.33
942.243	1.67
942.672	-1.33
943.102	-2.23
943.531	1.17
943.96	6.97
944.39	3.27
944.819	1.57
945.248	3.97
945.677	4.67
946.106	6.67
946.535	-0.43
946.964	-1.93
947.393	9.47
947.822	1.07
948.251	-4.43
948.68	1.17
949.109	10.37
949.538	4.47
949.967	6.17
950.396	4.87
950.825	-0.53
951.254	8.17
951.682	-3.33
952.111	2.37
952.54	0.37
952.969	-4.13
953.397	-6.03
953.826	3.57
954.254	-3.23
954.683	-3.13
955.112	-0.83
955.54	-3.93
955.969	4.87
956.397	0.77
956.826	5.07
957.254	2.57
957.682	4.57
958.111	5.07
958.539	1.07
958.967	0.07
959.396	-5.13
959.824	2.77
960.252	-1.73
960.68	-7.03
961.109	3.67
961.537	-6.43
961.965	0.67
962.393	-1.53
962.821	-3.33
963.249	2.57
963.677	5.77
964.105	3.47
964.533	43.87
964.961	43.27
965.389	19.17
965.817	7.97
966.245	7.07
966.672	-0.83
967.1	-4.13
967.528	-0.93
967.956	-3.83
968.383	-2.43
968.811	-1.03
969.239	-3.33
969.666	-0.83
970.094	-0.03
970.522	-0.33
970.949	1.67
971.377	0.67
971.804	-1.73
972.232	-0.43
972.659	1.37
973.087	1.87
973.514	0.77
973.941	-6.13
974.369	5.37
974.796	-4.33
975.223	1.77
975.651	-1.03
976.078	5.97
976.505	1.37
976.932	6.17
977.359	16.67
977.786	14.77
978.214	2.87
978.641	-1.03
979.068	-4.43
979.495	-9.13
979.922	-0.93
980.349	-0.93
980.776	5.57
981.202	-3.83
981.629	1.37
982.056	6.17
982.483	-1.73
982.91	4.97
983.337	-6.33
983.763	1.77
984.19	-0.93
984.617	-0.13
985.043	-4.83
985.47	-4.73
985.897	-0.53
986.323	-11.63
986.75	3.07
987.176	1.17
987.603	5.07
988.029	-1.93
988.456	-1.23
988.882	0.37
989.308	-2.63
989.735	-2.13
990.161	-1.53
990.587	-2.63
991.014	-7.43
991.44	2.27
991.866	-5.73
992.292	-3.43
992.719	-4.53
993.145	2.67
993.571	-15.93
993.997	-5.33
994.423	-1.33
994.849	-8.73
995.275	3.27
995.701	-5.63
996.127	-2.43
996.553	-2.63
996.979	-2.33
997.405	-1.63
997.83	-3.53
998.256	-4.63
998.682	-6.73
999.108	-8.93
999.534	-5.83
999.959	0.77
1000.385	-2.63
1000.811	4.87
1001.236	-7.13
1001.662	-8.33
1002.087	-14.23
1002.513	-0.23
1002.938	-0.63
1003.364	-5.13
1003.789	1.17
1004.215	0.47
1004.64	-3.23
1005.066	5.17
1005.491	-3.43
1005.916	-1.03
1006.342	-4.83
1006.767	-7.53
1007.192	0.37
1007.617	0.77
1008.042	-4.83
1008.468	-11.73
1008.893	-2.53
1009.318	-7.33
1009.743	-1.63
1010.168	0.27
1010.593	2.47
1011.018	-4.73
1011.443	-5.93
1011.868	-3.23
1012.293	0.57
1012.718	-7.83
1013.143	0.27
1013.567	3.47
1013.992	-9.93
1014.417	-11.63
1014.842	1.87
1015.267	-8.33
1015.691	-6.13
1016.116	4.47
1016.541	-2.13
1016.965	-1.93
1017.39	2.27
1017.814	2.87
1018.239	-0.53
1018.663	-5.93
1019.088	-5.93
1019.512	-5.13
1019.937	3.97
1020.361	-6.33
1020.785	-12.13
1021.21	-5.53
1021.634	-4.63
1022.058	2.37
1022.483	0.67
1022.907	-5.93
1023.331	-3.43
1023.755	-3.53
1024.179	-0.43
1024.604	-6.23
1025.028	0.57
1025.452	-9.43
1025.876	-6.03
1026.3	-5.63
1026.724	-7.33
1027.148	-6.43
1027.572	-2.53
1027.996	-9.43
1028.42	-2.33
1028.843	-10.93
1029.267	-9.33
1029.691	-3.13
1030.115	-12.93
1030.539	-7.53
1030.962	-6.53
1031.386	-10.13
1031.81	-3.23
1032.233	1.27
1032.657	-1.43
1033.08	0.27
1033.504	-2.83
1033.927	-2.03
1034.351	2.47
1034.774	-4.43
1035.198	-3.63
1035.621	-11.33
1036.045	-1.23
1036.468	-0.43
1036.891	-9.93
1037.315	-9.33
1037.738	-9.73
1038.161	-4.33
1038.584	-6.83
1039.008	-8.23
1039.431	-7.83
1039.854	-7.93
1040.277	-13.53
1040.7	-13.33
1041.123	3.37
1041.546	-11.13
1041.969	-2.33
1042.392	-8.43
1042.815	0.27
1043.238	3.47
1043.661	4.07
1044.084	-9.43
1044.507	-3.43
1044.93	-5.73
1045.352	-3.53
1045.775	5.47
1046.198	-6.03
1046.621	0.57
1047.043	-1.03
1047.466	4.97
1047.889	-2.23
1048.311	-4.03
1048.734	-0.33
1049.156	-2.53
1049.579	-3.63
1050.001	-3.43
1050.424	-2.23
1050.846	-5.93
1051.269	-3.83
1051.691	-10.63
1052.113	-2.03
1052.536	3.17
1052.958	-4.63
1053.38	-3.93
1053.802	-10.03
1054.225	-1.33
1054.647	-14.03
1055.069	-2.63
1055.491	1.27
1055.913	-11.83
1056.335	-4.43
1056.757	-0.73
1057.179	-6.93
1057.601	-5.53
1058.023	-4.03
1058.445	-2.13
1058.867	-0.23
1059.289	-8.83
1059.711	-11.03
1060.133	-2.13
1060.555	-8.03
1060.976	-4.33
1061.398	-5.03
1061.82	-9.63
1062.241	-7.03
1062.663	-8.63
1063.085	-9.93
1063.506	-3.43
1063.928	-1.33
1064.35	-1.03
1064.771	-14.03
1065.193	-5.63
1065.614	-14.23
1066.035	-6.73
1066.457	-0.93
1066.878	-3.93
1067.3	-2.53
1067.721	-5.93
1068.142	-10.33
1068.564	-5.23
1068.985	-7.73
1069.406	-2.63
1069.827	-2.83
1070.248	2.67
1070.67	-5.53
1071.091	-2.03
1071.512	-3.73
1071.933	-3.73
1072.354	-5.13
1072.775	-6.53
1073.196	-10.43
1073.617	-4.83
1074.038	-4.03
1074.459	-3.53
1074.88	-5.23
1075.3	1.97
1075.721	-0.53
1076.142	-1.23
1076.563	-1.33
1076.983	-12.93
1077.404	-10.93
1077.825	-8.03
1078.246	-7.63
1078.666	-13.43
1079.087	-5.73
1079.507	-5.23
1079.928	-1.53
1080.348	-1.33
1080.769	-3.63
1081.189	-4.13
1081.61	-3.03
1082.03	-4.63
1082.451	-6.83
1082.871	-5.93
1083.291	-5.83
1083.711	-8.73
1084.132	-11.73
1084.552	-3.43
1084.972	-0.23
1085.392	-6.33
1085.813	-10.33
1086.233	-10.13
1086.653	-12.23
1087.073	-0.83
1087.493	-10.83
1087.913	-5.43
1088.333	-3.53
1088.753	0.27
1089.173	1.17
1089.593	-7.13
1090.013	5.07
1090.433	-1.13
1090.852	-2.33
1091.272	0.17
1091.692	-5.73
1092.112	-5.43
1092.531	-12.13
1092.951	-12.53
1093.371	-6.33
1093.79	4.17
1094.21	-1.73
1094.63	-5.73
1095.049	-3.13
1095.469	-0.53
1095.888	-3.83
1096.308	-0.43
1096.727	6.57
1097.146	-8.43
1097.566	0.77
1097.985	-6.73
1098.405	-3.13
1098.824	-11.13
1099.243	-10.43
1099.662	-7.43
1100.082	-8.43
1100.501	-5.23
1100.92	-14.43
1101.339	-4.33
1101.758	-2.73
