Data from 20171114-ORNL-Ar_H_NY_Subt18_08-05-06-757.txt Node
Date: Tue Nov 14 08:05:06 EST 2017
User: Ender
Spectrometer: HR+D1039
Trigger mode: 0
Integration Time (sec): 2.730000E-2
Scans to average: 10
Electric dark correction enabled: true
Nonlinearity correction enabled: false
Boxcar width: 0
XAxis mode: Wavelengths
Number of Pixels in Spectrum: 2048
>>>>>Begin Spectral Data<<<<<
187.836	-4.68
188.309	-4.68
188.782	-4.68
189.255	-3.38
189.728	2.62
190.201	7.82
190.674	0.42
191.147	0.02
191.619	-5.58
192.092	-4.28
192.565	3.52
193.038	0.72
193.511	2.02
193.984	-1.58
194.456	0.22
194.929	2.92
195.402	-0.58
195.874	-0.18
196.347	-1.48
196.82	-9.18
197.292	7.02
197.765	-0.88
198.237	-4.98
198.71	-0.58
199.182	-2.18
199.655	0.12
200.127	0.02
200.6	-3.18
201.072	-2.38
201.544	-5.28
202.017	-5.18
202.489	6.52
202.961	-1.48
203.433	-2.08
203.906	-9.38
204.378	-4.38
204.85	-5.88
205.322	-9.38
205.794	-3.38
206.266	-3.98
206.739	-12.98
207.211	5.42
207.683	-6.88
208.155	-4.18
208.627	-4.58
209.099	-2.38
209.57	-7.28
210.042	-5.08
210.514	-4.48
210.986	-3.78
211.458	-8.98
211.93	-4.78
212.402	1.02
212.873	-5.88
213.345	-8.68
213.817	-14.58
214.288	-6.18
214.76	-7.98
215.232	-8.48
215.703	-3.08
216.175	-3.58
216.646	-0.78
217.118	-2.18
217.589	-4.38
218.061	-2.98
218.532	-7.28
219.004	3.42
219.475	-2.58
219.946	-4.68
220.418	2.02
220.889	2.32
221.36	4.02
221.832	0.22
222.303	-8.08
222.774	-2.58
223.245	-9.68
223.717	-8.58
224.188	-4.38
224.659	-6.08
225.13	-6.38
225.601	-0.98
226.072	7.32
226.543	-0.08
227.014	0.02
227.485	-4.18
227.956	-3.38
228.427	-4.18
228.898	1.02
229.369	1.62
229.839	-4.48
230.31	-4.78
230.781	0.42
231.252	-2.28
231.722	-4.18
232.193	-1.18
232.664	6.12
233.135	4.92
233.605	-5.38
234.076	-10.48
234.546	0.32
235.017	9.92
235.487	-1.68
235.958	-1.88
236.428	-2.28
236.899	2.52
237.369	5.32
237.84	-2.58
238.31	2.82
238.78	7.52
239.251	2.02
239.721	-0.58
240.191	2.22
240.662	-1.48
241.132	1.12
241.602	-2.38
242.072	7.72
242.542	10.52
243.013	-0.48
243.483	5.02
243.953	1.22
244.423	-0.48
244.893	-4.48
245.363	1.32
245.833	1.92
246.303	-7.58
246.773	8.42
247.243	11.62
247.712	3.52
248.182	7.12
248.652	8.72
249.122	-2.38
249.592	12.02
250.061	20.72
250.531	30.82
251.001	11.82
251.471	24.52
251.94	24.42
252.41	7.52
252.879	2.12
253.349	9.12
253.818	6.52
254.288	10.72
254.757	7.32
255.227	2.62
255.696	4.42
256.166	10.72
256.635	8.92
257.105	14.32
257.574	8.52
258.043	7.02
258.513	13.02
258.982	17.42
259.451	12.22
259.92	16.72
260.389	17.02
260.859	22.32
261.328	16.72
261.797	22.02
262.266	8.22
262.735	9.82
263.204	8.42
263.673	2.52
264.142	9.42
264.611	-6.18
265.08	4.32
265.549	4.12
266.018	6.62
266.487	-3.08
266.955	1.32
267.424	2.32
267.893	2.22
268.362	-0.48
268.83	2.42
269.299	10.92
269.768	6.82
270.236	3.62
270.705	4.52
271.174	9.12
271.642	11.82
272.111	9.62
272.579	23.72
273.048	17.62
273.516	26.02
273.985	30.12
274.453	26.42
274.922	19.52
275.39	12.62
275.858	7.32
276.327	13.92
276.795	21.42
277.263	13.22
277.731	33.72
278.2	62.22
278.668	53.12
279.136	52.62
279.604	18.02
280.072	18.92
280.54	11.22
281.008	14.52
281.477	21.52
281.945	12.62
282.413	22.12
282.881	20.02
283.348	10.92
283.816	18.62
284.284	11.82
284.752	21.22
285.22	17.12
285.688	21.42
286.156	17.72
286.623	46.12
287.091	51.92
287.559	30.62
288.026	20.32
288.494	17.82
288.962	10.32
289.429	9.52
289.897	21.62
290.364	15.42
290.832	20.22
291.3	13.22
291.767	17.12
292.234	18.02
292.702	13.42
293.169	21.22
293.637	29.32
294.104	23.22
294.571	10.72
295.039	14.12
295.506	14.92
295.973	20.12
296.44	18.22
296.908	17.32
297.375	18.02
297.842	20.22
298.309	22.02
298.776	16.72
299.243	20.92
299.71	13.92
300.177	21.42
300.644	20.22
301.111	19.22
301.578	25.82
302.045	17.42
302.512	27.62
302.979	30.82
303.446	27.82
303.913	21.22
304.379	19.62
304.846	29.02
305.313	21.52
305.78	21.82
306.246	24.92
306.713	31.42
307.18	32.32
307.646	35.72
308.113	34.42
308.579	27.12
309.046	24.52
309.512	31.92
309.979	23.12
310.445	32.02
310.912	29.32
311.378	35.62
311.845	33.12
312.311	33.92
312.777	32.02
313.244	37.32
313.71	42.02
314.176	29.42
314.642	32.02
315.109	33.02
315.575	43.32
316.041	38.92
316.507	34.22
316.973	41.12
317.439	38.82
317.905	36.52
318.371	37.62
318.837	39.72
319.303	35.42
319.769	38.22
320.235	38.92
320.701	45.42
321.167	44.92
321.633	35.62
322.099	47.12
322.564	45.12
323.03	42.72
323.496	44.12
323.962	44.92
324.427	37.92
324.893	46.02
325.359	41.62
325.824	41.22
326.29	33.12
326.755	36.02
327.221	45.92
327.686	44.42
328.152	44.22
328.617	40.72
329.083	49.72
329.548	52.22
330.014	44.32
330.479	38.92
330.944	44.22
331.41	44.02
331.875	49.42
332.34	40.82
332.805	45.72
333.271	46.12
333.736	43.92
334.201	62.32
334.666	51.72
335.131	58.62
335.596	58.32
336.061	56.62
336.526	44.62
336.991	51.92
337.456	64.62
337.921	51.72
338.386	47.72
338.851	46.72
339.316	55.32
339.781	48.92
340.246	52.02
340.711	52.22
341.175	52.42
341.64	48.12
342.105	55.72
342.569	57.12
343.034	60.52
343.499	61.62
343.963	54.82
344.428	66.62
344.893	62.62
345.357	65.02
345.822	71.92
346.286	77.82
346.751	78.22
347.215	72.82
347.679	79.82
348.144	104.92
348.608	85.02
349.073	75.32
349.537	80.32
350.001	89.42
350.465	91.02
350.93	83.12
351.394	80.72
351.858	75.32
352.322	87.42
352.786	88.32
353.25	101.02
353.715	113.82
354.179	105.82
354.643	124.92
355.107	130.92
355.571	109.92
356.035	102.92
356.498	122.12
356.962	129.72
357.426	127.32
357.89	123.72
358.354	90.42
358.818	87.92
359.281	83.72
359.745	77.42
360.209	78.02
360.673	81.12
361.136	82.92
361.6	89.62
362.064	86.92
362.527	87.22
362.991	93.12
363.454	83.72
363.918	82.12
364.381	81.22
364.845	87.32
365.308	92.82
365.772	88.22
366.235	83.02
366.698	81.72
367.162	81.62
367.625	88.92
368.088	87.52
368.552	94.22
369.015	90.52
369.478	101.72
369.941	101.02
370.404	94.42
370.867	97.42
371.331	107.32
371.794	116.12
372.257	113.62
372.72	118.42
373.183	108.72
373.646	107.32
374.109	108.82
374.572	112.42
375.035	108.92
375.497	108.72
375.96	111.62
376.423	105.62
376.886	114.02
377.349	116.82
377.811	104.92
378.274	106.22
378.737	112.62
379.199	118.12
379.662	116.62
380.125	117.42
380.587	120.52
381.05	129.82
381.512	130.72
381.975	142.32
382.437	133.72
382.9	127.82
383.362	140.02
383.825	146.52
384.287	147.12
384.75	140.72
385.212	137.32
385.674	146.42
386.136	140.62
386.599	126.52
387.061	134.22
387.523	123.02
387.985	133.92
388.447	147.62
388.91	140.12
389.372	154.32
389.834	155.22
390.296	144.22
390.758	150.72
391.22	162.92
391.682	196.42
392.144	284.52
392.606	225.52
393.068	164.52
393.529	165.42
393.991	151.82
394.453	144.92
394.915	155.42
395.377	190.12
395.838	208.62
396.3	150.62
396.762	144.02
397.224	137.32
397.685	135.02
398.147	135.62
398.608	135.32
399.07	127.92
399.531	139.42
399.993	143.12
400.454	158.62
400.916	152.72
401.377	141.62
401.839	150.62
402.3	149.52
402.762	164.52
403.223	174.22
403.684	173.82
404.145	162.82
404.607	162.52
405.068	167.52
405.529	169.32
405.99	194.42
406.451	184.62
406.913	173.72
407.374	167.12
407.835	165.22
408.296	169.32
408.757	175.12
409.218	188.92
409.679	174.32
410.14	171.32
410.601	171.92
411.062	182.42
411.522	198.52
411.983	191.22
412.444	174.52
412.905	179.42
413.366	183.62
413.826	193.52
414.287	212.32
414.748	266.42
415.208	251.32
415.669	211.92
416.13	206.12
416.59	198.52
417.051	209.32
417.511	217.92
417.972	240.92
418.432	249.72
418.893	290.72
419.353	245.02
419.814	196.32
420.274	185.62
420.734	181.32
421.195	195.92
421.655	196.02
422.115	193.42
422.576	190.42
423.036	197.22
423.496	207.22
423.956	212.62
424.416	232.92
424.876	270.62
425.336	259.12
425.797	272.62
426.257	253.62
426.717	246.62
427.177	230.22
427.637	225.12
428.097	238.82
428.556	247.92
429.016	266.32
429.476	265.12
429.936	274.82
430.396	280.92
430.856	284.02
431.315	320.72
431.775	348.22
432.235	384.32
432.694	355.42
433.154	367.72
433.614	396.62
434.073	341.22
434.533	296.12
434.993	277.52
435.452	287.02
435.912	291.92
436.371	296.22
436.83	291.92
437.29	264.02
437.749	240.92
438.209	247.52
438.668	264.82
439.127	284.62
439.587	269.02
440.046	243.12
440.505	266.72
440.964	281.22
441.424	324.82
441.883	316.12
442.342	262.12
442.801	224.52
443.26	214.12
443.719	222.02
444.178	223.12
444.637	207.42
445.096	216.12
445.555	223.12
446.014	227.52
446.473	224.52
446.932	234.82
447.391	223.62
447.849	226.42
448.308	225.02
448.767	227.32
449.226	233.32
449.685	242.02
450.143	249.32
450.602	234.62
451.061	232.22
451.519	232.72
451.978	231.02
452.436	230.92
452.895	246.22
453.353	255.92
453.812	240.42
454.27	238.22
454.729	242.12
455.187	239.12
455.646	246.22
456.104	247.42
456.562	258.72
457.021	268.72
457.479	262.42
457.937	263.12
458.395	258.42
458.854	246.02
459.312	257.12
459.77	274.32
460.228	253.52
460.686	241.82
461.144	247.22
461.602	248.82
462.06	243.42
462.518	260.12
462.976	251.82
463.434	262.52
463.892	265.22
464.35	278.72
464.808	289.82
465.266	262.62
465.724	280.42
466.181	273.02
466.639	270.22
467.097	295.22
467.555	299.82
468.012	306.82
468.47	302.42
468.928	327.32
469.385	337.62
469.843	349.92
470.3	353.42
470.758	360.32
471.215	384.72
471.673	409.62
472.13	401.02
472.588	419.82
473.045	372.22
473.503	376.42
473.96	394.52
474.417	405.82
474.875	434.52
475.332	476.82
475.789	466.32
476.246	476.12
476.704	489.82
477.161	505.22
477.618	525.12
478.075	570.72
478.532	622.62
478.989	687.72
479.446	803.82
479.903	771.02
480.36	797.52
480.817	864.92
481.274	975.12
481.731	1061.12
482.188	1165.72
482.645	1306.62
483.102	1417.62
483.558	1539.42
484.015	1587.32
484.472	1558.42
484.929	1512.82
485.385	1471.62
485.842	1433.82
486.299	1371.82
486.755	1303.22
487.212	1098.92
487.668	914.42
488.125	852.12
488.582	783.92
489.038	754.92
489.494	710.22
489.951	692.92
490.407	670.62
490.864	651.42
491.32	640.32
491.776	633.72
492.233	650.22
492.689	611.22
493.145	607.02
493.602	595.02
494.058	611.52
494.514	619.42
494.97	642.92
495.426	655.12
495.882	618.72
496.338	624.42
496.794	626.42
497.251	623.02
497.707	637.32
498.163	639.22
498.618	648.52
499.074	639.22
499.53	675.02
499.986	675.92
500.442	649.42
500.898	632.92
501.354	624.52
501.809	635.72
502.265	642.82
502.721	659.22
503.177	672.02
503.632	665.92
504.088	675.02
504.543	713.12
504.999	709.02
505.455	657.12
505.91	635.02
506.366	631.52
506.821	642.42
507.277	624.32
507.732	629.02
508.187	618.82
508.643	637.22
509.098	631.92
509.553	656.22
510.009	665.62
510.464	677.42
510.919	689.22
511.375	695.32
511.83	713.42
512.285	725.12
512.74	759.82
513.195	782.62
513.65	771.82
514.105	772.82
514.56	771.72
515.015	790.82
515.47	810.62
515.925	793.12
516.38	791.12
516.835	788.52
517.29	781.32
517.745	771.82
518.2	770.02
518.655	746.82
519.109	737.32
519.564	738.92
520.019	725.82
520.474	722.42
520.928	724.72
521.383	714.12
521.838	707.82
522.292	718.52
522.747	708.52
523.201	701.62
523.656	691.22
524.11	684.72
524.565	687.32
525.019	681.12
525.474	703.12
525.928	699.92
526.382	692.12
526.837	692.12
527.291	704.22
527.745	703.42
528.2	693.82
528.654	692.22
529.108	679.62
529.562	690.52
530.016	685.92
530.47	694.12
530.925	693.62
531.379	691.92
531.833	695.92
532.287	704.22
532.741	701.92
533.195	693.52
533.649	713.22
534.103	719.92
534.556	707.22
535.01	707.82
535.464	706.42
535.918	708.32
536.372	719.42
536.826	709.82
537.279	692.22
537.733	706.12
538.187	708.82
538.64	711.52
539.094	719.02
539.548	728.42
540.001	717.32
540.455	717.62
540.908	714.62
541.362	727.42
541.815	746.52
542.269	760.82
542.722	765.82
543.175	760.82
543.629	768.82
544.082	778.22
544.536	774.02
544.989	772.62
545.442	791.12
545.895	781.02
546.349	783.92
546.802	775.62
547.255	779.42
547.708	791.62
548.161	797.72
548.614	812.62
549.067	821.22
549.52	809.72
549.973	797.92
550.426	797.02
550.879	790.62
551.332	790.52
551.785	795.22
552.238	802.72
552.691	822.22
553.144	824.62
553.596	833.22
554.049	858.82
554.502	885.32
554.955	896.52
555.407	898.32
555.86	892.52
556.313	882.82
556.765	873.42
557.218	880.92
557.67	876.82
558.123	865.92
558.576	858.32
559.028	872.52
559.48	870.32
559.933	860.22
560.385	821.52
560.838	794.42
561.29	773.62
561.742	773.42
562.195	752.52
562.647	751.12
563.099	761.82
563.551	763.72
564.004	769.92
564.456	756.72
564.908	758.52
565.36	745.02
565.812	722.82
566.264	705.52
566.716	710.42
567.168	701.42
567.62	720.22
568.072	692.62
568.524	678.62
568.976	683.92
569.428	662.82
569.88	661.72
570.332	667.42
570.784	668.42
571.235	672.62
571.687	681.62
572.139	680.72
572.59	693.82
573.042	695.52
573.494	695.42
573.945	687.32
574.397	676.22
574.849	675.42
575.3	675.32
575.752	671.22
576.203	662.32
576.655	654.92
577.106	650.32
577.557	659.92
578.009	659.52
578.46	652.62
578.912	645.22
579.363	654.32
579.814	649.12
580.265	646.22
580.717	644.72
581.168	654.72
581.619	655.52
582.07	665.02
582.521	652.92
582.972	649.02
583.423	657.02
583.875	660.22
584.326	676.62
584.777	723.72
585.227	790.72
585.678	868.92
586.129	957.02
586.58	1032.82
587.031	1103.42
587.482	1260.52
587.933	1424.62
588.384	1249.42
588.834	927.62
589.285	774.32
589.736	761.92
590.186	744.32
590.637	737.82
591.088	727.12
591.538	700.02
591.989	705.82
592.439	702.62
592.89	686.42
593.34	685.02
593.791	679.52
594.241	683.82
594.692	681.42
595.142	674.92
595.593	669.02
596.043	680.72
596.493	688.42
596.943	688.52
597.394	699.12
597.844	682.42
598.294	701.52
598.744	718.12
599.195	749.42
599.645	779.02
600.095	825.32
600.545	877.12
600.995	923.12
601.445	983.82
601.895	1038.72
602.345	1093.12
602.795	1072.22
603.245	1025.12
603.695	972.92
604.145	922.12
604.594	878.82
605.044	830.82
605.494	771.42
605.944	729.22
606.393	711.12
606.843	703.62
607.293	705.82
607.743	700.92
608.192	718.22
608.642	723.02
609.091	729.02
609.541	743.22
609.99	737.32
610.44	730.52
610.889	687.22
611.339	673.22
611.788	652.52
612.238	665.32
612.687	682.12
613.136	680.62
613.586	701.52
614.035	704.72
614.484	723.02
614.933	725.42
615.383	715.82
615.832	704.82
616.281	691.82
616.73	658.42
617.179	630.72
617.628	621.72
618.077	601.12
618.526	595.42
618.975	584.92
619.424	580.52
619.873	581.42
620.322	591.82
620.771	582.72
621.22	576.72
621.669	564.62
622.118	558.82
622.567	559.52
623.015	539.72
623.464	545.32
623.913	536.32
624.361	529.42
624.81	525.52
625.259	514.82
625.707	525.52
626.156	526.22
626.604	538.52
627.053	533.92
627.501	526.52
627.95	537.52
628.398	544.92
628.847	536.12
629.295	543.72
629.744	549.02
630.192	539.22
630.64	533.32
631.089	535.32
631.537	549.02
631.985	548.62
632.433	561.82
632.881	558.92
633.33	614.02
633.778	590.72
634.226	534.52
634.674	532.72
635.122	546.62
635.57	565.12
636.018	578.42
636.466	535.92
636.914	539.32
637.362	544.32
637.81	539.72
638.258	548.82
638.705	549.22
639.153	572.62
639.601	581.82
640.049	605.92
640.497	634.22
640.944	646.82
641.392	601.72
641.84	578.12
642.287	550.72
642.735	534.42
643.182	547.72
643.63	527.52
644.078	544.32
644.525	557.32
644.973	559.62
645.42	567.12
645.867	582.42
646.315	601.22
646.762	618.82
647.21	647.02
647.657	665.42
648.104	700.52
648.551	726.92
648.999	781.22
649.446	848.52
649.893	939.02
650.34	1096.32
650.787	1292.62
651.234	1599.22
651.682	2092.62
652.129	2835.72
652.576	4066.92
653.023	6027.12
653.47	8280.42
653.917	10462.02
654.363	12155.52
654.81	13535.62
655.257	12858.02
655.704	8384.02
656.151	4947.02
656.598	3226.12
657.044	2279.82
657.491	1753.22
657.938	1403.52
658.385	1162.22
658.831	1018.42
659.278	898.92
659.724	809.42
660.171	745.72
660.618	674.92
661.064	645.62
661.511	621.32
661.957	612.32
662.404	596.92
662.85	605.22
663.296	579.72
663.743	519.02
664.189	507.72
664.635	493.62
665.082	492.22
665.528	489.02
665.974	485.02
666.42	476.92
666.867	473.92
667.313	459.52
667.759	448.52
668.205	445.72
668.651	456.42
669.097	449.32
669.543	471.42
669.989	436.62
670.435	424.42
670.881	411.22
671.327	415.72
671.773	438.42
672.219	452.02
672.665	499.02
673.11	548.12
673.556	586.72
674.002	623.92
674.448	614.12
674.893	512.32
675.339	448.72
675.785	412.62
676.23	391.12
676.676	361.12
677.122	356.52
677.567	351.12
678.013	350.42
678.458	341.02
678.904	330.42
679.349	324.72
679.794	326.32
680.24	325.72
680.685	318.62
681.131	326.12
681.576	326.52
682.021	329.02
682.466	327.12
682.912	321.32
683.357	327.22
683.802	347.72
684.247	376.32
684.692	417.82
685.137	458.02
685.583	494.42
686.028	519.52
686.473	487.32
686.918	409.12
687.363	384.92
687.807	360.72
688.252	337.62
688.697	330.02
689.142	311.22
689.587	317.02
690.032	302.62
690.477	315.62
690.921	323.32
691.366	363.82
691.811	365.62
692.255	394.82
692.7	425.52
693.145	454.12
693.589	629.42
694.034	1017.32
694.478	1401.22
694.923	1616.82
695.367	2126.82
695.812	1124.72
696.256	457.62
696.701	337.22
697.145	315.32
697.59	300.82
698.034	296.22
698.478	305.02
698.922	299.62
699.367	299.92
699.811	310.02
700.255	323.02
700.699	358.22
701.143	391.12
701.588	435.52
702.032	470.62
702.476	469.62
702.92	440.02
703.364	454.12
703.808	566.92
704.252	937.22
704.696	1316.52
705.14	1563.72
705.584	2015.32
706.027	988.02
706.471	484.42
706.915	371.12
707.359	319.52
707.803	291.42
708.246	276.82
708.69	285.92
709.134	286.22
709.577	288.72
710.021	290.72
710.465	284.82
710.908	276.32
711.352	282.62
711.795	290.22
712.239	326.02
712.682	350.92
713.126	380.72
713.569	429.52
714.012	342.02
714.456	297.02
714.899	271.42
715.342	250.42
715.786	243.72
716.229	237.32
716.672	243.42
717.115	229.52
717.558	230.72
718.002	226.22
718.445	243.22
718.888	261.82
719.331	269.52
719.774	283.52
720.217	283.72
720.66	258.92
721.103	240.42
721.546	236.32
721.989	223.42
722.432	213.42
722.874	216.12
723.317	209.72
723.76	210.22
724.203	239.12
724.645	288.32
725.088	395.72
725.531	526.22
725.974	597.02
726.416	502.22
726.859	283.62
727.301	223.82
727.744	215.12
728.187	209.62
728.629	221.42
729.071	222.22
729.514	232.12
729.956	252.72
730.399	259.72
730.841	267.12
731.283	253.82
731.726	240.62
732.168	235.62
732.61	239.42
733.053	260.72
733.495	292.22
733.937	323.82
734.379	363.72
734.821	390.92
735.263	494.42
735.705	744.32
736.148	1398.32
736.59	2340.32
737.032	2859.82
737.474	2314.42
737.916	752.32
738.357	395.72
738.799	300.62
739.241	269.22
739.683	258.52
740.125	266.92
740.567	263.82
741.008	284.32
741.45	295.32
741.892	294.52
742.334	315.92
742.775	329.52
743.217	315.82
743.658	249.02
744.1	232.52
744.542	240.32
744.983	281.62
745.425	319.42
745.866	317.92
746.307	262.22
746.749	260.82
747.19	294.72
747.632	410.82
748.073	784.22
748.514	1672.42
748.956	2612.62
749.397	3270.92
749.838	2727.22
750.279	2769.42
750.72	1382.62
751.162	505.82
751.603	297.92
752.044	235.22
752.485	200.52
752.926	189.62
753.367	184.02
753.808	171.12
754.249	171.92
754.69	169.02
755.131	173.62
755.572	166.62
756.013	163.52
756.453	176.42
756.894	168.22
757.335	178.92
757.776	176.12
758.216	180.42
758.657	179.62
759.098	184.72
759.538	211.02
759.979	238.62
760.42	337.02
760.86	625.02
761.301	1603.92
761.741	3967.52
762.182	6039.12
762.622	4260.12
763.063	1218.12
763.503	495.32
763.943	318.62
764.384	306.62
764.824	368.52
765.264	400.92
765.705	272.22
766.145	190.52
766.585	171.62
767.025	163.62
767.465	164.52
767.906	213.72
768.346	288.52
768.786	315.32
769.226	243.42
769.666	290.52
770.106	542.42
770.546	1374.92
770.986	2450.92
771.426	2214.42
771.866	737.82
772.306	300.72
772.745	191.82
773.185	159.02
773.625	156.22
774.065	148.12
774.505	177.92
774.944	263.62
775.384	578.42
775.824	1078.42
776.263	1055.22
776.703	454.32
777.142	194.92
777.582	138.02
778.021	120.72
778.461	123.02
778.9	129.62
779.34	121.92
779.779	111.72
780.219	99.32
780.658	101.12
781.097	99.12
781.537	103.12
781.976	103.32
782.415	93.32
782.855	98.62
783.294	94.52
783.733	100.42
784.172	97.72
784.611	90.02
785.05	98.72
785.489	94.02
785.928	111.12
786.367	107.52
786.806	111.02
787.245	125.22
787.684	122.62
788.123	139.92
788.562	120.82
789.001	113.92
789.44	110.42
789.879	109.22
790.317	112.92
790.756	116.42
791.195	118.82
791.634	130.12
792.072	178.82
792.511	326.72
792.95	886.02
793.388	1954.32
793.827	1809.62
794.265	622.02
794.704	254.52
795.142	166.02
795.581	141.32
796.019	126.82
796.458	113.72
796.896	114.62
797.334	116.72
797.773	135.12
798.211	201.72
798.649	393.32
799.087	912.22
799.526	1451.12
799.964	1830.22
800.402	1881.22
800.84	698.52
801.278	276.92
801.716	161.82
802.154	138.82
802.592	129.62
803.03	131.42
803.468	122.82
803.906	129.22
804.344	135.62
804.782	126.52
805.22	121.82
805.658	121.72
806.096	142.52
806.533	142.72
806.971	156.22
807.409	196.82
807.847	285.72
808.284	580.02
808.722	1661.92
809.16	3025.82
809.597	2804.32
810.035	4943.92
810.472	5459.62
810.91	1952.92
811.347	727.62
811.785	366.82
812.222	234.82
812.66	177.92
813.097	154.22
813.535	124.52
813.972	119.22
814.409	104.12
814.846	100.12
815.284	98.52
815.721	97.12
816.158	93.52
816.595	115.12
817.032	163.32
817.47	184.12
817.907	146.42
818.344	138.72
818.781	108.42
819.218	96.62
819.655	109.92
820.092	167.42
820.529	199.52
820.966	161.92
821.403	125.12
821.839	102.02
822.276	97.42
822.713	116.82
823.15	117.22
823.587	100.82
824.023	135.12
824.46	263.22
824.897	802.52
825.333	1261.32
825.77	539.32
826.206	208.72
826.643	121.82
827.08	93.52
827.516	76.72
827.953	66.42
828.389	75.42
828.825	64.92
829.262	60.42
829.698	65.02
830.135	59.22
830.571	58.82
831.007	55.82
831.443	60.12
831.88	64.72
832.316	62.92
832.752	60.62
833.188	55.62
833.624	58.52
834.06	59.42
834.497	62.52
834.933	68.12
835.369	71.52
835.805	65.42
836.241	66.12
836.677	72.72
837.112	84.52
837.548	91.92
837.984	117.02
838.42	177.72
838.856	433.72
839.292	1376.72
839.727	2149.92
840.163	991.72
840.599	828.42
841.034	1853.32
841.47	1995.22
841.906	719.42
842.341	308.12
842.777	210.72
843.212	281.42
843.648	283.32
844.083	134.22
844.519	89.42
844.954	62.62
845.39	57.52
845.825	54.62
846.261	52.82
846.696	48.82
847.131	45.62
847.566	54.32
848.002	44.12
848.437	52.02
848.872	50.32
849.307	50.42
849.742	76.52
850.177	159.72
850.613	503.32
851.048	814.72
851.483	354.22
851.918	142.82
852.353	77.92
852.788	57.32
853.223	56.22
853.657	49.52
854.092	41.02
854.527	37.12
854.962	39.02
855.397	43.32
855.832	41.22
856.266	34.02
856.701	34.02
857.136	34.62
857.57	35.82
858.005	48.62
858.44	56.62
858.874	40.02
859.309	45.02
859.743	35.82
860.178	46.92
860.612	33.32
861.047	47.12
861.481	60.72
861.915	67.62
862.35	52.22
862.784	32.52
863.218	41.62
863.653	27.12
864.087	44.02
864.521	58.02
864.955	59.02
865.39	139.32
865.824	170.02
866.258	102.72
866.692	148.62
867.126	170.42
867.56	95.42
867.994	52.12
868.428	33.52
868.862	46.92
869.296	41.62
869.73	57.62
870.164	51.22
870.598	41.52
871.031	38.32
871.465	26.32
871.899	31.92
872.333	22.02
872.766	25.32
873.2	17.92
873.634	31.72
874.067	25.52
874.501	27.42
874.935	34.82
875.368	25.52
875.802	23.32
876.235	22.02
876.669	16.82
877.102	21.12
877.535	25.02
877.969	17.82
878.402	25.52
878.836	19.82
879.269	25.32
879.702	24.12
880.135	22.02
880.569	28.62
881.002	26.12
881.435	13.92
881.868	16.02
882.301	23.82
882.734	11.02
883.167	23.42
883.601	15.52
884.034	21.42
884.467	8.22
884.899	21.82
885.332	14.12
885.765	7.62
886.198	8.22
886.631	18.12
887.064	17.12
887.497	17.82
887.929	19.52
888.362	9.52
888.795	5.02
889.228	14.02
889.66	19.02
890.093	14.52
890.526	20.02
890.958	17.62
891.391	18.92
891.823	19.92
892.256	13.32
892.688	10.12
893.121	16.82
893.553	15.62
893.985	24.12
894.418	19.22
894.85	18.42
895.282	15.72
895.715	12.72
896.147	10.92
896.579	17.12
897.011	17.72
897.444	18.62
897.876	14.92
898.308	20.22
898.74	12.82
899.172	12.22
899.604	23.72
900.036	16.92
900.468	18.42
900.9	13.42
901.332	15.02
901.764	18.72
902.196	11.62
902.628	11.72
903.06	17.62
903.491	29.12
903.923	19.82
904.355	21.02
904.787	20.62
905.218	24.02
905.65	17.52
906.082	12.82
906.513	17.02
906.945	18.22
907.376	13.72
907.808	21.52
908.239	22.52
908.671	15.02
909.102	15.12
909.534	26.12
909.965	42.82
910.397	80.52
910.828	291.02
911.259	442.02
911.691	197.02
912.122	97.22
912.553	47.02
912.984	28.62
913.415	21.72
913.847	21.72
914.278	13.82
914.709	14.52
915.14	15.12
915.571	14.22
916.002	12.82
916.433	17.02
916.864	20.72
917.295	13.12
917.726	11.92
918.157	9.62
918.587	23.02
919.018	17.02
919.449	17.92
919.88	25.12
920.311	26.02
920.741	44.32
921.172	152.12
921.603	144.22
922.033	63.82
922.464	42.72
922.895	25.02
923.325	21.12
923.756	14.82
924.186	17.32
924.617	19.22
925.047	32.82
925.478	45.02
925.908	38.72
926.338	20.42
926.769	15.02
927.199	19.02
927.629	6.22
928.06	18.62
928.49	12.22
928.92	13.52
929.35	10.52
929.78	10.62
930.21	4.62
930.641	5.62
931.071	4.52
931.501	1.72
931.931	9.92
932.361	7.42
932.791	5.72
933.221	3.72
933.651	0.32
934.08	11.42
934.51	25.22
934.94	9.52
935.37	8.72
935.8	9.42
936.229	4.72
936.659	10.92
937.089	4.72
937.519	16.32
937.948	17.52
938.378	16.22
938.807	5.82
939.237	-2.78
939.666	10.72
940.096	-3.28
940.525	-4.48
940.955	1.52
941.384	2.42
941.814	-6.08
942.243	2.92
942.672	1.02
943.102	-11.28
943.531	2.02
943.96	0.92
944.39	3.52
944.819	0.92
945.248	5.82
945.677	3.32
946.106	8.62
946.535	0.72
946.964	-0.78
947.393	-0.68
947.822	1.22
948.251	-3.38
948.68	-0.28
949.109	8.42
949.538	5.82
949.967	1.82
950.396	0.02
950.825	1.32
951.254	-2.48
951.682	-5.78
952.111	1.22
952.54	6.42
952.969	-6.68
953.397	-3.98
953.826	-2.58
954.254	-8.98
954.683	-0.08
955.112	-0.68
955.54	4.52
955.969	2.82
956.397	5.12
956.826	-0.78
957.254	-0.88
957.682	-0.58
958.111	3.82
958.539	-3.78
958.967	-2.08
959.396	-3.38
959.824	2.52
960.252	-2.48
960.68	-5.48
961.109	-0.28
961.537	-10.48
961.965	-0.88
962.393	-1.68
962.821	-3.18
963.249	-0.58
963.677	9.22
964.105	1.02
964.533	37.32
964.961	37.32
965.389	19.72
965.817	6.72
966.245	-1.68
966.672	-2.28
967.1	-2.88
967.528	1.02
967.956	-5.98
968.383	-1.58
968.811	-3.48
969.239	-4.68
969.666	-4.38
970.094	-1.88
970.522	2.82
970.949	-0.68
971.377	-9.58
971.804	-7.08
972.232	-7.88
972.659	-6.08
973.087	-5.28
973.514	-3.48
973.941	-0.28
974.369	5.52
974.796	5.72
975.223	0.72
975.651	-2.08
976.078	2.92
976.505	3.62
976.932	4.02
977.359	17.62
977.786	10.92
978.214	-2.08
978.641	-5.08
979.068	-2.58
979.495	0.12
979.922	-1.28
980.349	-4.88
980.776	6.42
981.202	-0.18
981.629	-0.78
982.056	5.12
982.483	2.82
982.91	2.42
983.337	-6.38
983.763	-1.68
984.19	-8.18
984.617	-0.28
985.043	-8.88
985.47	-2.08
985.897	-3.68
986.323	-3.58
986.75	2.62
987.176	0.82
987.603	-7.08
988.029	1.12
988.456	4.92
988.882	3.12
989.308	-4.28
989.735	-7.28
990.161	3.12
990.587	-6.88
991.014	0.92
991.44	2.62
991.866	-1.58
992.292	3.42
992.719	-3.08
993.145	-0.08
993.571	-9.78
993.997	-8.78
994.423	1.92
994.849	-2.28
995.275	-0.98
995.701	-0.28
996.127	-4.18
996.553	1.82
996.979	-1.08
997.405	-2.18
997.83	-1.98
998.256	-7.68
998.682	1.42
999.108	-3.98
999.534	-3.18
999.959	-4.88
1000.385	-2.78
1000.811	1.82
1001.236	-10.38
1001.662	-5.08
1002.087	-9.38
1002.513	-2.78
1002.938	8.52
1003.364	-2.48
1003.789	0.02
1004.215	5.12
1004.64	-0.88
1005.066	3.22
1005.491	1.42
1005.916	-3.88
1006.342	-5.28
1006.767	-5.08
1007.192	7.42
1007.617	-1.98
1008.042	-5.58
1008.468	-7.38
1008.893	-6.68
1009.318	1.22
1009.743	-1.98
1010.168	1.42
1010.593	-0.68
1011.018	-4.88
1011.443	-0.68
1011.868	2.52
1012.293	-2.38
1012.718	-4.88
1013.143	-2.68
1013.567	1.12
1013.992	-3.58
1014.417	-5.58
1014.842	1.82
1015.267	-4.78
1015.691	-7.68
1016.116	3.52
1016.541	2.02
1016.965	6.12
1017.39	1.32
1017.814	2.42
1018.239	-0.48
1018.663	-7.38
1019.088	-11.28
1019.512	-10.08
1019.937	-6.98
1020.361	-5.38
1020.785	-7.58
1021.21	-1.48
1021.634	1.32
1022.058	-1.08
1022.483	-1.88
1022.907	-3.08
1023.331	1.12
1023.755	-1.78
1024.179	-1.98
1024.604	-8.48
1025.028	-5.68
1025.452	-5.28
1025.876	-6.78
1026.3	4.62
1026.724	-9.88
1027.148	-2.28
1027.572	-11.08
1027.996	-7.18
1028.42	-2.08
1028.843	-2.08
1029.267	-2.38
1029.691	-7.28
1030.115	-14.68
1030.539	-12.88
1030.962	-6.98
1031.386	-14.58
1031.81	1.52
1032.233	-5.48
1032.657	1.52
1033.08	-3.28
1033.504	-1.08
1033.927	-2.58
1034.351	1.32
1034.774	-6.58
1035.198	1.82
1035.621	-9.78
1036.045	-8.88
1036.468	-0.88
1036.891	-6.98
1037.315	-7.38
1037.738	-8.78
1038.161	1.42
1038.584	-6.88
1039.008	-6.88
1039.431	-4.98
1039.854	-5.08
1040.277	-5.68
1040.7	-12.88
1041.123	0.42
1041.546	-6.88
1041.969	-3.28
1042.392	-9.88
1042.815	-2.58
1043.238	-3.98
1043.661	2.02
1044.084	-11.48
1044.507	-6.68
1044.93	-11.08
1045.352	-6.58
1045.775	0.12
1046.198	-2.08
1046.621	-2.08
1047.043	1.32
1047.466	3.32
1047.889	-3.78
1048.311	-3.08
1048.734	-5.58
1049.156	0.32
1049.579	-2.18
1050.001	-4.28
1050.424	1.72
1050.846	-3.38
1051.269	-2.98
1051.691	-7.38
1052.113	-0.68
1052.536	-6.18
1052.958	-1.28
1053.38	-9.28
1053.802	-7.08
1054.225	-3.38
1054.647	-8.08
1055.069	-1.78
1055.491	0.62
1055.913	-8.18
1056.335	-3.58
1056.757	-5.38
1057.179	-0.48
1057.601	0.32
1058.023	-2.28
1058.445	-6.68
1058.867	-7.48
1059.289	-5.18
1059.711	-10.48
1060.133	-3.88
1060.555	-8.08
1060.976	-6.08
1061.398	-7.98
1061.82	0.42
1062.241	3.32
1062.663	-10.08
1063.085	-8.38
1063.506	-6.68
1063.928	-4.08
1064.35	4.12
1064.771	-8.38
1065.193	0.52
1065.614	-4.78
1066.035	-1.18
1066.457	-10.38
1066.878	-1.38
1067.3	-2.18
1067.721	-6.58
1068.142	-4.18
1068.564	-5.88
1068.985	-4.88
1069.406	-1.18
1069.827	-5.58
1070.248	-6.38
1070.67	-13.48
1071.091	-6.48
1071.512	-1.88
1071.933	-8.28
1072.354	-8.98
1072.775	-8.48
1073.196	-8.88
1073.617	-4.08
1074.038	-8.48
1074.459	-5.38
1074.88	-7.28
1075.3	1.02
1075.721	-8.68
1076.142	-3.18
1076.563	1.12
1076.983	-10.78
1077.404	-2.68
1077.825	-12.98
1078.246	-0.98
1078.666	-6.98
1079.087	-6.18
1079.507	-8.88
1079.928	-1.98
1080.348	-5.58
1080.769	-7.68
1081.189	-1.68
1081.61	-1.78
1082.03	-11.48
1082.451	-4.18
1082.871	-3.48
1083.291	-8.28
1083.711	-5.68
1084.132	-7.78
1084.552	-7.48
1084.972	-4.28
1085.392	-11.08
1085.813	-11.48
1086.233	-4.88
1086.653	-0.38
1087.073	-1.38
1087.493	-4.98
1087.913	-5.28
1088.333	-8.28
1088.753	-9.28
1089.173	-0.28
1089.593	-5.38
1090.013	-1.78
1090.433	0.02
1090.852	-3.68
1091.272	1.72
1091.692	3.52
1092.112	-0.48
1092.531	-9.18
1092.951	-10.48
1093.371	-1.28
1093.79	-4.08
1094.21	1.22
1094.63	-8.38
1095.049	-5.28
1095.469	-4.78
1095.888	-4.18
1096.308	3.82
1096.727	1.92
1097.146	-9.68
1097.566	-1.08
1097.985	-8.98
1098.405	-4.58
1098.824	-12.88
1099.243	-10.48
1099.662	-10.78
1100.082	-7.68
1100.501	3.82
1100.92	-0.78
1101.339	-5.68
1101.758	-8.08
