Data from 20171114-ORNL-Ar_H_NY_Subt18_08-07-38-805.txt Node
Date: Tue Nov 14 08:07:38 EST 2017
User: Ender
Spectrometer: HR+D1039
Trigger mode: 0
Integration Time (sec): 2.730000E-2
Scans to average: 10
Electric dark correction enabled: true
Nonlinearity correction enabled: false
Boxcar width: 0
XAxis mode: Wavelengths
Number of Pixels in Spectrum: 2048
>>>>>Begin Spectral Data<<<<<
187.836	-2.43
188.309	-2.43
188.782	-2.43
189.255	1.97
189.728	2.17
190.201	4.27
190.674	-0.43
191.147	2.57
191.619	-8.23
192.092	0.37
192.565	2.67
193.038	-5.13
193.511	5.17
193.984	-2.23
194.456	-3.63
194.929	-0.63
195.402	-0.13
195.874	3.67
196.347	0.87
196.82	-7.63
197.292	7.27
197.765	-2.23
198.237	-5.03
198.71	0.27
199.182	-4.33
199.655	-4.23
200.127	0.47
200.6	-2.33
201.072	-1.03
201.544	-2.03
202.017	0.37
202.489	2.57
202.961	-0.43
203.433	-3.13
203.906	-3.43
204.378	-8.63
204.85	-1.43
205.322	-11.13
205.794	-2.43
206.266	-3.23
206.739	-10.63
207.211	-1.23
207.683	-8.53
208.155	-3.93
208.627	-6.73
209.099	-1.73
209.57	-10.43
210.042	-0.63
210.514	-2.33
210.986	-0.73
211.458	-3.23
211.93	-4.63
212.402	-0.83
212.873	-6.03
213.345	-6.93
213.817	-9.23
214.288	-3.73
214.76	-10.13
215.232	-1.03
215.703	-5.93
216.175	-1.03
216.646	-3.63
217.118	-4.03
217.589	-5.83
218.061	-2.43
218.532	-8.33
219.004	-1.93
219.475	-4.13
219.946	2.97
220.418	-8.03
220.889	1.07
221.36	-1.33
221.832	-7.03
222.303	-13.03
222.774	0.77
223.245	-3.23
223.717	-4.03
224.188	-6.13
224.659	-9.03
225.13	-6.53
225.601	-0.03
226.072	-3.93
226.543	0.47
227.014	3.47
227.485	-1.43
227.956	-4.73
228.427	-1.43
228.898	1.87
229.369	1.47
229.839	-6.63
230.31	-1.93
230.781	3.17
231.252	-8.53
231.722	0.57
232.193	2.77
232.664	3.67
233.135	2.47
233.605	-1.03
234.076	-1.13
234.546	-3.53
235.017	3.57
235.487	3.67
235.958	-6.23
236.428	-4.53
236.899	-0.23
237.369	8.77
237.84	-2.43
238.31	3.97
238.78	1.17
239.251	-0.23
239.721	1.17
240.191	4.47
240.662	-0.83
241.132	2.57
241.602	-1.13
242.072	-0.13
242.542	4.47
243.013	-3.23
243.483	3.77
243.953	5.37
244.423	-5.93
244.893	-4.93
245.363	4.97
245.833	4.67
246.303	-1.63
246.773	3.97
247.243	4.47
247.712	3.87
248.182	3.47
248.652	6.07
249.122	2.27
249.592	11.17
250.061	20.07
250.531	27.87
251.001	12.77
251.471	16.37
251.94	20.07
252.41	9.27
252.879	-4.83
253.349	9.37
253.818	8.17
254.288	2.47
254.757	0.97
255.227	0.97
255.696	7.97
256.166	8.67
256.635	5.27
257.105	9.27
257.574	3.87
258.043	4.67
258.513	7.17
258.982	17.27
259.451	6.27
259.92	16.07
260.389	9.17
260.859	14.47
261.328	5.27
261.797	11.27
262.266	2.07
262.735	5.87
263.204	2.87
263.673	-1.13
264.142	0.47
264.611	-3.93
265.08	-0.33
265.549	-3.43
266.018	1.87
266.487	-3.33
266.955	-4.43
267.424	3.97
267.893	3.77
268.362	2.87
268.83	3.47
269.299	9.97
269.768	4.67
270.236	4.67
270.705	-6.03
271.174	6.07
271.642	0.67
272.111	5.77
272.579	13.67
273.048	15.97
273.516	25.17
273.985	29.07
274.453	24.17
274.922	15.17
275.39	8.37
275.858	1.47
276.327	12.67
276.795	9.47
277.263	3.87
277.731	31.57
278.2	47.77
278.668	49.07
279.136	52.07
279.604	18.27
280.072	12.37
280.54	7.57
281.008	6.27
281.477	15.67
281.945	10.37
282.413	15.57
282.881	14.57
283.348	4.37
283.816	17.67
284.284	11.97
284.752	17.07
285.22	8.77
285.688	14.37
286.156	19.97
286.623	40.77
287.091	45.17
287.559	30.27
288.026	15.07
288.494	10.77
288.962	0.57
289.429	7.17
289.897	16.97
290.364	15.57
290.832	16.07
291.3	17.87
291.767	10.67
292.234	12.97
292.702	10.37
293.169	12.47
293.637	16.77
294.104	17.57
294.571	6.87
295.039	10.87
295.506	15.57
295.973	11.47
296.44	8.67
296.908	16.37
297.375	16.47
297.842	19.47
298.309	6.57
298.776	12.17
299.243	15.77
299.71	9.97
300.177	20.37
300.644	16.47
301.111	14.37
301.578	18.67
302.045	13.87
302.512	22.27
302.979	20.77
303.446	19.27
303.913	13.17
304.379	11.37
304.846	20.07
305.313	17.97
305.78	20.67
306.246	23.77
306.713	23.97
307.18	21.37
307.646	23.77
308.113	22.97
308.579	16.97
309.046	21.17
309.512	22.97
309.979	17.97
310.445	22.77
310.912	22.57
311.378	22.97
311.845	21.07
312.311	23.77
312.777	30.97
313.244	30.77
313.71	29.77
314.176	25.07
314.642	25.47
315.109	21.77
315.575	35.87
316.041	36.47
316.507	28.97
316.973	30.47
317.439	29.67
317.905	33.17
318.371	34.67
318.837	26.07
319.303	21.97
319.769	32.67
320.235	27.37
320.701	26.37
321.167	34.77
321.633	32.07
322.099	34.67
322.564	37.57
323.03	33.97
323.496	32.67
323.962	31.27
324.427	32.07
324.893	40.87
325.359	30.17
325.824	33.37
326.29	34.97
326.755	30.67
327.221	35.47
327.686	30.47
328.152	35.77
328.617	33.17
329.083	43.37
329.548	48.07
330.014	36.27
330.479	32.27
330.944	30.47
331.41	40.27
331.875	39.37
332.34	32.37
332.805	33.07
333.271	41.97
333.736	38.07
334.201	52.17
334.666	45.47
335.131	45.17
335.596	43.17
336.061	45.77
336.526	32.07
336.991	43.07
337.456	52.67
337.921	43.27
338.386	43.17
338.851	43.87
339.316	39.17
339.781	41.17
340.246	51.57
340.711	38.77
341.175	43.07
341.64	39.37
342.105	42.27
342.569	49.27
343.034	49.07
343.499	47.47
343.963	48.07
344.428	50.77
344.893	55.47
345.357	49.57
345.822	54.87
346.286	57.07
346.751	58.17
347.215	53.27
347.679	61.67
348.144	82.97
348.608	74.47
349.073	60.07
349.537	63.17
350.001	68.87
350.465	80.27
350.93	70.77
351.394	72.77
351.858	64.87
352.322	81.37
352.786	72.77
353.25	89.17
353.715	100.67
354.179	87.67
354.643	107.17
355.107	106.27
355.571	92.67
356.035	94.57
356.498	102.27
356.962	112.67
357.426	108.87
357.89	105.97
358.354	80.47
358.818	74.27
359.281	69.57
359.745	70.17
360.209	70.17
360.673	67.37
361.136	70.07
361.6	69.97
362.064	69.97
362.527	71.27
362.991	83.27
363.454	74.17
363.918	70.07
364.381	75.47
364.845	71.47
365.308	84.97
365.772	74.37
366.235	79.67
366.698	72.47
367.162	73.07
367.625	77.97
368.088	82.57
368.552	77.57
369.015	79.37
369.478	85.87
369.941	89.67
370.404	80.97
370.867	98.37
371.331	96.77
371.794	98.77
372.257	104.67
372.72	101.07
373.183	98.97
373.646	96.07
374.109	95.07
374.572	95.57
375.035	96.67
375.497	96.47
375.96	96.67
376.423	89.27
376.886	100.07
377.349	103.97
377.811	96.67
378.274	98.87
378.737	100.07
379.199	103.37
379.662	100.77
380.125	108.97
380.587	102.57
381.05	117.57
381.512	117.17
381.975	119.27
382.437	124.47
382.9	114.87
383.362	125.07
383.825	127.17
384.287	133.77
384.75	134.27
385.212	132.57
385.674	128.07
386.136	125.07
386.599	114.47
387.061	111.97
387.523	121.87
387.985	132.87
388.447	137.67
388.91	131.87
389.372	145.37
389.834	150.17
390.296	134.47
390.758	149.27
391.22	159.07
391.682	201.07
392.144	284.37
392.606	215.17
393.068	155.77
393.529	152.57
393.991	142.07
394.453	129.37
394.915	140.87
395.377	179.47
395.838	200.87
396.3	143.67
396.762	131.87
397.224	124.67
397.685	123.17
398.147	114.67
398.608	119.87
399.07	113.57
399.531	126.27
399.993	131.47
400.454	146.17
400.916	131.47
401.377	132.67
401.839	140.57
402.3	139.37
402.762	154.27
403.223	165.27
403.684	157.47
404.145	147.17
404.607	149.47
405.068	152.47
405.529	151.97
405.99	177.07
406.451	164.97
406.913	160.67
407.374	154.27
407.835	148.77
408.296	156.07
408.757	157.37
409.218	174.57
409.679	169.07
410.14	163.77
410.601	162.17
411.062	167.97
411.522	177.47
411.983	175.37
412.444	165.67
412.905	172.37
413.366	165.47
413.826	180.07
414.287	201.57
414.748	239.37
415.208	223.77
415.669	205.47
416.13	190.07
416.59	188.37
417.051	201.47
417.511	204.87
417.972	216.97
418.432	229.17
418.893	271.17
419.353	240.67
419.814	182.97
420.274	169.27
420.734	164.97
421.195	188.57
421.655	190.87
422.115	178.47
422.576	180.77
423.036	189.17
423.496	199.27
423.956	198.87
424.416	218.57
424.876	255.07
425.336	242.27
425.797	249.97
426.257	235.77
426.717	223.87
427.177	221.97
427.637	215.97
428.097	221.67
428.556	235.37
429.016	253.67
429.476	253.67
429.936	257.27
430.396	267.67
430.856	278.47
431.315	300.77
431.775	337.57
432.235	359.17
432.694	325.87
433.154	347.17
433.614	375.97
434.073	320.17
434.533	269.37
434.993	251.37
435.452	265.47
435.912	275.97
436.371	267.07
436.83	270.27
437.29	254.37
437.749	236.67
438.209	228.67
438.668	264.27
439.127	271.77
439.587	245.17
440.046	226.77
440.505	244.17
440.964	264.27
441.424	303.37
441.883	293.37
442.342	241.57
442.801	209.07
443.26	212.17
443.719	209.07
444.178	204.67
444.637	200.97
445.096	208.17
445.555	207.87
446.014	213.27
446.473	219.47
446.932	224.97
447.391	212.37
447.849	217.47
448.308	215.07
448.767	214.07
449.226	219.07
449.685	218.77
450.143	231.87
450.602	225.27
451.061	216.87
451.519	223.57
451.978	223.17
452.436	223.17
452.895	227.97
453.353	238.07
453.812	235.47
454.27	228.87
454.729	229.67
455.187	234.87
455.646	230.07
456.104	235.37
456.562	249.37
457.021	255.77
457.479	255.77
457.937	255.57
458.395	258.87
458.854	234.77
459.312	244.87
459.77	261.07
460.228	240.87
460.686	226.87
461.144	241.77
461.602	240.37
462.06	234.97
462.518	248.57
462.976	244.57
463.434	236.77
463.892	250.87
464.35	259.17
464.808	267.37
465.266	251.17
465.724	264.77
466.181	261.67
466.639	256.57
467.097	278.87
467.555	283.77
468.012	282.47
468.47	295.57
468.928	311.27
469.385	330.47
469.843	332.07
470.3	330.17
470.758	355.47
471.215	372.57
471.673	396.37
472.13	387.07
472.588	400.67
473.045	357.17
473.503	365.77
473.96	373.67
474.417	379.77
474.875	419.17
475.332	445.87
475.789	453.07
476.246	449.07
476.704	472.27
477.161	480.37
477.618	503.07
478.075	541.37
478.532	584.57
478.989	664.77
479.446	764.07
479.903	748.07
480.36	780.17
480.817	826.07
481.274	939.87
481.731	1032.47
482.188	1120.47
482.645	1246.97
483.102	1352.37
483.558	1466.67
484.015	1540.47
484.472	1508.37
484.929	1466.47
485.385	1415.97
485.842	1365.27
486.299	1311.67
486.755	1243.07
487.212	1057.57
487.668	885.27
488.125	805.67
488.582	742.77
489.038	722.07
489.494	677.97
489.951	659.87
490.407	634.27
490.864	622.87
491.32	611.57
491.776	610.97
492.233	617.67
492.689	583.97
493.145	582.47
493.602	579.37
494.058	588.07
494.514	590.77
494.97	614.27
495.426	625.07
495.882	589.77
496.338	585.57
496.794	595.97
497.251	601.57
497.707	602.77
498.163	611.97
498.618	612.77
499.074	618.17
499.53	640.97
499.986	656.17
500.442	623.07
500.898	609.87
501.354	609.87
501.809	605.67
502.265	623.57
502.721	637.87
503.177	655.77
503.632	642.47
504.088	659.97
504.543	691.57
504.999	689.97
505.455	635.37
505.91	609.97
506.366	607.37
506.821	597.97
507.277	602.47
507.732	606.47
508.187	595.37
508.643	614.77
509.098	609.87
509.553	630.77
510.009	644.57
510.464	643.67
510.919	653.77
511.375	677.87
511.83	681.67
512.285	684.37
512.74	727.87
513.195	754.77
513.65	749.37
514.105	742.57
514.56	736.27
515.015	752.17
515.47	776.97
515.925	761.57
516.38	757.87
516.835	762.07
517.29	755.77
517.745	748.27
518.2	739.37
518.655	722.37
519.109	721.27
519.564	714.57
520.019	698.57
520.474	698.37
520.928	700.27
521.383	689.67
521.838	690.27
522.292	688.67
522.747	683.57
523.201	680.67
523.656	668.17
524.11	672.37
524.565	674.97
525.019	668.57
525.474	677.67
525.928	682.47
526.382	664.97
526.837	671.37
527.291	681.37
527.745	666.87
528.2	673.27
528.654	663.07
529.108	658.77
529.562	667.97
530.016	671.67
530.47	674.07
530.925	666.37
531.379	664.87
531.833	681.27
532.287	673.57
532.741	678.77
533.195	675.27
533.649	686.47
534.103	694.07
534.556	680.17
535.01	698.87
535.464	679.07
535.918	698.17
536.372	693.57
536.826	688.07
537.279	681.97
537.733	692.97
538.187	690.97
538.64	690.47
539.094	708.37
539.548	706.67
540.001	700.57
540.455	693.37
540.908	702.07
541.362	710.57
541.815	719.77
542.269	743.37
542.722	734.67
543.175	741.37
543.629	734.57
544.082	773.47
544.536	768.57
544.989	753.07
545.442	769.47
545.895	762.57
546.349	758.17
546.802	767.47
547.255	771.17
547.708	784.17
548.161	786.27
548.614	794.47
549.067	796.87
549.52	802.57
549.973	785.17
550.426	782.57
550.879	766.27
551.332	778.07
551.785	777.77
552.238	785.07
552.691	794.37
553.144	793.37
553.596	831.37
554.049	831.57
554.502	867.27
554.955	892.07
555.407	884.67
555.86	879.37
556.313	862.67
556.765	840.47
557.218	853.37
557.67	849.27
558.123	842.67
558.576	850.17
559.028	854.07
559.48	855.27
559.933	842.67
560.385	816.87
560.838	780.97
561.29	759.57
561.742	757.27
562.195	740.47
562.647	742.87
563.099	768.87
563.551	748.77
564.004	763.67
564.456	752.97
564.908	742.57
565.36	733.57
565.812	714.67
566.264	703.67
566.716	707.07
567.168	695.07
567.62	714.67
568.072	685.97
568.524	676.77
568.976	666.57
569.428	651.27
569.88	665.47
570.332	667.57
570.784	667.87
571.235	665.87
571.687	667.27
572.139	675.47
572.59	697.97
573.042	690.47
573.494	698.57
573.945	681.57
574.397	661.77
574.849	672.87
575.3	666.87
575.752	663.87
576.203	649.37
576.655	668.37
577.106	654.07
577.557	650.07
578.009	651.67
578.46	644.87
578.912	644.17
579.363	654.17
579.814	639.87
580.265	652.27
580.717	651.67
581.168	656.17
581.619	662.77
582.07	665.47
582.521	667.47
582.972	656.87
583.423	660.57
583.875	658.07
584.326	680.97
584.777	730.27
585.227	812.17
585.678	899.97
586.129	979.27
586.58	1045.27
587.031	1135.47
587.482	1279.67
587.933	1459.77
588.384	1267.77
588.834	968.17
589.285	781.17
589.736	768.87
590.186	754.07
590.637	753.77
591.088	724.17
591.538	715.07
591.989	717.07
592.439	706.37
592.89	700.97
593.34	687.27
593.791	698.17
594.241	684.87
594.692	698.17
595.142	689.07
595.593	683.97
596.043	703.67
596.493	693.57
596.943	690.87
597.394	716.67
597.844	700.77
598.294	705.27
598.744	739.37
599.195	753.17
599.645	797.77
600.095	833.47
600.545	893.17
600.995	950.27
601.445	1008.47
601.895	1055.17
602.345	1105.17
602.795	1083.77
603.245	1039.77
603.695	980.07
604.145	938.47
604.594	890.77
605.044	836.47
605.494	775.57
605.944	737.57
606.393	725.37
606.843	709.77
607.293	718.57
607.743	712.47
608.192	737.07
608.642	742.67
609.091	747.67
609.541	758.37
609.99	747.57
610.44	746.17
610.889	708.17
611.339	690.37
611.788	680.47
612.238	689.07
612.687	713.17
613.136	703.17
613.586	720.57
614.035	717.37
614.484	738.07
614.933	739.47
615.383	735.77
615.832	738.17
616.281	716.47
616.73	678.07
617.179	654.97
617.628	634.87
618.077	619.87
618.526	616.87
618.975	606.77
619.424	609.47
619.873	598.97
620.322	607.67
620.771	595.77
621.22	584.67
621.669	576.77
622.118	578.47
622.567	574.97
623.015	555.77
623.464	555.87
623.913	545.97
624.361	548.17
624.81	538.17
625.259	542.97
625.707	543.97
626.156	552.07
626.604	555.87
627.053	546.07
627.501	555.77
627.95	557.97
628.398	579.17
628.847	556.67
629.295	552.97
629.744	561.97
630.192	555.47
630.64	566.17
631.089	554.37
631.537	580.37
631.985	577.27
632.433	582.67
632.881	602.47
633.33	639.17
633.778	630.87
634.226	553.07
634.674	563.37
635.122	567.27
635.57	594.67
636.018	621.57
636.466	568.47
636.914	538.97
637.362	565.77
637.81	561.97
638.258	563.57
638.705	568.57
639.153	603.27
639.601	603.97
640.049	624.77
640.497	656.57
640.944	671.37
641.392	627.27
641.84	590.77
642.287	567.37
642.735	550.57
643.182	565.07
643.63	561.77
644.078	570.87
644.525	576.07
644.973	584.87
645.42	590.27
645.867	609.77
646.315	636.17
646.762	643.57
647.21	678.27
647.657	703.07
648.104	735.27
648.551	763.37
648.999	825.17
649.446	915.37
649.893	989.77
650.34	1150.37
650.787	1374.17
651.234	1714.37
651.682	2246.07
652.129	3082.97
652.576	4452.97
653.023	6583.87
653.47	8958.27
653.917	11158.37
654.363	12792.77
654.81	14137.37
655.257	13437.07
655.704	8790.47
656.151	5181.47
656.598	3371.17
657.044	2381.77
657.491	1841.77
657.938	1473.17
658.385	1226.47
658.831	1057.27
659.278	951.57
659.724	829.77
660.171	774.47
660.618	712.47
661.064	682.07
661.511	659.07
661.957	643.67
662.404	635.27
662.85	639.37
663.296	609.87
663.743	552.27
664.189	523.97
664.635	519.67
665.082	526.97
665.528	519.77
665.974	504.77
666.42	505.57
666.867	499.57
667.313	477.47
667.759	467.37
668.205	470.67
668.651	475.97
669.097	484.27
669.543	494.17
669.989	462.37
670.435	442.77
670.881	439.57
671.327	443.27
671.773	462.37
672.219	479.77
672.665	541.37
673.11	564.07
673.556	610.87
674.002	657.67
674.448	635.47
674.893	531.37
675.339	468.07
675.785	430.07
676.23	413.77
676.676	383.77
677.122	382.07
677.567	370.67
678.013	357.47
678.458	362.77
678.904	359.27
679.349	342.37
679.794	340.57
680.24	349.07
680.685	340.67
681.131	345.37
681.576	338.87
682.021	348.77
682.466	341.17
682.912	342.67
683.357	353.67
683.802	379.87
684.247	398.37
684.692	448.47
685.137	487.47
685.583	521.77
686.028	549.57
686.473	517.97
686.918	434.47
687.363	406.67
687.807	383.17
688.252	354.67
688.697	354.47
689.142	335.87
689.587	323.47
690.032	319.97
690.477	336.87
690.921	355.97
691.366	373.57
691.811	396.07
692.255	423.47
692.7	450.97
693.145	497.87
693.589	696.17
694.034	1115.67
694.478	1515.67
694.923	1688.17
695.367	2208.47
695.812	1157.77
696.256	481.17
696.701	368.37
697.145	336.87
697.59	321.97
698.034	316.77
698.478	326.57
698.922	323.77
699.367	326.97
699.811	326.77
700.255	344.97
700.699	383.27
701.143	417.07
701.588	471.17
702.032	512.17
702.476	515.67
702.92	480.97
703.364	490.17
703.808	639.27
704.252	1035.97
704.696	1436.07
705.14	1636.07
705.584	2070.37
706.027	1034.77
706.471	522.67
706.915	391.67
707.359	343.47
707.803	319.57
708.246	309.27
708.69	300.87
709.134	309.07
709.577	307.07
710.021	309.97
710.465	301.67
710.908	302.07
711.352	296.07
711.795	305.87
712.239	346.07
712.682	375.67
713.126	418.77
713.569	453.77
714.012	363.27
714.456	314.67
714.899	297.17
715.342	271.67
715.786	260.97
716.229	254.87
716.672	249.27
717.115	248.17
717.558	248.87
718.002	251.47
718.445	252.67
718.888	274.77
719.331	287.67
719.774	298.57
720.217	301.47
720.66	281.67
721.103	265.77
721.546	252.57
721.989	238.47
722.432	228.17
722.874	230.97
723.317	228.77
723.76	233.57
724.203	257.17
724.645	302.77
725.088	443.67
725.531	562.17
725.974	633.67
726.416	533.27
726.859	302.17
727.301	245.57
727.744	235.77
728.187	230.57
728.629	237.67
729.071	236.07
729.514	252.37
729.956	274.57
730.399	287.07
730.841	281.77
731.283	269.17
731.726	259.17
732.168	250.87
732.61	261.57
733.053	278.07
733.495	312.07
733.937	345.37
734.379	391.77
734.821	429.87
735.263	536.37
735.705	828.77
736.148	1583.67
736.59	2538.47
737.032	2972.07
737.474	2404.77
737.916	787.27
738.357	422.17
738.799	317.57
739.241	297.27
739.683	276.17
740.125	290.67
740.567	297.37
741.008	308.57
741.45	307.87
741.892	315.17
742.334	333.87
742.775	357.87
743.217	326.97
743.658	261.07
744.1	247.77
744.542	255.77
744.983	307.37
745.425	334.57
745.866	348.47
746.307	285.47
746.749	276.67
747.19	317.07
747.632	457.77
748.073	885.77
748.514	1867.07
748.956	2784.27
749.397	3496.27
749.838	2909.67
750.279	2866.87
750.72	1460.57
751.162	537.67
751.603	319.27
752.044	253.67
752.485	214.87
752.926	204.77
753.367	198.87
753.808	190.97
754.249	197.07
754.69	185.17
755.131	176.47
755.572	174.47
756.013	179.77
756.453	182.37
756.894	179.57
757.335	186.67
757.776	188.67
758.216	192.07
758.657	198.57
759.098	202.87
759.538	228.07
759.979	257.57
760.42	369.37
760.86	710.07
761.301	1834.87
761.741	4386.97
762.182	6214.47
762.622	4363.67
763.063	1274.47
763.503	530.97
763.943	343.57
764.384	334.27
764.824	402.07
765.264	428.67
765.705	299.17
766.145	202.67
766.585	187.47
767.025	180.07
767.465	186.07
767.906	239.47
768.346	311.07
768.786	339.97
769.226	263.77
769.666	318.27
770.106	622.47
770.546	1552.87
770.986	2574.57
771.426	2292.97
771.866	773.57
772.306	315.37
772.745	208.57
773.185	173.47
773.625	172.07
774.065	167.67
774.505	199.37
774.944	317.27
775.384	682.67
775.824	1225.97
776.263	1173.47
776.703	500.57
777.142	222.17
777.582	156.37
778.021	136.47
778.461	137.57
778.9	138.67
779.34	133.97
779.779	112.17
780.219	112.87
780.658	111.97
781.097	118.07
781.537	114.77
781.976	109.97
782.415	100.27
782.855	101.77
783.294	104.87
783.733	103.97
784.172	108.37
784.611	105.27
785.05	105.77
785.489	111.97
785.928	117.27
786.367	120.37
786.806	113.27
787.245	125.37
787.684	136.97
788.123	147.97
788.562	134.97
789.001	125.37
789.44	125.27
789.879	112.27
790.317	113.27
790.756	123.37
791.195	129.17
791.634	149.47
792.072	207.97
792.511	371.37
792.95	1013.87
793.388	2085.27
793.827	1872.07
794.265	661.97
794.704	274.67
795.142	180.67
795.581	154.27
796.019	133.87
796.458	132.77
796.896	123.57
797.334	125.77
797.773	151.67
798.211	217.17
798.649	436.07
799.087	1003.97
799.526	1570.27
799.964	1965.17
800.402	1944.17
800.84	735.67
801.278	301.77
801.716	180.97
802.154	152.37
802.592	138.87
803.03	137.87
803.468	133.17
803.906	136.97
804.344	145.47
804.782	137.97
805.22	131.67
805.658	130.07
806.096	149.87
806.533	156.07
806.971	176.07
807.409	214.67
807.847	319.27
808.284	670.37
808.722	1853.37
809.16	3211.87
809.597	3082.77
810.035	5331.87
810.472	5562.67
810.91	2028.37
811.347	783.17
811.785	401.17
812.222	249.27
812.66	187.57
813.097	166.47
813.535	138.17
813.972	123.87
814.409	117.57
814.846	110.57
815.284	112.27
815.721	101.97
816.158	108.87
816.595	121.57
817.032	174.97
817.47	193.37
817.907	157.77
818.344	140.57
818.781	116.57
819.218	103.77
819.655	121.77
820.092	178.47
820.529	204.47
820.966	172.27
821.403	129.37
821.839	103.97
822.276	104.37
822.713	121.17
823.15	131.37
823.587	114.57
824.023	150.17
824.46	303.07
824.897	886.27
825.333	1320.27
825.77	567.47
826.206	225.37
826.643	129.47
827.08	102.27
827.516	80.27
827.953	85.57
828.389	80.97
828.825	71.57
829.262	61.37
829.698	55.07
830.135	61.87
830.571	64.87
831.007	63.17
831.443	70.17
831.88	67.47
832.316	64.37
832.752	69.77
833.188	62.97
833.624	65.87
834.06	66.77
834.497	69.57
834.933	72.77
835.369	75.07
835.805	65.07
836.241	73.77
836.677	74.87
837.112	90.27
837.548	105.57
837.984	133.07
838.42	199.27
838.856	495.57
839.292	1519.67
839.727	2221.07
840.163	1037.67
840.599	918.97
841.034	1989.57
841.47	2044.57
841.906	765.17
842.341	335.67
842.777	234.77
843.212	315.77
843.648	304.07
844.083	152.87
844.519	100.67
844.954	79.47
845.39	63.87
845.825	58.17
846.261	59.97
846.696	52.97
847.131	53.27
847.566	55.77
848.002	48.47
848.437	49.57
848.872	61.87
849.307	60.17
849.742	79.87
850.177	185.67
850.613	554.87
851.048	854.87
851.483	372.97
851.918	153.87
852.353	88.07
852.788	65.27
853.223	57.77
853.657	54.57
854.092	48.87
854.527	41.17
854.962	41.27
855.397	46.87
855.832	47.57
856.266	37.77
856.701	44.37
857.136	44.17
857.57	39.07
858.005	53.47
858.44	61.47
858.874	45.37
859.309	56.07
859.743	40.17
860.178	42.07
860.612	47.17
861.047	49.97
861.481	66.27
861.915	70.57
862.35	47.47
862.784	39.67
863.218	40.07
863.653	29.27
864.087	44.97
864.521	52.77
864.955	71.27
865.39	159.17
865.824	171.97
866.258	114.57
866.692	162.47
867.126	167.77
867.56	103.87
867.994	52.47
868.428	36.37
868.862	44.87
869.296	49.67
869.73	62.57
870.164	52.07
870.598	47.37
871.031	38.37
871.465	29.27
871.899	33.27
872.333	26.67
872.766	24.77
873.2	19.97
873.634	35.37
874.067	21.77
874.501	20.77
874.935	36.67
875.368	38.97
875.802	27.37
876.235	25.27
876.669	28.47
877.102	23.57
877.535	28.77
877.969	19.27
878.402	25.77
878.836	24.67
879.269	33.67
879.702	30.97
880.135	20.87
880.569	26.37
881.002	31.17
881.435	22.07
881.868	15.47
882.301	24.97
882.734	16.47
883.167	22.37
883.601	22.87
884.034	24.77
884.467	16.57
884.899	16.57
885.332	16.67
885.765	13.47
886.198	18.17
886.631	21.37
887.064	17.77
887.497	23.47
887.929	28.87
888.362	14.77
888.795	15.87
889.228	17.07
889.66	19.27
890.093	20.17
890.526	21.97
890.958	17.37
891.391	18.17
891.823	22.57
892.256	15.77
892.688	15.77
893.121	18.17
893.553	15.57
893.985	26.77
894.418	12.97
894.85	11.67
895.282	22.37
895.715	15.27
896.147	17.87
896.579	17.07
897.011	14.67
897.444	23.77
897.876	11.87
898.308	16.17
898.74	17.67
899.172	18.07
899.604	17.27
900.036	23.07
900.468	14.47
900.9	12.37
901.332	18.07
901.764	12.67
902.196	15.47
902.628	17.47
903.06	16.67
903.491	29.47
903.923	16.57
904.355	20.57
904.787	24.37
905.218	22.37
905.65	21.67
906.082	6.07
906.513	11.37
906.945	13.67
907.376	13.77
907.808	17.07
908.239	20.87
908.671	20.57
909.102	27.37
909.534	30.37
909.965	46.87
910.397	92.47
910.828	311.57
911.259	462.37
911.691	212.87
912.122	101.47
912.553	54.07
912.984	32.37
913.415	24.57
913.847	24.07
914.278	18.87
914.709	13.27
915.14	25.67
915.571	20.47
916.002	14.57
916.433	24.57
916.864	16.57
917.295	18.17
917.726	22.77
918.157	14.67
918.587	31.17
919.018	18.07
919.449	21.97
919.88	26.07
920.311	35.07
920.741	50.17
921.172	165.37
921.603	146.07
922.033	70.27
922.464	44.27
922.895	22.27
923.325	29.17
923.756	15.07
924.186	15.07
924.617	31.57
925.047	51.07
925.478	52.27
925.908	47.27
926.338	24.67
926.769	18.87
927.199	19.37
927.629	6.37
928.06	8.37
928.49	15.37
928.92	10.87
929.35	16.27
929.78	11.27
930.21	8.47
930.641	9.47
931.071	12.17
931.501	5.17
931.931	3.07
932.361	3.97
932.791	1.27
933.221	0.37
933.651	6.77
934.08	16.07
934.51	27.57
934.94	9.17
935.37	9.07
935.8	5.77
936.229	1.47
936.659	9.97
937.089	6.77
937.519	13.67
937.948	21.77
938.378	19.67
938.807	8.57
939.237	4.77
939.666	10.07
940.096	-4.43
940.525	0.27
940.955	0.17
941.384	11.47
941.814	-10.73
942.243	-1.43
942.672	9.27
943.102	4.57
943.531	7.07
943.96	5.97
944.39	-2.73
944.819	-1.23
945.248	4.37
945.677	2.07
946.106	9.57
946.535	4.77
946.964	4.37
947.393	2.47
947.822	0.97
948.251	-2.13
948.68	6.97
949.109	8.27
949.538	8.47
949.967	1.77
950.396	3.27
950.825	-0.53
951.254	-1.53
951.682	-4.83
952.111	5.27
952.54	6.67
952.969	-2.93
953.397	-4.23
953.826	2.27
954.254	-3.53
954.683	4.57
955.112	-1.23
955.54	6.57
955.969	0.47
956.397	-2.73
956.826	-1.33
957.254	2.57
957.682	1.47
958.111	6.87
958.539	-2.03
958.967	-0.33
959.396	-2.73
959.824	2.57
960.252	3.57
960.68	-4.53
961.109	-3.13
961.537	2.87
961.965	1.67
962.393	4.47
962.821	-1.33
963.249	3.77
963.677	4.97
964.105	10.07
964.533	48.27
964.961	46.87
965.389	25.07
965.817	10.27
966.245	0.37
966.672	0.87
967.1	-6.33
967.528	4.97
967.956	-2.83
968.383	1.27
968.811	-3.83
969.239	-2.53
969.666	-3.23
970.094	-1.33
970.522	0.17
970.949	-2.03
971.377	-1.13
971.804	5.67
972.232	-2.33
972.659	-2.63
973.087	-4.03
973.514	-3.23
973.941	-0.13
974.369	3.37
974.796	-2.83
975.223	6.17
975.651	-0.83
976.078	4.27
976.505	-4.83
976.932	2.77
977.359	15.97
977.786	10.37
978.214	3.37
978.641	-5.23
979.068	-0.43
979.495	-3.93
979.922	-3.73
980.349	-3.33
980.776	3.77
981.202	-1.33
981.629	6.57
982.056	7.67
982.483	1.37
982.91	4.17
983.337	-2.03
983.763	5.87
984.19	-3.53
984.617	-4.03
985.043	-5.53
985.47	-4.13
985.897	-4.33
986.323	-0.23
986.75	9.37
987.176	2.87
987.603	-1.23
988.029	0.87
988.456	-2.73
988.882	1.87
989.308	-5.33
989.735	-8.33
990.161	0.97
990.587	-1.53
991.014	6.37
991.44	8.47
991.866	-0.93
992.292	-2.33
992.719	-4.93
993.145	5.77
993.571	-7.23
993.997	-5.03
994.423	-0.13
994.849	-5.33
995.275	-2.33
995.701	0.27
996.127	-7.83
996.553	-0.73
996.979	-4.13
997.405	-8.43
997.83	-1.73
998.256	-9.03
998.682	-5.13
999.108	-11.33
999.534	-1.43
999.959	-3.83
1000.385	0.87
1000.811	2.67
1001.236	-13.23
1001.662	-3.43
1002.087	-5.63
1002.513	-4.53
1002.938	-2.13
1003.364	-1.93
1003.789	-6.43
1004.215	2.27
1004.64	0.77
1005.066	2.87
1005.491	-7.53
1005.916	-0.93
1006.342	-4.83
1006.767	-7.43
1007.192	4.97
1007.617	-4.43
1008.042	-1.23
1008.468	-13.13
1008.893	-3.93
1009.318	-1.13
1009.743	-4.23
1010.168	1.47
1010.593	5.17
1011.018	-7.03
1011.443	-2.53
1011.868	0.07
1012.293	4.67
1012.718	-6.23
1013.143	3.57
1013.567	3.97
1013.992	-3.03
1014.417	-12.63
1014.842	7.37
1015.267	-9.23
1015.691	-5.63
1016.116	4.17
1016.541	1.67
1016.965	5.07
1017.39	0.87
1017.814	2.77
1018.239	2.17
1018.663	-3.33
1019.088	-14.83
1019.512	0.67
1019.937	-0.23
1020.361	-3.13
1020.785	-12.63
1021.21	-1.13
1021.634	-3.23
1022.058	-0.93
1022.483	3.57
1022.907	-6.23
1023.331	-10.13
1023.755	-5.73
1024.179	-2.03
1024.604	-6.63
1025.028	-2.43
1025.452	-8.33
1025.876	-5.23
1026.3	1.27
1026.724	-5.63
1027.148	-2.93
1027.572	-8.63
1027.996	-5.23
1028.42	-3.53
1028.843	-6.23
1029.267	-6.83
1029.691	-1.03
1030.115	-7.03
1030.539	-7.93
1030.962	-7.83
1031.386	-8.33
1031.81	5.07
1032.233	0.47
1032.657	1.67
1033.08	-2.13
1033.504	0.97
1033.927	-4.13
1034.351	1.17
1034.774	-3.93
1035.198	-4.53
1035.621	-10.13
1036.045	-5.83
1036.468	-0.93
1036.891	-12.93
1037.315	-9.33
1037.738	-2.83
1038.161	-0.63
1038.584	-7.43
1039.008	-7.03
1039.431	-3.03
1039.854	-6.53
1040.277	-6.63
1040.7	-10.13
1041.123	0.17
1041.546	-3.13
1041.969	-7.73
1042.392	-3.33
1042.815	-5.03
1043.238	2.27
1043.661	1.47
1044.084	-7.33
1044.507	-7.53
1044.93	-4.23
1045.352	-5.43
1045.775	4.17
1046.198	-1.43
1046.621	0.47
1047.043	0.07
1047.466	3.27
1047.889	-6.03
1048.311	-5.93
1048.734	-3.83
1049.156	-0.43
1049.579	1.77
1050.001	-1.23
1050.424	-5.33
1050.846	-4.13
1051.269	-9.23
1051.691	-11.63
1052.113	-4.43
1052.536	-0.13
1052.958	5.07
1053.38	-2.93
1053.802	-10.03
1054.225	-4.13
1054.647	-11.53
1055.069	-5.03
1055.491	4.67
1055.913	-12.23
1056.335	-0.13
1056.757	-2.53
1057.179	-1.83
1057.601	-8.93
1058.023	-8.13
1058.445	-0.73
1058.867	2.77
1059.289	0.07
1059.711	-2.83
1060.133	-1.53
1060.555	-2.23
1060.976	-5.83
1061.398	-6.43
1061.82	-9.83
1062.241	-5.83
1062.663	-5.63
1063.085	-5.33
1063.506	3.47
1063.928	-5.93
1064.35	-1.23
1064.771	-11.13
1065.193	-8.53
1065.614	-5.63
1066.035	-2.63
1066.457	-5.33
1066.878	-4.03
1067.3	-0.83
1067.721	-5.23
1068.142	5.07
1068.564	-1.73
1068.985	1.47
1069.406	-4.73
1069.827	-4.43
1070.248	-1.93
1070.67	-7.73
1071.091	-8.73
1071.512	-3.33
1071.933	-7.03
1072.354	-6.13
1072.775	-6.03
1073.196	-5.73
1073.617	-3.93
1074.038	-7.43
1074.459	-5.13
1074.88	-10.53
1075.3	-0.83
1075.721	-2.93
1076.142	-0.13
1076.563	-3.63
1076.983	-11.93
1077.404	-6.33
1077.825	-13.43
1078.246	-8.13
1078.666	-12.43
1079.087	-2.43
1079.507	-7.13
1079.928	-2.73
1080.348	-2.23
1080.769	-3.73
1081.189	-3.03
1081.61	-4.13
1082.03	-12.93
1082.451	-6.13
1082.871	-3.93
1083.291	-12.13
1083.711	-3.43
1084.132	-4.23
1084.552	-4.43
1084.972	-6.13
1085.392	-12.23
1085.813	-10.43
1086.233	-8.33
1086.653	-5.03
1087.073	0.77
1087.493	-10.03
1087.913	-7.53
1088.333	-5.53
1088.753	-1.23
1089.173	-2.13
1089.593	-0.13
1090.013	-3.43
1090.433	0.07
1090.852	-1.93
1091.272	0.67
1091.692	-5.53
1092.112	-1.23
1092.531	-6.23
1092.951	-13.73
1093.371	-3.23
1093.79	1.47
1094.21	-4.13
1094.63	-13.13
1095.049	-7.23
1095.469	-2.73
1095.888	-2.23
1096.308	2.47
1096.727	10.67
1097.146	-6.13
1097.566	4.67
1097.985	-6.53
1098.405	-2.43
1098.824	-10.03
1099.243	-9.03
1099.662	-6.33
1100.082	-8.93
1100.501	-1.23
1100.92	-8.93
1101.339	-2.93
1101.758	-11.43
