Data from 20171114-ORNL-Ar_H_NY_Subt18_08-08-00-916.txt Node
Date: Tue Nov 14 08:08:00 EST 2017
User: Ender
Spectrometer: HR+D1039
Trigger mode: 0
Integration Time (sec): 2.730000E-2
Scans to average: 10
Electric dark correction enabled: true
Nonlinearity correction enabled: false
Boxcar width: 0
XAxis mode: Wavelengths
Number of Pixels in Spectrum: 2048
>>>>>Begin Spectral Data<<<<<
187.836	-5.97
188.309	-5.97
188.782	-5.97
189.255	-2.17
189.728	-0.97
190.201	5.33
190.674	-0.47
191.147	4.43
191.619	-5.87
192.092	3.33
192.565	5.43
193.038	-0.27
193.511	-2.27
193.984	2.33
194.456	1.33
194.929	0.33
195.402	-3.77
195.874	-0.77
196.347	-3.57
196.82	-6.77
197.292	4.03
197.765	-0.97
198.237	-9.77
198.71	-1.77
199.182	-6.07
199.655	6.13
200.127	-0.57
200.6	2.23
201.072	-6.37
201.544	-4.47
202.017	-4.77
202.489	-1.07
202.961	1.63
203.433	-7.37
203.906	-5.37
204.378	-11.47
204.85	-7.17
205.322	-9.77
205.794	-6.87
206.266	-8.77
206.739	-8.37
207.211	8.63
207.683	-9.47
208.155	-7.57
208.627	-11.17
209.099	-4.77
209.57	-6.57
210.042	-5.07
210.514	-4.97
210.986	-1.67
211.458	-10.07
211.93	-4.87
212.402	3.83
212.873	-6.47
213.345	-7.57
213.817	-10.77
214.288	-10.57
214.76	-9.07
215.232	-6.27
215.703	-4.37
216.175	-1.97
216.646	-4.27
217.118	-11.37
217.589	-4.67
218.061	-0.77
218.532	-5.47
219.004	-3.87
219.475	-8.97
219.946	-2.27
220.418	-10.07
220.889	2.33
221.36	4.93
221.832	-13.37
222.303	-8.07
222.774	-2.87
223.245	-10.37
223.717	-5.27
224.188	-6.17
224.659	-13.87
225.13	-4.17
225.601	-2.87
226.072	0.33
226.543	-1.77
227.014	-4.87
227.485	-2.27
227.956	-0.27
228.427	-7.27
228.898	-0.27
229.369	5.23
229.839	-10.27
230.31	-4.17
230.781	2.53
231.252	-7.37
231.722	-4.77
232.193	-1.47
232.664	0.33
233.135	-2.97
233.605	-1.17
234.076	-6.17
234.546	0.43
235.017	5.83
235.487	1.73
235.958	0.33
236.428	-5.27
236.899	4.33
237.369	6.13
237.84	-2.17
238.31	5.83
238.78	4.03
239.251	0.23
239.721	7.73
240.191	-0.17
240.662	2.23
241.132	0.13
241.602	-1.67
242.072	2.93
242.542	-1.77
243.013	-1.57
243.483	5.23
243.953	-1.17
244.423	-1.37
244.893	-2.57
245.363	5.03
245.833	-2.77
246.303	-0.77
246.773	0.63
247.243	-3.17
247.712	2.93
248.182	8.93
248.652	7.33
249.122	-2.77
249.592	5.63
250.061	19.03
250.531	29.83
251.001	11.03
251.471	21.83
251.94	14.33
252.41	1.03
252.879	-0.87
253.349	14.83
253.818	10.53
254.288	5.73
254.757	2.23
255.227	1.73
255.696	4.13
256.166	4.13
256.635	5.93
257.105	7.13
257.574	4.83
258.043	7.93
258.513	7.63
258.982	15.13
259.451	3.03
259.92	9.83
260.389	11.53
260.859	13.53
261.328	7.53
261.797	14.13
262.266	9.83
262.735	10.93
263.204	7.63
263.673	-4.17
264.142	8.83
264.611	4.83
265.08	2.23
265.549	-2.17
266.018	7.43
266.487	-0.57
266.955	-3.77
267.424	-4.27
267.893	6.33
268.362	0.13
268.83	4.93
269.299	6.83
269.768	7.43
270.236	1.93
270.705	-2.07
271.174	10.23
271.642	6.03
272.111	11.23
272.579	17.53
273.048	22.63
273.516	29.23
273.985	22.93
274.453	22.23
274.922	13.43
275.39	3.63
275.858	7.83
276.327	10.73
276.795	20.63
277.263	15.33
277.731	33.03
278.2	48.13
278.668	56.73
279.136	43.93
279.604	19.63
280.072	14.43
280.54	12.33
281.008	5.63
281.477	12.13
281.945	7.13
282.413	12.03
282.881	12.13
283.348	2.93
283.816	16.33
284.284	14.53
284.752	17.33
285.22	18.13
285.688	12.33
286.156	18.43
286.623	45.73
287.091	45.33
287.559	24.23
288.026	12.43
288.494	13.53
288.962	6.13
289.429	8.43
289.897	10.43
290.364	17.53
290.832	8.33
291.3	12.93
291.767	11.53
292.234	18.43
292.702	13.03
293.169	16.83
293.637	29.43
294.104	15.93
294.571	6.63
295.039	8.73
295.506	14.73
295.973	11.43
296.44	18.03
296.908	22.53
297.375	15.33
297.842	18.63
298.309	12.03
298.776	5.33
299.243	13.83
299.71	13.03
300.177	22.23
300.644	17.63
301.111	21.73
301.578	15.03
302.045	13.23
302.512	19.13
302.979	21.83
303.446	19.63
303.913	17.43
304.379	19.33
304.846	28.73
305.313	26.73
305.78	19.13
306.246	25.23
306.713	21.63
307.18	25.03
307.646	19.03
308.113	26.33
308.579	22.63
309.046	24.53
309.512	20.63
309.979	11.03
310.445	28.43
310.912	31.23
311.378	27.93
311.845	22.63
312.311	26.93
312.777	36.03
313.244	29.23
313.71	38.13
314.176	20.53
314.642	27.53
315.109	26.53
315.575	31.23
316.041	29.63
316.507	35.63
316.973	33.63
317.439	38.33
317.905	31.63
318.371	28.43
318.837	31.03
319.303	29.63
319.769	33.63
320.235	27.43
320.701	27.33
321.167	33.33
321.633	36.33
322.099	39.33
322.564	41.33
323.03	40.73
323.496	33.83
323.962	36.13
324.427	33.93
324.893	41.43
325.359	34.23
325.824	36.73
326.29	32.03
326.755	34.83
327.221	39.03
327.686	33.73
328.152	45.03
328.617	39.73
329.083	39.93
329.548	45.33
330.014	47.33
330.479	36.03
330.944	36.83
331.41	38.33
331.875	41.23
332.34	46.73
332.805	46.03
333.271	39.53
333.736	36.83
334.201	52.73
334.666	44.13
335.131	50.23
335.596	47.73
336.061	45.43
336.526	42.53
336.991	44.93
337.456	55.43
337.921	45.23
338.386	36.43
338.851	38.63
339.316	47.73
339.781	46.93
340.246	48.03
340.711	41.13
341.175	47.83
341.64	38.03
342.105	50.33
342.569	57.13
343.034	58.23
343.499	58.93
343.963	55.03
344.428	65.23
344.893	58.33
345.357	62.43
345.822	53.53
346.286	60.63
346.751	68.53
347.215	63.43
347.679	69.63
348.144	95.83
348.608	82.83
349.073	68.03
349.537	68.13
350.001	73.73
350.465	87.03
350.93	79.83
351.394	76.13
351.858	61.13
352.322	78.73
352.786	76.93
353.25	100.23
353.715	109.03
354.179	100.33
354.643	117.33
355.107	120.23
355.571	104.23
356.035	102.03
356.498	119.13
356.962	119.53
357.426	124.13
357.89	115.33
358.354	89.73
358.818	73.13
359.281	83.03
359.745	73.73
360.209	73.43
360.673	76.63
361.136	71.53
361.6	84.63
362.064	76.93
362.527	82.63
362.991	85.93
363.454	82.23
363.918	73.53
364.381	76.93
364.845	76.13
365.308	79.83
365.772	79.03
366.235	84.83
366.698	72.83
367.162	81.73
367.625	87.23
368.088	83.13
368.552	85.23
369.015	86.63
369.478	99.23
369.941	97.33
370.404	88.73
370.867	102.13
371.331	102.23
371.794	117.63
372.257	111.73
372.72	110.53
373.183	109.23
373.646	99.93
374.109	101.63
374.572	107.93
375.035	103.23
375.497	110.63
375.96	108.53
376.423	107.03
376.886	112.73
377.349	110.33
377.811	100.23
378.274	105.13
378.737	106.43
379.199	113.63
379.662	109.13
380.125	115.93
380.587	111.13
381.05	118.63
381.512	126.43
381.975	137.93
382.437	127.13
382.9	129.23
383.362	126.23
383.825	134.93
384.287	150.53
384.75	135.23
385.212	137.03
385.674	141.43
386.136	136.53
386.599	128.63
387.061	126.73
387.523	129.93
387.985	136.43
388.447	148.83
388.91	138.83
389.372	155.43
389.834	150.43
390.296	147.83
390.758	157.33
391.22	170.33
391.682	209.93
392.144	300.03
392.606	230.03
393.068	160.03
393.529	172.23
393.991	152.33
394.453	147.93
394.915	157.93
395.377	190.93
395.838	216.03
396.3	149.63
396.762	136.43
397.224	128.33
397.685	130.63
398.147	126.63
398.608	128.63
399.07	124.43
399.531	128.73
399.993	140.63
400.454	144.73
400.916	144.53
401.377	137.83
401.839	148.53
402.3	146.83
402.762	159.83
403.223	175.03
403.684	165.93
404.145	156.73
404.607	160.73
405.068	164.53
405.529	167.33
405.99	182.13
406.451	174.23
406.913	168.93
407.374	158.13
407.835	161.33
408.296	163.73
408.757	168.43
409.218	184.83
409.679	178.43
410.14	173.93
410.601	182.23
411.062	184.03
411.522	185.93
411.983	187.73
412.444	173.13
412.905	173.03
413.366	188.33
413.826	188.43
414.287	207.93
414.748	259.53
415.208	236.33
415.669	210.13
416.13	197.93
416.59	196.43
417.051	210.43
417.511	220.73
417.972	230.73
418.432	243.03
418.893	279.43
419.353	250.13
419.814	185.73
420.274	176.23
420.734	181.43
421.195	202.63
421.655	194.73
422.115	191.23
422.576	191.33
423.036	193.23
423.496	204.53
423.956	216.43
424.416	223.53
424.876	258.73
425.336	259.43
425.797	258.03
426.257	252.83
426.717	239.03
427.177	227.13
427.637	226.63
428.097	224.43
428.556	233.73
429.016	268.43
429.476	264.73
429.936	276.23
430.396	274.63
430.856	290.13
431.315	313.73
431.775	349.03
432.235	376.13
432.694	353.83
433.154	367.43
433.614	392.53
434.073	343.73
434.533	277.03
434.993	269.63
435.452	279.63
435.912	293.53
436.371	284.73
436.83	281.93
437.29	263.13
437.749	242.53
438.209	250.73
438.668	270.83
439.127	289.13
439.587	253.53
440.046	249.93
440.505	253.13
440.964	272.73
441.424	324.93
441.883	314.73
442.342	262.13
442.801	214.93
443.26	217.13
443.719	221.53
444.178	209.03
444.637	203.33
445.096	212.13
445.555	221.13
446.014	218.43
446.473	220.03
446.932	231.63
447.391	226.13
447.849	222.83
448.308	219.43
448.767	223.33
449.226	231.73
449.685	234.73
450.143	236.93
450.602	231.83
451.061	217.93
451.519	230.73
451.978	222.63
452.436	232.63
452.895	238.03
453.353	250.13
453.812	233.33
454.27	236.33
454.729	238.13
455.187	232.83
455.646	240.63
456.104	244.03
456.562	261.63
457.021	265.23
457.479	260.73
457.937	272.03
458.395	254.13
458.854	240.53
459.312	248.63
459.77	278.63
460.228	252.23
460.686	247.33
461.144	241.23
461.602	244.53
462.06	234.13
462.518	246.83
462.976	251.03
463.434	250.43
463.892	255.73
464.35	273.03
464.808	282.93
465.266	260.13
465.724	265.63
466.181	263.43
466.639	261.53
467.097	287.93
467.555	293.43
468.012	296.33
468.47	292.73
468.928	328.03
469.385	335.73
469.843	345.73
470.3	341.53
470.758	365.93
471.215	378.33
471.673	403.63
472.13	406.33
472.588	410.23
473.045	370.43
473.503	375.83
473.96	388.43
474.417	391.83
474.875	433.13
475.332	468.13
475.789	459.23
476.246	455.73
476.704	477.53
477.161	499.73
477.618	518.13
478.075	557.53
478.532	607.93
478.989	677.43
479.446	798.23
479.903	761.23
480.36	798.33
480.817	855.93
481.274	965.43
481.731	1060.73
482.188	1151.83
482.645	1290.73
483.102	1382.03
483.558	1531.73
484.015	1592.13
484.472	1570.83
484.929	1502.33
485.385	1456.63
485.842	1406.03
486.299	1345.13
486.755	1291.33
487.212	1090.83
487.668	908.73
488.125	832.13
488.582	765.13
489.038	723.33
489.494	690.73
489.951	675.43
490.407	651.33
490.864	643.03
491.32	633.53
491.776	627.33
492.233	634.33
492.689	598.53
493.145	594.63
493.602	594.13
494.058	609.53
494.514	616.73
494.97	631.53
495.426	645.53
495.882	613.53
496.338	611.43
496.794	614.53
497.251	612.03
497.707	625.53
498.163	614.23
498.618	632.03
499.074	635.83
499.53	660.23
499.986	656.83
500.442	641.53
500.898	626.03
501.354	619.03
501.809	621.23
502.265	635.83
502.721	653.93
503.177	658.53
503.632	662.23
504.088	671.63
504.543	695.43
504.999	703.03
505.455	641.23
505.91	619.13
506.366	610.13
506.821	612.73
507.277	612.43
507.732	615.43
508.187	605.13
508.643	630.13
509.098	617.23
509.553	638.83
510.009	656.43
510.464	646.73
510.919	678.23
511.375	675.03
511.83	702.03
512.285	710.83
512.74	745.53
513.195	767.83
513.65	751.43
514.105	758.13
514.56	749.13
515.015	773.73
515.47	791.33
515.925	785.13
516.38	773.23
516.835	778.73
517.29	772.43
517.745	756.13
518.2	745.83
518.655	733.13
519.109	719.63
519.564	726.33
520.019	716.03
520.474	706.63
520.928	705.33
521.383	711.13
521.838	695.83
522.292	701.63
522.747	697.53
523.201	694.93
523.656	680.83
524.11	686.23
524.565	680.33
525.019	677.83
525.474	685.43
525.928	697.33
526.382	681.03
526.837	678.43
527.291	699.13
527.745	678.43
528.2	687.63
528.654	675.23
529.108	675.43
529.562	676.73
530.016	671.83
530.47	671.13
530.925	679.43
531.379	676.83
531.833	693.63
532.287	678.93
532.741	691.13
533.195	689.43
533.649	691.83
534.103	702.13
534.556	688.33
535.01	692.93
535.464	699.73
535.918	703.33
536.372	713.03
536.826	687.43
537.279	689.43
537.733	695.93
538.187	699.23
538.64	695.83
539.094	708.53
539.548	712.83
540.001	720.13
540.455	715.13
540.908	718.43
541.362	730.63
541.815	730.63
542.269	755.43
542.722	741.33
543.175	756.13
543.629	757.63
544.082	765.73
544.536	775.23
544.989	771.63
545.442	779.53
545.895	774.53
546.349	779.13
546.802	776.43
547.255	782.23
547.708	790.13
548.161	799.73
548.614	805.83
549.067	808.23
549.52	816.13
549.973	789.23
550.426	788.83
550.879	776.73
551.332	787.03
551.785	786.33
552.238	788.43
552.691	808.93
553.144	808.93
553.596	819.13
554.049	850.53
554.502	856.63
554.955	890.23
555.407	898.53
555.86	882.13
556.313	875.13
556.765	870.03
557.218	850.43
557.67	861.63
558.123	861.43
558.576	862.23
559.028	861.43
559.48	852.63
559.933	856.43
560.385	823.93
560.838	798.03
561.29	762.13
561.742	776.73
562.195	750.03
562.647	750.33
563.099	767.73
563.551	758.53
564.004	766.33
564.456	761.83
564.908	756.63
565.36	731.83
565.812	713.13
566.264	720.23
566.716	704.63
567.168	712.43
567.62	710.33
568.072	700.73
568.524	687.13
568.976	672.63
569.428	666.93
569.88	673.93
570.332	675.23
570.784	672.23
571.235	677.23
571.687	684.33
572.139	690.73
572.59	700.23
573.042	699.73
573.494	699.43
573.945	695.83
574.397	669.23
574.849	679.13
575.3	685.83
575.752	669.93
576.203	670.83
576.655	674.83
577.106	658.23
577.557	643.23
578.009	664.53
578.46	655.53
578.912	661.13
579.363	653.03
579.814	651.43
580.265	657.63
580.717	659.43
581.168	666.43
581.619	669.83
582.07	675.23
582.521	662.63
582.972	660.23
583.423	665.73
583.875	672.03
584.326	697.43
584.777	739.23
585.227	823.83
585.678	923.33
586.129	1006.83
586.58	1088.33
587.031	1193.83
587.482	1326.23
587.933	1535.83
588.384	1331.23
588.834	977.33
589.285	802.33
589.736	768.23
590.186	766.53
590.637	755.43
591.088	735.53
591.538	725.53
591.989	732.43
592.439	720.63
592.89	707.43
593.34	710.43
593.791	703.33
594.241	695.33
594.692	709.33
595.142	703.03
595.593	692.53
596.043	699.03
596.493	700.93
596.943	708.43
597.394	711.73
597.844	714.83
598.294	724.03
598.744	752.03
599.195	771.63
599.645	811.13
600.095	848.13
600.545	907.43
600.995	967.03
601.445	1009.33
601.895	1071.73
602.345	1129.93
602.795	1102.53
603.245	1049.03
603.695	995.73
604.145	946.23
604.594	893.83
605.044	848.43
605.494	784.83
605.944	742.43
606.393	729.43
606.843	727.83
607.293	728.13
607.743	727.83
608.192	740.53
608.642	750.53
609.091	752.33
609.541	756.83
609.99	760.33
610.44	768.83
610.889	716.83
611.339	691.53
611.788	666.63
612.238	697.33
612.687	715.03
613.136	715.83
613.586	736.53
614.035	741.33
614.484	754.63
614.933	759.83
615.383	747.23
615.832	735.63
616.281	723.03
616.73	679.53
617.179	654.23
617.628	645.43
618.077	623.33
618.526	617.63
618.975	604.03
619.424	605.43
619.873	613.03
620.322	611.73
620.771	600.13
621.22	598.53
621.669	584.23
622.118	585.53
622.567	579.23
623.015	558.13
623.464	565.53
623.913	557.73
624.361	562.13
624.81	548.13
625.259	555.53
625.707	549.43
626.156	552.73
626.604	556.33
627.053	547.03
627.501	555.53
627.95	565.33
628.398	576.03
628.847	560.73
629.295	559.53
629.744	561.23
630.192	562.83
630.64	562.93
631.089	556.83
631.537	584.23
631.985	592.33
632.433	593.43
632.881	605.63
633.33	672.13
633.778	644.03
634.226	568.63
634.674	574.53
635.122	579.33
635.57	602.43
636.018	632.83
636.466	573.33
636.914	546.23
637.362	564.63
637.81	567.13
638.258	572.83
638.705	577.03
639.153	597.43
639.601	603.63
640.049	638.23
640.497	660.73
640.944	675.63
641.392	632.23
641.84	600.73
642.287	575.13
642.735	565.13
643.182	568.53
643.63	570.93
644.078	574.73
644.525	586.93
644.973	595.33
645.42	603.93
645.867	620.93
646.315	635.63
646.762	657.53
647.21	688.53
647.657	717.73
648.104	750.43
648.551	771.23
648.999	839.83
649.446	908.63
649.893	1009.13
650.34	1157.43
650.787	1395.13
651.234	1746.73
651.682	2291.83
652.129	3158.53
652.576	4573.43
653.023	6726.93
653.47	9232.43
653.917	11394.13
654.363	13109.73
654.81	14414.83
655.257	13728.43
655.704	8965.23
656.151	5275.33
656.598	3412.93
657.044	2412.93
657.491	1855.33
657.938	1487.83
658.385	1238.83
658.831	1069.83
659.278	951.93
659.724	854.43
660.171	778.63
660.618	724.93
661.064	694.43
661.511	660.63
661.957	656.53
662.404	649.53
662.85	647.73
663.296	617.43
663.743	554.93
664.189	537.53
664.635	534.03
665.082	516.93
665.528	525.83
665.974	513.03
666.42	508.43
666.867	499.53
667.313	487.43
667.759	483.23
668.205	486.23
668.651	491.63
669.097	489.13
669.543	502.43
669.989	474.03
670.435	440.03
670.881	437.03
671.327	445.53
671.773	464.83
672.219	484.33
672.665	540.13
673.11	580.73
673.556	618.53
674.002	656.83
674.448	645.63
674.893	543.63
675.339	473.03
675.785	441.13
676.23	407.03
676.676	378.53
677.122	386.13
677.567	362.33
678.013	362.33
678.458	357.43
678.904	357.93
679.349	341.53
679.794	348.63
680.24	350.13
680.685	348.53
681.131	339.63
681.576	339.23
682.021	352.43
682.466	353.93
682.912	337.63
683.357	345.63
683.802	379.53
684.247	403.63
684.692	440.73
685.137	481.43
685.583	532.43
686.028	556.53
686.473	512.73
686.918	434.73
687.363	410.43
687.807	391.53
688.252	358.53
688.697	344.93
689.142	328.23
689.587	329.03
690.032	324.33
690.477	333.13
690.921	349.13
691.366	375.83
691.811	394.43
692.255	426.43
692.7	467.23
693.145	497.83
693.589	704.23
694.034	1153.73
694.478	1533.73
694.923	1712.43
695.367	2215.13
695.812	1176.03
696.256	495.13
696.701	369.03
697.145	342.03
697.59	326.83
698.034	316.43
698.478	326.53
698.922	321.73
699.367	326.93
699.811	340.93
700.255	351.63
700.699	384.93
701.143	415.73
701.588	472.73
702.032	507.73
702.476	509.63
702.92	482.73
703.364	493.43
703.808	639.13
704.252	1037.63
704.696	1447.53
705.14	1634.23
705.584	2081.53
706.027	1041.53
706.471	511.93
706.915	385.03
707.359	347.63
707.803	317.83
708.246	306.43
708.69	316.43
709.134	306.13
709.577	313.63
710.021	312.73
710.465	308.23
710.908	299.23
711.352	297.73
711.795	305.23
712.239	352.03
712.682	379.13
713.126	413.73
713.569	463.53
714.012	364.93
714.456	322.43
714.899	296.93
715.342	269.33
715.786	264.33
716.229	261.73
716.672	251.63
717.115	250.13
717.558	248.23
718.002	245.43
718.445	259.43
718.888	289.53
719.331	291.73
719.774	294.13
720.217	301.63
720.66	278.23
721.103	259.53
721.546	249.23
721.989	250.03
722.432	232.93
722.874	229.73
723.317	232.03
723.76	235.03
724.203	257.93
724.645	323.23
725.088	438.73
725.531	560.13
725.974	634.83
726.416	538.83
726.859	302.23
727.301	249.03
727.744	237.53
728.187	229.73
728.629	236.23
729.071	236.73
729.514	256.13
729.956	260.53
730.399	278.03
730.841	291.53
731.283	278.13
731.726	269.83
732.168	255.33
732.61	270.53
733.053	279.53
733.495	313.43
733.937	354.93
734.379	400.43
734.821	434.53
735.263	548.53
735.705	846.83
736.148	1598.33
736.59	2556.53
737.032	2983.73
737.474	2430.63
737.916	791.73
738.357	431.13
738.799	324.23
739.241	299.73
739.683	276.73
740.125	282.73
740.567	288.43
741.008	311.73
741.45	308.53
741.892	310.03
742.334	334.53
742.775	351.63
743.217	334.63
743.658	264.53
744.1	255.53
744.542	263.23
744.983	307.43
745.425	332.43
745.866	336.93
746.307	280.73
746.749	277.63
747.19	316.33
747.632	458.13
748.073	903.53
748.514	1891.13
748.956	2812.63
749.397	3557.33
749.838	2945.23
750.279	2871.03
750.72	1461.63
751.162	541.23
751.603	319.43
752.044	250.73
752.485	213.73
752.926	209.53
753.367	198.63
753.808	191.53
754.249	185.73
754.69	184.23
755.131	182.73
755.572	177.03
756.013	181.23
756.453	176.53
756.894	183.43
757.335	185.83
757.776	189.03
758.216	192.93
758.657	191.43
759.098	197.83
759.538	222.43
759.979	264.83
760.42	378.93
760.86	713.93
761.301	1878.93
761.741	4443.13
762.182	6260.03
762.622	4381.23
763.063	1287.53
763.503	538.03
763.943	347.23
764.384	345.33
764.824	418.23
765.264	455.43
765.705	313.83
766.145	211.33
766.585	190.13
767.025	189.43
767.465	190.33
767.906	246.53
768.346	334.33
768.786	353.33
769.226	268.33
769.666	318.13
770.106	634.13
770.546	1580.53
770.986	2602.53
771.426	2302.23
771.866	778.53
772.306	329.03
772.745	202.63
773.185	175.13
773.625	172.43
774.065	176.23
774.505	199.53
774.944	327.93
775.384	714.23
775.824	1277.03
776.263	1203.63
776.703	516.33
777.142	224.73
777.582	156.93
778.021	134.33
778.461	137.73
778.9	142.63
779.34	128.43
779.779	115.33
780.219	102.53
780.658	104.93
781.097	107.13
781.537	112.73
781.976	106.13
782.415	105.53
782.855	103.83
783.294	106.53
783.733	108.83
784.172	110.23
784.611	102.23
785.05	111.93
785.489	113.23
785.928	117.23
786.367	114.33
786.806	115.93
787.245	122.53
787.684	140.23
788.123	145.13
788.562	134.53
789.001	128.03
789.44	116.93
789.879	116.53
790.317	111.83
790.756	123.53
791.195	123.43
791.634	144.93
792.072	203.53
792.511	375.73
792.95	1033.03
793.388	2119.13
793.827	1877.13
794.265	665.63
794.704	275.13
795.142	180.63
795.581	149.03
796.019	129.33
796.458	135.83
796.896	120.03
797.334	125.33
797.773	156.53
798.211	219.03
798.649	445.53
799.087	1019.73
799.526	1583.53
799.964	1987.03
800.402	1970.13
800.84	748.93
801.278	296.53
801.716	185.73
802.154	143.73
802.592	147.73
803.03	137.93
803.468	133.83
803.906	138.23
804.344	161.83
804.782	133.93
805.22	135.53
805.658	129.63
806.096	146.13
806.533	161.73
806.971	168.53
807.409	221.73
807.847	314.23
808.284	672.33
808.722	1870.03
809.16	3234.53
809.597	3125.23
810.035	5367.43
810.472	5579.13
810.91	2032.63
811.347	780.73
811.785	392.33
812.222	254.23
812.66	192.33
813.097	165.93
813.535	141.13
813.972	127.83
814.409	116.03
814.846	108.73
815.284	110.73
815.721	100.53
816.158	108.63
816.595	116.43
817.032	172.73
817.47	202.43
817.907	168.13
818.344	156.53
818.781	122.23
819.218	101.43
819.655	121.53
820.092	187.83
820.529	210.93
820.966	170.03
821.403	132.03
821.839	105.83
822.276	106.23
822.713	122.23
823.15	135.73
823.587	107.33
824.023	148.93
824.46	302.63
824.897	915.53
825.333	1314.93
825.77	561.23
826.206	225.33
826.643	130.43
827.08	102.53
827.516	89.73
827.953	84.63
828.389	80.93
828.825	72.63
829.262	67.73
829.698	60.63
830.135	60.83
830.571	61.43
831.007	64.93
831.443	59.43
831.88	63.33
832.316	59.13
832.752	60.53
833.188	67.43
833.624	62.13
834.06	66.43
834.497	71.03
834.933	68.43
835.369	73.73
835.805	72.03
836.241	71.73
836.677	77.63
837.112	87.03
837.548	104.03
837.984	134.03
838.42	197.43
838.856	497.63
839.292	1508.73
839.727	2229.03
840.163	1033.63
840.599	929.03
841.034	2018.83
841.47	2049.13
841.906	758.73
842.341	332.83
842.777	224.73
843.212	321.73
843.648	313.73
844.083	156.73
844.519	96.03
844.954	76.53
845.39	61.03
845.825	55.73
846.261	64.23
846.696	56.43
847.131	54.53
847.566	57.13
848.002	51.63
848.437	53.93
848.872	70.43
849.307	62.43
849.742	78.63
850.177	177.43
850.613	561.23
851.048	845.13
851.483	372.73
851.918	150.53
852.353	89.53
852.788	53.33
853.223	54.83
853.657	52.43
854.092	45.13
854.527	45.73
854.962	38.33
855.397	46.93
855.832	51.33
856.266	42.93
856.701	36.23
857.136	34.13
857.57	41.43
858.005	49.53
858.44	55.93
858.874	44.33
859.309	51.13
859.743	37.83
860.178	47.23
860.612	48.63
861.047	51.63
861.481	65.33
861.915	72.03
862.35	51.83
862.784	31.93
863.218	41.53
863.653	28.13
864.087	41.43
864.521	45.93
864.955	78.13
865.39	152.33
865.824	167.63
866.258	113.63
866.692	162.13
867.126	174.33
867.56	96.43
867.994	49.43
868.428	38.23
868.862	42.23
869.296	53.73
869.73	54.83
870.164	58.23
870.598	45.63
871.031	35.03
871.465	29.03
871.899	26.53
872.333	23.03
872.766	18.83
873.2	19.83
873.634	24.93
874.067	23.93
874.501	22.43
874.935	36.03
875.368	26.83
875.802	26.63
876.235	18.43
876.669	23.13
877.102	22.93
877.535	23.93
877.969	26.53
878.402	24.83
878.836	18.63
879.269	17.33
879.702	20.93
880.135	17.13
880.569	18.13
881.002	22.63
881.435	22.53
881.868	18.03
882.301	25.03
882.734	19.23
883.167	26.13
883.601	21.13
884.034	14.73
884.467	13.73
884.899	20.83
885.332	21.93
885.765	13.03
886.198	17.43
886.631	18.43
887.064	18.63
887.497	19.13
887.929	20.63
888.362	21.63
888.795	11.23
889.228	14.43
889.66	19.73
890.093	15.63
890.526	19.73
890.958	15.53
891.391	17.23
891.823	20.43
892.256	16.23
892.688	7.83
893.121	17.03
893.553	19.13
893.985	27.63
894.418	16.53
894.85	7.63
895.282	10.03
895.715	12.63
896.147	14.93
896.579	10.13
897.011	13.53
897.444	14.73
897.876	16.73
898.308	17.03
898.74	11.73
899.172	16.43
899.604	22.63
900.036	15.13
900.468	12.93
900.9	16.73
901.332	18.93
901.764	9.53
902.196	17.83
902.628	15.43
903.06	16.03
903.491	25.93
903.923	22.43
904.355	20.03
904.787	27.73
905.218	23.23
905.65	20.23
906.082	16.33
906.513	9.63
906.945	11.13
907.376	13.03
907.808	21.83
908.239	25.83
908.671	23.43
909.102	23.13
909.534	21.93
909.965	44.33
910.397	88.33
910.828	320.03
911.259	461.03
911.691	214.43
912.122	101.03
912.553	49.43
912.984	33.53
913.415	23.33
913.847	33.83
914.278	12.33
914.709	16.03
915.14	21.33
915.571	20.23
916.002	11.73
916.433	24.93
916.864	17.33
917.295	10.23
917.726	10.83
918.157	13.03
918.587	23.23
919.018	18.03
919.449	24.53
919.88	20.73
920.311	29.33
920.741	48.23
921.172	170.63
921.603	146.53
922.033	71.33
922.464	46.23
922.895	22.13
923.325	22.73
923.756	17.83
924.186	15.33
924.617	35.03
925.047	42.63
925.478	53.43
925.908	45.73
926.338	23.93
926.769	11.53
927.199	20.13
927.629	6.03
928.06	18.53
928.49	15.33
928.92	11.73
929.35	11.73
929.78	11.43
930.21	5.63
930.641	5.73
931.071	7.33
931.501	-0.57
931.931	5.33
932.361	10.33
932.791	-3.07
933.221	9.03
933.651	0.43
934.08	22.23
934.51	31.63
934.94	14.03
935.37	5.93
935.8	8.23
936.229	9.43
936.659	11.83
937.089	-1.57
937.519	14.33
937.948	16.23
938.378	15.93
938.807	7.53
939.237	5.93
939.666	12.23
940.096	-7.17
940.525	1.83
940.955	6.33
941.384	-2.37
941.814	-1.17
942.243	-7.67
942.672	-1.07
943.102	2.73
943.531	1.53
943.96	-2.27
944.39	-0.47
944.819	3.03
945.248	1.93
945.677	3.23
946.106	4.83
946.535	6.13
946.964	-4.87
947.393	-3.67
947.822	-3.37
948.251	-2.37
948.68	-1.17
949.109	11.73
949.538	8.33
949.967	-1.27
950.396	-1.47
950.825	-2.77
951.254	4.63
951.682	-5.07
952.111	5.53
952.54	6.43
952.969	-6.97
953.397	-8.97
953.826	4.33
954.254	-2.17
954.683	-4.37
955.112	-2.17
955.54	-0.77
955.969	6.43
956.397	2.13
956.826	-3.77
957.254	5.53
957.682	1.63
958.111	6.93
958.539	-2.17
958.967	-1.57
959.396	-3.97
959.824	7.53
960.252	1.33
960.68	-4.77
961.109	0.03
961.537	-4.57
961.965	1.73
962.393	-0.27
962.821	-4.67
963.249	0.93
963.677	5.13
964.105	2.93
964.533	43.93
964.961	39.43
965.389	16.73
965.817	6.43
966.245	1.13
966.672	-3.87
967.1	-6.37
967.528	-3.07
967.956	-10.17
968.383	-2.07
968.811	-4.77
969.239	-1.67
969.666	-4.97
970.094	-2.47
970.522	-0.67
970.949	-1.87
971.377	-2.47
971.804	-1.47
972.232	-8.37
972.659	0.13
973.087	-6.07
973.514	-6.07
973.941	-9.37
974.369	3.33
974.796	0.63
975.223	2.13
975.651	-7.97
976.078	-0.47
976.505	-4.57
976.932	3.23
977.359	17.43
977.786	12.23
978.214	-0.97
978.641	-3.57
979.068	-7.47
979.495	-3.87
979.922	-2.57
980.349	-0.07
980.776	4.73
981.202	-2.27
981.629	2.13
982.056	1.03
982.483	-4.97
982.91	6.43
983.337	-6.07
983.763	2.73
984.19	-1.17
984.617	-1.77
985.043	-4.67
985.47	-0.47
985.897	-4.87
986.323	-9.07
986.75	4.23
987.176	-2.97
987.603	-2.07
988.029	-1.97
988.456	-4.57
988.882	-1.67
989.308	-8.07
989.735	0.43
990.161	-0.97
990.587	-4.67
991.014	-0.47
991.44	2.53
991.866	-3.27
992.292	-5.27
992.719	-3.17
993.145	-1.87
993.571	-8.77
993.997	-3.57
994.423	1.73
994.849	-8.57
995.275	1.63
995.701	0.83
996.127	-1.27
996.553	1.73
996.979	-0.77
997.405	1.13
997.83	-3.67
998.256	-6.57
998.682	-7.37
999.108	-3.07
999.534	5.63
999.959	2.43
1000.385	-2.07
1000.811	-4.07
1001.236	-7.87
1001.662	-5.37
1002.087	0.43
1002.513	0.43
1002.938	1.53
1003.364	-0.47
1003.789	-3.17
1004.215	1.23
1004.64	-7.07
1005.066	0.83
1005.491	3.33
1005.916	-1.27
1006.342	-8.37
1006.767	-8.17
1007.192	9.53
1007.617	-0.57
1008.042	-6.87
1008.468	-6.97
1008.893	-2.77
1009.318	-1.17
1009.743	-3.27
1010.168	2.73
1010.593	0.33
1011.018	-9.97
1011.443	-4.97
1011.868	0.73
1012.293	-7.37
1012.718	-6.37
1013.143	-1.97
1013.567	-1.77
1013.992	-5.57
1014.417	-12.47
1014.842	-2.97
1015.267	-4.67
1015.691	-6.37
1016.116	2.43
1016.541	6.03
1016.965	-0.97
1017.39	4.33
1017.814	-1.27
1018.239	1.03
1018.663	-6.47
1019.088	-11.47
1019.512	-2.67
1019.937	2.73
1020.361	-2.97
1020.785	-7.27
1021.21	-7.77
1021.634	-2.37
1022.058	1.03
1022.483	9.63
1022.907	-2.17
1023.331	-4.07
1023.755	-8.37
1024.179	-5.37
1024.604	-10.67
1025.028	-11.87
1025.452	-13.67
1025.876	-3.47
1026.3	0.73
1026.724	-11.17
1027.148	-5.37
1027.572	-9.07
1027.996	-4.17
1028.42	-7.87
1028.843	-6.87
1029.267	-3.97
1029.691	-2.57
1030.115	-7.07
1030.539	-6.77
1030.962	-6.07
1031.386	-8.17
1031.81	0.03
1032.233	-8.67
1032.657	-3.27
1033.08	-1.27
1033.504	-6.67
1033.927	-1.67
1034.351	-2.87
1034.774	-4.57
1035.198	5.83
1035.621	-4.47
1036.045	-4.37
1036.468	-1.17
1036.891	-13.57
1037.315	-9.77
1037.738	-9.87
1038.161	-6.07
1038.584	-12.37
1039.008	-4.97
1039.431	-4.37
1039.854	-6.27
1040.277	-9.77
1040.7	-15.57
1041.123	3.63
1041.546	-8.07
1041.969	-2.67
1042.392	-9.17
1042.815	-2.07
1043.238	2.23
1043.661	-0.47
1044.084	-2.17
1044.507	-8.07
1044.93	-9.27
1045.352	-5.07
1045.775	0.33
1046.198	-6.37
1046.621	-0.77
1047.043	1.53
1047.466	5.83
1047.889	-7.57
1048.311	-8.07
1048.734	0.43
1049.156	-5.37
1049.579	-4.77
1050.001	-7.97
1050.424	-2.27
1050.846	-9.17
1051.269	-7.27
1051.691	-4.87
1052.113	-10.27
1052.536	0.73
1052.958	-5.57
1053.38	-8.37
1053.802	-9.07
1054.225	1.03
1054.647	-10.67
1055.069	-6.77
1055.491	4.23
1055.913	-4.97
1056.335	1.63
1056.757	-8.07
1057.179	-5.87
1057.601	-3.87
1058.023	-4.37
1058.445	-6.57
1058.867	-4.37
1059.289	-0.27
1059.711	-13.37
1060.133	3.43
1060.555	-9.37
1060.976	-4.37
1061.398	-6.47
1061.82	-9.57
1062.241	-10.87
1062.663	-14.07
1063.085	-5.47
1063.506	3.03
1063.928	-9.57
1064.35	-4.57
1064.771	-12.37
1065.193	-8.77
1065.614	-6.37
1066.035	-1.97
1066.457	-5.27
1066.878	-1.97
1067.3	-7.57
1067.721	-6.97
1068.142	-9.17
1068.564	-6.17
1068.985	-9.27
1069.406	-9.07
1069.827	-8.47
1070.248	-2.37
1070.67	-3.67
1071.091	-10.07
1071.512	-0.57
1071.933	-8.47
1072.354	-5.47
1072.775	-3.17
1073.196	-8.67
1073.617	-4.87
1074.038	-5.57
1074.459	-3.37
1074.88	-11.17
1075.3	1.83
1075.721	-5.37
1076.142	2.43
1076.563	-0.77
1076.983	-14.77
1077.404	-8.07
1077.825	-10.67
1078.246	-4.97
1078.666	-11.07
1079.087	-6.07
1079.507	-7.07
1079.928	-0.97
1080.348	-4.97
1080.769	-7.27
1081.189	-3.57
1081.61	-4.57
1082.03	-3.47
1082.451	-8.17
1082.871	-4.87
1083.291	-11.17
1083.711	-8.57
1084.132	-5.77
1084.552	-7.07
1084.972	-3.57
1085.392	-7.77
1085.813	-10.17
1086.233	-6.47
1086.653	-11.47
1087.073	-3.77
1087.493	-7.97
1087.913	-7.57
1088.333	-6.27
1088.753	-8.07
1089.173	1.43
1089.593	-5.77
1090.013	3.63
1090.433	0.93
1090.852	-1.97
1091.272	-4.57
1091.692	-5.27
1092.112	-4.67
1092.531	-8.67
1092.951	-9.47
1093.371	-8.47
1093.79	-2.17
1094.21	-10.27
1094.63	-8.07
1095.049	-8.47
1095.469	-2.97
1095.888	-6.17
1096.308	-1.27
1096.727	-0.57
1097.146	-5.07
1097.566	0.33
1097.985	3.23
1098.405	-0.57
1098.824	-2.17
1099.243	-6.37
1099.662	-6.47
1100.082	-9.47
1100.501	-4.17
1100.92	-9.57
1101.339	-7.37
1101.758	-6.27
