Data from 20171114-ORNL-Ar_H_NY_Subt18_08-06-17-185.txt Node
Date: Tue Nov 14 08:06:17 EST 2017
User: Ender
Spectrometer: HR+D1039
Trigger mode: 0
Integration Time (sec): 2.730000E-2
Scans to average: 10
Electric dark correction enabled: true
Nonlinearity correction enabled: false
Boxcar width: 0
XAxis mode: Wavelengths
Number of Pixels in Spectrum: 2048
>>>>>Begin Spectral Data<<<<<
187.836	-7.19
188.309	-7.19
188.782	-7.19
189.255	4.01
189.728	-6.49
190.201	7.31
190.674	-0.39
191.147	11.11
191.619	-9.29
192.092	-0.29
192.565	-0.89
193.038	-1.99
193.511	3.41
193.984	-1.39
194.456	0.91
194.929	-1.89
195.402	4.41
195.874	-1.29
196.347	0.71
196.82	-6.39
197.292	5.41
197.765	3.21
198.237	-8.39
198.71	-0.59
199.182	-1.19
199.655	1.41
200.127	7.01
200.6	-4.09
201.072	-2.09
201.544	-1.89
202.017	-0.59
202.489	2.81
202.961	4.21
203.433	-9.19
203.906	-8.39
204.378	-2.19
204.85	-4.59
205.322	-4.49
205.794	-1.59
206.266	3.01
206.739	-4.59
207.211	1.91
207.683	-4.79
208.155	-6.09
208.627	-4.29
209.099	-3.69
209.57	-5.29
210.042	-6.59
210.514	-1.99
210.986	-5.39
211.458	-8.99
211.93	0.91
212.402	2.31
212.873	2.01
213.345	-6.19
213.817	-8.19
214.288	-4.39
214.76	-9.39
215.232	-5.89
215.703	-5.29
216.175	1.81
216.646	-8.09
217.118	-7.29
217.589	-4.69
218.061	-0.79
218.532	-2.39
219.004	2.01
219.475	-0.49
219.946	-3.19
220.418	-1.49
220.889	7.31
221.36	2.31
221.832	-4.19
222.303	-5.49
222.774	0.71
223.245	-8.19
223.717	-9.69
224.188	-3.19
224.659	-3.29
225.13	-2.89
225.601	-1.59
226.072	0.31
226.543	1.51
227.014	3.11
227.485	2.41
227.956	-6.49
228.427	0.11
228.898	-0.39
229.369	4.81
229.839	-2.99
230.31	-5.19
230.781	11.41
231.252	-0.59
231.722	-1.09
232.193	1.81
232.664	-1.89
233.135	9.41
233.605	3.81
234.076	-2.19
234.546	1.01
235.017	5.61
235.487	-3.19
235.958	-2.49
236.428	-0.39
236.899	5.81
237.369	0.21
237.84	0.61
238.31	-3.29
238.78	-0.39
239.251	0.91
239.721	4.01
240.191	4.01
240.662	2.01
241.132	4.51
241.602	3.11
242.072	-1.19
242.542	9.51
243.013	-2.99
243.483	2.41
243.953	3.61
244.423	-0.59
244.893	-3.69
245.363	9.21
245.833	3.31
246.303	8.51
246.773	8.01
247.243	4.41
247.712	3.41
248.182	6.01
248.652	11.01
249.122	0.51
249.592	17.91
250.061	19.81
250.531	30.41
251.001	10.91
251.471	24.21
251.94	20.51
252.41	4.31
252.879	0.01
253.349	12.01
253.818	8.31
254.288	6.61
254.757	4.61
255.227	4.71
255.696	4.21
256.166	5.51
256.635	7.21
257.105	6.01
257.574	4.81
258.043	8.91
258.513	14.51
258.982	19.41
259.451	10.91
259.92	17.01
260.389	15.41
260.859	29.61
261.328	15.61
261.797	16.81
262.266	12.51
262.735	10.51
263.204	8.71
263.673	-2.29
264.142	4.41
264.611	0.81
265.08	1.41
265.549	5.61
266.018	5.61
266.487	2.51
266.955	0.51
267.424	6.61
267.893	3.61
268.362	3.81
268.83	6.61
269.299	12.61
269.768	14.11
270.236	8.71
270.705	8.71
271.174	10.01
271.642	9.91
272.111	10.71
272.579	16.71
273.048	21.81
273.516	27.31
273.985	27.71
274.453	24.31
274.922	20.91
275.39	15.81
275.858	5.61
276.327	14.31
276.795	15.61
277.263	8.11
277.731	33.91
278.2	54.91
278.668	59.61
279.136	52.51
279.604	26.41
280.072	16.61
280.54	11.01
281.008	7.81
281.477	15.41
281.945	4.21
282.413	17.81
282.881	17.71
283.348	10.41
283.816	16.81
284.284	15.51
284.752	16.41
285.22	21.61
285.688	14.61
286.156	18.71
286.623	49.41
287.091	52.81
287.559	26.91
288.026	20.01
288.494	22.21
288.962	6.41
289.429	10.41
289.897	18.61
290.364	24.61
290.832	14.41
291.3	20.61
291.767	15.81
292.234	26.41
292.702	17.91
293.169	21.81
293.637	25.71
294.104	25.01
294.571	13.31
295.039	10.21
295.506	11.51
295.973	18.41
296.44	13.71
296.908	16.61
297.375	21.51
297.842	19.91
298.309	15.21
298.776	16.01
299.243	18.41
299.71	15.11
300.177	22.11
300.644	23.11
301.111	23.51
301.578	26.11
302.045	19.51
302.512	23.31
302.979	21.91
303.446	23.31
303.913	17.41
304.379	21.41
304.846	35.71
305.313	31.21
305.78	25.01
306.246	31.81
306.713	23.41
307.18	35.51
307.646	33.31
308.113	33.21
308.579	23.11
309.046	31.31
309.512	26.61
309.979	21.01
310.445	29.21
310.912	27.61
311.378	29.71
311.845	23.51
312.311	30.41
312.777	30.81
313.244	32.11
313.71	41.81
314.176	26.51
314.642	35.51
315.109	35.51
315.575	34.31
316.041	42.21
316.507	37.41
316.973	38.91
317.439	32.41
317.905	40.01
318.371	33.21
318.837	38.31
319.303	36.61
319.769	38.61
320.235	38.01
320.701	37.71
321.167	41.01
321.633	34.11
322.099	43.81
322.564	50.81
323.03	41.51
323.496	34.91
323.962	46.91
324.427	33.21
324.893	45.01
325.359	42.61
325.824	38.31
326.29	46.11
326.755	34.21
327.221	54.31
327.686	44.51
328.152	49.01
328.617	39.61
329.083	45.01
329.548	51.81
330.014	51.21
330.479	41.71
330.944	47.21
331.41	42.41
331.875	41.71
332.34	45.11
332.805	49.61
333.271	48.21
333.736	46.51
334.201	57.51
334.666	53.21
335.131	56.31
335.596	58.31
336.061	47.21
336.526	45.11
336.991	55.21
337.456	57.51
337.921	48.71
338.386	49.61
338.851	52.11
339.316	50.01
339.781	48.31
340.246	51.41
340.711	55.21
341.175	53.51
341.64	44.01
342.105	51.91
342.569	58.01
343.034	59.41
343.499	61.71
343.963	49.81
344.428	67.21
344.893	63.31
345.357	63.31
345.822	66.91
346.286	67.31
346.751	79.41
347.215	75.81
347.679	72.61
348.144	97.31
348.608	85.91
349.073	74.81
349.537	75.21
350.001	78.31
350.465	93.21
350.93	88.41
351.394	82.71
351.858	77.91
352.322	92.01
352.786	85.51
353.25	104.71
353.715	119.81
354.179	108.51
354.643	121.11
355.107	130.81
355.571	113.21
356.035	106.11
356.498	122.31
356.962	126.71
357.426	132.01
357.89	125.81
358.354	96.01
358.818	87.71
359.281	84.71
359.745	78.21
360.209	79.21
360.673	76.31
361.136	79.01
361.6	81.91
362.064	86.01
362.527	83.51
362.991	92.01
363.454	83.21
363.918	78.81
364.381	83.61
364.845	81.91
365.308	91.01
365.772	87.31
366.235	90.21
366.698	81.61
367.162	88.01
367.625	93.71
368.088	91.11
368.552	96.11
369.015	91.41
369.478	100.31
369.941	109.31
370.404	94.31
370.867	107.51
371.331	111.21
371.794	121.31
372.257	110.81
372.72	126.91
373.183	115.21
373.646	110.71
374.109	109.21
374.572	117.91
375.035	110.51
375.497	113.21
375.96	114.11
376.423	103.91
376.886	111.91
377.349	110.41
377.811	105.01
378.274	102.21
378.737	108.61
379.199	120.31
379.662	112.81
380.125	124.01
380.587	124.41
381.05	129.81
381.512	136.21
381.975	144.31
382.437	138.01
382.9	128.91
383.362	141.51
383.825	144.81
384.287	153.61
384.75	145.61
385.212	143.31
385.674	148.01
386.136	142.91
386.599	131.41
387.061	125.01
387.523	137.51
387.985	147.11
388.447	151.41
388.91	145.31
389.372	164.91
389.834	153.21
390.296	153.11
390.758	166.81
391.22	173.81
391.682	217.81
392.144	309.31
392.606	236.41
393.068	167.81
393.529	172.61
393.991	150.31
394.453	154.71
394.915	163.81
395.377	197.41
395.838	215.71
396.3	160.01
396.762	145.31
397.224	136.11
397.685	134.31
398.147	137.81
398.608	135.41
399.07	135.31
399.531	146.11
399.993	154.91
400.454	156.51
400.916	147.91
401.377	147.81
401.839	155.41
402.3	149.61
402.762	172.51
403.223	184.21
403.684	179.41
404.145	161.21
404.607	163.01
405.068	167.11
405.529	177.61
405.99	196.61
406.451	185.81
406.913	183.61
407.374	167.81
407.835	174.11
408.296	177.11
408.757	181.11
409.218	194.81
409.679	181.71
410.14	181.61
410.601	188.41
411.062	186.91
411.522	196.61
411.983	198.41
412.444	190.01
412.905	185.81
413.366	191.21
413.826	196.31
414.287	222.11
414.748	269.01
415.208	255.01
415.669	218.51
416.13	206.01
416.59	213.01
417.051	212.71
417.511	224.11
417.972	241.81
418.432	256.31
418.893	292.11
419.353	251.51
419.814	206.71
420.274	183.81
420.734	189.11
421.195	204.21
421.655	197.11
422.115	198.61
422.576	196.21
423.036	198.91
423.496	214.41
423.956	226.61
424.416	238.81
424.876	276.91
425.336	273.81
425.797	266.91
426.257	271.01
426.717	253.31
427.177	238.31
427.637	234.41
428.097	252.81
428.556	253.91
429.016	276.11
429.476	273.01
429.936	281.41
430.396	292.51
430.856	307.11
431.315	327.71
431.775	361.11
432.235	386.01
432.694	364.51
433.154	377.11
433.614	412.01
434.073	349.41
434.533	292.61
434.993	277.71
435.452	280.81
435.912	304.91
436.371	291.91
436.83	292.61
437.29	273.51
437.749	246.71
438.209	250.61
438.668	278.21
439.127	293.21
439.587	279.81
440.046	252.51
440.505	266.61
440.964	280.61
441.424	330.41
441.883	328.11
442.342	271.21
442.801	231.31
443.26	229.41
443.719	229.71
444.178	228.81
444.637	217.01
445.096	226.11
445.555	221.91
446.014	229.31
446.473	225.81
446.932	236.11
447.391	229.11
447.849	239.01
448.308	223.41
448.767	217.71
449.226	253.11
449.685	237.91
450.143	260.81
450.602	246.91
451.061	232.91
451.519	235.71
451.978	231.21
452.436	240.91
452.895	248.11
453.353	257.21
453.812	250.51
454.27	252.51
454.729	241.11
455.187	243.31
455.646	251.91
456.104	252.41
456.562	273.61
457.021	273.61
457.479	269.21
457.937	279.81
458.395	266.91
458.854	254.81
459.312	268.31
459.77	284.71
460.228	266.41
460.686	248.31
461.144	257.01
461.602	245.61
462.06	238.61
462.518	256.01
462.976	264.61
463.434	268.01
463.892	267.11
464.35	282.91
464.808	292.71
465.266	268.61
465.724	282.91
466.181	275.41
466.639	278.31
467.097	295.31
467.555	315.91
468.012	310.21
468.47	309.61
468.928	335.81
469.385	343.91
469.843	359.91
470.3	359.81
470.758	370.21
471.215	394.61
471.673	416.41
472.13	416.21
472.588	435.71
473.045	394.51
473.503	382.91
473.96	395.31
474.417	417.11
474.875	448.31
475.332	490.31
475.789	469.21
476.246	475.81
476.704	501.31
477.161	523.51
477.618	534.71
478.075	579.71
478.532	636.21
478.989	717.91
479.446	827.71
479.903	789.01
480.36	840.91
480.817	899.81
481.274	989.61
481.731	1102.11
482.188	1194.91
482.645	1336.91
483.102	1454.81
483.558	1587.51
484.015	1665.81
484.472	1620.31
484.929	1573.41
485.385	1518.81
485.842	1475.81
486.299	1397.01
486.755	1341.91
487.212	1117.01
487.668	951.91
488.125	878.41
488.582	800.61
489.038	763.71
489.494	733.01
489.951	698.51
490.407	679.11
490.864	663.71
491.32	654.51
491.776	647.01
492.233	663.01
492.689	616.81
493.145	622.41
493.602	617.11
494.058	629.81
494.514	629.51
494.97	646.11
495.426	668.01
495.882	642.61
496.338	623.71
496.794	628.31
497.251	629.61
497.707	651.51
498.163	652.91
498.618	652.91
499.074	654.11
499.53	690.81
499.986	694.51
500.442	659.11
500.898	652.41
501.354	642.51
501.809	656.01
502.265	654.51
502.721	677.51
503.177	692.31
503.632	678.71
504.088	699.01
504.543	729.31
504.999	726.11
505.455	665.71
505.91	644.51
506.366	635.71
506.821	645.21
507.277	637.31
507.732	634.21
508.187	646.01
508.643	649.11
509.098	651.71
509.553	673.31
510.009	675.81
510.464	683.11
510.919	700.61
511.375	705.51
511.83	718.71
512.285	738.21
512.74	775.71
513.195	792.91
513.65	787.51
514.105	787.01
514.56	779.21
515.015	807.81
515.47	816.81
515.925	810.61
516.38	803.21
516.835	801.61
517.29	802.81
517.745	794.01
518.2	777.01
518.655	768.01
519.109	759.41
519.564	762.91
520.019	756.51
520.474	737.51
520.928	743.11
521.383	725.91
521.838	724.51
522.292	724.61
522.747	733.01
523.201	715.81
523.656	705.91
524.11	712.91
524.565	702.91
525.019	699.21
525.474	711.71
525.928	717.51
526.382	707.01
526.837	710.61
527.291	719.41
527.745	706.91
528.2	703.51
528.654	703.91
529.108	703.21
529.562	703.31
530.016	706.11
530.47	712.61
530.925	707.21
531.379	711.41
531.833	715.01
532.287	707.91
532.741	717.51
533.195	714.51
533.649	719.41
534.103	740.91
534.556	720.21
535.01	726.01
535.464	724.51
535.918	735.31
536.372	733.51
536.826	741.21
537.279	722.11
537.733	723.81
538.187	727.51
538.64	726.31
539.094	741.01
539.548	748.91
540.001	742.71
540.455	731.51
540.908	734.51
541.362	745.41
541.815	754.81
542.269	776.01
542.722	774.41
543.175	786.61
543.629	783.61
544.082	801.41
544.536	804.41
544.989	806.01
545.442	799.81
545.895	797.61
546.349	800.71
546.802	807.91
547.255	809.41
547.708	818.61
548.161	825.81
548.614	835.71
549.067	845.31
549.52	837.61
549.973	824.91
550.426	822.41
550.879	815.91
551.332	804.21
551.785	818.81
552.238	822.31
552.691	834.71
553.144	846.61
553.596	868.61
554.049	881.31
554.502	907.81
554.955	925.61
555.407	924.21
555.86	906.71
556.313	907.31
556.765	889.31
557.218	890.51
557.67	898.41
558.123	899.11
558.576	891.81
559.028	892.71
559.48	890.41
559.933	890.11
560.385	852.11
560.838	818.71
561.29	794.71
561.742	789.31
562.195	776.91
562.647	775.51
563.099	788.81
563.551	790.41
564.004	800.31
564.456	781.31
564.908	775.01
565.36	754.01
565.812	749.11
566.264	743.81
566.716	741.31
567.168	736.51
567.62	731.21
568.072	718.11
568.524	713.31
568.976	701.81
569.428	680.61
569.88	687.61
570.332	685.31
570.784	688.21
571.235	699.71
571.687	706.41
572.139	713.01
572.59	731.91
573.042	716.31
573.494	715.51
573.945	720.11
574.397	694.21
574.849	698.21
575.3	705.11
575.752	694.71
576.203	691.01
576.655	694.41
577.106	671.91
577.557	669.91
578.009	676.41
578.46	664.11
578.912	670.61
579.363	672.51
579.814	673.01
580.265	677.21
580.717	666.61
581.168	690.11
581.619	688.71
582.07	690.71
582.521	688.21
582.972	677.41
583.423	678.61
583.875	697.61
584.326	710.51
584.777	750.51
585.227	837.31
585.678	931.61
586.129	1008.11
586.58	1092.71
587.031	1173.51
587.482	1339.21
587.933	1520.11
588.384	1333.41
588.834	995.31
589.285	820.71
589.736	793.11
590.186	773.91
590.637	767.51
591.088	743.71
591.538	746.61
591.989	740.81
592.439	732.31
592.89	723.41
593.34	717.81
593.791	719.81
594.241	710.41
594.692	719.11
595.142	714.31
595.593	705.51
596.043	719.81
596.493	720.81
596.943	731.01
597.394	729.71
597.844	723.61
598.294	736.11
598.744	753.71
599.195	786.21
599.645	821.21
600.095	867.31
600.545	918.21
600.995	979.01
601.445	1031.41
601.895	1091.21
602.345	1134.21
602.795	1132.91
603.245	1072.71
603.695	1018.61
604.145	964.91
604.594	917.21
605.044	868.21
605.494	797.51
605.944	754.11
606.393	751.91
606.843	735.91
607.293	741.51
607.743	733.81
608.192	746.81
608.642	768.91
609.091	768.71
609.541	790.71
609.99	772.71
610.44	775.81
610.889	732.61
611.339	706.61
611.788	685.01
612.238	701.91
612.687	726.91
613.136	728.21
613.586	741.31
614.035	739.51
614.484	764.81
614.933	758.51
615.383	766.61
615.832	740.61
616.281	730.11
616.73	700.31
617.179	676.21
617.628	645.81
618.077	635.11
618.526	633.31
618.975	617.61
619.424	609.31
619.873	624.31
620.322	631.01
620.771	609.11
621.22	608.11
621.669	597.91
622.118	598.51
622.567	586.71
623.015	579.21
623.464	574.61
623.913	561.11
624.361	560.71
624.81	555.41
625.259	553.21
625.707	552.51
626.156	557.01
626.604	567.71
627.053	566.51
627.501	568.81
627.95	576.51
628.398	588.91
628.847	572.61
629.295	578.41
629.744	572.41
630.192	571.91
630.64	569.11
631.089	570.71
631.537	581.91
631.985	589.31
632.433	603.81
632.881	605.51
633.33	668.51
633.778	651.41
634.226	570.31
634.674	576.81
635.122	580.31
635.57	602.21
636.018	632.31
636.466	588.01
636.914	559.91
637.362	568.21
637.81	573.31
638.258	582.81
638.705	574.61
639.153	609.81
639.601	620.71
640.049	636.31
640.497	673.61
640.944	699.11
641.392	649.01
641.84	616.61
642.287	584.11
642.735	568.51
643.182	567.51
643.63	576.41
644.078	579.71
644.525	597.01
644.973	599.51
645.42	609.81
645.867	626.71
646.315	648.21
646.762	663.71
647.21	698.31
647.657	719.41
648.104	754.81
648.551	779.41
648.999	844.51
649.446	920.91
649.893	1008.61
650.34	1165.61
650.787	1398.21
651.234	1737.41
651.682	2272.81
652.129	3101.91
652.576	4476.71
653.023	6639.31
653.47	9140.81
653.917	11401.81
654.363	13159.11
654.81	14544.41
655.257	13809.41
655.704	9066.91
656.151	5349.91
656.598	3456.71
657.044	2450.21
657.491	1872.51
657.938	1502.11
658.385	1260.01
658.831	1082.71
659.278	958.01
659.724	858.51
660.171	788.21
660.618	732.11
661.064	696.21
661.511	674.61
661.957	658.11
662.404	636.21
662.85	648.81
663.296	631.01
663.743	566.81
664.189	540.11
664.635	530.11
665.082	535.61
665.528	528.01
665.974	510.61
666.42	515.71
666.867	504.01
667.313	497.11
667.759	484.01
668.205	482.91
668.651	487.21
669.097	490.81
669.543	499.81
669.989	469.21
670.435	450.81
670.881	440.41
671.327	453.51
671.773	467.01
672.219	487.01
672.665	538.51
673.11	587.11
673.556	629.31
674.002	661.91
674.448	653.21
674.893	556.51
675.339	466.31
675.785	438.61
676.23	423.11
676.676	395.41
677.122	380.01
677.567	371.21
678.013	369.51
678.458	359.21
678.904	361.31
679.349	346.91
679.794	353.11
680.24	349.61
680.685	347.21
681.131	347.81
681.576	341.11
682.021	353.71
682.466	346.11
682.912	347.71
683.357	352.51
683.802	376.11
684.247	407.11
684.692	446.21
685.137	496.01
685.583	537.51
686.028	550.01
686.473	513.21
686.918	439.91
687.363	417.41
687.807	388.61
688.252	360.71
688.697	348.41
689.142	333.01
689.587	332.61
690.032	324.91
690.477	341.11
690.921	348.21
691.366	382.61
691.811	400.31
692.255	422.21
692.7	456.11
693.145	504.51
693.589	689.71
694.034	1121.41
694.478	1515.41
694.923	1711.01
695.367	2227.61
695.812	1190.81
696.256	493.01
696.701	373.41
697.145	341.51
697.59	328.31
698.034	315.41
698.478	321.51
698.922	335.81
699.367	329.41
699.811	345.61
700.255	358.71
700.699	390.61
701.143	428.11
701.588	469.41
702.032	510.71
702.476	503.01
702.92	477.91
703.364	476.31
703.808	624.81
704.252	1022.51
704.696	1437.51
705.14	1641.71
705.584	2111.61
706.027	1054.31
706.471	515.81
706.915	392.21
707.359	349.61
707.803	313.41
708.246	307.31
708.69	311.01
709.134	317.81
709.577	306.71
710.021	314.81
710.465	310.21
710.908	300.01
711.352	297.81
711.795	309.01
712.239	359.91
712.682	384.81
713.126	417.41
713.569	460.31
714.012	364.71
714.456	321.41
714.899	295.91
715.342	271.31
715.786	264.31
716.229	260.51
716.672	257.61
717.115	249.41
717.558	250.61
718.002	254.81
718.445	259.41
718.888	287.71
719.331	290.31
719.774	309.51
720.217	301.91
720.66	290.11
721.103	262.31
721.546	258.71
721.989	242.11
722.432	230.71
722.874	238.11
723.317	228.81
723.76	234.61
724.203	261.71
724.645	321.31
725.088	440.11
725.531	562.41
725.974	640.31
726.416	548.31
726.859	308.91
727.301	247.11
727.744	237.31
728.187	230.31
728.629	238.91
729.071	246.51
729.514	254.91
729.956	277.81
730.399	274.41
730.841	284.01
731.283	264.51
731.726	260.71
732.168	254.41
732.61	263.41
733.053	282.21
733.495	320.71
733.937	351.41
734.379	397.11
734.821	436.61
735.263	523.81
735.705	817.41
736.148	1546.31
736.59	2530.21
737.032	3011.81
737.474	2441.41
737.916	794.41
738.357	418.61
738.799	330.21
739.241	297.21
739.683	286.81
740.125	298.01
740.567	296.61
741.008	314.61
741.45	309.61
741.892	313.41
742.334	346.51
742.775	355.21
743.217	333.81
743.658	265.91
744.1	251.61
744.542	255.71
744.983	309.31
745.425	346.91
745.866	338.41
746.307	283.41
746.749	282.51
747.19	322.01
747.632	446.61
748.073	858.01
748.514	1834.41
748.956	2820.51
749.397	3523.41
749.838	2912.31
750.279	2925.21
750.72	1471.01
751.162	540.51
751.603	319.11
752.044	256.41
752.485	211.71
752.926	208.91
753.367	200.41
753.808	192.41
754.249	187.71
754.69	183.01
755.131	181.81
755.572	181.51
756.013	181.11
756.453	177.01
756.894	186.81
757.335	192.71
757.776	191.01
758.216	195.81
758.657	191.61
759.098	200.51
759.538	225.91
759.979	273.81
760.42	368.01
760.86	693.71
761.301	1790.61
761.741	4328.01
762.182	6334.01
762.622	4473.31
763.063	1296.71
763.503	529.31
763.943	342.41
764.384	340.21
764.824	400.71
765.264	433.01
765.705	307.11
766.145	210.81
766.585	192.01
767.025	180.31
767.465	189.31
767.906	239.91
768.346	316.81
768.786	355.21
769.226	256.81
769.666	322.61
770.106	613.51
770.546	1528.71
770.986	2603.61
771.426	2333.41
771.866	771.11
772.306	333.31
772.745	210.31
773.185	169.81
773.625	177.81
774.065	160.81
774.505	203.11
774.944	306.01
775.384	679.51
775.824	1242.11
776.263	1210.51
776.703	518.91
777.142	226.41
777.582	155.01
778.021	140.71
778.461	142.01
778.9	139.51
779.34	138.11
779.779	117.71
780.219	106.51
780.658	110.91
781.097	110.91
781.537	113.41
781.976	114.11
782.415	107.01
782.855	104.01
783.294	103.21
783.733	105.51
784.172	107.61
784.611	106.01
785.05	108.91
785.489	111.21
785.928	117.41
786.367	120.31
786.806	116.81
787.245	127.51
787.684	136.01
788.123	155.01
788.562	139.01
789.001	128.21
789.44	121.71
789.879	110.61
790.317	116.91
790.756	128.71
791.195	129.41
791.634	144.01
792.072	203.41
792.511	345.81
792.95	984.51
793.388	2094.61
793.827	1917.61
794.265	668.71
794.704	280.91
795.142	185.11
795.581	150.81
796.019	137.11
796.458	128.41
796.896	124.91
797.334	130.91
797.773	157.01
798.211	222.51
798.649	424.81
799.087	996.31
799.526	1570.91
799.964	1973.31
800.402	1981.61
800.84	744.61
801.278	303.91
801.716	180.31
802.154	150.41
802.592	146.91
803.03	137.11
803.468	136.01
803.906	149.11
804.344	152.41
804.782	147.01
805.22	122.21
805.658	123.81
806.096	148.51
806.533	150.71
806.971	175.31
807.409	215.31
807.847	309.81
808.284	638.91
808.722	1832.71
809.16	3244.11
809.597	3039.91
810.035	5296.51
810.472	5675.61
810.91	2047.81
811.347	780.31
811.785	400.41
812.222	247.41
812.66	191.91
813.097	162.21
813.535	144.41
813.972	122.61
814.409	113.01
814.846	101.21
815.284	104.01
815.721	100.31
816.158	108.81
816.595	121.71
817.032	171.31
817.47	202.31
817.907	173.21
818.344	155.81
818.781	118.41
819.218	101.91
819.655	120.61
820.092	181.91
820.529	206.51
820.966	180.21
821.403	135.51
821.839	112.41
822.276	95.41
822.713	120.91
823.15	135.91
823.587	116.51
824.023	145.31
824.46	296.81
824.897	873.41
825.333	1332.91
825.77	575.11
826.206	225.61
826.643	134.61
827.08	98.81
827.516	87.21
827.953	75.41
828.389	90.41
828.825	68.71
829.262	67.11
829.698	64.91
830.135	64.81
830.571	65.81
831.007	66.91
831.443	62.61
831.88	64.91
832.316	63.51
832.752	65.81
833.188	66.11
833.624	68.01
834.06	71.81
834.497	70.81
834.933	74.91
835.369	79.51
835.805	70.71
836.241	80.61
836.677	82.31
837.112	89.61
837.548	104.01
837.984	132.11
838.42	196.71
838.856	484.11
839.292	1477.21
839.727	2276.41
840.163	1043.21
840.599	907.51
841.034	1990.91
841.47	2081.71
841.906	764.81
842.341	322.31
842.777	224.41
843.212	316.51
843.648	312.71
844.083	149.71
844.519	93.01
844.954	72.71
845.39	62.01
845.825	62.21
846.261	55.91
846.696	54.21
847.131	56.51
847.566	53.11
848.002	58.11
848.437	56.41
848.872	55.71
849.307	63.01
849.742	87.01
850.177	170.21
850.613	544.21
851.048	865.11
851.483	373.91
851.918	146.91
852.353	84.81
852.788	61.51
853.223	59.01
853.657	51.31
854.092	49.31
854.527	43.61
854.962	43.51
855.397	51.61
855.832	49.51
856.266	40.41
856.701	39.41
857.136	35.01
857.57	42.71
858.005	47.71
858.44	55.91
858.874	47.81
859.309	54.01
859.743	35.81
860.178	39.91
860.612	37.41
861.047	50.11
861.481	67.21
861.915	74.21
862.35	51.71
862.784	37.41
863.218	39.91
863.653	33.01
864.087	49.31
864.521	59.81
864.955	69.31
865.39	156.71
865.824	169.41
866.258	109.51
866.692	161.71
867.126	171.31
867.56	106.61
867.994	52.21
868.428	40.21
868.862	51.11
869.296	56.11
869.73	57.81
870.164	48.81
870.598	42.31
871.031	38.71
871.465	30.21
871.899	33.31
872.333	26.01
872.766	28.21
873.2	27.01
873.634	32.11
874.067	27.11
874.501	23.91
874.935	34.61
875.368	28.81
875.802	27.41
876.235	26.81
876.669	31.91
877.102	22.41
877.535	29.11
877.969	20.11
878.402	25.51
878.836	17.81
879.269	21.91
879.702	22.91
880.135	22.01
880.569	20.91
881.002	24.21
881.435	25.11
881.868	21.61
882.301	21.91
882.734	19.71
883.167	22.71
883.601	11.31
884.034	24.31
884.467	12.21
884.899	25.21
885.332	13.01
885.765	12.91
886.198	14.41
886.631	19.81
887.064	17.81
887.497	20.31
887.929	29.01
888.362	16.71
888.795	14.01
889.228	18.21
889.66	22.81
890.093	13.01
890.526	19.01
890.958	19.11
891.391	21.51
891.823	24.91
892.256	13.01
892.688	19.01
893.121	16.21
893.553	19.11
893.985	23.41
894.418	17.01
894.85	12.91
895.282	14.81
895.715	15.51
896.147	15.91
896.579	19.11
897.011	15.21
897.444	15.71
897.876	17.81
898.308	20.61
898.74	19.21
899.172	15.71
899.604	25.41
900.036	16.41
900.468	16.81
900.9	17.41
901.332	18.01
901.764	15.71
902.196	19.51
902.628	14.61
903.06	18.01
903.491	35.21
903.923	23.31
904.355	20.61
904.787	25.41
905.218	22.81
905.65	20.21
906.082	12.81
906.513	9.01
906.945	17.31
907.376	10.91
907.808	22.61
908.239	23.51
908.671	26.01
909.102	24.21
909.534	29.31
909.965	43.81
910.397	89.01
910.828	305.21
911.259	472.21
911.691	215.91
912.122	104.71
912.553	50.41
912.984	33.11
913.415	28.71
913.847	24.51
914.278	15.21
914.709	15.51
915.14	22.21
915.571	16.71
916.002	11.31
916.433	24.41
916.864	21.01
917.295	14.01
917.726	15.91
918.157	14.31
918.587	27.11
919.018	21.71
919.449	21.61
919.88	25.01
920.311	32.11
920.741	51.41
921.172	166.51
921.603	152.71
922.033	76.71
922.464	49.21
922.895	22.41
923.325	17.81
923.756	16.91
924.186	12.51
924.617	31.61
925.047	42.61
925.478	46.41
925.908	41.31
926.338	27.41
926.769	16.31
927.199	22.01
927.629	5.71
928.06	19.81
928.49	14.81
928.92	15.11
929.35	15.41
929.78	7.71
930.21	10.51
930.641	11.01
931.071	7.61
931.501	4.81
931.931	11.41
932.361	7.31
932.791	5.41
933.221	2.21
933.651	6.51
934.08	16.91
934.51	28.21
934.94	9.11
935.37	10.61
935.8	13.51
936.229	9.51
936.659	12.41
937.089	1.71
937.519	11.81
937.948	26.01
938.378	16.21
938.807	7.91
939.237	2.01
939.666	7.11
940.096	-1.49
940.525	4.21
940.955	8.51
941.384	5.91
941.814	-0.69
942.243	4.71
942.672	7.61
943.102	0.31
943.531	2.81
943.96	7.21
944.39	6.51
944.819	8.31
945.248	6.21
945.677	6.01
946.106	9.61
946.535	8.11
946.964	0.21
947.393	4.91
947.822	1.31
948.251	-7.09
948.68	5.71
949.109	3.51
949.538	5.61
949.967	1.31
950.396	2.21
950.825	-3.69
951.254	-1.59
951.682	-2.39
952.111	5.91
952.54	8.71
952.969	-9.69
953.397	-8.29
953.826	-3.69
954.254	-4.49
954.683	3.91
955.112	0.11
955.54	2.81
955.969	1.81
956.397	1.61
956.826	0.11
957.254	7.41
957.682	2.71
958.111	2.91
958.539	0.61
958.967	9.71
959.396	-0.99
959.824	-2.69
960.252	4.41
960.68	-7.89
961.109	-0.89
961.537	-13.69
961.965	0.01
962.393	1.61
962.821	2.21
963.249	3.31
963.677	6.91
964.105	7.61
964.533	39.21
964.961	38.21
965.389	21.21
965.817	5.71
966.245	2.01
966.672	5.51
967.1	-2.09
967.528	6.11
967.956	0.31
968.383	-0.09
968.811	-3.29
969.239	-2.59
969.666	3.11
970.094	-3.69
970.522	0.51
970.949	3.41
971.377	4.91
971.804	0.31
972.232	-2.99
972.659	-2.09
973.087	-0.79
973.514	1.01
973.941	-6.79
974.369	3.51
974.796	-1.79
975.223	-6.79
975.651	2.61
976.078	1.41
976.505	-2.29
976.932	3.01
977.359	17.21
977.786	10.21
978.214	1.51
978.641	-0.79
979.068	-3.29
979.495	-0.99
979.922	-1.19
980.349	-4.29
980.776	1.91
981.202	3.11
981.629	4.21
982.056	6.61
982.483	2.01
982.91	2.91
983.337	-6.09
983.763	4.11
984.19	-4.49
984.617	-7.79
985.043	-3.09
985.47	-2.99
985.897	-1.39
986.323	-6.79
986.75	5.31
987.176	0.81
987.603	2.51
988.029	6.71
988.456	-7.89
988.882	0.31
989.308	-3.39
989.735	-1.69
990.161	-1.49
990.587	-5.69
991.014	1.71
991.44	10.21
991.866	-1.69
992.292	-1.69
992.719	-3.39
993.145	3.41
993.571	-7.29
993.997	-4.19
994.423	3.61
994.849	-6.19
995.275	3.01
995.701	4.51
996.127	-3.09
996.553	1.81
996.979	-3.39
997.405	1.51
997.83	-7.89
998.256	-8.39
998.682	-3.89
999.108	-3.69
999.534	2.61
999.959	-2.89
1000.385	-3.79
1000.811	6.71
1001.236	-6.49
1001.662	-4.79
1002.087	-5.99
1002.513	-3.99
1002.938	-2.69
1003.364	-1.49
1003.789	-4.79
1004.215	2.81
1004.64	-2.89
1005.066	-3.69
1005.491	0.11
1005.916	-0.59
1006.342	-5.99
1006.767	-8.29
1007.192	4.21
1007.617	-3.09
1008.042	-4.09
1008.468	-3.29
1008.893	-5.69
1009.318	-5.89
1009.743	-6.19
1010.168	4.31
1010.593	-0.59
1011.018	-9.89
1011.443	-1.69
1011.868	-1.99
1012.293	0.41
1012.718	-6.49
1013.143	-0.69
1013.567	6.61
1013.992	-1.39
1014.417	-10.29
1014.842	3.61
1015.267	-6.49
1015.691	-9.99
1016.116	2.61
1016.541	2.31
1016.965	-2.89
1017.39	1.31
1017.814	-3.19
1018.239	-0.79
1018.663	-11.39
1019.088	-8.59
1019.512	-0.79
1019.937	-1.49
1020.361	-3.19
1020.785	-8.89
1021.21	-5.19
1021.634	-9.79
1022.058	0.41
1022.483	4.21
1022.907	-4.89
1023.331	-3.79
1023.755	-6.39
1024.179	-2.29
1024.604	-6.99
1025.028	-7.09
1025.452	-7.09
1025.876	-1.09
1026.3	-1.79
1026.724	-8.69
1027.148	-8.79
1027.572	-8.99
1027.996	-1.59
1028.42	-2.39
1028.843	-3.59
1029.267	0.11
1029.691	-1.79
1030.115	-5.29
1030.539	-2.89
1030.962	-10.89
1031.386	-8.79
1031.81	5.71
1032.233	-3.99
1032.657	-1.29
1033.08	-4.89
1033.504	-6.79
1033.927	-0.39
1034.351	3.61
1034.774	-0.09
1035.198	-0.19
1035.621	-5.79
1036.045	-14.99
1036.468	2.01
1036.891	-11.29
1037.315	-5.29
1037.738	-9.39
1038.161	1.81
1038.584	-8.89
1039.008	-2.19
1039.431	-5.19
1039.854	-7.49
1040.277	-11.29
1040.7	-12.89
1041.123	0.81
1041.546	-12.69
1041.969	-1.29
1042.392	-6.19
1042.815	-0.99
1043.238	5.61
1043.661	2.91
1044.084	-8.89
1044.507	-2.99
1044.93	-7.39
1045.352	-7.49
1045.775	-6.39
1046.198	-4.69
1046.621	-1.29
1047.043	1.81
1047.466	4.71
1047.889	-0.69
1048.311	-3.69
1048.734	-1.39
1049.156	0.81
1049.579	-0.89
1050.001	-3.09
1050.424	-6.09
1050.846	-1.99
1051.269	-6.29
1051.691	-7.49
1052.113	-10.79
1052.536	-1.19
1052.958	-1.69
1053.38	-9.29
1053.802	-9.19
1054.225	1.71
1054.647	-7.39
1055.069	-10.49
1055.491	4.81
1055.913	-6.79
1056.335	3.31
1056.757	-6.09
1057.179	-2.39
1057.601	-1.49
1058.023	-6.39
1058.445	-3.09
1058.867	-9.79
1059.289	-7.79
1059.711	-5.69
1060.133	2.71
1060.555	-5.09
1060.976	-6.19
1061.398	-7.89
1061.82	-9.89
1062.241	-5.09
1062.663	-9.69
1063.085	-6.49
1063.506	-1.59
1063.928	-0.39
1064.35	-2.29
1064.771	-13.29
1065.193	-2.39
1065.614	-13.59
1066.035	2.81
1066.457	-1.09
1066.878	-3.29
1067.3	-1.69
1067.721	-2.49
1068.142	-5.39
1068.564	-9.89
1068.985	-5.09
1069.406	-6.39
1069.827	-6.29
1070.248	-2.99
1070.67	-8.29
1071.091	-4.69
1071.512	-3.29
1071.933	-7.49
1072.354	-5.59
1072.775	-5.79
1073.196	-4.69
1073.617	0.71
1074.038	-8.39
1074.459	-3.59
1074.88	-11.39
1075.3	1.51
1075.721	-6.29
1076.142	-1.29
1076.563	-3.39
1076.983	-9.89
1077.404	-5.79
1077.825	-9.19
1078.246	-3.29
1078.666	-14.89
1079.087	-2.49
1079.507	-6.49
1079.928	1.31
1080.348	-0.69
1080.769	-0.19
1081.189	1.61
1081.61	-6.19
1082.03	-7.99
1082.451	-3.99
1082.871	-9.79
1083.291	-7.49
1083.711	-12.19
1084.132	-6.69
1084.552	-5.99
1084.972	0.11
1085.392	-7.89
1085.813	-6.59
1086.233	-9.19
1086.653	-4.69
1087.073	-1.59
1087.493	-2.99
1087.913	-8.59
1088.333	-4.29
1088.753	-1.09
1089.173	2.41
1089.593	0.31
1090.013	-2.19
1090.433	5.51
1090.852	-5.19
1091.272	7.51
1091.692	-1.39
1092.112	-8.59
1092.531	-14.19
1092.951	-11.59
1093.371	-4.19
1093.79	-2.69
1094.21	0.31
1094.63	-4.49
1095.049	-6.19
1095.469	-3.99
1095.888	2.01
1096.308	0.21
1096.727	4.91
1097.146	-7.79
1097.566	-4.19
1097.985	-3.29
1098.405	0.51
1098.824	-7.39
1099.243	-3.19
1099.662	-2.69
1100.082	-1.29
1100.501	-7.09
1100.92	-9.09
1101.339	-0.59
1101.758	-5.79
