Data from 20171114-ORNL-Ar_H_NY_Subt18_08-05-13-036.txt Node
Date: Tue Nov 14 08:05:13 EST 2017
User: Ender
Spectrometer: HR+D1039
Trigger mode: 0
Integration Time (sec): 2.730000E-2
Scans to average: 10
Electric dark correction enabled: true
Nonlinearity correction enabled: false
Boxcar width: 0
XAxis mode: Wavelengths
Number of Pixels in Spectrum: 2048
>>>>>Begin Spectral Data<<<<<
187.836	-1.77
188.309	-1.77
188.782	-1.77
189.255	0.73
189.728	-4.17
190.201	0.13
190.674	-2.47
191.147	6.33
191.619	-7.47
192.092	0.23
192.565	1.93
193.038	4.63
193.511	-1.77
193.984	0.13
194.456	1.63
194.929	0.33
195.402	-0.57
195.874	2.13
196.347	2.23
196.82	-4.67
197.292	3.53
197.765	-0.37
198.237	-0.47
198.71	2.83
199.182	-1.07
199.655	2.73
200.127	1.13
200.6	-4.57
201.072	-3.67
201.544	-2.37
202.017	0.03
202.489	2.53
202.961	-0.07
203.433	-2.77
203.906	-4.17
204.378	-2.57
204.85	-0.37
205.322	-7.57
205.794	-2.77
206.266	-1.27
206.739	-8.77
207.211	-3.57
207.683	-6.67
208.155	-3.37
208.627	-4.97
209.099	1.23
209.57	-7.67
210.042	-2.57
210.514	-6.17
210.986	-0.87
211.458	-4.97
211.93	-3.47
212.402	1.13
212.873	-1.77
213.345	-3.67
213.817	-11.57
214.288	-3.07
214.76	-14.77
215.232	-4.87
215.703	-1.47
216.175	-0.17
216.646	-6.47
217.118	-6.57
217.589	-2.97
218.061	-3.57
218.532	-4.97
219.004	-0.37
219.475	-2.87
219.946	-1.67
220.418	-5.37
220.889	6.43
221.36	4.43
221.832	-3.17
222.303	-8.67
222.774	-2.27
223.245	-11.07
223.717	-6.97
224.188	-2.07
224.659	-6.57
225.13	-5.37
225.601	-1.17
226.072	-0.07
226.543	-1.87
227.014	5.33
227.485	-8.67
227.956	0.33
228.427	-2.77
228.898	-1.17
229.369	3.33
229.839	0.03
230.31	-7.07
230.781	1.03
231.252	3.03
231.722	-5.77
232.193	1.73
232.664	-0.67
233.135	-3.67
233.605	2.63
234.076	-9.17
234.546	1.53
235.017	8.73
235.487	0.73
235.958	-2.77
236.428	-1.37
236.899	3.73
237.369	6.23
237.84	1.63
238.31	6.93
238.78	4.23
239.251	0.23
239.721	4.03
240.191	-1.97
240.662	0.03
241.132	-0.37
241.602	-1.67
242.072	-1.87
242.542	10.43
243.013	-3.37
243.483	4.73
243.953	6.93
244.423	1.73
244.893	-6.77
245.363	4.93
245.833	0.13
246.303	0.13
246.773	8.73
247.243	-0.67
247.712	3.43
248.182	7.73
248.652	7.63
249.122	1.63
249.592	11.93
250.061	23.93
250.531	38.13
251.001	22.63
251.471	22.33
251.94	25.73
252.41	12.83
252.879	3.63
253.349	16.93
253.818	11.33
254.288	5.33
254.757	10.53
255.227	3.33
255.696	-0.67
256.166	6.53
256.635	11.33
257.105	7.83
257.574	11.93
258.043	13.93
258.513	15.23
258.982	13.43
259.451	6.73
259.92	16.93
260.389	10.13
260.859	18.33
261.328	9.93
261.797	19.43
262.266	9.53
262.735	14.03
263.204	6.63
263.673	1.23
264.142	8.33
264.611	-4.87
265.08	-0.37
265.549	2.73
266.018	13.83
266.487	5.63
266.955	1.23
267.424	5.33
267.893	7.33
268.362	4.53
268.83	5.83
269.299	12.93
269.768	12.43
270.236	12.03
270.705	6.23
271.174	9.23
271.642	12.23
272.111	9.73
272.579	22.43
273.048	28.83
273.516	31.53
273.985	32.23
274.453	29.13
274.922	24.53
275.39	13.73
275.858	8.93
276.327	13.03
276.795	10.83
277.263	10.33
277.731	35.43
278.2	58.23
278.668	61.93
279.136	51.13
279.604	22.93
280.072	12.93
280.54	12.53
281.008	12.83
281.477	21.23
281.945	13.93
282.413	16.83
282.881	18.23
283.348	8.53
283.816	16.73
284.284	11.93
284.752	21.93
285.22	12.03
285.688	16.23
286.156	21.93
286.623	45.03
287.091	58.33
287.559	32.73
288.026	21.23
288.494	20.23
288.962	9.23
289.429	13.63
289.897	23.03
290.364	17.33
290.832	19.73
291.3	14.53
291.767	19.43
292.234	19.53
292.702	13.03
293.169	22.63
293.637	23.93
294.104	19.73
294.571	13.23
295.039	18.33
295.506	12.83
295.973	18.93
296.44	17.13
296.908	20.03
297.375	24.43
297.842	21.53
298.309	20.33
298.776	17.63
299.243	23.63
299.71	16.43
300.177	23.63
300.644	21.23
301.111	24.33
301.578	30.33
302.045	20.33
302.512	25.83
302.979	23.33
303.446	23.23
303.913	21.43
304.379	23.03
304.846	35.43
305.313	31.83
305.78	20.63
306.246	27.53
306.713	29.23
307.18	24.03
307.646	30.13
308.113	31.93
308.579	26.13
309.046	28.53
309.512	35.33
309.979	23.13
310.445	31.13
310.912	31.63
311.378	38.53
311.845	34.43
312.311	35.63
312.777	30.53
313.244	35.53
313.71	37.03
314.176	29.03
314.642	33.43
315.109	37.53
315.575	42.53
316.041	42.73
316.507	36.73
316.973	38.63
317.439	35.83
317.905	40.43
318.371	45.43
318.837	36.93
319.303	37.33
319.769	34.83
320.235	31.33
320.701	35.33
321.167	42.23
321.633	39.63
322.099	41.93
322.564	48.43
323.03	44.63
323.496	43.13
323.962	44.73
324.427	43.13
324.893	44.73
325.359	43.43
325.824	38.93
326.29	37.73
326.755	35.83
327.221	39.73
327.686	39.33
328.152	47.83
328.617	47.93
329.083	46.53
329.548	60.53
330.014	52.33
330.479	42.83
330.944	48.93
331.41	48.23
331.875	53.33
332.34	48.93
332.805	41.23
333.271	54.33
333.736	46.43
334.201	56.93
334.666	49.63
335.131	61.23
335.596	52.03
336.061	53.83
336.526	53.13
336.991	51.43
337.456	49.33
337.921	55.33
338.386	43.53
338.851	49.33
339.316	49.23
339.781	44.43
340.246	54.03
340.711	48.73
341.175	60.73
341.64	47.73
342.105	56.53
342.569	58.63
343.034	56.93
343.499	61.73
343.963	53.53
344.428	67.13
344.893	67.53
345.357	60.83
345.822	69.23
346.286	71.53
346.751	75.73
347.215	68.53
347.679	74.63
348.144	101.73
348.608	89.83
349.073	72.13
349.537	76.23
350.001	81.63
350.465	93.23
350.93	81.73
351.394	86.23
351.858	78.83
352.322	90.93
352.786	87.23
353.25	102.53
353.715	113.23
354.179	100.03
354.643	127.03
355.107	129.63
355.571	109.63
356.035	98.03
356.498	121.33
356.962	122.33
357.426	126.93
357.89	115.53
358.354	89.93
358.818	90.13
359.281	88.13
359.745	78.13
360.209	81.93
360.673	80.73
361.136	86.93
361.6	92.13
362.064	85.43
362.527	92.43
362.991	91.63
363.454	81.03
363.918	84.33
364.381	80.53
364.845	86.73
365.308	88.33
365.772	87.83
366.235	84.63
366.698	86.93
367.162	92.63
367.625	88.13
368.088	86.63
368.552	87.93
369.015	89.33
369.478	99.43
369.941	107.33
370.404	95.83
370.867	107.73
371.331	102.03
371.794	108.93
372.257	110.73
372.72	118.83
373.183	108.93
373.646	109.73
374.109	109.53
374.572	106.73
375.035	103.03
375.497	116.83
375.96	103.83
376.423	103.93
376.886	113.93
377.349	109.73
377.811	102.93
378.274	109.53
378.737	106.83
379.199	109.23
379.662	114.73
380.125	112.43
380.587	115.03
381.05	129.03
381.512	128.03
381.975	125.13
382.437	121.23
382.9	129.23
383.362	128.33
383.825	148.23
384.287	147.13
384.75	143.23
385.212	138.33
385.674	139.73
386.136	138.13
386.599	125.63
387.061	120.53
387.523	129.33
387.985	132.93
388.447	144.83
388.91	141.93
389.372	157.33
389.834	150.33
390.296	151.33
390.758	159.73
391.22	163.93
391.682	197.03
392.144	295.03
392.606	221.73
393.068	158.03
393.529	167.13
393.991	156.53
394.453	143.63
394.915	153.53
395.377	186.93
395.838	206.63
396.3	156.33
396.762	144.73
397.224	131.13
397.685	132.23
398.147	133.73
398.608	126.43
399.07	127.83
399.531	132.13
399.993	144.83
400.454	154.53
400.916	143.43
401.377	147.03
401.839	149.13
402.3	143.43
402.762	162.93
403.223	178.63
403.684	166.23
404.145	159.73
404.607	156.93
405.068	167.63
405.529	172.33
405.99	176.13
406.451	180.13
406.913	174.83
407.374	164.53
407.835	162.23
408.296	169.13
408.757	172.43
409.218	187.33
409.679	172.53
410.14	175.03
410.601	175.63
411.062	185.73
411.522	195.83
411.983	182.23
412.444	167.73
412.905	177.73
413.366	182.53
413.826	188.13
414.287	211.23
414.748	260.83
415.208	242.13
415.669	208.23
416.13	201.73
416.59	200.73
417.051	212.73
417.511	214.83
417.972	236.73
418.432	242.83
418.893	287.33
419.353	250.83
419.814	193.73
420.274	182.03
420.734	182.73
421.195	198.63
421.655	187.63
422.115	189.73
422.576	187.93
423.036	200.83
423.496	195.03
423.956	210.53
424.416	224.13
424.876	264.53
425.336	259.13
425.797	257.23
426.257	253.63
426.717	242.73
427.177	229.73
427.637	227.13
428.097	230.63
428.556	243.63
429.016	269.03
429.476	262.13
429.936	267.93
430.396	270.33
430.856	290.73
431.315	307.43
431.775	347.83
432.235	376.73
432.694	349.13
433.154	358.83
433.614	388.03
434.073	333.63
434.533	282.23
434.993	269.73
435.452	282.53
435.912	297.93
436.371	286.13
436.83	279.53
437.29	268.13
437.749	243.23
438.209	238.43
438.668	270.13
439.127	286.93
439.587	259.83
440.046	245.53
440.505	255.53
440.964	277.43
441.424	314.73
441.883	311.73
442.342	253.93
442.801	217.23
443.26	222.73
443.719	219.53
444.178	215.23
444.637	212.03
445.096	221.33
445.555	227.03
446.014	220.93
446.473	219.73
446.932	223.93
447.391	222.73
447.849	227.23
448.308	217.63
448.767	220.53
449.226	238.13
449.685	236.13
450.143	245.33
450.602	238.13
451.061	219.93
451.519	233.83
451.978	229.63
452.436	229.63
452.895	238.93
453.353	247.53
453.812	235.53
454.27	232.63
454.729	239.73
455.187	240.43
455.646	244.23
456.104	240.73
456.562	254.73
457.021	263.83
457.479	257.33
457.937	275.93
458.395	260.53
458.854	252.43
459.312	251.63
459.77	272.13
460.228	260.33
460.686	235.73
461.144	244.53
461.602	239.33
462.06	238.53
462.518	250.13
462.976	253.53
463.434	252.73
463.892	259.33
464.35	267.43
464.808	290.93
465.266	262.63
465.724	271.03
466.181	278.23
466.639	267.53
467.097	280.93
467.555	297.03
468.012	301.33
468.47	309.63
468.928	334.23
469.385	347.43
469.843	345.13
470.3	340.33
470.758	364.63
471.215	385.23
471.673	414.53
472.13	401.83
472.588	417.13
473.045	370.03
473.503	374.53
473.96	393.53
474.417	402.93
474.875	427.83
475.332	468.63
475.789	452.23
476.246	459.43
476.704	476.03
477.161	502.53
477.618	526.83
478.075	558.33
478.532	605.43
478.989	698.03
479.446	794.83
479.903	763.63
480.36	801.03
480.817	856.53
481.274	959.63
481.731	1065.73
482.188	1170.33
482.645	1299.93
483.102	1412.13
483.558	1531.93
484.015	1604.53
484.472	1570.13
484.929	1528.73
485.385	1461.83
485.842	1428.33
486.299	1366.23
486.755	1304.03
487.212	1100.83
487.668	923.43
488.125	835.93
488.582	778.73
489.038	748.53
489.494	719.63
489.951	688.93
490.407	667.93
490.864	644.73
491.32	643.13
491.776	630.83
492.233	644.83
492.689	603.83
493.145	599.43
493.602	594.03
494.058	612.33
494.514	610.43
494.97	635.73
495.426	652.03
495.882	624.13
496.338	608.73
496.794	626.33
497.251	624.23
497.707	643.93
498.163	636.13
498.618	640.13
499.074	651.73
499.53	675.13
499.986	674.03
500.442	645.73
500.898	624.63
501.354	619.03
501.809	635.33
502.265	636.73
502.721	656.53
503.177	676.73
503.632	662.13
504.088	673.33
504.543	701.23
504.999	704.03
505.455	649.43
505.91	623.93
506.366	627.73
506.821	616.73
507.277	615.43
507.732	618.93
508.187	627.03
508.643	631.63
509.098	630.83
509.553	642.83
510.009	658.43
510.464	666.73
510.919	694.33
511.375	693.23
511.83	696.73
512.285	713.23
512.74	745.93
513.195	775.93
513.65	766.13
514.105	765.53
514.56	768.73
515.015	790.43
515.47	810.83
515.925	797.13
516.38	781.23
516.835	784.93
517.29	778.03
517.745	768.73
518.2	760.23
518.655	746.13
519.109	735.33
519.564	734.93
520.019	726.13
520.474	728.33
520.928	721.63
521.383	717.23
521.838	706.93
522.292	710.13
522.747	701.83
523.201	693.23
523.656	680.33
524.11	689.13
524.565	686.03
525.019	683.93
525.474	698.63
525.928	684.33
526.382	689.63
526.837	683.83
527.291	701.43
527.745	684.33
528.2	689.33
528.654	679.83
529.108	681.23
529.562	686.23
530.016	693.93
530.47	686.53
530.925	682.63
531.379	694.23
531.833	687.93
532.287	696.93
532.741	696.23
533.195	703.03
533.649	699.03
534.103	719.63
534.556	704.33
535.01	702.43
535.464	697.13
535.918	712.03
536.372	711.83
536.826	712.63
537.279	693.33
537.733	708.53
538.187	693.53
538.64	705.23
539.094	707.03
539.548	725.93
540.001	711.33
540.455	699.23
540.908	716.93
541.362	717.73
541.815	738.13
542.269	745.03
542.722	750.63
543.175	765.73
543.629	760.73
544.082	775.23
544.536	776.33
544.989	766.63
545.442	785.43
545.895	782.23
546.349	767.83
546.802	784.23
547.255	789.93
547.708	796.73
548.161	800.33
548.614	804.63
549.067	813.53
549.52	802.93
549.973	798.53
550.426	795.13
550.879	781.33
551.332	780.23
551.785	796.23
552.238	793.63
552.691	809.33
553.144	820.63
553.596	837.33
554.049	850.03
554.502	879.33
554.955	903.43
555.407	895.93
555.86	892.93
556.313	876.43
556.765	879.03
557.218	867.53
557.67	863.93
558.123	870.53
558.576	863.23
559.028	865.03
559.48	865.03
559.933	856.33
560.385	822.83
560.838	802.13
561.29	775.03
561.742	757.03
562.195	743.33
562.647	747.73
563.099	751.03
563.551	756.03
564.004	770.03
564.456	756.63
564.908	746.73
565.36	734.53
565.812	718.23
566.264	699.63
566.716	713.43
567.168	703.73
567.62	710.23
568.072	686.73
568.524	678.43
568.976	677.53
569.428	656.83
569.88	655.03
570.332	655.03
570.784	662.23
571.235	662.73
571.687	673.93
572.139	685.43
572.59	684.73
573.042	691.63
573.494	704.53
573.945	700.33
574.397	665.93
574.849	668.33
575.3	673.73
575.752	667.03
576.203	658.03
576.655	661.73
577.106	658.53
577.557	647.13
578.009	651.23
578.46	645.33
578.912	639.73
579.363	640.63
579.814	653.73
580.265	639.63
580.717	648.53
581.168	644.73
581.619	662.53
582.07	660.73
582.521	658.03
582.972	647.43
583.423	657.53
583.875	664.53
584.326	675.73
584.777	715.23
585.227	794.33
585.678	878.83
586.129	955.13
586.58	1027.13
587.031	1107.73
587.482	1248.13
587.933	1435.03
588.384	1252.13
588.834	937.83
589.285	769.53
589.736	746.13
590.186	746.53
590.637	740.13
591.088	722.83
591.538	703.03
591.989	701.03
592.439	694.93
592.89	690.13
593.34	676.73
593.791	688.03
594.241	682.93
594.692	691.23
595.142	677.33
595.593	669.33
596.043	684.83
596.493	693.43
596.943	681.83
597.394	690.23
597.844	682.53
598.294	705.43
598.744	721.53
599.195	747.43
599.645	783.63
600.095	826.23
600.545	872.43
600.995	928.53
601.445	988.13
601.895	1043.83
602.345	1084.33
602.795	1068.33
603.245	1028.63
603.695	974.83
604.145	914.83
604.594	870.13
605.044	818.43
605.494	767.63
605.944	718.23
606.393	709.43
606.843	706.33
607.293	703.03
607.743	696.33
608.192	709.83
608.642	730.13
609.091	737.03
609.541	745.33
609.99	729.73
610.44	729.33
610.889	688.63
611.339	664.73
611.788	658.23
612.238	672.53
612.687	680.53
613.136	680.33
613.586	700.73
614.035	704.23
614.484	725.63
614.933	718.23
615.383	726.63
615.832	711.33
616.281	689.43
616.73	659.13
617.179	644.43
617.628	623.53
618.077	613.93
618.526	601.33
618.975	590.83
619.424	587.53
619.873	581.83
620.322	596.53
620.771	590.03
621.22	574.23
621.669	568.83
622.118	556.23
622.567	551.23
623.015	547.43
623.464	542.43
623.913	525.93
624.361	537.23
624.81	521.43
625.259	532.63
625.707	532.63
626.156	528.53
626.604	536.33
627.053	534.43
627.501	539.43
627.95	548.03
628.398	549.83
628.847	530.43
629.295	542.23
629.744	539.43
630.192	549.63
630.64	540.93
631.089	528.83
631.537	547.63
631.985	551.93
632.433	571.13
632.881	562.53
633.33	627.23
633.778	604.33
634.226	542.53
634.674	542.03
635.122	544.23
635.57	559.73
636.018	586.53
636.466	550.83
636.914	524.63
637.362	547.83
637.81	546.03
638.258	550.03
638.705	548.63
639.153	579.23
639.601	581.83
640.049	606.83
640.497	635.53
640.944	648.53
641.392	605.53
641.84	567.73
642.287	543.23
642.735	535.73
643.182	540.73
643.63	540.63
644.078	546.33
644.525	562.13
644.973	561.63
645.42	564.93
645.867	588.83
646.315	596.83
646.762	623.73
647.21	650.43
647.657	673.33
648.104	704.03
648.551	729.33
648.999	782.23
649.446	864.93
649.893	948.73
650.34	1083.53
650.787	1303.03
651.234	1605.73
651.682	2107.03
652.129	2859.33
652.576	4115.83
653.023	6111.03
653.47	8400.03
653.917	10575.73
654.363	12362.93
654.81	13753.33
655.257	13107.93
655.704	8533.83
656.151	5018.33
656.598	3267.23
657.044	2296.63
657.491	1768.63
657.938	1411.43
658.385	1180.53
658.831	1025.83
659.278	908.33
659.724	815.33
660.171	741.53
660.618	684.63
661.064	651.13
661.511	636.53
661.957	611.93
662.404	603.53
662.85	611.43
663.296	587.83
663.743	532.63
664.189	505.33
664.635	499.83
665.082	492.43
665.528	498.93
665.974	490.03
666.42	486.83
666.867	477.93
667.313	463.63
667.759	453.63
668.205	444.23
668.651	452.73
669.097	454.73
669.543	466.43
669.989	445.23
670.435	423.23
670.881	403.93
671.327	414.93
671.773	431.13
672.219	462.53
672.665	508.23
673.11	534.13
673.556	587.83
674.002	619.03
674.448	611.73
674.893	508.83
675.339	442.23
675.785	420.33
676.23	389.53
676.676	362.23
677.122	354.33
677.567	345.63
678.013	341.93
678.458	330.23
678.904	330.03
679.349	322.83
679.794	326.13
680.24	328.13
680.685	319.63
681.131	316.33
681.576	318.33
682.021	331.53
682.466	322.83
682.912	316.53
683.357	319.13
683.802	358.73
684.247	374.73
684.692	428.73
685.137	461.03
685.583	494.63
686.028	531.33
686.473	482.33
686.918	413.53
687.363	382.53
687.807	368.23
688.252	351.93
688.697	331.63
689.142	311.83
689.587	304.43
690.032	295.63
690.477	319.93
690.921	319.43
691.366	352.53
691.811	368.33
692.255	394.93
692.7	433.43
693.145	461.03
693.589	623.63
694.034	1013.43
694.478	1400.43
694.923	1617.43
695.367	2126.93
695.812	1120.73
696.256	466.43
696.701	355.33
697.145	323.73
697.59	309.73
698.034	301.53
698.478	312.93
698.922	294.63
699.367	301.43
699.811	313.43
700.255	320.93
700.699	352.53
701.143	390.33
701.588	455.53
702.032	476.93
702.476	478.63
702.92	453.03
703.364	451.53
703.808	584.83
704.252	939.63
704.696	1322.53
705.14	1551.53
705.584	1996.73
706.027	988.53
706.471	487.53
706.915	365.93
707.359	327.03
707.803	297.83
708.246	289.13
708.69	281.33
709.134	286.73
709.577	293.53
710.021	296.43
710.465	285.43
710.908	284.13
711.352	272.63
711.795	292.53
712.239	321.13
712.682	344.53
713.126	382.73
713.569	433.43
714.012	341.73
714.456	302.93
714.899	274.33
715.342	259.33
715.786	235.63
716.229	242.03
716.672	239.63
717.115	232.23
717.558	237.43
718.002	240.43
718.445	241.43
718.888	263.03
719.331	269.73
719.774	281.83
720.217	277.63
720.66	263.43
721.103	244.13
721.546	236.93
721.989	229.23
722.432	218.63
722.874	214.03
723.317	207.03
723.76	218.83
724.203	234.83
724.645	290.33
725.088	408.33
725.531	522.43
725.974	602.23
726.416	509.93
726.859	281.23
727.301	233.03
727.744	222.23
728.187	208.93
728.629	220.73
729.071	222.13
729.514	237.23
729.956	251.03
730.399	262.73
730.841	263.33
731.283	248.63
731.726	240.43
732.168	235.73
732.61	247.73
733.053	258.73
733.495	282.83
733.937	310.83
734.379	364.13
734.821	402.63
735.263	490.43
735.705	737.43
736.148	1412.73
736.59	2341.03
737.032	2857.93
737.474	2318.83
737.916	741.93
738.357	393.13
738.799	303.13
739.241	275.83
739.683	269.33
740.125	271.03
740.567	267.43
741.008	289.63
741.45	297.43
741.892	291.23
742.334	311.83
742.775	325.63
743.217	319.93
743.658	247.33
744.1	231.63
744.542	237.93
744.983	280.83
745.425	323.63
745.866	319.03
746.307	266.93
746.749	258.63
747.19	298.03
747.632	406.83
748.073	780.93
748.514	1670.03
748.956	2622.13
749.397	3285.83
749.838	2718.23
750.279	2767.63
750.72	1377.53
751.162	507.53
751.603	289.23
752.044	226.53
752.485	196.63
752.926	187.43
753.367	182.33
753.808	181.03
754.249	169.83
754.69	165.43
755.131	165.93
755.572	166.83
756.013	163.03
756.453	164.53
756.894	173.73
757.335	177.43
757.776	180.53
758.216	180.53
758.657	184.23
759.098	187.53
759.538	203.33
759.979	240.63
760.42	345.93
760.86	626.33
761.301	1610.13
761.741	3988.13
762.182	6022.73
762.622	4238.43
763.063	1211.23
763.503	488.83
763.943	316.53
764.384	300.63
764.824	364.53
765.264	392.93
765.705	280.13
766.145	196.83
766.585	175.33
767.025	166.73
767.465	167.13
767.906	216.43
768.346	284.93
768.786	303.73
769.226	238.03
769.666	284.13
770.106	543.43
770.546	1371.23
770.986	2435.33
771.426	2222.53
771.866	731.93
772.306	298.73
772.745	195.23
773.185	160.63
773.625	154.43
774.065	152.33
774.505	188.03
774.944	275.83
775.384	621.63
775.824	1124.83
776.263	1113.93
776.703	473.83
777.142	206.13
777.582	146.33
778.021	124.53
778.461	127.13
778.9	130.23
779.34	121.03
779.779	112.03
780.219	101.53
780.658	103.13
781.097	99.23
781.537	106.03
781.976	106.33
782.415	100.93
782.855	103.33
783.294	90.73
783.733	100.93
784.172	94.03
784.611	94.93
785.05	105.23
785.489	99.73
785.928	106.73
786.367	106.13
786.806	104.63
787.245	121.33
787.684	126.63
788.123	133.43
788.562	125.23
789.001	114.63
789.44	117.03
789.879	102.03
790.317	107.63
790.756	115.53
791.195	113.13
791.634	128.43
792.072	178.43
792.511	322.53
792.95	890.43
793.388	1954.13
793.827	1822.73
794.265	633.13
794.704	260.93
795.142	167.03
795.581	135.33
796.019	124.13
796.458	118.23
796.896	115.23
797.334	126.43
797.773	146.13
798.211	193.13
798.649	385.63
799.087	912.03
799.526	1458.33
799.964	1834.73
800.402	1881.23
800.84	696.83
801.278	271.43
801.716	175.03
802.154	140.83
802.592	136.33
803.03	126.33
803.468	127.13
803.906	128.93
804.344	131.93
804.782	119.63
805.22	122.43
805.658	125.23
806.096	130.93
806.533	139.93
806.971	154.13
807.409	196.53
807.847	281.53
808.284	581.13
808.722	1667.33
809.16	3038.13
809.597	2823.83
810.035	4951.93
810.472	5432.53
810.91	1937.73
811.347	720.73
811.785	370.83
812.222	232.13
812.66	177.83
813.097	146.03
813.535	129.63
813.972	126.13
814.409	109.13
814.846	97.33
815.284	104.43
815.721	96.93
816.158	102.63
816.595	106.83
817.032	162.03
817.47	179.33
817.907	140.73
818.344	135.53
818.781	112.23
819.218	92.33
819.655	114.23
820.092	168.93
820.529	203.63
820.966	172.23
821.403	132.93
821.839	97.03
822.276	94.33
822.713	113.63
823.15	128.53
823.587	114.13
824.023	127.43
824.46	261.53
824.897	806.53
825.333	1258.23
825.77	536.13
826.206	214.43
826.643	124.63
827.08	91.73
827.516	81.13
827.953	69.93
828.389	74.03
828.825	63.83
829.262	59.83
829.698	59.03
830.135	66.33
830.571	60.23
831.007	55.03
831.443	61.03
831.88	55.13
832.316	50.93
832.752	61.93
833.188	62.43
833.624	58.33
834.06	58.93
834.497	62.73
834.933	67.03
835.369	65.63
835.805	64.33
836.241	61.53
836.677	67.93
837.112	81.93
837.548	96.13
837.984	120.53
838.42	181.43
838.856	444.13
839.292	1369.63
839.727	2144.53
840.163	991.03
840.599	832.83
841.034	1856.83
841.47	1991.03
841.906	720.63
842.341	303.83
842.777	194.93
843.212	287.63
843.648	294.03
844.083	144.53
844.519	87.33
844.954	75.43
845.39	55.93
845.825	51.43
846.261	51.73
846.696	50.13
847.131	46.63
847.566	48.13
848.002	45.73
848.437	53.43
848.872	55.53
849.307	57.03
849.742	74.93
850.177	158.93
850.613	487.23
851.048	810.03
851.483	352.13
851.918	147.73
852.353	81.93
852.788	53.43
853.223	58.13
853.657	47.93
854.092	43.33
854.527	36.93
854.962	38.43
855.397	40.93
855.832	44.53
856.266	41.83
856.701	30.63
857.136	33.43
857.57	35.93
858.005	55.13
858.44	56.33
858.874	37.53
859.309	54.93
859.743	38.33
860.178	45.93
860.612	33.23
861.047	48.33
861.481	56.53
861.915	69.13
862.35	45.83
862.784	30.13
863.218	31.33
863.653	33.43
864.087	44.03
864.521	49.93
864.955	63.33
865.39	140.53
865.824	166.23
866.258	103.83
866.692	147.43
867.126	162.23
867.56	99.43
867.994	51.63
868.428	34.23
868.862	42.13
869.296	52.33
869.73	51.93
870.164	48.53
870.598	40.33
871.031	38.23
871.465	35.03
871.899	24.83
872.333	23.83
872.766	28.83
873.2	22.23
873.634	29.73
874.067	26.03
874.501	18.63
874.935	35.13
875.368	34.03
875.802	32.43
876.235	26.63
876.669	24.43
877.102	14.63
877.535	26.13
877.969	19.43
878.402	20.33
878.836	13.43
879.269	22.53
879.702	23.83
880.135	21.03
880.569	19.13
881.002	29.93
881.435	18.33
881.868	22.53
882.301	23.33
882.734	17.03
883.167	24.33
883.601	15.23
884.034	22.73
884.467	15.13
884.899	18.93
885.332	11.43
885.765	18.23
886.198	16.03
886.631	12.43
887.064	21.03
887.497	19.53
887.929	25.03
888.362	12.53
888.795	10.43
889.228	12.53
889.66	23.63
890.093	21.73
890.526	13.23
890.958	12.33
891.391	14.03
891.823	21.83
892.256	11.83
892.688	13.83
893.121	16.13
893.553	21.83
893.985	19.93
894.418	16.63
894.85	14.93
895.282	13.03
895.715	16.03
896.147	12.53
896.579	20.13
897.011	16.33
897.444	15.53
897.876	17.83
898.308	14.63
898.74	17.93
899.172	13.03
899.604	19.73
900.036	19.63
900.468	13.03
900.9	15.73
901.332	23.43
901.764	13.93
902.196	18.43
902.628	14.63
903.06	14.73
903.491	27.33
903.923	18.43
904.355	18.83
904.787	18.73
905.218	13.53
905.65	25.43
906.082	8.33
906.513	18.43
906.945	16.13
907.376	12.93
907.808	15.93
908.239	20.93
908.671	19.23
909.102	21.03
909.534	24.43
909.965	39.33
910.397	86.53
910.828	292.23
911.259	446.03
911.691	204.13
912.122	99.53
912.553	49.53
912.984	33.93
913.415	22.53
913.847	24.43
914.278	14.03
914.709	17.03
915.14	21.33
915.571	16.93
916.002	7.03
916.433	19.43
916.864	13.93
917.295	9.53
917.726	19.63
918.157	12.23
918.587	27.83
919.018	20.03
919.449	22.73
919.88	25.83
920.311	32.53
920.741	43.93
921.172	151.33
921.603	142.43
922.033	67.23
922.464	40.43
922.895	27.03
923.325	15.63
923.756	12.83
924.186	12.73
924.617	26.13
925.047	37.53
925.478	47.83
925.908	41.23
926.338	21.93
926.769	21.13
927.199	18.13
927.629	8.23
928.06	11.83
928.49	12.93
928.92	11.73
929.35	12.13
929.78	11.23
930.21	11.13
930.641	4.53
931.071	11.03
931.501	5.43
931.931	7.03
932.361	0.43
932.791	5.93
933.221	5.33
933.651	5.93
934.08	20.23
934.51	31.23
934.94	10.93
935.37	13.63
935.8	11.03
936.229	11.93
936.659	10.23
937.089	-1.27
937.519	14.73
937.948	15.73
938.378	18.43
938.807	8.23
939.237	3.53
939.666	8.23
940.096	-2.17
940.525	-2.77
940.955	4.83
941.384	10.83
941.814	-4.07
942.243	-1.27
942.672	3.43
943.102	-0.27
943.531	0.73
943.96	8.73
944.39	-1.27
944.819	1.33
945.248	5.13
945.677	1.13
946.106	5.73
946.535	2.73
946.964	3.83
947.393	3.63
947.822	2.33
948.251	-1.67
948.68	3.93
949.109	3.43
949.538	9.73
949.967	0.03
950.396	3.93
950.825	-2.57
951.254	0.63
951.682	-5.07
952.111	2.83
952.54	5.13
952.969	-0.97
953.397	-4.27
953.826	6.73
954.254	-2.37
954.683	2.93
955.112	-5.97
955.54	-1.47
955.969	1.63
956.397	1.03
956.826	-0.07
957.254	4.93
957.682	2.33
958.111	3.63
958.539	1.63
958.967	-2.47
959.396	-2.07
959.824	0.33
960.252	-1.37
960.68	-3.77
961.109	-2.87
961.537	-1.37
961.965	-2.17
962.393	-2.87
962.821	-11.47
963.249	0.23
963.677	7.13
964.105	8.93
964.533	40.53
964.961	41.93
965.389	19.13
965.817	7.23
966.245	5.53
966.672	1.63
967.1	-1.37
967.528	1.33
967.956	-1.47
968.383	1.23
968.811	-3.87
969.239	-4.57
969.666	-5.67
970.094	0.43
970.522	6.53
970.949	3.43
971.377	-2.07
971.804	-4.27
972.232	2.23
972.659	1.43
973.087	-0.77
973.514	-4.47
973.941	-3.87
974.369	0.63
974.796	2.83
975.223	-0.97
975.651	-4.47
976.078	3.53
976.505	3.53
976.932	3.03
977.359	12.33
977.786	9.93
978.214	3.23
978.641	-4.97
979.068	-4.27
979.495	-4.47
979.922	-1.17
980.349	-7.77
980.776	2.93
981.202	1.03
981.629	-0.77
982.056	-1.97
982.483	-1.87
982.91	0.83
983.337	-8.87
983.763	-0.07
984.19	-5.27
984.617	-3.37
985.043	-5.97
985.47	2.03
985.897	0.63
986.323	-6.47
986.75	4.63
987.176	0.63
987.603	-3.37
988.029	4.53
988.456	-4.67
988.882	7.03
989.308	0.43
989.735	-1.37
990.161	-0.57
990.587	-3.87
991.014	-1.87
991.44	3.33
991.866	3.53
992.292	-5.87
992.719	0.83
993.145	1.73
993.571	-9.57
993.997	-1.77
994.423	-0.87
994.849	-5.07
995.275	0.13
995.701	-2.77
996.127	-5.57
996.553	0.33
996.979	-3.47
997.405	-6.67
997.83	-1.57
998.256	-13.57
998.682	-1.87
999.108	-7.87
999.534	-1.77
999.959	6.33
1000.385	-1.57
1000.811	-3.17
1001.236	-5.77
1001.662	-6.57
1002.087	-10.27
1002.513	1.73
1002.938	1.83
1003.364	2.13
1003.789	-2.47
1004.215	6.73
1004.64	-5.27
1005.066	4.73
1005.491	-2.87
1005.916	-1.47
1006.342	-0.87
1006.767	-4.47
1007.192	5.53
1007.617	-3.17
1008.042	-11.27
1008.468	-8.67
1008.893	-3.47
1009.318	0.73
1009.743	-2.07
1010.168	-5.27
1010.593	-2.67
1011.018	-9.67
1011.443	-4.57
1011.868	-0.17
1012.293	-5.67
1012.718	-9.37
1013.143	-2.07
1013.567	-4.87
1013.992	-2.17
1014.417	-13.07
1014.842	1.23
1015.267	-3.67
1015.691	-3.07
1016.116	1.33
1016.541	3.03
1016.965	5.53
1017.39	0.83
1017.814	-0.07
1018.239	0.33
1018.663	-3.97
1019.088	-10.17
1019.512	-0.37
1019.937	-3.27
1020.361	-4.67
1020.785	-10.27
1021.21	-4.57
1021.634	-6.37
1022.058	-1.47
1022.483	-0.27
1022.907	-3.87
1023.331	-2.07
1023.755	-1.47
1024.179	-3.27
1024.604	-12.27
1025.028	-2.57
1025.452	-0.87
1025.876	-0.17
1026.3	2.83
1026.724	-7.27
1027.148	-1.47
1027.572	-13.17
1027.996	-1.07
1028.42	1.53
1028.843	-6.87
1029.267	-7.37
1029.691	-4.37
1030.115	-4.37
1030.539	-8.67
1030.962	-7.37
1031.386	-15.17
1031.81	-0.37
1032.233	-1.97
1032.657	-3.47
1033.08	-0.27
1033.504	-6.77
1033.927	-2.27
1034.351	-4.07
1034.774	-4.67
1035.198	-6.77
1035.621	-3.27
1036.045	-7.87
1036.468	-0.67
1036.891	-9.87
1037.315	-10.47
1037.738	-2.87
1038.161	-2.97
1038.584	-3.47
1039.008	-3.07
1039.431	-4.97
1039.854	-4.37
1040.277	-9.07
1040.7	-8.97
1041.123	-1.67
1041.546	-5.97
1041.969	-3.57
1042.392	-9.97
1042.815	-6.77
1043.238	-1.07
1043.661	2.83
1044.084	0.43
1044.507	-4.77
1044.93	1.13
1045.352	-5.57
1045.775	-3.07
1046.198	-7.27
1046.621	-7.97
1047.043	2.03
1047.466	2.23
1047.889	-2.77
1048.311	-3.57
1048.734	-2.47
1049.156	-2.87
1049.579	-1.47
1050.001	2.43
1050.424	7.43
1050.846	-7.67
1051.269	0.03
1051.691	-7.87
1052.113	-6.97
1052.536	-2.47
1052.958	-4.37
1053.38	-4.47
1053.802	-4.47
1054.225	3.03
1054.647	-10.97
1055.069	-7.17
1055.491	2.53
1055.913	-7.77
1056.335	-1.07
1056.757	-3.67
1057.179	-5.77
1057.601	-1.17
1058.023	-1.67
1058.445	-5.77
1058.867	-5.07
1059.289	0.83
1059.711	-6.17
1060.133	-3.67
1060.555	-10.27
1060.976	-7.57
1061.398	-8.97
1061.82	-5.57
1062.241	-6.27
1062.663	-6.37
1063.085	-4.77
1063.506	2.53
1063.928	-2.87
1064.35	-4.27
1064.771	-11.47
1065.193	-5.57
1065.614	-6.57
1066.035	1.83
1066.457	-7.17
1066.878	3.33
1067.3	-4.27
1067.721	-4.77
1068.142	-3.47
1068.564	-2.77
1068.985	-1.87
1069.406	-3.27
1069.827	-4.27
1070.248	-0.67
1070.67	-4.67
1071.091	-0.87
1071.512	-2.67
1071.933	1.23
1072.354	-5.07
1072.775	-7.17
1073.196	-7.37
1073.617	-0.57
1074.038	-9.77
1074.459	-5.97
1074.88	-10.37
1075.3	-0.47
1075.721	-8.07
1076.142	-2.97
1076.563	1.33
1076.983	-8.67
1077.404	0.43
1077.825	-17.17
1078.246	-1.47
1078.666	-6.17
1079.087	-1.07
1079.507	-7.07
1079.928	-2.17
1080.348	-2.27
1080.769	-2.97
1081.189	1.43
1081.61	-4.67
1082.03	1.13
1082.451	-6.87
1082.871	-2.07
1083.291	-5.17
1083.711	-4.37
1084.132	-4.87
1084.552	-0.57
1084.972	-0.97
1085.392	-4.47
1085.813	-9.27
1086.233	-6.17
1086.653	-5.47
1087.073	-9.37
1087.493	-8.07
1087.913	-2.37
1088.333	-7.97
1088.753	-0.77
1089.173	-0.47
1089.593	-1.47
1090.013	0.63
1090.433	-2.77
1090.852	-2.57
1091.272	-1.37
1091.692	-0.97
1092.112	-2.47
1092.531	-5.97
1092.951	-11.57
1093.371	-4.57
1093.79	0.33
1094.21	0.83
1094.63	-8.57
1095.049	-5.67
1095.469	-7.47
1095.888	0.33
1096.308	-0.87
1096.727	4.83
1097.146	-4.87
1097.566	-0.27
1097.985	-0.47
1098.405	0.63
1098.824	-3.07
1099.243	-7.87
1099.662	-3.47
1100.082	-5.07
1100.501	-0.17
1100.92	-5.47
1101.339	1.13
1101.758	-2.97
