Data from 20171114-ORNL-Ar_H_NY_Subt18_08-08-02-008.txt Node
Date: Tue Nov 14 08:08:02 EST 2017
User: Ender
Spectrometer: HR+D1039
Trigger mode: 0
Integration Time (sec): 2.730000E-2
Scans to average: 10
Electric dark correction enabled: true
Nonlinearity correction enabled: false
Boxcar width: 0
XAxis mode: Wavelengths
Number of Pixels in Spectrum: 2048
>>>>>Begin Spectral Data<<<<<
187.836	-0.04
188.309	-0.04
188.782	-0.04
189.255	-3.24
189.728	1.26
190.201	2.76
190.674	-0.74
191.147	3.16
191.619	-5.74
192.092	1.06
192.565	6.16
193.038	-2.24
193.511	2.56
193.984	1.46
194.456	-2.84
194.929	-1.74
195.402	-0.04
195.874	-1.84
196.347	-4.74
196.82	-5.94
197.292	6.56
197.765	0.06
198.237	-2.34
198.71	-1.04
199.182	1.46
199.655	0.56
200.127	1.56
200.6	-1.34
201.072	-6.24
201.544	-1.64
202.017	-5.94
202.489	2.16
202.961	-6.24
203.433	-2.84
203.906	-6.84
204.378	-1.84
204.85	-6.24
205.322	-4.74
205.794	-0.04
206.266	-4.84
206.739	-9.24
207.211	6.66
207.683	-3.34
208.155	-9.44
208.627	-1.34
209.099	-1.64
209.57	-8.24
210.042	-4.04
210.514	4.66
210.986	1.86
211.458	-7.14
211.93	1.96
212.402	-0.04
212.873	-6.44
213.345	-1.74
213.817	-10.84
214.288	-4.64
214.76	-10.54
215.232	-0.54
215.703	-0.54
216.175	-5.24
216.646	-5.24
217.118	-0.84
217.589	-6.14
218.061	-5.54
218.532	-2.54
219.004	-4.34
219.475	-0.74
219.946	-3.74
220.418	-5.24
220.889	0.06
221.36	5.06
221.832	-7.64
222.303	-6.54
222.774	-2.04
223.245	-9.74
223.717	-2.84
224.188	-5.04
224.659	-6.24
225.13	-7.54
225.601	0.16
226.072	0.16
226.543	-4.84
227.014	1.06
227.485	-2.94
227.956	-9.44
228.427	-3.74
228.898	0.36
229.369	-2.34
229.839	0.86
230.31	-4.94
230.781	0.86
231.252	-6.34
231.722	-2.54
232.193	-4.64
232.664	1.86
233.135	4.86
233.605	-2.14
234.076	-6.34
234.546	-2.84
235.017	4.06
235.487	-1.44
235.958	-4.14
236.428	-0.44
236.899	-1.04
237.369	1.56
237.84	-5.94
238.31	6.06
238.78	4.16
239.251	2.56
239.721	2.96
240.191	-1.94
240.662	2.56
241.132	-1.94
241.602	-2.84
242.072	0.56
242.542	7.76
243.013	3.16
243.483	3.06
243.953	-1.44
244.423	0.26
244.893	-0.74
245.363	0.16
245.833	0.16
246.303	-7.04
246.773	9.26
247.243	0.16
247.712	3.06
248.182	9.26
248.652	6.56
249.122	-2.44
249.592	9.86
250.061	21.56
250.531	31.36
251.001	11.96
251.471	20.56
251.94	19.26
252.41	5.36
252.879	-2.24
253.349	15.06
253.818	8.46
254.288	6.76
254.757	1.86
255.227	2.66
255.696	3.06
256.166	8.96
256.635	4.76
257.105	10.66
257.574	8.16
258.043	11.56
258.513	6.06
258.982	15.26
259.451	1.16
259.92	10.66
260.389	12.36
260.859	16.66
261.328	7.56
261.797	19.46
262.266	8.66
262.735	10.96
263.204	4.56
263.673	2.96
264.142	3.46
264.611	-1.04
265.08	1.56
265.549	1.06
266.018	3.46
266.487	0.66
266.955	3.96
267.424	6.16
267.893	7.26
268.362	1.76
268.83	5.36
269.299	12.66
269.768	2.46
270.236	4.66
270.705	3.86
271.174	8.46
271.642	7.46
272.111	10.76
272.579	17.16
273.048	22.26
273.516	23.76
273.985	25.76
274.453	22.66
274.922	21.36
275.39	11.16
275.858	0.76
276.327	13.46
276.795	13.56
277.263	9.86
277.731	32.76
278.2	52.86
278.668	52.66
279.136	53.16
279.604	16.26
280.072	18.46
280.54	15.86
281.008	8.46
281.477	14.36
281.945	12.46
282.413	14.46
282.881	20.76
283.348	4.66
283.816	20.86
284.284	19.66
284.752	24.16
285.22	11.36
285.688	17.66
286.156	18.36
286.623	37.96
287.091	49.96
287.559	26.66
288.026	16.76
288.494	16.76
288.962	4.96
289.429	9.46
289.897	21.36
290.364	16.76
290.832	16.96
291.3	17.86
291.767	23.26
292.234	16.96
292.702	13.36
293.169	19.96
293.637	19.46
294.104	17.36
294.571	10.06
295.039	9.76
295.506	15.46
295.973	13.66
296.44	17.16
296.908	18.16
297.375	17.46
297.842	15.86
298.309	8.76
298.776	11.66
299.243	21.66
299.71	9.56
300.177	18.06
300.644	26.66
301.111	19.06
301.578	23.76
302.045	17.06
302.512	23.86
302.979	21.26
303.446	22.16
303.913	18.16
304.379	20.26
304.846	26.16
305.313	24.36
305.78	24.36
306.246	21.16
306.713	28.76
307.18	28.86
307.646	29.26
308.113	26.96
308.579	21.66
309.046	26.76
309.512	25.36
309.979	18.26
310.445	27.56
310.912	25.36
311.378	30.76
311.845	30.26
312.311	30.26
312.777	29.36
313.244	30.76
313.71	35.86
314.176	29.36
314.642	33.46
315.109	30.06
315.575	30.56
316.041	35.96
316.507	31.46
316.973	40.56
317.439	35.56
317.905	34.26
318.371	29.36
318.837	32.76
319.303	34.56
319.769	31.06
320.235	37.16
320.701	27.56
321.167	38.76
321.633	35.16
322.099	38.76
322.564	43.86
323.03	36.76
323.496	37.76
323.962	34.46
324.427	34.26
324.893	39.56
325.359	34.76
325.824	36.46
326.29	38.26
326.755	44.96
327.221	39.86
327.686	44.36
328.152	38.96
328.617	41.26
329.083	44.66
329.548	44.56
330.014	42.16
330.479	37.56
330.944	44.66
331.41	43.16
331.875	42.86
332.34	37.36
332.805	38.26
333.271	46.36
333.736	42.06
334.201	52.46
334.666	54.06
335.131	59.36
335.596	48.06
336.061	47.86
336.526	39.36
336.991	44.16
337.456	51.26
337.921	44.96
338.386	45.56
338.851	44.06
339.316	49.26
339.781	45.36
340.246	50.96
340.711	43.46
341.175	47.36
341.64	37.06
342.105	51.46
342.569	55.26
343.034	56.56
343.499	48.46
343.963	52.56
344.428	60.86
344.893	54.66
345.357	62.46
345.822	58.46
346.286	63.26
346.751	64.66
347.215	61.36
347.679	71.76
348.144	94.96
348.608	80.96
349.073	65.96
349.537	72.16
350.001	72.36
350.465	89.76
350.93	79.86
351.394	76.06
351.858	68.56
352.322	87.66
352.786	78.36
353.25	104.16
353.715	110.56
354.179	98.86
354.643	120.86
355.107	127.06
355.571	104.26
356.035	99.26
356.498	114.86
356.962	125.66
357.426	127.96
357.89	117.96
358.354	84.16
358.818	82.66
359.281	75.96
359.745	79.16
360.209	73.26
360.673	72.26
361.136	81.36
361.6	83.36
362.064	81.96
362.527	79.16
362.991	85.86
363.454	78.56
363.918	78.96
364.381	77.46
364.845	79.46
365.308	80.96
365.772	81.76
366.235	86.06
366.698	79.26
367.162	86.96
367.625	83.06
368.088	80.66
368.552	89.46
369.015	89.26
369.478	98.66
369.941	102.16
370.404	93.46
370.867	103.06
371.331	108.96
371.794	109.46
372.257	107.66
372.72	109.66
373.183	110.36
373.646	105.86
374.109	100.16
374.572	109.56
375.035	108.86
375.497	103.46
375.96	105.86
376.423	101.06
376.886	111.06
377.349	103.86
377.811	102.96
378.274	107.26
378.737	108.26
379.199	106.26
379.662	115.46
380.125	112.96
380.587	113.86
381.05	118.26
381.512	130.86
381.975	136.26
382.437	131.26
382.9	127.36
383.362	126.16
383.825	140.86
384.287	153.36
384.75	142.26
385.212	143.76
385.674	136.26
386.136	133.76
386.599	125.26
387.061	133.06
387.523	123.76
387.985	134.56
388.447	146.16
388.91	143.36
389.372	164.86
389.834	145.66
390.296	144.26
390.758	158.56
391.22	177.06
391.682	215.66
392.144	302.46
392.606	236.06
393.068	164.16
393.529	168.46
393.991	152.96
394.453	138.66
394.915	159.36
395.377	198.86
395.838	223.16
396.3	155.76
396.762	144.36
397.224	131.66
397.685	125.56
398.147	126.66
398.608	125.46
399.07	131.86
399.531	137.96
399.993	138.06
400.454	154.26
400.916	147.06
401.377	145.56
401.839	150.76
402.3	156.86
402.762	163.86
403.223	176.46
403.684	172.66
404.145	160.76
404.607	160.06
405.068	166.86
405.529	165.16
405.99	190.26
406.451	178.16
406.913	174.76
407.374	168.56
407.835	164.56
408.296	168.66
408.757	171.56
409.218	179.56
409.679	181.56
410.14	177.36
410.601	177.56
411.062	176.56
411.522	191.16
411.983	192.36
412.444	170.36
412.905	178.16
413.366	174.56
413.826	192.46
414.287	219.36
414.748	264.26
415.208	246.36
415.669	207.96
416.13	196.56
416.59	200.16
417.051	213.36
417.511	219.26
417.972	237.36
418.432	238.86
418.893	281.56
419.353	251.26
419.814	195.86
420.274	184.66
420.734	185.36
421.195	198.26
421.655	196.46
422.115	189.46
422.576	197.96
423.036	196.76
423.496	205.56
423.956	211.46
424.416	234.36
424.876	263.36
425.336	255.16
425.797	255.66
426.257	254.56
426.717	244.96
427.177	238.46
427.637	223.76
428.097	233.16
428.556	241.96
429.016	270.16
429.476	262.96
429.936	270.76
430.396	278.56
430.856	291.86
431.315	309.96
431.775	351.06
432.235	384.26
432.694	348.46
433.154	366.86
433.614	397.16
434.073	342.26
434.533	288.76
434.993	264.26
435.452	282.26
435.912	290.86
436.371	289.06
436.83	284.96
437.29	269.86
437.749	252.26
438.209	248.06
438.668	278.76
439.127	285.56
439.587	267.26
440.046	250.86
440.505	257.26
440.964	276.96
441.424	325.06
441.883	308.86
442.342	253.26
442.801	226.16
443.26	213.26
443.719	221.86
444.178	214.46
444.637	209.66
445.096	219.36
445.555	214.86
446.014	220.96
446.473	223.56
446.932	232.66
447.391	220.86
447.849	223.56
448.308	219.86
448.767	217.26
449.226	233.46
449.685	233.66
450.143	244.96
450.602	232.36
451.061	225.76
451.519	234.96
451.978	228.66
452.436	233.46
452.895	235.96
453.353	255.46
453.812	243.26
454.27	239.96
454.729	228.56
455.187	238.36
455.646	246.36
456.104	251.86
456.562	252.06
457.021	269.06
457.479	261.96
457.937	276.66
458.395	260.66
458.854	249.16
459.312	255.26
459.77	269.76
460.228	259.16
460.686	239.46
461.144	240.46
461.602	243.56
462.06	250.76
462.518	250.36
462.976	247.66
463.434	252.86
463.892	262.86
464.35	272.06
464.808	283.46
465.266	268.56
465.724	264.96
466.181	271.96
466.639	270.76
467.097	282.36
467.555	296.26
468.012	300.26
468.47	310.26
468.928	328.26
469.385	336.76
469.843	345.36
470.3	339.46
470.758	359.06
471.215	381.96
471.673	409.46
472.13	406.96
472.588	415.46
473.045	368.06
473.503	375.26
473.96	386.26
474.417	401.26
474.875	431.76
475.332	473.96
475.789	456.66
476.246	463.76
476.704	490.96
477.161	503.36
477.618	522.16
478.075	555.66
478.532	607.26
478.989	690.86
479.446	796.06
479.903	761.66
480.36	803.46
480.817	868.36
481.274	954.66
481.731	1060.36
482.188	1165.76
482.645	1288.16
483.102	1397.46
483.558	1522.36
484.015	1576.36
484.472	1541.56
484.929	1508.96
485.385	1439.26
485.842	1408.06
486.299	1346.46
486.755	1287.36
487.212	1083.36
487.668	922.26
488.125	841.46
488.582	769.16
489.038	739.16
489.494	701.06
489.951	681.86
490.407	658.66
490.864	634.76
491.32	634.26
491.776	633.86
492.233	642.16
492.689	610.46
493.145	599.56
493.602	592.46
494.058	615.36
494.514	610.76
494.97	627.06
495.426	640.06
495.882	608.36
496.338	604.86
496.794	613.66
497.251	601.36
497.707	630.86
498.163	624.36
498.618	628.36
499.074	645.46
499.53	662.16
499.986	652.06
500.442	634.46
500.898	621.16
501.354	619.26
501.809	625.86
502.265	638.76
502.721	655.66
503.177	657.46
503.632	655.46
504.088	666.06
504.543	705.66
504.999	701.86
505.455	642.06
505.91	621.26
506.366	626.26
506.821	612.86
507.277	614.76
507.732	614.76
508.187	613.16
508.643	622.36
509.098	629.16
509.553	649.46
510.009	657.46
510.464	659.86
510.919	680.66
511.375	683.56
511.83	703.36
512.285	703.76
512.74	739.86
513.195	767.46
513.65	764.56
514.105	756.26
514.56	758.16
515.015	778.46
515.47	795.76
515.925	772.96
516.38	772.56
516.835	777.76
517.29	770.46
517.745	770.56
518.2	752.76
518.655	730.86
519.109	721.46
519.564	721.56
520.019	728.16
520.474	708.86
520.928	717.06
521.383	701.76
521.838	710.96
522.292	698.96
522.747	702.96
523.201	700.66
523.656	692.56
524.11	690.16
524.565	681.36
525.019	682.56
525.474	688.56
525.928	693.16
526.382	678.96
526.837	688.16
527.291	690.86
527.745	685.26
528.2	694.36
528.654	683.66
529.108	676.76
529.562	677.56
530.016	680.56
530.47	683.76
530.925	680.86
531.379	690.16
531.833	699.46
532.287	687.16
532.741	698.76
533.195	691.76
533.649	704.36
534.103	710.96
534.556	688.46
535.01	694.96
535.464	687.76
535.918	698.96
536.372	699.06
536.826	702.16
537.279	690.06
537.733	702.26
538.187	708.96
538.64	705.16
539.094	715.66
539.548	720.76
540.001	712.76
540.455	709.36
540.908	723.86
541.362	729.26
541.815	740.06
542.269	738.96
542.722	751.66
543.175	769.76
543.629	760.36
544.082	779.76
544.536	769.66
544.989	758.96
545.442	783.26
545.895	776.46
546.349	776.26
546.802	781.76
547.255	789.66
547.708	791.46
548.161	808.76
548.614	809.36
549.067	824.06
549.52	807.76
549.973	793.06
550.426	797.86
550.879	775.46
551.332	797.16
551.785	787.76
552.238	797.66
552.691	814.76
553.144	832.86
553.596	835.66
554.049	837.26
554.502	874.26
554.955	897.86
555.407	891.36
555.86	881.36
556.313	876.86
556.765	863.66
557.218	873.26
557.67	873.26
558.123	861.36
558.576	862.86
559.028	858.46
559.48	872.86
559.933	865.46
560.385	822.96
560.838	787.46
561.29	766.76
561.742	772.36
562.195	758.06
562.647	754.66
563.099	757.06
563.551	762.26
564.004	768.46
564.456	763.46
564.908	752.46
565.36	742.96
565.812	723.66
566.264	718.96
566.716	714.66
567.168	705.86
567.62	722.86
568.072	702.36
568.524	689.26
568.976	674.06
569.428	677.26
569.88	678.76
570.332	675.46
570.784	675.46
571.235	674.26
571.687	686.36
572.139	699.16
572.59	702.86
573.042	702.86
573.494	696.36
573.945	698.06
574.397	675.16
574.849	673.36
575.3	677.06
575.752	678.06
576.203	659.36
576.655	682.66
577.106	657.46
577.557	656.36
578.009	663.06
578.46	657.66
578.912	649.26
579.363	646.26
579.814	651.46
580.265	654.26
580.717	658.66
581.168	652.56
581.619	668.56
582.07	672.76
582.521	665.16
582.972	675.46
583.423	677.06
583.875	679.26
584.326	690.36
584.777	748.76
585.227	813.36
585.678	915.36
586.129	995.26
586.58	1071.36
587.031	1160.96
587.482	1300.06
587.933	1479.86
588.384	1272.06
588.834	973.86
589.285	796.36
589.736	786.56
590.186	767.06
590.637	758.46
591.088	741.56
591.538	735.66
591.989	722.26
592.439	719.56
592.89	714.76
593.34	710.76
593.791	698.66
594.241	699.76
594.692	696.66
595.142	696.46
595.593	687.16
596.043	705.46
596.493	709.66
596.943	708.66
597.394	724.96
597.844	705.66
598.294	716.06
598.744	749.66
599.195	774.56
599.645	813.76
600.095	851.06
600.545	897.86
600.995	952.66
601.445	1008.26
601.895	1074.06
602.345	1122.56
602.795	1101.56
603.245	1054.26
603.695	1002.86
604.145	943.86
604.594	901.76
605.044	848.96
605.494	793.26
605.944	747.66
606.393	742.56
606.843	725.06
607.293	728.46
607.743	723.96
608.192	740.66
608.642	753.46
609.091	757.46
609.541	761.66
609.99	759.66
610.44	754.96
610.889	710.66
611.339	696.26
611.788	668.16
612.238	695.86
612.687	714.56
613.136	718.56
613.586	735.36
614.035	742.06
614.484	753.16
614.933	764.46
615.383	749.26
615.832	738.96
616.281	713.46
616.73	680.86
617.179	665.16
617.628	653.96
618.077	625.36
618.526	621.46
618.975	610.56
619.424	602.26
619.873	613.06
620.322	614.26
620.771	604.66
621.22	598.26
621.669	593.66
622.118	588.66
622.567	584.56
623.015	567.26
623.464	568.06
623.913	556.76
624.361	549.56
624.81	548.76
625.259	555.86
625.707	552.86
626.156	552.16
626.604	559.96
627.053	559.56
627.501	557.16
627.95	562.06
628.398	570.76
628.847	568.36
629.295	562.66
629.744	565.86
630.192	559.26
630.64	555.76
631.089	563.66
631.537	576.56
631.985	595.96
632.433	603.16
632.881	618.26
633.33	675.66
633.778	648.66
634.226	567.76
634.674	570.06
635.122	583.86
635.57	593.46
636.018	624.86
636.466	579.36
636.914	556.26
637.362	565.76
637.81	571.96
638.258	577.66
638.705	570.76
639.153	602.76
639.601	607.66
640.049	640.06
640.497	662.66
640.944	684.76
641.392	634.36
641.84	602.36
642.287	580.56
642.735	564.66
643.182	573.86
643.63	569.26
644.078	569.16
644.525	589.46
644.973	589.26
645.42	604.36
645.867	617.16
646.315	635.76
646.762	666.46
647.21	688.96
647.657	709.46
648.104	746.06
648.551	774.36
648.999	834.36
649.446	910.36
649.893	995.36
650.34	1153.16
650.787	1385.96
651.234	1738.86
651.682	2262.56
652.129	3125.56
652.576	4533.36
653.023	6657.06
653.47	9104.66
653.917	11274.26
654.363	12951.66
654.81	14278.86
655.257	13555.56
655.704	8861.76
656.151	5228.06
656.598	3378.36
657.044	2408.26
657.491	1845.26
657.938	1483.36
658.385	1236.06
658.831	1072.76
659.278	949.26
659.724	842.66
660.171	788.06
660.618	722.06
661.064	689.76
661.511	662.06
661.957	663.46
662.404	635.16
662.85	653.16
663.296	626.76
663.743	552.56
664.189	542.86
664.635	536.26
665.082	521.06
665.528	525.36
665.974	514.56
666.42	517.26
666.867	506.76
667.313	493.06
667.759	475.66
668.205	478.36
668.651	485.66
669.097	481.06
669.543	508.76
669.989	471.16
670.435	447.66
670.881	439.66
671.327	456.06
671.773	464.76
672.219	486.26
672.665	541.06
673.11	585.26
673.556	621.96
674.002	663.16
674.448	643.06
674.893	540.86
675.339	475.36
675.785	435.56
676.23	419.16
676.676	387.46
677.122	374.96
677.567	371.66
678.013	362.26
678.458	356.96
678.904	360.76
679.349	346.36
679.794	359.16
680.24	353.66
680.685	346.16
681.131	345.36
681.576	340.06
682.021	352.66
682.466	354.26
682.912	347.66
683.357	357.76
683.802	377.46
684.247	412.86
684.692	459.76
685.137	492.46
685.583	536.56
686.028	554.86
686.473	506.36
686.918	436.86
687.363	403.86
687.807	386.66
688.252	358.26
688.697	344.16
689.142	334.06
689.587	337.26
690.032	323.56
690.477	347.56
690.921	347.76
691.366	390.06
691.811	401.86
692.255	423.96
692.7	457.46
693.145	501.36
693.589	708.86
694.034	1133.16
694.478	1543.76
694.923	1714.76
695.367	2205.96
695.812	1175.06
696.256	495.36
696.701	367.56
697.145	343.06
697.59	325.06
698.034	320.36
698.478	322.26
698.922	321.56
699.367	337.26
699.811	341.76
700.255	361.76
700.699	391.46
701.143	424.96
701.588	480.76
702.032	512.46
702.476	509.86
702.92	485.86
703.364	488.76
703.808	654.36
704.252	1049.06
704.696	1438.16
705.14	1644.16
705.584	2082.66
706.027	1039.46
706.471	518.56
706.915	394.96
707.359	352.46
707.803	324.06
708.246	305.16
708.69	305.46
709.134	319.56
709.577	316.36
710.021	313.16
710.465	304.36
710.908	302.76
711.352	291.06
711.795	313.56
712.239	347.96
712.682	382.36
713.126	412.46
713.569	461.36
714.012	364.26
714.456	318.26
714.899	299.36
715.342	278.66
715.786	260.56
716.229	256.86
716.672	255.86
717.115	247.46
717.558	248.86
718.002	251.46
718.445	253.26
718.888	291.56
719.331	298.26
719.774	307.96
720.217	297.36
720.66	281.06
721.103	265.06
721.546	255.26
721.989	245.06
722.432	231.36
722.874	238.16
723.317	233.86
723.76	240.96
724.203	259.96
724.645	320.36
725.088	455.66
725.531	567.96
725.974	640.16
726.416	541.16
726.859	310.86
727.301	246.86
727.744	232.96
728.187	230.56
728.629	240.56
729.071	244.96
729.514	260.36
729.956	268.16
730.399	279.16
730.841	284.56
731.283	270.66
731.726	260.76
732.168	257.56
732.61	265.36
733.053	289.76
733.495	313.46
733.937	345.66
734.379	400.46
734.821	439.96
735.263	548.36
735.705	843.86
736.148	1606.76
736.59	2561.56
737.032	2984.46
737.474	2426.06
737.916	798.16
738.357	419.36
738.799	328.26
739.241	300.86
739.683	278.76
740.125	292.46
740.567	296.76
741.008	319.86
741.45	316.16
741.892	314.66
742.334	351.36
742.775	352.16
743.217	334.26
743.658	269.16
744.1	254.16
744.542	261.16
744.983	312.36
745.425	340.76
745.866	343.06
746.307	281.36
746.749	286.16
747.19	324.36
747.632	468.06
748.073	905.06
748.514	1886.26
748.956	2821.06
749.397	3542.66
749.838	2926.56
750.279	2882.16
750.72	1468.86
751.162	539.36
751.603	314.56
752.044	258.36
752.485	217.16
752.926	203.66
753.367	199.76
753.808	199.46
754.249	191.86
754.69	180.86
755.131	189.06
755.572	179.66
756.013	180.16
756.453	181.06
756.894	187.56
757.335	190.86
757.776	194.26
758.216	189.56
758.657	193.26
759.098	199.66
759.538	223.36
759.979	268.36
760.42	379.16
760.86	726.56
761.301	1861.66
761.741	4461.66
762.182	6277.36
762.622	4392.66
763.063	1287.96
763.503	537.16
763.943	348.36
764.384	349.06
764.824	398.36
765.264	426.66
765.705	304.86
766.145	214.26
766.585	183.76
767.025	181.36
767.465	186.46
767.906	248.06
768.346	322.36
768.786	338.36
769.226	260.56
769.666	329.36
770.106	642.86
770.546	1584.96
770.986	2603.36
771.426	2291.66
771.866	770.86
772.306	323.46
772.745	213.56
773.185	173.36
773.625	173.86
774.065	166.16
774.505	199.86
774.944	327.96
775.384	699.96
775.824	1241.16
776.263	1185.06
776.703	512.66
777.142	221.86
777.582	152.16
778.021	138.46
778.461	143.66
778.9	137.66
779.34	130.26
779.779	121.66
780.219	107.36
780.658	109.06
781.097	110.16
781.537	117.16
781.976	113.56
782.415	109.66
782.855	104.06
783.294	106.46
783.733	110.46
784.172	108.26
784.611	106.06
785.05	110.56
785.489	112.06
785.928	116.26
786.367	126.86
786.806	113.06
787.245	127.66
787.684	134.76
788.123	149.26
788.562	131.66
789.001	130.76
789.44	122.06
789.879	122.56
790.317	118.16
790.756	128.46
791.195	126.66
791.634	141.36
792.072	207.16
792.511	380.36
792.95	1038.76
793.388	2120.36
793.827	1880.06
794.265	670.06
794.704	279.66
795.142	185.76
795.581	147.86
796.019	134.26
796.458	127.76
796.896	123.66
797.334	132.86
797.773	150.56
798.211	222.56
798.649	457.56
799.087	1025.86
799.526	1598.26
799.964	2005.36
800.402	1951.86
800.84	744.66
801.278	295.26
801.716	181.96
802.154	155.76
802.592	140.06
803.03	141.76
803.468	137.56
803.906	142.26
804.344	153.16
804.782	148.06
805.22	139.16
805.658	131.16
806.096	148.96
806.533	155.76
806.971	177.66
807.409	219.96
807.847	327.46
808.284	678.56
808.722	1889.76
809.16	3243.76
809.597	3146.46
810.035	5390.06
810.472	5600.76
810.91	2034.16
811.347	787.96
811.785	391.46
812.222	248.16
812.66	193.86
813.097	163.96
813.535	138.06
813.972	130.86
814.409	110.56
814.846	104.86
815.284	108.96
815.721	103.16
816.158	107.36
816.595	121.06
817.032	179.76
817.47	195.26
817.907	160.76
818.344	152.36
818.781	119.96
819.218	96.76
819.655	124.86
820.092	180.96
820.529	202.76
820.966	170.26
821.403	128.66
821.839	105.86
822.276	96.76
822.713	123.46
823.15	132.96
823.587	111.96
824.023	149.86
824.46	312.16
824.897	910.66
825.333	1330.96
825.77	566.36
826.206	224.96
826.643	131.06
827.08	101.66
827.516	81.76
827.953	79.16
828.389	76.46
828.825	76.26
829.262	68.16
829.698	63.96
830.135	63.66
830.571	60.46
831.007	59.96
831.443	66.36
831.88	58.66
832.316	60.16
832.752	63.26
833.188	68.56
833.624	62.06
834.06	64.36
834.497	73.46
834.933	59.86
835.369	68.76
835.805	69.66
836.241	75.66
836.677	77.76
837.112	90.66
837.548	101.96
837.984	131.76
838.42	201.86
838.856	504.46
839.292	1531.36
839.727	2246.86
840.163	1058.46
840.599	933.96
841.034	2024.66
841.47	2060.56
841.906	764.86
842.341	338.56
842.777	229.56
843.212	314.36
843.648	309.56
844.083	157.66
844.519	99.96
844.954	72.66
845.39	64.76
845.825	58.76
846.261	56.26
846.696	51.26
847.131	55.26
847.566	62.56
848.002	51.86
848.437	55.16
848.872	56.66
849.307	68.26
849.742	79.56
850.177	180.46
850.613	556.86
851.048	855.96
851.483	374.06
851.918	157.56
852.353	90.06
852.788	68.56
853.223	57.26
853.657	46.26
854.092	52.06
854.527	46.06
854.962	40.86
855.397	42.06
855.832	50.26
856.266	38.96
856.701	40.56
857.136	35.56
857.57	37.86
858.005	53.46
858.44	58.96
858.874	46.16
859.309	54.26
859.743	41.16
860.178	47.76
860.612	43.96
861.047	49.36
861.481	68.66
861.915	76.76
862.35	50.76
862.784	31.16
863.218	35.96
863.653	33.46
864.087	48.86
864.521	50.66
864.955	71.66
865.39	159.56
865.824	163.26
866.258	103.66
866.692	158.76
867.126	168.66
867.56	101.26
867.994	47.96
868.428	34.56
868.862	51.06
869.296	50.36
869.73	53.16
870.164	49.36
870.598	46.46
871.031	36.26
871.465	29.06
871.899	31.26
872.333	22.26
872.766	29.66
873.2	21.96
873.634	31.16
874.067	27.56
874.501	29.96
874.935	33.26
875.368	29.06
875.802	25.66
876.235	23.96
876.669	22.96
877.102	22.46
877.535	29.86
877.969	30.16
878.402	29.86
878.836	23.76
879.269	31.26
879.702	28.96
880.135	25.36
880.569	24.46
881.002	31.76
881.435	27.86
881.868	17.36
882.301	23.66
882.734	19.86
883.167	25.96
883.601	21.96
884.034	26.16
884.467	16.46
884.899	20.06
885.332	15.86
885.765	16.06
886.198	13.16
886.631	15.56
887.064	19.26
887.497	22.26
887.929	21.56
888.362	13.66
888.795	9.46
889.228	16.26
889.66	16.36
890.093	21.76
890.526	19.46
890.958	13.76
891.391	18.56
891.823	23.66
892.256	16.66
892.688	14.86
893.121	22.46
893.553	15.86
893.985	28.46
894.418	20.36
894.85	13.16
895.282	16.06
895.715	16.76
896.147	16.46
896.579	17.46
897.011	13.16
897.444	16.56
897.876	16.26
898.308	24.46
898.74	20.96
899.172	20.96
899.604	23.16
900.036	17.46
900.468	18.56
900.9	15.06
901.332	24.16
901.764	17.16
902.196	20.76
902.628	19.36
903.06	16.06
903.491	31.56
903.923	22.86
904.355	21.76
904.787	29.46
905.218	22.26
905.65	19.86
906.082	15.26
906.513	11.56
906.945	13.16
907.376	19.16
907.808	22.76
908.239	21.96
908.671	24.16
909.102	23.86
909.534	30.76
909.965	50.76
910.397	86.76
910.828	310.06
911.259	460.16
911.691	208.76
912.122	105.96
912.553	53.86
912.984	31.06
913.415	25.56
913.847	26.46
914.278	18.16
914.709	13.66
915.14	17.66
915.571	14.76
916.002	8.86
916.433	18.66
916.864	16.36
917.295	18.16
917.726	14.96
918.157	16.36
918.587	30.86
919.018	26.26
919.449	24.86
919.88	27.36
920.311	33.56
920.741	44.36
921.172	163.26
921.603	146.66
922.033	77.36
922.464	47.96
922.895	25.16
923.325	23.16
923.756	18.66
924.186	15.56
924.617	23.46
925.047	43.26
925.478	53.86
925.908	43.36
926.338	22.96
926.769	21.76
927.199	28.16
927.629	7.96
928.06	16.56
928.49	15.06
928.92	16.06
929.35	10.26
929.78	10.16
930.21	2.56
930.641	11.46
931.071	8.66
931.501	8.26
931.931	4.36
932.361	7.26
932.791	5.06
933.221	9.06
933.651	11.56
934.08	13.26
934.51	29.96
934.94	7.66
935.37	7.76
935.8	9.26
936.229	8.26
936.659	8.36
937.089	0.76
937.519	15.86
937.948	17.86
938.378	10.96
938.807	6.96
939.237	0.26
939.666	6.46
940.096	0.16
940.525	2.86
940.955	-1.34
941.384	1.96
941.814	1.16
942.243	-0.14
942.672	6.06
943.102	-1.74
943.531	0.46
943.96	3.76
944.39	-3.34
944.819	6.76
945.248	2.96
945.677	1.96
946.106	2.96
946.535	5.26
946.964	5.16
947.393	6.66
947.822	5.96
948.251	-6.24
948.68	2.76
949.109	8.16
949.538	5.16
949.967	3.06
950.396	3.56
950.825	-3.24
951.254	9.26
951.682	-5.04
952.111	1.96
952.54	8.96
952.969	-0.14
953.397	-3.54
953.826	-0.14
954.254	-2.34
954.683	1.06
955.112	-3.04
955.54	-2.84
955.969	1.26
956.397	0.16
956.826	2.86
957.254	1.86
957.682	6.36
958.111	7.16
958.539	5.66
958.967	-0.04
959.396	-1.34
959.824	2.06
960.252	0.86
960.68	-6.64
961.109	-3.94
961.537	-2.14
961.965	-3.74
962.393	2.36
962.821	0.06
963.249	-2.74
963.677	6.26
964.105	-0.34
964.533	44.96
964.961	36.16
965.389	16.56
965.817	2.26
966.245	3.56
966.672	-3.24
967.1	-7.14
967.528	-5.64
967.956	-2.04
968.383	3.36
968.811	-2.84
969.239	-1.74
969.666	-11.34
970.094	3.76
970.522	3.06
970.949	-0.74
971.377	0.46
971.804	-1.84
972.232	-0.14
972.659	-7.84
973.087	2.66
973.514	-4.94
973.941	-6.34
974.369	3.86
974.796	4.66
975.223	0.56
975.651	-3.34
976.078	5.56
976.505	-0.44
976.932	9.26
977.359	9.96
977.786	15.66
978.214	0.16
978.641	-1.94
979.068	-2.34
979.495	-4.84
979.922	-1.64
980.349	-2.54
980.776	4.16
981.202	-0.94
981.629	3.46
982.056	4.36
982.483	6.16
982.91	3.06
983.337	-12.34
983.763	3.46
984.19	-8.24
984.617	-3.34
985.043	-2.34
985.47	-5.24
985.897	-1.74
986.323	-4.64
986.75	3.66
987.176	-0.24
987.603	-0.14
988.029	-6.24
988.456	-3.84
988.882	1.86
989.308	-9.34
989.735	-2.54
990.161	-0.74
990.587	-8.04
991.014	-3.94
991.44	4.26
991.866	4.96
992.292	-4.64
992.719	-1.54
993.145	2.46
993.571	-10.24
993.997	-2.84
994.423	-1.84
994.849	-7.64
995.275	7.26
995.701	2.26
996.127	-5.44
996.553	3.86
996.979	-2.14
997.405	-6.84
997.83	-2.14
998.256	-6.84
998.682	-2.74
999.108	-11.24
999.534	-3.04
999.959	-2.64
1000.385	-0.44
1000.811	0.86
1001.236	-6.74
1001.662	-7.14
1002.087	-11.54
1002.513	1.76
1002.938	4.36
1003.364	-3.84
1003.789	-0.14
1004.215	-0.54
1004.64	1.06
1005.066	2.56
1005.491	3.76
1005.916	2.16
1006.342	-0.84
1006.767	0.66
1007.192	6.96
1007.617	-6.64
1008.042	-5.54
1008.468	-7.54
1008.893	-10.14
1009.318	-1.94
1009.743	-6.64
1010.168	2.96
1010.593	5.26
1011.018	-6.44
1011.443	-4.34
1011.868	-2.94
1012.293	-1.94
1012.718	-13.34
1013.143	-0.94
1013.567	-1.54
1013.992	-2.94
1014.417	-12.84
1014.842	4.16
1015.267	-3.84
1015.691	-0.34
1016.116	-3.94
1016.541	0.46
1016.965	3.76
1017.39	2.76
1017.814	-2.34
1018.239	3.66
1018.663	-5.54
1019.088	-2.44
1019.512	-4.24
1019.937	-2.94
1020.361	-6.54
1020.785	-14.04
1021.21	-7.14
1021.634	0.36
1022.058	1.06
1022.483	0.06
1022.907	-1.84
1023.331	-11.24
1023.755	-2.74
1024.179	-2.64
1024.604	-5.64
1025.028	-2.44
1025.452	-5.44
1025.876	-1.34
1026.3	3.16
1026.724	-5.14
1027.148	-2.44
1027.572	-5.54
1027.996	-4.84
1028.42	-6.04
1028.843	-2.34
1029.267	-4.04
1029.691	-6.44
1030.115	-7.94
1030.539	-12.94
1030.962	-9.74
1031.386	-7.84
1031.81	-3.84
1032.233	-0.94
1032.657	-0.74
1033.08	1.26
1033.504	-1.94
1033.927	-4.34
1034.351	-1.54
1034.774	-7.64
1035.198	-1.04
1035.621	-1.84
1036.045	-7.64
1036.468	1.16
1036.891	-11.64
1037.315	-13.34
1037.738	-7.54
1038.161	-0.94
1038.584	-5.04
1039.008	-8.64
1039.431	-2.94
1039.854	-1.34
1040.277	-8.54
1040.7	-7.64
1041.123	-3.34
1041.546	-6.94
1041.969	-6.04
1042.392	-2.34
1042.815	0.46
1043.238	-1.74
1043.661	-3.54
1044.084	-10.64
1044.507	-7.34
1044.93	-4.34
1045.352	-7.44
1045.775	2.66
1046.198	-2.94
1046.621	3.16
1047.043	-7.74
1047.466	13.06
1047.889	-5.24
1048.311	-4.44
1048.734	-1.24
1049.156	-2.34
1049.579	-9.24
1050.001	-5.04
1050.424	-0.24
1050.846	-2.44
1051.269	-8.44
1051.691	-4.24
1052.113	-7.34
1052.536	1.36
1052.958	0.76
1053.38	-9.64
1053.802	-9.24
1054.225	1.46
1054.647	-9.44
1055.069	-2.24
1055.491	0.76
1055.913	-1.04
1056.335	1.06
1056.757	-7.34
1057.179	-1.04
1057.601	-0.04
1058.023	-0.34
1058.445	-3.44
1058.867	-1.84
1059.289	-5.04
1059.711	-7.74
1060.133	-0.44
1060.555	-5.44
1060.976	-9.34
1061.398	-9.14
1061.82	-7.24
1062.241	-7.04
1062.663	-6.14
1063.085	-5.64
1063.506	-1.54
1063.928	-5.64
1064.35	0.16
1064.771	-9.94
1065.193	-2.84
1065.614	-6.74
1066.035	-0.54
1066.457	-2.54
1066.878	-2.54
1067.3	-4.14
1067.721	-0.64
1068.142	-1.34
1068.564	-1.84
1068.985	-0.24
1069.406	-9.44
1069.827	-6.24
1070.248	5.86
1070.67	-8.64
1071.091	2.06
1071.512	-9.64
1071.933	-2.24
1072.354	-5.24
1072.775	-5.04
1073.196	-5.94
1073.617	-6.94
1074.038	-6.54
1074.459	-2.44
1074.88	-3.64
1075.3	3.26
1075.721	-7.04
1076.142	1.06
1076.563	-1.84
1076.983	-9.44
1077.404	-4.44
1077.825	-8.44
1078.246	-7.64
1078.666	-12.34
1079.087	-6.94
1079.507	-1.34
1079.928	0.66
1080.348	-1.44
1080.769	-6.94
1081.189	-3.44
1081.61	2.56
1082.03	-13.04
1082.451	-7.74
1082.871	-4.24
1083.291	-9.14
1083.711	-9.74
1084.132	-6.04
1084.552	-3.04
1084.972	-1.64
1085.392	-12.84
1085.813	-10.54
1086.233	-6.84
1086.653	-8.54
1087.073	-1.94
1087.493	-10.44
1087.913	-5.54
1088.333	-7.24
1088.753	-4.14
1089.173	3.76
1089.593	0.86
1090.013	5.06
1090.433	0.86
1090.852	-4.04
1091.272	1.06
1091.692	0.16
1092.112	-3.64
1092.531	-7.64
1092.951	-9.84
1093.371	2.56
1093.79	-8.44
1094.21	-9.14
1094.63	-3.24
1095.049	-8.54
1095.469	0.36
1095.888	1.16
1096.308	-0.64
1096.727	6.66
1097.146	-5.34
1097.566	-0.44
1097.985	-4.94
1098.405	-1.84
1098.824	-10.84
1099.243	-6.44
1099.662	-11.24
1100.082	-4.64
1100.501	-2.94
1100.92	-10.54
1101.339	-7.54
1101.758	-10.04
