Data from 20171114-ORNL-Ar_H_NY_Subt18_08-08-05-560.txt Node
Date: Tue Nov 14 08:08:05 EST 2017
User: Ender
Spectrometer: HR+D1039
Trigger mode: 0
Integration Time (sec): 2.730000E-2
Scans to average: 10
Electric dark correction enabled: true
Nonlinearity correction enabled: false
Boxcar width: 0
XAxis mode: Wavelengths
Number of Pixels in Spectrum: 2048
>>>>>Begin Spectral Data<<<<<
187.836	-4.84
188.309	-4.84
188.782	-4.84
189.255	2.86
189.728	-2.74
190.201	2.56
190.674	3.36
191.147	3.76
191.619	-12.24
192.092	3.66
192.565	7.16
193.038	-2.54
193.511	-0.04
193.984	-1.44
194.456	-1.24
194.929	-0.84
195.402	-1.14
195.874	3.76
196.347	-3.54
196.82	-9.54
197.292	10.06
197.765	-3.24
198.237	-5.44
198.71	5.26
199.182	-1.84
199.655	3.66
200.127	2.26
200.6	-1.04
201.072	-8.84
201.544	-6.64
202.017	-2.94
202.489	0.26
202.961	-2.94
203.433	-3.64
203.906	-2.94
204.378	-7.94
204.85	-4.04
205.322	-10.64
205.794	-1.94
206.266	-4.04
206.739	-7.54
207.211	0.86
207.683	-9.54
208.155	-1.94
208.627	-9.54
209.099	-4.04
209.57	-8.64
210.042	-5.84
210.514	-6.94
210.986	-2.24
211.458	-7.04
211.93	0.96
212.402	-0.64
212.873	-8.74
213.345	-6.94
213.817	-14.24
214.288	-6.34
214.76	-9.54
215.232	-5.54
215.703	-3.04
216.175	-3.54
216.646	-2.04
217.118	-10.54
217.589	-2.54
218.061	1.86
218.532	-5.74
219.004	-3.14
219.475	-4.14
219.946	1.16
220.418	-5.74
220.889	3.66
221.36	-4.54
221.832	-3.24
222.303	-9.04
222.774	-1.54
223.245	-7.64
223.717	-5.54
224.188	-4.34
224.659	-5.44
225.13	-5.74
225.601	-2.04
226.072	-6.44
226.543	-2.74
227.014	-3.24
227.485	4.06
227.956	-11.84
228.427	-4.74
228.898	-6.14
229.369	-1.84
229.839	-1.24
230.31	-8.54
230.781	-6.04
231.252	-1.44
231.722	-7.54
232.193	-2.64
232.664	-1.44
233.135	1.26
233.605	-2.54
234.076	-5.64
234.546	2.96
235.017	4.06
235.487	-0.14
235.958	0.16
236.428	-4.44
236.899	6.66
237.369	7.56
237.84	-0.04
238.31	6.36
238.78	1.86
239.251	2.56
239.721	-2.74
240.191	-5.54
240.662	-4.54
241.132	0.26
241.602	0.86
242.072	3.56
242.542	1.76
243.013	-0.64
243.483	1.56
243.953	1.26
244.423	-1.84
244.893	-2.14
245.363	-0.74
245.833	4.76
246.303	-0.54
246.773	5.26
247.243	2.56
247.712	-0.74
248.182	8.56
248.652	4.96
249.122	-5.44
249.592	11.46
250.061	20.46
250.531	26.26
251.001	15.06
251.471	23.36
251.94	23.16
252.41	8.06
252.879	-3.54
253.349	10.96
253.818	10.56
254.288	6.36
254.757	4.46
255.227	-0.94
255.696	5.26
256.166	6.76
256.635	6.76
257.105	12.76
257.574	-1.14
258.043	10.46
258.513	8.46
258.982	14.36
259.451	7.36
259.92	11.46
260.389	17.26
260.859	15.46
261.328	9.36
261.797	14.36
262.266	12.46
262.735	12.76
263.204	6.46
263.673	3.96
264.142	6.46
264.611	-2.74
265.08	0.36
265.549	-1.74
266.018	7.66
266.487	1.26
266.955	-1.64
267.424	2.46
267.893	2.56
268.362	3.76
268.83	4.36
269.299	9.16
269.768	8.06
270.236	3.16
270.705	0.26
271.174	6.46
271.642	6.96
272.111	8.56
272.579	10.06
273.048	21.16
273.516	22.76
273.985	26.76
274.453	22.46
274.922	12.76
275.39	9.76
275.858	5.06
276.327	13.06
276.795	14.26
277.263	10.26
277.731	29.16
278.2	49.86
278.668	59.06
279.136	46.76
279.604	20.86
280.072	13.66
280.54	3.96
281.008	8.06
281.477	16.06
281.945	11.06
282.413	14.96
282.881	11.66
283.348	4.76
283.816	8.86
284.284	14.36
284.752	19.46
285.22	12.06
285.688	14.56
286.156	17.86
286.623	48.26
287.091	50.86
287.559	25.36
288.026	14.86
288.494	11.16
288.962	5.66
289.429	8.36
289.897	14.96
290.364	18.06
290.832	12.56
291.3	11.56
291.767	14.36
292.234	17.26
292.702	14.26
293.169	14.96
293.637	20.66
294.104	16.16
294.571	5.66
295.039	9.36
295.506	13.16
295.973	13.26
296.44	7.16
296.908	17.96
297.375	16.36
297.842	16.56
298.309	20.76
298.776	17.56
299.243	21.56
299.71	7.96
300.177	20.96
300.644	24.46
301.111	13.76
301.578	20.26
302.045	15.96
302.512	21.16
302.979	26.96
303.446	25.86
303.913	20.56
304.379	19.56
304.846	29.16
305.313	24.96
305.78	19.06
306.246	26.96
306.713	16.16
307.18	26.56
307.646	25.36
308.113	28.56
308.579	24.06
309.046	28.66
309.512	25.96
309.979	23.76
310.445	28.86
310.912	29.06
311.378	28.86
311.845	23.06
312.311	32.46
312.777	33.46
313.244	27.76
313.71	31.66
314.176	29.86
314.642	27.36
315.109	32.16
315.575	43.06
316.041	36.86
316.507	29.16
316.973	39.06
317.439	29.56
317.905	33.16
318.371	38.36
318.837	27.46
319.303	32.76
319.769	34.56
320.235	30.66
320.701	36.06
321.167	33.06
321.633	34.76
322.099	37.56
322.564	45.36
323.03	43.16
323.496	33.76
323.962	41.16
324.427	37.16
324.893	36.56
325.359	38.76
325.824	32.46
326.29	38.36
326.755	40.96
327.221	38.86
327.686	34.26
328.152	46.26
328.617	40.16
329.083	43.66
329.548	48.96
330.014	43.76
330.479	40.06
330.944	42.36
331.41	43.46
331.875	46.56
332.34	43.26
332.805	40.66
333.271	47.96
333.736	45.86
334.201	53.86
334.666	45.56
335.131	48.06
335.596	50.16
336.061	42.36
336.526	43.36
336.991	47.26
337.456	54.76
337.921	45.16
338.386	40.56
338.851	42.46
339.316	49.96
339.781	49.86
340.246	54.16
340.711	41.46
341.175	50.66
341.64	42.06
342.105	52.76
342.569	54.06
343.034	61.96
343.499	51.06
343.963	49.26
344.428	63.26
344.893	61.56
345.357	59.56
345.822	58.26
346.286	62.36
346.751	78.66
347.215	69.16
347.679	73.86
348.144	97.36
348.608	82.46
349.073	71.56
349.537	68.56
350.001	75.86
350.465	90.96
350.93	79.96
351.394	78.96
351.858	69.66
352.322	84.26
352.786	81.26
353.25	97.06
353.715	118.46
354.179	97.76
354.643	127.06
355.107	122.66
355.571	110.56
356.035	108.56
356.498	124.66
356.962	119.76
357.426	128.96
357.89	114.56
358.354	95.96
358.818	73.66
359.281	84.06
359.745	73.86
360.209	80.26
360.673	77.86
361.136	76.16
361.6	85.66
362.064	76.46
362.527	86.66
362.991	91.26
363.454	82.86
363.918	80.56
364.381	80.16
364.845	82.96
365.308	86.16
365.772	81.06
366.235	89.56
366.698	84.66
367.162	85.66
367.625	89.86
368.088	86.16
368.552	89.36
369.015	86.46
369.478	101.16
369.941	107.96
370.404	96.16
370.867	105.36
371.331	109.86
371.794	122.46
372.257	113.06
372.72	122.96
373.183	109.36
373.646	107.26
374.109	101.16
374.572	104.26
375.035	113.06
375.497	114.16
375.96	106.96
376.423	108.86
376.886	112.16
377.349	110.36
377.811	110.16
378.274	115.26
378.737	114.36
379.199	116.16
379.662	118.56
380.125	119.96
380.587	121.16
381.05	116.96
381.512	131.06
381.975	130.36
382.437	133.76
382.9	126.76
383.362	134.86
383.825	149.26
384.287	149.06
384.75	143.96
385.212	150.16
385.674	143.76
386.136	142.96
386.599	129.76
387.061	131.36
387.523	132.96
387.985	143.96
388.447	150.46
388.91	145.36
389.372	167.16
389.834	159.46
390.296	152.36
390.758	155.36
391.22	174.66
391.682	216.16
392.144	302.46
392.606	243.56
393.068	164.96
393.529	167.36
393.991	159.06
394.453	152.76
394.915	164.86
395.377	199.76
395.838	216.56
396.3	160.86
396.762	140.16
397.224	135.16
397.685	131.66
398.147	139.26
398.608	139.86
399.07	136.06
399.531	144.66
399.993	142.26
400.454	163.26
400.916	151.36
401.377	149.46
401.839	159.66
402.3	158.76
402.762	170.26
403.223	187.26
403.684	171.76
404.145	165.96
404.607	166.26
405.068	172.56
405.529	174.66
405.99	192.26
406.451	176.96
406.913	174.66
407.374	165.46
407.835	166.96
408.296	161.86
408.757	175.06
409.218	188.96
409.679	183.56
410.14	189.86
410.601	185.26
411.062	187.86
411.522	204.36
411.983	196.96
412.444	173.86
412.905	189.16
413.366	180.06
413.826	197.26
414.287	220.96
414.748	260.66
415.208	246.86
415.669	214.26
416.13	210.26
416.59	203.26
417.051	218.96
417.511	222.66
417.972	242.26
418.432	251.76
418.893	289.66
419.353	254.36
419.814	205.46
420.274	196.26
420.734	183.46
421.195	203.46
421.655	203.06
422.115	196.96
422.576	194.36
423.036	206.46
423.496	211.36
423.956	218.66
424.416	234.36
424.876	265.96
425.336	267.96
425.797	271.36
426.257	261.76
426.717	244.76
427.177	240.76
427.637	223.56
428.097	244.16
428.556	253.26
429.016	275.56
429.476	271.76
429.936	284.76
430.396	288.46
430.856	300.36
431.315	330.46
431.775	356.56
432.235	399.76
432.694	363.56
433.154	370.96
433.614	415.86
434.073	346.86
434.533	296.76
434.993	274.46
435.452	289.76
435.912	301.36
436.371	298.16
436.83	290.36
437.29	281.26
437.749	259.16
438.209	246.46
438.668	273.76
439.127	302.56
439.587	270.66
440.046	247.26
440.505	260.96
440.964	285.56
441.424	331.06
441.883	320.46
442.342	261.96
442.801	230.36
443.26	220.86
443.719	227.96
444.178	225.86
444.637	213.66
445.096	225.66
445.555	223.96
446.014	230.96
446.473	232.06
446.932	241.16
447.391	235.26
447.849	237.86
448.308	226.96
448.767	231.66
449.226	240.86
449.685	245.26
450.143	254.26
450.602	244.26
451.061	230.56
451.519	235.36
451.978	238.26
452.436	237.36
452.895	242.86
453.353	257.76
453.812	248.56
454.27	246.76
454.729	243.26
455.187	246.26
455.646	250.36
456.104	246.66
456.562	269.46
457.021	267.26
457.479	266.36
457.937	271.66
458.395	262.06
458.854	247.56
459.312	264.66
459.77	279.76
460.228	259.96
460.686	252.36
461.144	255.66
461.602	253.56
462.06	247.36
462.518	259.26
462.976	262.56
463.434	267.56
463.892	265.76
464.35	280.16
464.808	293.86
465.266	273.96
465.724	267.46
466.181	275.26
466.639	274.76
467.097	296.36
467.555	303.66
468.012	309.56
468.47	311.16
468.928	339.96
469.385	349.56
469.843	358.66
470.3	355.76
470.758	362.86
471.215	394.56
471.673	414.46
472.13	419.46
472.588	430.56
473.045	383.46
473.503	390.16
473.96	404.66
474.417	409.06
474.875	431.86
475.332	485.36
475.789	464.76
476.246	473.86
476.704	501.76
477.161	514.26
477.618	537.26
478.075	576.86
478.532	636.16
478.989	713.56
479.446	819.56
479.903	791.76
480.36	828.16
480.817	875.46
481.274	976.86
481.731	1083.16
482.188	1176.46
482.645	1318.46
483.102	1421.96
483.558	1566.56
484.015	1619.66
484.472	1584.06
484.929	1552.16
485.385	1498.06
485.842	1449.96
486.299	1366.96
486.755	1321.16
487.212	1113.26
487.668	943.96
488.125	858.26
488.582	787.46
489.038	754.56
489.494	724.46
489.951	692.56
490.407	676.86
490.864	656.76
491.32	658.26
491.776	644.26
492.233	662.06
492.689	617.06
493.145	618.76
493.602	603.46
494.058	628.16
494.514	633.56
494.97	645.26
495.426	656.76
495.882	627.26
496.338	622.56
496.794	617.56
497.251	622.16
497.707	636.36
498.163	632.66
498.618	643.36
499.074	660.16
499.53	684.16
499.986	683.96
500.442	654.06
500.898	641.76
501.354	636.36
501.809	640.66
502.265	654.56
502.721	670.66
503.177	681.06
503.632	670.66
504.088	686.76
504.543	721.26
504.999	720.16
505.455	669.56
505.91	644.96
506.366	633.76
506.821	634.46
507.277	629.76
507.732	632.96
508.187	631.96
508.643	637.96
509.098	642.16
509.553	659.06
510.009	670.96
510.464	665.16
510.919	691.66
511.375	705.66
511.83	710.26
512.285	719.56
512.74	764.66
513.195	790.96
513.65	773.26
514.105	759.46
514.56	779.16
515.015	795.46
515.47	804.66
515.925	799.86
516.38	786.26
516.835	800.26
517.29	788.96
517.745	779.56
518.2	762.36
518.655	748.26
519.109	745.36
519.564	739.66
520.019	730.96
520.474	725.36
520.928	728.56
521.383	718.36
521.838	723.46
522.292	717.66
522.747	725.26
523.201	712.36
523.656	701.26
524.11	701.96
524.565	702.66
525.019	695.96
525.474	698.16
525.928	709.46
526.382	687.76
526.837	696.56
527.291	698.06
527.745	700.96
528.2	694.76
528.654	695.76
529.108	685.76
529.562	706.86
530.016	697.66
530.47	700.36
530.925	697.26
531.379	697.06
531.833	702.46
532.287	702.36
532.741	702.66
533.195	699.26
533.649	718.06
534.103	723.86
534.556	718.86
535.01	712.36
535.464	716.56
535.918	721.26
536.372	724.96
536.826	717.36
537.279	713.46
537.733	714.96
538.187	726.66
538.64	721.16
539.094	726.96
539.548	739.16
540.001	719.86
540.455	728.36
540.908	726.66
541.362	748.06
541.815	750.16
542.269	760.46
542.722	757.16
543.175	781.26
543.629	776.46
544.082	792.66
544.536	794.76
544.989	790.06
545.442	801.36
545.895	794.36
546.349	795.16
546.802	796.26
547.255	794.76
547.708	812.76
548.161	819.96
548.614	836.46
549.067	841.46
549.52	825.96
549.973	817.16
550.426	807.66
550.879	796.16
551.332	803.26
551.785	805.46
552.238	809.56
552.691	827.16
553.144	835.16
553.596	862.26
554.049	868.46
554.502	901.36
554.955	908.16
555.407	917.76
555.86	893.96
556.313	897.46
556.765	880.56
557.218	892.86
557.67	889.96
558.123	886.56
558.576	879.26
559.028	882.56
559.48	877.26
559.933	884.36
560.385	854.56
560.838	818.96
561.29	784.36
561.742	791.36
562.195	777.26
562.647	766.36
563.099	791.46
563.551	780.26
564.004	795.26
564.456	780.96
564.908	773.26
565.36	764.26
565.812	743.96
566.264	741.76
566.716	739.26
567.168	724.96
567.62	726.66
568.072	710.66
568.524	697.46
568.976	698.76
569.428	691.66
569.88	683.96
570.332	690.36
570.784	688.16
571.235	692.56
571.687	691.26
572.139	705.06
572.59	724.46
573.042	714.56
573.494	715.76
573.945	716.76
574.397	688.06
574.849	695.16
575.3	703.56
575.752	683.66
576.203	684.96
576.655	690.86
577.106	680.66
577.557	669.06
578.009	672.76
578.46	667.96
578.912	669.06
579.363	663.26
579.814	671.06
580.265	675.06
580.717	671.56
581.168	677.06
581.619	683.56
582.07	688.96
582.521	689.26
582.972	688.46
583.423	687.06
583.875	686.26
584.326	712.96
584.777	758.86
585.227	849.56
585.678	945.46
586.129	1032.76
586.58	1108.06
587.031	1175.66
587.482	1349.06
587.933	1526.26
588.384	1333.66
588.834	994.86
589.285	821.96
589.736	790.66
590.186	790.36
590.637	778.46
591.088	753.56
591.538	744.16
591.989	746.16
592.439	734.36
592.89	736.26
593.34	715.16
593.791	714.66
594.241	720.16
594.692	719.06
595.142	711.86
595.593	707.46
596.043	714.66
596.493	715.06
596.943	726.96
597.394	732.36
597.844	732.06
598.294	752.46
598.744	768.46
599.195	785.36
599.645	821.96
600.095	867.76
600.545	931.66
600.995	983.66
601.445	1034.16
601.895	1101.36
602.345	1146.26
602.795	1120.76
603.245	1069.96
603.695	1018.86
604.145	973.96
604.594	914.36
605.044	868.26
605.494	810.06
605.944	757.66
606.393	752.96
606.843	739.56
607.293	746.86
607.743	738.56
608.192	751.16
608.642	766.66
609.091	776.16
609.541	794.26
609.99	776.06
610.44	779.76
610.889	734.36
611.339	717.16
611.788	697.16
612.238	705.76
612.687	734.46
613.136	733.26
613.586	743.56
614.035	750.06
614.484	768.36
614.933	772.66
615.383	762.26
615.832	751.96
616.281	734.96
616.73	697.26
617.179	676.76
617.628	660.46
618.077	651.96
618.526	639.86
618.975	629.86
619.424	625.06
619.873	625.56
620.322	627.46
620.771	609.06
621.22	607.06
621.669	601.56
622.118	600.66
622.567	583.06
623.015	575.26
623.464	568.66
623.913	569.26
624.361	560.46
624.81	560.46
625.259	563.86
625.707	568.06
626.156	568.56
626.604	575.26
627.053	568.26
627.501	577.46
627.95	583.96
628.398	577.96
628.847	571.36
629.295	582.26
629.744	586.86
630.192	578.86
630.64	576.96
631.089	581.56
631.537	594.46
631.985	598.06
632.433	620.86
632.881	629.06
633.33	679.66
633.778	659.36
634.226	579.86
634.674	581.46
635.122	597.46
635.57	611.86
636.018	647.76
636.466	587.26
636.914	567.36
637.362	579.56
637.81	584.26
638.258	585.16
638.705	586.46
639.153	617.66
639.601	626.86
640.049	648.46
640.497	687.06
640.944	703.56
641.392	651.26
641.84	619.26
642.287	586.36
642.735	580.16
643.182	578.56
643.63	574.06
644.078	584.26
644.525	589.66
644.973	601.06
645.42	614.86
645.867	632.56
646.315	643.36
646.762	670.66
647.21	702.66
647.657	721.96
648.104	764.56
648.551	785.56
648.999	859.06
649.446	931.46
649.893	1022.06
650.34	1185.96
650.787	1422.46
651.234	1774.06
651.682	2331.16
652.129	3219.46
652.576	4617.66
653.023	6786.26
653.47	9303.86
653.917	11549.56
654.363	13220.16
654.81	14507.36
655.257	13818.56
655.704	9066.26
656.151	5336.46
656.598	3452.56
657.044	2454.66
657.491	1892.36
657.938	1507.36
658.385	1265.06
658.831	1089.76
659.278	979.16
659.724	874.86
660.171	800.76
660.618	730.26
661.064	698.26
661.511	685.96
661.957	658.66
662.404	653.46
662.85	660.46
663.296	632.26
663.743	574.16
664.189	544.86
664.635	538.16
665.082	534.26
665.528	538.46
665.974	524.36
666.42	513.96
666.867	519.66
667.313	493.46
667.759	491.86
668.205	493.46
668.651	490.36
669.097	497.96
669.543	516.76
669.989	470.76
670.435	457.06
670.881	450.26
671.327	457.76
671.773	479.16
672.219	493.56
672.665	555.96
673.11	608.26
673.556	636.16
674.002	681.36
674.448	657.16
674.893	549.66
675.339	484.86
675.785	445.66
676.23	421.06
676.676	400.26
677.122	388.96
677.567	373.96
678.013	370.06
678.458	361.66
678.904	371.26
679.349	354.06
679.794	367.46
680.24	362.36
680.685	361.66
681.131	353.86
681.576	354.36
682.021	361.06
682.466	351.46
682.912	352.76
683.357	354.76
683.802	388.26
684.247	421.56
684.692	456.26
685.137	492.46
685.583	541.56
686.028	556.56
686.473	520.56
686.918	448.66
687.363	418.76
687.807	400.16
688.252	364.96
688.697	351.76
689.142	343.76
689.587	338.66
690.032	330.46
690.477	342.76
690.921	359.46
691.366	391.76
691.811	404.86
692.255	432.76
692.7	472.46
693.145	512.46
693.589	725.26
694.034	1159.76
694.478	1569.56
694.923	1725.26
695.367	2254.16
695.812	1194.36
696.256	500.36
696.701	366.86
697.145	343.96
697.59	328.66
698.034	323.86
698.478	331.96
698.922	325.86
699.367	329.86
699.811	337.26
700.255	372.46
700.699	393.96
701.143	433.96
701.588	485.36
702.032	516.46
702.476	518.26
702.92	496.66
703.364	508.66
703.808	665.36
704.252	1078.06
704.696	1490.26
705.14	1679.76
705.584	2126.76
706.027	1065.16
706.471	526.26
706.915	398.66
707.359	358.96
707.803	328.46
708.246	318.06
708.69	316.96
709.134	318.36
709.577	319.16
710.021	328.26
710.465	314.46
710.908	298.76
711.352	306.86
711.795	312.66
712.239	365.76
712.682	383.36
713.126	429.96
713.569	476.06
714.012	375.46
714.456	328.96
714.899	302.86
715.342	281.16
715.786	261.56
716.229	258.46
716.672	260.86
717.115	249.36
717.558	251.96
718.002	259.36
718.445	260.86
718.888	293.46
719.331	297.86
719.774	313.16
720.217	307.86
720.66	281.66
721.103	272.46
721.546	261.66
721.989	249.76
722.432	234.26
722.874	238.86
723.317	234.86
723.76	240.06
724.203	262.76
724.645	326.06
725.088	455.46
725.531	572.86
725.974	638.86
726.416	558.56
726.859	308.36
727.301	252.76
727.744	244.06
728.187	239.76
728.629	238.86
729.071	241.96
729.514	271.16
729.956	271.26
730.399	289.06
730.841	296.06
731.283	281.26
731.726	264.16
732.168	260.16
732.61	273.26
733.053	288.66
733.495	318.86
733.937	355.66
734.379	399.16
734.821	438.86
735.263	556.66
735.705	862.96
736.148	1639.56
736.59	2616.26
737.032	3029.96
737.474	2455.36
737.916	816.26
738.357	430.16
738.799	332.76
739.241	305.26
739.683	287.16
740.125	300.96
740.567	298.86
741.008	317.46
741.45	316.76
741.892	321.26
742.334	347.06
742.775	363.16
743.217	343.66
743.658	268.46
744.1	257.16
744.542	257.76
744.983	316.06
745.425	341.56
745.866	338.66
746.307	289.86
746.749	287.26
747.19	324.96
747.632	474.96
748.073	928.66
748.514	1927.86
748.956	2877.76
749.397	3627.36
749.838	2979.26
750.279	2944.56
750.72	1495.26
751.162	553.66
751.603	323.66
752.044	254.76
752.485	221.26
752.926	214.26
753.367	209.26
753.808	191.76
754.249	189.96
754.69	191.16
755.131	186.76
755.572	185.36
756.013	178.76
756.453	188.96
756.894	188.06
757.335	184.96
757.776	200.06
758.216	203.86
758.657	205.26
759.098	201.46
759.538	232.26
759.979	276.06
760.42	385.86
760.86	732.26
761.301	1912.46
761.741	4536.96
762.182	6375.86
762.622	4465.96
763.063	1308.56
763.503	541.06
763.943	351.96
764.384	352.46
764.824	420.36
765.264	448.96
765.705	320.86
766.145	218.96
766.585	199.16
767.025	183.46
767.465	192.76
767.906	259.16
768.346	328.26
768.786	351.66
769.226	274.96
769.666	325.66
770.106	653.16
770.546	1605.46
770.986	2653.06
771.426	2342.76
771.866	795.06
772.306	330.26
772.745	212.86
773.185	172.26
773.625	173.36
774.065	167.16
774.505	204.66
774.944	320.16
775.384	716.36
775.824	1250.16
776.263	1195.26
776.703	517.16
777.142	224.56
777.582	160.06
778.021	136.16
778.461	140.56
778.9	151.16
779.34	138.36
779.779	121.36
780.219	111.96
780.658	113.16
781.097	116.56
781.537	112.66
781.976	115.66
782.415	109.36
782.855	106.16
783.294	104.66
783.733	111.66
784.172	113.46
784.611	103.76
785.05	111.66
785.489	120.56
785.928	122.86
786.367	123.36
786.806	119.46
787.245	136.86
787.684	138.66
788.123	148.06
788.562	135.26
789.001	128.16
789.44	124.16
789.879	114.26
790.317	123.96
790.756	128.86
791.195	129.46
791.634	145.96
792.072	207.86
792.511	381.86
792.95	1051.46
793.388	2150.86
793.827	1916.66
794.265	685.36
794.704	289.96
795.142	191.16
795.581	159.66
796.019	139.66
796.458	129.86
796.896	136.66
797.334	135.26
797.773	156.26
798.211	227.46
798.649	456.26
799.087	1044.66
799.526	1623.26
799.964	2033.96
800.402	2000.96
800.84	760.66
801.278	302.16
801.716	185.16
802.154	156.86
802.592	143.66
803.03	139.06
803.468	134.26
803.906	144.86
804.344	151.16
804.782	136.76
805.22	139.06
805.658	130.16
806.096	146.16
806.533	155.66
806.971	174.76
807.409	215.46
807.847	320.06
808.284	695.96
808.722	1923.46
809.16	3300.86
809.597	3195.46
810.035	5506.96
810.472	5675.96
810.91	2078.96
811.347	800.06
811.785	404.96
812.222	262.16
812.66	197.06
813.097	164.86
813.535	144.06
813.972	128.46
814.409	120.86
814.846	107.96
815.284	108.56
815.721	104.06
816.158	110.36
816.595	128.56
817.032	186.96
817.47	203.36
817.907	168.26
818.344	155.56
818.781	123.26
819.218	105.66
819.655	125.96
820.092	186.66
820.529	215.36
820.966	178.46
821.403	137.66
821.839	108.86
822.276	108.16
822.713	124.86
823.15	139.56
823.587	114.26
824.023	141.76
824.46	306.76
824.897	923.56
825.333	1343.86
825.77	579.16
826.206	231.56
826.643	128.76
827.08	105.56
827.516	84.26
827.953	81.66
828.389	80.66
828.825	75.86
829.262	71.56
829.698	63.46
830.135	63.96
830.571	64.86
831.007	67.26
831.443	68.56
831.88	68.86
832.316	72.56
832.752	60.46
833.188	59.06
833.624	66.66
834.06	70.46
834.497	65.16
834.933	74.26
835.369	81.16
835.805	71.66
836.241	83.26
836.677	81.96
837.112	93.46
837.548	100.96
837.984	133.16
838.42	207.66
838.856	516.76
839.292	1548.76
839.727	2283.86
840.163	1072.56
840.599	951.16
841.034	2052.46
841.47	2103.26
841.906	773.76
842.341	345.16
842.777	240.66
843.212	324.76
843.648	313.16
844.083	149.16
844.519	100.76
844.954	77.36
845.39	59.16
845.825	53.66
846.261	58.36
846.696	62.46
847.131	56.66
847.566	58.26
848.002	50.96
848.437	53.46
848.872	59.76
849.307	64.66
849.742	91.66
850.177	183.96
850.613	562.96
851.048	884.26
851.483	377.56
851.918	156.36
852.353	90.76
852.788	63.96
853.223	59.26
853.657	53.56
854.092	52.76
854.527	42.76
854.962	40.76
855.397	41.66
855.832	49.26
856.266	40.96
856.701	42.26
857.136	36.86
857.57	38.76
858.005	51.46
858.44	56.66
858.874	42.36
859.309	51.56
859.743	45.26
860.178	43.66
860.612	48.66
861.047	56.66
861.481	66.66
861.915	69.16
862.35	44.76
862.784	29.16
863.218	40.16
863.653	34.06
864.087	51.96
864.521	56.06
864.955	72.96
865.39	160.26
865.824	163.06
866.258	112.56
866.692	162.86
867.126	169.66
867.56	105.86
867.994	46.56
868.428	37.16
868.862	43.36
869.296	49.96
869.73	61.26
870.164	58.76
870.598	47.46
871.031	36.36
871.465	28.06
871.899	31.16
872.333	27.76
872.766	23.86
873.2	18.56
873.634	28.76
874.067	24.16
874.501	28.36
874.935	32.96
875.368	30.26
875.802	28.76
876.235	23.86
876.669	19.96
877.102	21.16
877.535	28.06
877.969	24.36
878.402	26.06
878.836	24.66
879.269	21.76
879.702	24.76
880.135	24.16
880.569	23.06
881.002	29.76
881.435	21.76
881.868	16.36
882.301	20.86
882.734	17.56
883.167	21.66
883.601	16.36
884.034	16.86
884.467	21.16
884.899	14.36
885.332	18.96
885.765	17.76
886.198	18.06
886.631	14.36
887.064	23.06
887.497	24.56
887.929	21.36
888.362	11.26
888.795	7.76
889.228	14.26
889.66	18.96
890.093	14.96
890.526	17.46
890.958	18.26
891.391	19.56
891.823	21.56
892.256	16.26
892.688	8.06
893.121	21.26
893.553	18.56
893.985	20.16
894.418	17.06
894.85	13.56
895.282	17.96
895.715	13.96
896.147	16.46
896.579	17.46
897.011	12.56
897.444	16.36
897.876	14.06
898.308	19.96
898.74	17.76
899.172	16.76
899.604	28.76
900.036	17.76
900.468	19.06
900.9	14.76
901.332	14.56
901.764	13.76
902.196	17.26
902.628	17.46
903.06	23.76
903.491	25.56
903.923	20.16
904.355	19.86
904.787	27.26
905.218	24.36
905.65	17.16
906.082	15.36
906.513	14.86
906.945	14.96
907.376	12.36
907.808	12.26
908.239	20.36
908.671	18.46
909.102	22.86
909.534	22.86
909.965	54.06
910.397	103.96
910.828	320.86
911.259	469.56
911.691	209.16
912.122	108.96
912.553	52.46
912.984	30.86
913.415	26.26
913.847	26.26
914.278	19.06
914.709	14.36
915.14	20.76
915.571	17.26
916.002	16.46
916.433	13.86
916.864	15.16
917.295	16.86
917.726	21.96
918.157	14.26
918.587	31.26
919.018	24.36
919.449	22.46
919.88	24.66
920.311	33.56
920.741	44.56
921.172	171.66
921.603	149.56
922.033	73.86
922.464	52.16
922.895	21.56
923.325	18.86
923.756	17.36
924.186	22.76
924.617	27.16
925.047	38.56
925.478	51.96
925.908	48.66
926.338	22.56
926.769	16.76
927.199	21.26
927.629	13.66
928.06	17.46
928.49	16.96
928.92	14.66
929.35	8.26
929.78	13.36
930.21	8.06
930.641	6.26
931.071	13.26
931.501	2.46
931.931	4.36
932.361	7.16
932.791	2.76
933.221	8.56
933.651	8.86
934.08	16.66
934.51	27.46
934.94	10.66
935.37	10.46
935.8	10.56
936.229	4.46
936.659	9.76
937.089	5.56
937.519	16.16
937.948	22.86
938.378	14.96
938.807	8.26
939.237	3.56
939.666	11.96
940.096	-5.14
940.525	1.06
940.955	3.96
941.384	2.86
941.814	-9.54
942.243	-5.74
942.672	8.76
943.102	-2.24
943.531	-1.04
943.96	3.46
944.39	4.06
944.819	0.96
945.248	-5.04
945.677	-2.44
946.106	7.96
946.535	4.66
946.964	4.36
947.393	1.36
947.822	2.16
948.251	-7.14
948.68	2.76
949.109	7.36
949.538	10.86
949.967	-0.34
950.396	1.36
950.825	-0.44
951.254	-0.04
951.682	-4.24
952.111	4.16
952.54	3.16
952.969	-3.84
953.397	-8.54
953.826	1.56
954.254	-9.84
954.683	0.86
955.112	-0.64
955.54	0.16
955.969	5.56
956.397	-1.74
956.826	-3.64
957.254	2.26
957.682	7.46
958.111	4.86
958.539	0.46
958.967	-2.64
959.396	4.06
959.824	4.26
960.252	3.76
960.68	-3.14
961.109	0.66
961.537	-4.04
961.965	-2.64
962.393	2.76
962.821	0.76
963.249	-0.54
963.677	1.86
964.105	3.46
964.533	49.46
964.961	39.26
965.389	23.16
965.817	10.66
966.245	2.16
966.672	1.56
967.1	-3.14
967.528	0.16
967.956	-1.04
968.383	4.26
968.811	0.26
969.239	4.06
969.666	-2.24
970.094	0.26
970.522	5.46
970.949	0.66
971.377	-7.54
971.804	0.96
972.232	-1.04
972.659	-2.24
973.087	-3.44
973.514	-5.74
973.941	-7.74
974.369	-1.54
974.796	3.26
975.223	1.26
975.651	-1.84
976.078	3.76
976.505	-0.74
976.932	2.26
977.359	12.16
977.786	16.76
978.214	2.96
978.641	-0.44
979.068	-0.74
979.495	-5.04
979.922	-6.94
980.349	-2.74
980.776	3.66
981.202	0.26
981.629	2.16
982.056	4.46
982.483	4.36
982.91	4.96
983.337	-6.24
983.763	3.06
984.19	-5.94
984.617	-2.34
985.043	-7.74
985.47	-7.34
985.897	-3.74
986.323	-0.64
986.75	6.06
987.176	-4.14
987.603	-4.24
988.029	-2.04
988.456	1.36
988.882	4.96
989.308	-3.84
989.735	-2.24
990.161	0.66
990.587	-4.04
991.014	-2.64
991.44	2.16
991.866	-2.24
992.292	-5.54
992.719	-1.14
993.145	1.56
993.571	-2.64
993.997	-2.74
994.423	-7.04
994.849	-4.84
995.275	2.16
995.701	-0.04
996.127	-5.64
996.553	0.46
996.979	-2.34
997.405	0.16
997.83	-0.34
998.256	-6.44
998.682	-6.04
999.108	-6.24
999.534	-0.64
999.959	-2.64
1000.385	-2.04
1000.811	1.06
1001.236	-8.64
1001.662	-8.54
1002.087	-1.74
1002.513	5.86
1002.938	0.86
1003.364	-0.14
1003.789	-1.24
1004.215	3.06
1004.64	-3.44
1005.066	2.36
1005.491	0.86
1005.916	-4.64
1006.342	-5.74
1006.767	-10.84
1007.192	6.76
1007.617	-2.34
1008.042	-6.94
1008.468	-8.34
1008.893	-4.74
1009.318	-0.64
1009.743	-1.44
1010.168	-0.44
1010.593	-1.24
1011.018	-10.34
1011.443	-4.74
1011.868	-4.94
1012.293	-0.34
1012.718	-2.14
1013.143	3.66
1013.567	-0.84
1013.992	-5.44
1014.417	-7.04
1014.842	1.06
1015.267	0.66
1015.691	-2.74
1016.116	4.86
1016.541	-3.14
1016.965	-2.94
1017.39	4.46
1017.814	-6.94
1018.239	-2.84
1018.663	-6.64
1019.088	-14.14
1019.512	-6.74
1019.937	0.56
1020.361	-3.54
1020.785	-14.94
1021.21	-0.74
1021.634	-2.54
1022.058	-3.54
1022.483	0.86
1022.907	1.66
1023.331	-3.44
1023.755	-6.84
1024.179	-3.14
1024.604	-8.84
1025.028	-5.94
1025.452	-6.04
1025.876	-3.74
1026.3	-0.64
1026.724	-12.04
1027.148	-13.44
1027.572	-7.54
1027.996	-6.64
1028.42	0.96
1028.843	-1.94
1029.267	-3.84
1029.691	0.86
1030.115	-4.04
1030.539	-8.44
1030.962	-6.64
1031.386	-8.04
1031.81	-4.44
1032.233	-0.94
1032.657	2.76
1033.08	-1.84
1033.504	-3.94
1033.927	-5.54
1034.351	1.16
1034.774	-9.24
1035.198	-3.04
1035.621	-1.34
1036.045	-6.84
1036.468	2.56
1036.891	-5.34
1037.315	-15.34
1037.738	-12.04
1038.161	0.96
1038.584	-5.54
1039.008	-6.44
1039.431	-1.24
1039.854	0.16
1040.277	-5.24
1040.7	-14.94
1041.123	0.56
1041.546	-13.24
1041.969	-5.44
1042.392	-5.94
1042.815	0.26
1043.238	-1.54
1043.661	2.86
1044.084	-3.84
1044.507	-2.24
1044.93	-4.34
1045.352	-1.14
1045.775	-0.64
1046.198	0.16
1046.621	-6.54
1047.043	2.66
1047.466	4.16
1047.889	-7.04
1048.311	-7.74
1048.734	-5.44
1049.156	0.26
1049.579	-2.54
1050.001	-2.54
1050.424	0.56
1050.846	-6.14
1051.269	-2.14
1051.691	-3.74
1052.113	-0.94
1052.536	-3.14
1052.958	-4.84
1053.38	-2.34
1053.802	-7.94
1054.225	1.36
1054.647	-10.54
1055.069	-2.54
1055.491	-1.84
1055.913	-4.74
1056.335	1.06
1056.757	-6.24
1057.179	-5.44
1057.601	-0.74
1058.023	-0.14
1058.445	-1.64
1058.867	0.26
1059.289	-0.04
1059.711	-4.64
1060.133	-4.44
1060.555	-6.84
1060.976	-6.64
1061.398	-5.74
1061.82	-4.94
1062.241	-5.84
1062.663	-11.04
1063.085	-5.24
1063.506	-5.54
1063.928	-7.44
1064.35	2.96
1064.771	-13.34
1065.193	-2.24
1065.614	-4.84
1066.035	-4.64
1066.457	-4.64
1066.878	1.86
1067.3	-3.84
1067.721	-0.44
1068.142	3.56
1068.564	0.16
1068.985	-4.04
1069.406	-5.54
1069.827	-6.94
1070.248	-1.84
1070.67	-12.24
1071.091	-9.24
1071.512	-5.94
1071.933	-6.04
1072.354	-5.94
1072.775	-10.24
1073.196	-7.24
1073.617	-7.74
1074.038	-5.24
1074.459	-1.04
1074.88	-5.94
1075.3	-2.24
1075.721	-5.04
1076.142	-2.64
1076.563	-2.14
1076.983	-16.54
1077.404	-10.64
1077.825	-6.84
1078.246	-5.94
1078.666	-11.34
1079.087	-6.34
1079.507	-6.74
1079.928	0.06
1080.348	-3.74
1080.769	-4.44
1081.189	-5.04
1081.61	-0.44
1082.03	-3.94
1082.451	-5.84
1082.871	-7.34
1083.291	-6.84
1083.711	-14.44
1084.132	-2.74
1084.552	-1.44
1084.972	-7.24
1085.392	-12.04
1085.813	-10.34
1086.233	-6.74
1086.653	-5.64
1087.073	-1.84
1087.493	-3.84
1087.913	-8.34
1088.333	-8.64
1088.753	-4.34
1089.173	6.76
1089.593	-5.44
1090.013	0.76
1090.433	1.26
1090.852	-3.14
1091.272	2.16
1091.692	-3.84
1092.112	2.16
1092.531	-9.34
1092.951	-9.24
1093.371	2.46
1093.79	4.76
1094.21	-10.34
1094.63	-5.74
1095.049	-7.64
1095.469	-1.54
1095.888	-8.64
1096.308	2.46
1096.727	5.36
1097.146	-4.54
1097.566	-3.74
1097.985	-0.94
1098.405	-1.84
1098.824	-9.24
1099.243	-7.34
1099.662	-9.84
1100.082	-5.64
1100.501	-4.24
1100.92	-4.74
1101.339	-10.34
1101.758	-7.24
