Data from 20171114-ORNL-Ar_H_NY_Subt18_08-08-02-827.txt Node
Date: Tue Nov 14 08:08:02 EST 2017
User: Ender
Spectrometer: HR+D1039
Trigger mode: 0
Integration Time (sec): 2.730000E-2
Scans to average: 10
Electric dark correction enabled: true
Nonlinearity correction enabled: false
Boxcar width: 0
XAxis mode: Wavelengths
Number of Pixels in Spectrum: 2048
>>>>>Begin Spectral Data<<<<<
187.836	-4.42
188.309	-4.42
188.782	-4.42
189.255	0.58
189.728	-1.32
190.201	4.18
190.674	1.88
191.147	0.58
191.619	-2.82
192.092	5.38
192.565	5.88
193.038	-0.72
193.511	-1.62
193.984	-0.62
194.456	-1.02
194.929	-0.72
195.402	-6.22
195.874	0.98
196.347	-4.12
196.82	-8.52
197.292	10.78
197.765	1.68
198.237	-5.72
198.71	6.08
199.182	-3.72
199.655	2.08
200.127	4.18
200.6	-2.92
201.072	1.48
201.544	-9.32
202.017	-7.12
202.489	4.68
202.961	-5.42
203.433	-2.02
203.906	-4.42
204.378	1.18
204.85	-3.12
205.322	-9.02
205.794	-1.92
206.266	2.58
206.739	-7.92
207.211	0.68
207.683	-5.72
208.155	-7.12
208.627	-6.02
209.099	-5.02
209.57	-5.62
210.042	-6.32
210.514	0.18
210.986	-0.92
211.458	-5.92
211.93	0.08
212.402	-0.72
212.873	-6.42
213.345	-9.62
213.817	-7.92
214.288	-6.22
214.76	-10.12
215.232	-1.72
215.703	-2.32
216.175	-2.42
216.646	-5.52
217.118	-6.82
217.589	-3.22
218.061	2.18
218.532	-4.32
219.004	-0.42
219.475	-1.72
219.946	-5.22
220.418	-4.52
220.889	4.78
221.36	5.78
221.832	-5.92
222.303	-1.82
222.774	5.18
223.245	-12.32
223.717	-3.72
224.188	-4.42
224.659	-5.02
225.13	-6.02
225.601	0.58
226.072	-1.72
226.543	0.38
227.014	3.78
227.485	-2.52
227.956	-7.52
228.427	-4.82
228.898	6.98
229.369	-0.82
229.839	-3.02
230.31	-2.52
230.781	4.28
231.252	-2.82
231.722	-1.72
232.193	-4.12
232.664	0.08
233.135	6.48
233.605	-2.62
234.076	-12.82
234.546	-0.12
235.017	2.58
235.487	6.08
235.958	8.58
236.428	-7.22
236.899	4.38
237.369	6.28
237.84	-3.72
238.31	7.88
238.78	3.58
239.251	1.08
239.721	-1.42
240.191	1.88
240.662	2.58
241.132	0.68
241.602	-1.62
242.072	-3.32
242.542	8.98
243.013	-2.82
243.483	7.28
243.953	2.48
244.423	3.08
244.893	1.08
245.363	5.58
245.833	4.98
246.303	1.38
246.773	12.28
247.243	1.58
247.712	-0.42
248.182	9.28
248.652	4.08
249.122	-5.22
249.592	4.78
250.061	21.08
250.531	34.38
251.001	16.38
251.471	20.28
251.94	23.78
252.41	11.48
252.879	-0.52
253.349	11.28
253.818	7.88
254.288	5.08
254.757	3.78
255.227	2.18
255.696	3.68
256.166	6.98
256.635	11.48
257.105	11.28
257.574	3.68
258.043	8.68
258.513	9.78
258.982	12.58
259.451	7.78
259.92	12.48
260.389	8.08
260.859	13.58
261.328	17.48
261.797	20.98
262.266	10.58
262.735	9.18
263.204	8.28
263.673	-1.82
264.142	4.58
264.611	-4.12
265.08	-3.72
265.549	1.08
266.018	4.08
266.487	-1.82
266.955	-3.52
267.424	-2.22
267.893	8.58
268.362	-2.32
268.83	2.78
269.299	9.18
269.768	7.28
270.236	5.38
270.705	-1.92
271.174	3.38
271.642	2.98
272.111	9.68
272.579	15.28
273.048	21.28
273.516	28.08
273.985	25.88
274.453	27.68
274.922	19.68
275.39	16.18
275.858	9.28
276.327	14.48
276.795	9.28
277.263	11.28
277.731	26.38
278.2	58.28
278.668	56.08
279.136	47.58
279.604	14.78
280.072	15.38
280.54	15.18
281.008	13.08
281.477	18.68
281.945	8.68
282.413	17.88
282.881	13.68
283.348	11.18
283.816	15.58
284.284	19.98
284.752	19.48
285.22	11.88
285.688	17.28
286.156	22.18
286.623	45.38
287.091	50.28
287.559	30.88
288.026	17.98
288.494	20.28
288.962	3.78
289.429	8.28
289.897	18.88
290.364	15.18
290.832	16.88
291.3	12.38
291.767	17.38
292.234	18.18
292.702	14.58
293.169	18.88
293.637	20.08
294.104	23.58
294.571	10.68
295.039	14.28
295.506	14.68
295.973	14.78
296.44	13.88
296.908	14.38
297.375	17.18
297.842	19.28
298.309	17.88
298.776	14.08
299.243	21.58
299.71	8.08
300.177	20.78
300.644	23.08
301.111	22.38
301.578	25.18
302.045	16.88
302.512	22.88
302.979	30.08
303.446	19.88
303.913	18.68
304.379	18.58
304.846	20.88
305.313	22.68
305.78	22.58
306.246	19.98
306.713	24.98
307.18	24.58
307.646	31.28
308.113	28.38
308.579	26.28
309.046	25.68
309.512	24.28
309.979	17.18
310.445	19.38
310.912	25.58
311.378	27.18
311.845	25.88
312.311	25.88
312.777	33.58
313.244	27.98
313.71	36.58
314.176	32.98
314.642	26.78
315.109	28.08
315.575	30.68
316.041	39.28
316.507	32.58
316.973	41.08
317.439	36.78
317.905	38.18
318.371	41.28
318.837	27.88
319.303	31.08
319.769	33.28
320.235	30.58
320.701	38.18
321.167	40.08
321.633	31.78
322.099	32.98
322.564	35.98
323.03	37.48
323.496	43.08
323.962	37.08
324.427	41.88
324.893	41.38
325.359	31.58
325.824	34.08
326.29	39.28
326.755	37.78
327.221	40.08
327.686	40.58
328.152	41.88
328.617	41.18
329.083	42.68
329.548	53.18
330.014	45.48
330.479	33.58
330.944	42.48
331.41	42.48
331.875	45.98
332.34	42.28
332.805	42.38
333.271	48.48
333.736	44.38
334.201	52.68
334.666	49.28
335.131	47.08
335.596	50.88
336.061	53.68
336.526	41.08
336.991	49.28
337.456	58.28
337.921	51.28
338.386	49.08
338.851	44.48
339.316	45.68
339.781	45.48
340.246	48.38
340.711	49.38
341.175	48.28
341.64	40.18
342.105	52.68
342.569	53.48
343.034	60.78
343.499	50.98
343.963	50.18
344.428	60.18
344.893	58.68
345.357	60.78
345.822	55.78
346.286	66.98
346.751	69.68
347.215	66.28
347.679	70.18
348.144	90.88
348.608	86.28
349.073	70.18
349.537	69.78
350.001	78.08
350.465	85.58
350.93	76.88
351.394	90.58
351.858	65.38
352.322	86.28
352.786	83.28
353.25	103.28
353.715	117.68
354.179	101.78
354.643	124.08
355.107	122.68
355.571	106.88
356.035	109.68
356.498	120.48
356.962	126.18
357.426	131.08
357.89	121.88
358.354	93.78
358.818	82.58
359.281	79.68
359.745	74.08
360.209	77.28
360.673	72.58
361.136	80.68
361.6	85.98
362.064	80.98
362.527	82.28
362.991	89.78
363.454	78.98
363.918	81.18
364.381	78.18
364.845	85.28
365.308	86.68
365.772	87.68
366.235	86.58
366.698	82.18
367.162	87.08
367.625	83.48
368.088	93.88
368.552	91.78
369.015	88.68
369.478	98.98
369.941	97.88
370.404	100.78
370.867	101.68
371.331	106.38
371.794	111.78
372.257	113.88
372.72	113.68
373.183	109.28
373.646	104.58
374.109	100.68
374.572	106.28
375.035	103.68
375.497	108.58
375.96	104.88
376.423	107.38
376.886	112.48
377.349	107.78
377.811	102.78
378.274	114.78
378.737	113.18
379.199	110.08
379.662	118.38
380.125	120.88
380.587	113.08
381.05	122.68
381.512	135.58
381.975	135.98
382.437	133.78
382.9	135.58
383.362	133.38
383.825	148.88
384.287	155.18
384.75	146.58
385.212	137.78
385.674	141.48
386.136	141.38
386.599	127.68
387.061	131.58
387.523	129.38
387.985	138.58
388.447	138.98
388.91	146.48
389.372	161.68
389.834	159.38
390.296	146.98
390.758	156.88
391.22	176.18
391.682	219.28
392.144	309.98
392.606	234.78
393.068	168.18
393.529	171.38
393.991	157.88
394.453	154.48
394.915	166.98
395.377	207.28
395.838	221.98
396.3	159.18
396.762	142.08
397.224	136.88
397.685	129.38
398.147	130.98
398.608	127.98
399.07	130.18
399.531	141.08
399.993	140.98
400.454	154.48
400.916	147.18
401.377	150.78
401.839	155.98
402.3	152.78
402.762	169.38
403.223	180.48
403.684	173.18
404.145	159.48
404.607	163.88
405.068	158.38
405.529	169.28
405.99	189.08
406.451	179.38
406.913	174.38
407.374	167.68
407.835	161.58
408.296	165.98
408.757	175.98
409.218	191.38
409.679	181.38
410.14	178.58
410.601	182.38
411.062	184.28
411.522	199.88
411.983	192.28
412.444	183.88
412.905	190.28
413.366	191.18
413.826	196.28
414.287	218.38
414.748	268.98
415.208	241.48
415.669	219.88
416.13	203.28
416.59	197.08
417.051	214.68
417.511	216.38
417.972	245.58
418.432	249.78
418.893	291.18
419.353	246.68
419.814	203.78
420.274	186.98
420.734	179.58
421.195	194.78
421.655	198.58
422.115	199.38
422.576	194.38
423.036	203.48
423.496	214.48
423.956	218.58
424.416	236.48
424.876	267.18
425.336	264.68
425.797	270.78
426.257	258.88
426.717	242.28
427.177	239.38
427.637	224.38
428.097	242.28
428.556	248.38
429.016	267.88
429.476	270.48
429.936	281.48
430.396	291.58
430.856	298.38
431.315	324.28
431.775	362.18
432.235	396.18
432.694	357.88
433.154	371.48
433.614	403.68
434.073	343.58
434.533	287.58
434.993	278.48
435.452	290.28
435.912	305.98
436.371	292.88
436.83	288.78
437.29	270.48
437.749	253.58
438.209	247.58
438.668	281.38
439.127	294.08
439.587	267.98
440.046	249.08
440.505	263.58
440.964	284.28
441.424	330.98
441.883	320.48
442.342	261.18
442.801	231.08
443.26	225.78
443.719	230.28
444.178	224.28
444.637	211.68
445.096	215.48
445.555	218.98
446.014	227.38
446.473	223.28
446.932	235.88
447.391	225.98
447.849	236.88
448.308	213.88
448.767	226.18
449.226	232.78
449.685	234.48
450.143	252.48
450.602	236.08
451.061	226.88
451.519	229.98
451.978	232.28
452.436	236.88
452.895	244.48
453.353	255.18
453.812	248.28
454.27	244.48
454.729	236.38
455.187	244.58
455.646	243.98
456.104	251.28
456.562	267.98
457.021	268.28
457.479	266.38
457.937	265.58
458.395	261.98
458.854	256.58
459.312	267.28
459.77	279.08
460.228	250.18
460.686	240.48
461.144	244.58
461.602	242.98
462.06	251.28
462.518	258.38
462.976	261.78
463.434	256.38
463.892	267.28
464.35	277.38
464.808	291.28
465.266	269.48
465.724	271.58
466.181	274.38
466.639	276.78
467.097	284.08
467.555	300.68
468.012	305.68
468.47	309.98
468.928	322.08
469.385	341.28
469.843	343.88
470.3	354.48
470.758	368.48
471.215	378.28
471.673	404.58
472.13	408.48
472.588	424.18
473.045	375.58
473.503	376.88
473.96	390.48
474.417	408.98
474.875	432.58
475.332	473.68
475.789	466.18
476.246	473.88
476.704	497.78
477.161	506.78
477.618	524.08
478.075	564.08
478.532	610.88
478.989	695.78
479.446	810.28
479.903	776.38
480.36	812.98
480.817	867.78
481.274	974.68
481.731	1086.68
482.188	1171.78
482.645	1297.38
483.102	1421.68
483.558	1552.18
484.015	1609.88
484.472	1582.58
484.929	1529.68
485.385	1483.48
485.842	1446.68
486.299	1374.28
486.755	1306.28
487.212	1099.68
487.668	930.18
488.125	859.08
488.582	768.28
489.038	744.48
489.494	709.68
489.951	689.08
490.407	673.48
490.864	646.18
491.32	645.38
491.776	650.48
492.233	644.58
492.689	612.98
493.145	607.08
493.602	598.18
494.058	614.18
494.514	621.38
494.97	633.78
495.426	647.98
495.882	622.08
496.338	609.08
496.794	624.98
497.251	602.58
497.707	637.98
498.163	639.38
498.618	638.98
499.074	637.58
499.53	665.58
499.986	672.48
500.442	655.88
500.898	635.58
501.354	630.28
501.809	633.08
502.265	649.68
502.721	660.08
503.177	675.38
503.632	669.78
504.088	673.28
504.543	715.18
504.999	703.18
505.455	657.18
505.91	627.88
506.366	635.08
506.821	620.28
507.277	620.48
507.732	623.78
508.187	634.18
508.643	626.18
509.098	635.18
509.553	648.98
510.009	659.48
510.464	661.08
510.919	676.98
511.375	692.88
511.83	699.88
512.285	717.38
512.74	756.98
513.195	771.88
513.65	759.38
514.105	756.78
514.56	771.98
515.015	789.48
515.47	798.38
515.925	776.28
516.38	776.08
516.835	789.08
517.29	779.48
517.745	774.88
518.2	763.68
518.655	741.48
519.109	737.38
519.564	731.78
520.019	727.98
520.474	714.18
520.928	718.88
521.383	712.18
521.838	713.68
522.292	703.08
522.747	706.88
523.201	708.28
523.656	701.08
524.11	691.28
524.565	694.68
525.019	689.68
525.474	696.38
525.928	696.28
526.382	690.38
526.837	690.58
527.291	691.98
527.745	696.98
528.2	679.68
528.654	685.58
529.108	689.98
529.562	688.88
530.016	684.88
530.47	684.48
530.925	682.38
531.379	685.08
531.833	694.48
532.287	696.78
532.741	692.88
533.195	707.48
533.649	708.48
534.103	715.68
534.556	704.18
535.01	697.68
535.464	699.28
535.918	712.08
536.372	713.48
536.826	715.88
537.279	705.38
537.733	704.18
538.187	709.08
538.64	703.98
539.094	735.48
539.548	725.88
540.001	722.78
540.455	715.08
540.908	722.68
541.362	739.08
541.815	742.48
542.269	748.78
542.722	741.08
543.175	755.28
543.629	765.68
544.082	792.08
544.536	783.08
544.989	788.88
545.442	790.58
545.895	788.08
546.349	796.98
546.802	795.38
547.255	789.38
547.708	798.88
548.161	802.28
548.614	810.38
549.067	823.38
549.52	814.78
549.973	812.78
550.426	803.68
550.879	789.08
551.332	792.68
551.785	803.08
552.238	811.58
552.691	807.38
553.144	818.98
553.596	833.68
554.049	854.58
554.502	893.08
554.955	914.28
555.407	909.38
555.86	891.48
556.313	888.38
556.765	869.88
557.218	865.68
557.67	868.98
558.123	867.38
558.576	873.58
559.028	871.88
559.48	875.58
559.933	868.68
560.385	829.48
560.838	801.78
561.29	774.98
561.742	780.08
562.195	764.88
562.647	760.68
563.099	766.38
563.551	769.08
564.004	779.78
564.456	765.58
564.908	759.88
565.36	750.18
565.812	728.28
566.264	719.18
566.716	720.08
567.168	705.38
567.62	715.88
568.072	695.68
568.524	693.18
568.976	692.38
569.428	678.48
569.88	679.58
570.332	678.68
570.784	680.48
571.235	685.08
571.687	694.18
572.139	709.68
572.59	710.08
573.042	703.98
573.494	711.88
573.945	692.98
574.397	677.48
574.849	682.38
575.3	689.58
575.752	675.68
576.203	673.98
576.655	684.68
577.106	664.38
577.557	661.38
578.009	666.48
578.46	661.98
578.912	669.28
579.363	654.08
579.814	676.08
580.265	651.58
580.717	660.18
581.168	666.28
581.619	677.48
582.07	677.78
582.521	663.88
582.972	664.78
583.423	677.38
583.875	681.78
584.326	701.28
584.777	748.28
585.227	842.08
585.678	925.58
586.129	1028.18
586.58	1093.88
587.031	1168.48
587.482	1333.38
587.933	1542.58
588.384	1329.18
588.834	992.28
589.285	797.78
589.736	793.18
590.186	776.18
590.637	762.28
591.088	745.98
591.538	742.88
591.989	729.58
592.439	730.28
592.89	728.48
593.34	722.28
593.791	713.78
594.241	705.68
594.692	710.78
595.142	706.88
595.593	703.48
596.043	707.48
596.493	721.08
596.943	716.28
597.394	719.78
597.844	721.48
598.294	737.58
598.744	749.08
599.195	775.48
599.645	820.88
600.095	849.28
600.545	911.48
600.995	972.68
601.445	1027.48
601.895	1088.18
602.345	1133.78
602.795	1110.58
603.245	1062.18
603.695	1009.98
604.145	955.78
604.594	903.08
605.044	847.28
605.494	791.58
605.944	753.48
606.393	739.18
606.843	719.48
607.293	733.98
607.743	726.48
608.192	740.38
608.642	761.48
609.091	762.68
609.541	764.98
609.99	776.38
610.44	776.48
610.889	721.28
611.339	700.68
611.788	693.88
612.238	695.68
612.687	716.68
613.136	720.28
613.586	750.08
614.035	734.28
614.484	763.38
614.933	769.28
615.383	752.58
615.832	742.78
616.281	729.78
616.73	687.68
617.179	659.48
617.628	657.48
618.077	640.68
618.526	621.98
618.975	613.48
619.424	608.48
619.873	618.38
620.322	618.08
620.771	606.68
621.22	595.38
621.669	591.58
622.118	589.88
622.567	575.18
623.015	570.18
623.464	563.78
623.913	564.68
624.361	553.28
624.81	544.78
625.259	547.68
625.707	565.28
626.156	559.58
626.604	563.78
627.053	569.08
627.501	563.28
627.95	566.68
628.398	583.28
628.847	566.28
629.295	571.68
629.744	575.78
630.192	567.98
630.64	574.68
631.089	570.88
631.537	589.38
631.985	600.38
632.433	610.48
632.881	617.38
633.33	678.68
633.778	658.88
634.226	570.98
634.674	578.18
635.122	581.28
635.57	599.38
636.018	642.78
636.466	581.38
636.914	563.78
637.362	571.68
637.81	570.08
638.258	570.38
638.705	588.08
639.153	613.58
639.601	627.78
640.049	645.98
640.497	672.48
640.944	694.28
641.392	639.38
641.84	621.38
642.287	584.08
642.735	568.78
643.182	576.58
643.63	576.08
644.078	589.78
644.525	592.38
644.973	594.48
645.42	597.28
645.867	625.28
646.315	645.28
646.762	660.38
647.21	690.08
647.657	716.58
648.104	747.68
648.551	767.28
648.999	846.18
649.446	923.68
649.893	1015.98
650.34	1180.78
650.787	1412.68
651.234	1759.28
651.682	2307.88
652.129	3189.08
652.576	4595.08
653.023	6795.68
653.47	9318.18
653.917	11530.08
654.363	13244.88
654.81	14554.88
655.257	13875.18
655.704	9062.58
656.151	5335.98
656.598	3450.98
657.044	2433.28
657.491	1870.18
657.938	1498.48
658.385	1257.98
658.831	1084.88
659.278	964.68
659.724	856.08
660.171	793.48
660.618	729.98
661.064	689.58
661.511	667.58
661.957	658.58
662.404	647.38
662.85	647.68
663.296	627.78
663.743	555.88
664.189	549.38
664.635	542.18
665.082	526.48
665.528	520.38
665.974	525.68
666.42	517.18
666.867	504.38
667.313	488.68
667.759	481.48
668.205	490.88
668.651	488.48
669.097	504.48
669.543	503.28
669.989	477.38
670.435	442.98
670.881	441.68
671.327	449.18
671.773	468.38
672.219	490.58
672.665	542.08
673.11	586.68
673.556	630.18
674.002	670.48
674.448	652.08
674.893	554.68
675.339	480.98
675.785	439.98
676.23	415.58
676.676	389.08
677.122	381.48
677.567	371.38
678.013	368.88
678.458	356.28
678.904	358.18
679.349	344.08
679.794	350.98
680.24	354.78
680.685	346.78
681.131	347.08
681.576	349.68
682.021	356.28
682.466	343.08
682.912	353.08
683.357	352.68
683.802	380.18
684.247	410.48
684.692	464.38
685.137	500.18
685.583	531.18
686.028	557.18
686.473	519.48
686.918	442.88
687.363	416.28
687.807	392.98
688.252	365.08
688.697	350.38
689.142	337.08
689.587	328.18
690.032	323.08
690.477	336.68
690.921	353.58
691.366	382.98
691.811	404.18
692.255	433.68
692.7	462.78
693.145	507.08
693.589	717.88
694.034	1159.58
694.478	1543.88
694.923	1723.88
695.367	2250.68
695.812	1184.68
696.256	501.78
696.701	375.98
697.145	347.18
697.59	329.48
698.034	321.28
698.478	333.98
698.922	325.28
699.367	324.58
699.811	333.68
700.255	362.68
700.699	396.68
701.143	431.38
701.588	475.78
702.032	514.08
702.476	511.08
702.92	492.18
703.364	490.58
703.808	655.58
704.252	1054.48
704.696	1464.88
705.14	1648.58
705.584	2105.58
706.027	1055.28
706.471	522.28
706.915	393.48
707.359	349.88
707.803	326.68
708.246	312.58
708.69	305.78
709.134	316.08
709.577	305.98
710.021	317.88
710.465	311.88
710.908	304.38
711.352	306.58
711.795	317.88
712.239	354.38
712.682	383.28
713.126	423.08
713.569	468.48
714.012	369.28
714.456	321.98
714.899	290.08
715.342	270.58
715.786	261.38
716.229	263.18
716.672	259.28
717.115	248.48
717.558	251.08
718.002	256.58
718.445	269.58
718.888	294.98
719.331	295.38
719.774	318.58
720.217	314.48
720.66	277.88
721.103	270.68
721.546	256.28
721.989	253.48
722.432	237.38
722.874	238.08
723.317	228.48
723.76	238.08
724.203	254.78
724.645	326.78
725.088	459.78
725.531	573.18
725.974	633.08
726.416	539.78
726.859	308.48
727.301	250.38
727.744	242.48
728.187	243.58
728.629	243.48
729.071	246.68
729.514	257.78
729.956	276.48
730.399	280.88
730.841	281.48
731.283	267.48
731.726	261.88
732.168	253.38
732.61	271.48
733.053	287.88
733.495	311.08
733.937	353.78
734.379	395.38
734.821	434.38
735.263	552.28
735.705	863.98
736.148	1616.18
736.59	2584.48
737.032	2997.38
737.474	2427.98
737.916	811.68
738.357	430.78
738.799	324.48
739.241	294.78
739.683	287.98
740.125	293.88
740.567	291.18
741.008	315.28
741.45	322.68
741.892	317.58
742.334	337.78
742.775	356.28
743.217	333.88
743.658	271.58
744.1	249.28
744.542	262.18
744.983	318.78
745.425	339.38
745.866	342.28
746.307	284.58
746.749	287.68
747.19	325.88
747.632	467.38
748.073	907.88
748.514	1899.68
748.956	2831.48
749.397	3572.98
749.838	2949.28
750.279	2915.98
750.72	1484.38
751.162	547.58
751.603	314.38
752.044	253.88
752.485	219.98
752.926	212.48
753.367	199.78
753.808	199.48
754.249	187.88
754.69	187.18
755.131	183.68
755.572	178.78
756.013	175.58
756.453	187.08
756.894	194.38
757.335	193.88
757.776	195.38
758.216	189.68
758.657	199.98
759.098	203.48
759.538	226.28
759.979	265.68
760.42	383.18
760.86	725.28
761.301	1878.48
761.741	4475.58
762.182	6272.58
762.622	4409.08
763.063	1296.48
763.503	533.38
763.943	347.58
764.384	357.48
764.824	403.08
765.264	450.58
765.705	312.98
766.145	213.58
766.585	189.48
767.025	184.48
767.465	193.58
767.906	251.28
768.346	329.18
768.786	350.78
769.226	264.68
769.666	333.08
770.106	636.08
770.546	1580.88
770.986	2626.98
771.426	2323.98
771.866	786.98
772.306	328.98
772.745	205.58
773.185	177.38
773.625	178.88
774.065	167.68
774.505	197.18
774.944	335.28
775.384	723.48
775.824	1289.08
776.263	1234.58
776.703	528.08
777.142	229.38
777.582	158.88
778.021	138.18
778.461	146.78
778.9	133.98
779.34	143.78
779.779	120.98
780.219	109.98
780.658	114.98
781.097	114.38
781.537	116.18
781.976	112.68
782.415	111.58
782.855	110.48
783.294	106.88
783.733	104.88
784.172	111.58
784.611	109.78
785.05	104.58
785.489	113.88
785.928	120.08
786.367	122.78
786.806	119.68
787.245	128.68
787.684	135.78
788.123	148.98
788.562	136.28
789.001	125.38
789.44	124.78
789.879	121.08
790.317	114.68
790.756	128.38
791.195	125.88
791.634	151.98
792.072	207.98
792.511	364.58
792.95	1038.68
793.388	2134.68
793.827	1893.78
794.265	669.08
794.704	276.48
795.142	187.68
795.581	149.48
796.019	139.18
796.458	131.48
796.896	128.38
797.334	136.18
797.773	158.48
798.211	225.28
798.649	457.18
799.087	1018.98
799.526	1593.58
799.964	2010.18
800.402	1959.58
800.84	747.38
801.278	303.38
801.716	181.98
802.154	152.48
802.592	140.38
803.03	143.58
803.468	135.18
803.906	148.78
804.344	147.78
804.782	142.08
805.22	138.88
805.658	133.68
806.096	149.58
806.533	152.08
806.971	175.78
807.409	222.38
807.847	323.68
808.284	680.98
808.722	1894.68
809.16	3239.78
809.597	3152.28
810.035	5407.58
810.472	5594.18
810.91	2050.88
811.347	786.38
811.785	406.88
812.222	260.18
812.66	190.18
813.097	168.98
813.535	143.08
813.972	135.08
814.409	110.68
814.846	104.48
815.284	107.78
815.721	105.78
816.158	106.38
816.595	116.38
817.032	180.48
817.47	201.48
817.907	170.48
818.344	157.38
818.781	121.28
819.218	95.48
819.655	122.38
820.092	178.48
820.529	212.78
820.966	178.08
821.403	136.18
821.839	112.28
822.276	100.38
822.713	128.18
823.15	136.68
823.587	117.48
824.023	151.78
824.46	316.98
824.897	915.38
825.333	1325.48
825.77	567.48
826.206	236.18
826.643	138.28
827.08	101.98
827.516	83.58
827.953	80.68
828.389	80.58
828.825	69.48
829.262	72.88
829.698	68.58
830.135	61.88
830.571	65.38
831.007	63.98
831.443	68.08
831.88	71.68
832.316	59.48
832.752	62.08
833.188	65.88
833.624	66.68
834.06	66.58
834.497	71.48
834.933	73.88
835.369	71.88
835.805	70.58
836.241	76.98
836.677	79.88
837.112	91.98
837.548	103.48
837.984	130.58
838.42	204.78
838.856	513.78
839.292	1535.18
839.727	2267.58
840.163	1060.08
840.599	938.88
841.034	2034.28
841.47	2068.98
841.906	762.08
842.341	335.38
842.777	227.08
843.212	334.28
843.648	320.28
844.083	159.68
844.519	102.88
844.954	74.18
845.39	57.18
845.825	59.28
846.261	60.88
846.696	54.28
847.131	51.28
847.566	61.18
848.002	55.48
848.437	59.68
848.872	60.78
849.307	62.58
849.742	87.38
850.177	182.38
850.613	559.98
851.048	858.78
851.483	371.08
851.918	156.38
852.353	85.88
852.788	66.58
853.223	56.78
853.657	51.48
854.092	52.18
854.527	40.78
854.962	40.58
855.397	42.38
855.832	51.28
856.266	39.58
856.701	41.98
857.136	41.08
857.57	40.68
858.005	52.78
858.44	54.88
858.874	50.08
859.309	56.28
859.743	42.38
860.178	45.68
860.612	43.28
861.047	53.38
861.481	68.98
861.915	70.88
862.35	47.68
862.784	33.48
863.218	39.08
863.653	31.68
864.087	48.58
864.521	53.88
864.955	74.58
865.39	154.88
865.824	173.48
866.258	111.88
866.692	164.58
867.126	164.58
867.56	99.78
867.994	51.38
868.428	36.58
868.862	46.48
869.296	53.38
869.73	55.28
870.164	48.28
870.598	46.98
871.031	33.98
871.465	35.08
871.899	24.68
872.333	22.18
872.766	22.98
873.2	25.38
873.634	31.78
874.067	27.58
874.501	28.68
874.935	32.88
875.368	39.38
875.802	27.28
876.235	25.08
876.669	29.78
877.102	23.08
877.535	25.08
877.969	26.28
878.402	28.98
878.836	21.38
879.269	29.78
879.702	28.28
880.135	28.98
880.569	22.88
881.002	32.08
881.435	22.58
881.868	16.08
882.301	22.18
882.734	19.48
883.167	26.58
883.601	20.28
884.034	25.28
884.467	18.48
884.899	23.78
885.332	18.28
885.765	16.58
886.198	24.88
886.631	21.78
887.064	19.18
887.497	19.98
887.929	24.78
888.362	20.28
888.795	13.38
889.228	20.48
889.66	17.08
890.093	20.18
890.526	14.18
890.958	18.28
891.391	24.08
891.823	23.38
892.256	14.08
892.688	13.08
893.121	20.18
893.553	15.88
893.985	20.68
894.418	22.68
894.85	10.18
895.282	14.18
895.715	21.98
896.147	15.08
896.579	21.88
897.011	13.18
897.444	19.28
897.876	15.28
898.308	20.88
898.74	12.98
899.172	14.18
899.604	26.58
900.036	20.58
900.468	16.08
900.9	14.58
901.332	19.78
901.764	9.38
902.196	20.38
902.628	14.18
903.06	11.38
903.491	25.88
903.923	19.98
904.355	16.68
904.787	25.78
905.218	22.58
905.65	22.18
906.082	15.58
906.513	14.08
906.945	18.18
907.376	19.18
907.808	22.08
908.239	21.18
908.671	22.48
909.102	20.78
909.534	22.08
909.965	52.38
910.397	94.38
910.828	312.08
911.259	464.88
911.691	213.18
912.122	103.28
912.553	52.58
912.984	36.88
913.415	25.98
913.847	25.58
914.278	18.58
914.709	11.68
915.14	19.78
915.571	16.68
916.002	10.88
916.433	20.98
916.864	18.28
917.295	15.48
917.726	25.18
918.157	21.88
918.587	28.58
919.018	27.48
919.449	22.58
919.88	25.38
920.311	33.28
920.741	48.98
921.172	173.48
921.603	151.48
922.033	67.88
922.464	47.48
922.895	27.88
923.325	20.48
923.756	18.08
924.186	21.18
924.617	27.38
925.047	47.18
925.478	57.08
925.908	53.68
926.338	30.78
926.769	24.78
927.199	23.28
927.629	12.28
928.06	18.98
928.49	15.58
928.92	24.18
929.35	8.28
929.78	14.48
930.21	10.28
930.641	10.98
931.071	9.88
931.501	10.28
931.931	6.58
932.361	12.58
932.791	3.48
933.221	6.08
933.651	6.78
934.08	20.48
934.51	35.18
934.94	10.48
935.37	10.48
935.8	12.38
936.229	11.98
936.659	9.48
937.089	1.98
937.519	17.78
937.948	20.78
938.378	20.58
938.807	5.48
939.237	6.08
939.666	7.88
940.096	-5.22
940.525	-4.02
940.955	3.88
941.384	6.98
941.814	-4.02
942.243	-2.82
942.672	7.18
943.102	-1.32
943.531	1.28
943.96	2.88
944.39	2.58
944.819	2.68
945.248	7.48
945.677	0.98
946.106	5.68
946.535	1.78
946.964	0.98
947.393	6.88
947.822	4.58
948.251	-6.72
948.68	3.18
949.109	7.98
949.538	7.08
949.967	1.38
950.396	4.08
950.825	-0.02
951.254	0.78
951.682	-0.42
952.111	3.58
952.54	12.58
952.969	0.28
953.397	-4.82
953.826	3.98
954.254	-8.82
954.683	-0.82
955.112	-2.22
955.54	-2.82
955.969	-2.02
956.397	-0.22
956.826	-1.02
957.254	7.58
957.682	5.98
958.111	4.88
958.539	3.78
958.967	0.18
959.396	4.08
959.824	3.08
960.252	6.38
960.68	-2.12
961.109	-1.82
961.537	-3.12
961.965	-1.92
962.393	2.98
962.821	-1.72
963.249	5.48
963.677	5.48
964.105	9.18
964.533	51.68
964.961	39.08
965.389	20.28
965.817	10.28
966.245	1.78
966.672	-2.92
967.1	-9.32
967.528	-5.02
967.956	-3.92
968.383	-2.52
968.811	-3.52
969.239	-5.02
969.666	-2.22
970.094	8.68
970.522	1.08
970.949	1.88
971.377	-2.12
971.804	1.98
972.232	1.68
972.659	-0.92
973.087	-2.42
973.514	-3.42
973.941	1.48
974.369	1.08
974.796	-3.52
975.223	0.98
975.651	-0.92
976.078	4.58
976.505	1.88
976.932	7.68
977.359	14.08
977.786	16.58
978.214	0.78
978.641	-2.32
979.068	-3.92
979.495	-0.62
979.922	-0.22
980.349	0.38
980.776	9.68
981.202	-3.42
981.629	6.88
982.056	0.98
982.483	1.28
982.91	2.08
983.337	-1.92
983.763	5.08
984.19	-3.02
984.617	0.48
985.043	-1.92
985.47	-1.52
985.897	-7.32
986.323	-7.62
986.75	4.58
987.176	1.18
987.603	-0.62
988.029	-0.02
988.456	-6.62
988.882	2.28
989.308	-6.52
989.735	-6.92
990.161	2.78
990.587	-5.92
991.014	-1.92
991.44	12.48
991.866	3.18
992.292	-3.52
992.719	-2.62
993.145	8.28
993.571	-10.72
993.997	-2.12
994.423	2.68
994.849	-7.12
995.275	2.38
995.701	-0.52
996.127	-6.52
996.553	0.48
996.979	-2.22
997.405	-2.82
997.83	-0.22
998.256	-6.52
998.682	2.38
999.108	-7.42
999.534	-4.52
999.959	0.28
1000.385	-5.32
1000.811	2.88
1001.236	-4.52
1001.662	-11.02
1002.087	-7.42
1002.513	-2.82
1002.938	3.18
1003.364	-1.12
1003.789	-1.92
1004.215	4.18
1004.64	-2.22
1005.066	1.68
1005.491	0.18
1005.916	1.98
1006.342	6.08
1006.767	-4.82
1007.192	4.28
1007.617	-3.92
1008.042	-5.42
1008.468	-5.52
1008.893	-0.02
1009.318	-5.82
1009.743	-3.52
1010.168	5.18
1010.593	0.98
1011.018	-6.62
1011.443	-1.52
1011.868	1.78
1012.293	1.38
1012.718	-4.82
1013.143	4.18
1013.567	2.38
1013.992	-2.22
1014.417	-14.92
1014.842	6.18
1015.267	-2.32
1015.691	-2.62
1016.116	1.08
1016.541	-5.62
1016.965	2.58
1017.39	3.88
1017.814	0.38
1018.239	4.88
1018.663	-6.82
1019.088	-11.92
1019.512	-7.82
1019.937	4.18
1020.361	-1.42
1020.785	-1.42
1021.21	-3.92
1021.634	1.28
1022.058	-0.92
1022.483	4.78
1022.907	-12.22
1023.331	-3.72
1023.755	-6.72
1024.179	-2.42
1024.604	-4.42
1025.028	-11.72
1025.452	-9.72
1025.876	0.58
1026.3	-1.22
1026.724	-11.92
1027.148	-5.42
1027.572	-6.82
1027.996	-2.32
1028.42	-0.12
1028.843	-4.32
1029.267	-1.22
1029.691	-5.32
1030.115	-6.22
1030.539	-4.32
1030.962	-4.72
1031.386	-7.32
1031.81	-4.52
1032.233	0.18
1032.657	-2.12
1033.08	3.48
1033.504	-3.12
1033.927	-4.12
1034.351	0.18
1034.774	-5.72
1035.198	1.48
1035.621	-6.22
1036.045	-6.62
1036.468	1.88
1036.891	-7.42
1037.315	-10.92
1037.738	-5.92
1038.161	-0.42
1038.584	-8.02
1039.008	-5.02
1039.431	-1.92
1039.854	-0.72
1040.277	-2.02
1040.7	-6.32
1041.123	-5.02
1041.546	-6.92
1041.969	-6.42
1042.392	-3.62
1042.815	1.58
1043.238	0.88
1043.661	5.78
1044.084	-11.32
1044.507	-3.32
1044.93	-4.12
1045.352	-1.72
1045.775	-0.82
1046.198	-0.62
1046.621	-4.72
1047.043	1.18
1047.466	9.78
1047.889	-6.62
1048.311	-7.52
1048.734	-0.72
1049.156	-2.92
1049.579	-7.12
1050.001	0.38
1050.424	-2.82
1050.846	-1.62
1051.269	-0.82
1051.691	-5.12
1052.113	-6.32
1052.536	-6.02
1052.958	-1.72
1053.38	-5.62
1053.802	-5.42
1054.225	-1.42
1054.647	-9.62
1055.069	-4.52
1055.491	-0.42
1055.913	-5.72
1056.335	-1.32
1056.757	-2.02
1057.179	-2.62
1057.601	-3.92
1058.023	-4.42
1058.445	-0.82
1058.867	-3.92
1059.289	-3.52
1059.711	-11.62
1060.133	-0.62
1060.555	-2.22
1060.976	-7.22
1061.398	-7.52
1061.82	-2.62
1062.241	-3.62
1062.663	-5.22
1063.085	-2.72
1063.506	1.38
1063.928	-4.42
1064.35	0.28
1064.771	-8.72
1065.193	-0.32
1065.614	-10.62
1066.035	-3.62
1066.457	-0.02
1066.878	1.48
1067.3	-5.82
1067.721	-3.12
1068.142	-3.22
1068.564	-9.32
1068.985	0.88
1069.406	-6.92
1069.827	-4.62
1070.248	-1.92
1070.67	-7.62
1071.091	-4.82
1071.512	-8.52
1071.933	-2.02
1072.354	-5.02
1072.775	-5.72
1073.196	-4.32
1073.617	1.48
1074.038	-6.22
1074.459	-5.82
1074.88	-3.02
1075.3	-0.32
1075.721	-6.22
1076.142	-1.32
1076.563	3.48
1076.983	-14.22
1077.404	-5.22
1077.825	-12.02
1078.246	-2.92
1078.666	-4.22
1079.087	-6.12
1079.507	-9.62
1079.928	0.88
1080.348	0.98
1080.769	-0.52
1081.189	4.88
1081.61	-3.22
1082.03	-4.12
1082.451	-3.82
1082.871	-3.12
1083.291	-5.02
1083.711	-8.42
1084.132	-3.32
1084.552	-2.02
1084.972	-3.92
1085.392	-9.72
1085.813	-7.32
1086.233	-6.32
1086.653	-2.62
1087.073	-0.62
1087.493	-9.92
1087.913	-6.02
1088.333	-5.12
1088.753	-5.82
1089.173	2.38
1089.593	-5.42
1090.013	0.68
1090.433	-1.02
1090.852	-2.62
1091.272	-3.02
1091.692	-0.72
1092.112	-2.02
1092.531	-9.42
1092.951	-12.42
1093.371	0.08
1093.79	1.88
1094.21	-8.52
1094.63	-5.72
1095.049	-6.02
1095.469	-5.12
1095.888	-6.72
1096.308	-6.22
1096.727	3.18
1097.146	-6.82
1097.566	-0.22
1097.985	-2.12
1098.405	-0.02
1098.824	-6.92
1099.243	-4.72
1099.662	-6.72
1100.082	-2.42
1100.501	-2.42
1100.92	-2.42
1101.339	-1.12
1101.758	-13.12
