Data from 20171114-ORNL-Ar_H_NY_Subt18_08-09-22-052.txt Node
Date: Tue Nov 14 08:09:22 EST 2017
User: Ender
Spectrometer: HR+D1039
Trigger mode: 0
Integration Time (sec): 2.730000E-2
Scans to average: 10
Electric dark correction enabled: true
Nonlinearity correction enabled: false
Boxcar width: 0
XAxis mode: Wavelengths
Number of Pixels in Spectrum: 2048
>>>>>Begin Spectral Data<<<<<
187.836	-4.18
188.309	-4.18
188.782	-4.18
189.255	0.52
189.728	-1.38
190.201	5.02
190.674	4.02
191.147	2.82
191.619	-8.38
192.092	3.52
192.565	5.42
193.038	0.82
193.511	-3.18
193.984	-0.58
194.456	-2.38
194.929	-1.38
195.402	2.92
195.874	-3.58
196.347	1.32
196.82	-1.98
197.292	5.32
197.765	2.82
198.237	-9.88
198.71	-0.08
199.182	1.72
199.655	2.32
200.127	1.42
200.6	-5.58
201.072	0.02
201.544	-4.28
202.017	-2.38
202.489	3.02
202.961	-1.38
203.433	-2.18
203.906	-3.58
204.378	-11.98
204.85	-1.78
205.322	-6.28
205.794	2.12
206.266	-0.98
206.739	-8.38
207.211	-0.48
207.683	-6.28
208.155	-4.68
208.627	-8.18
209.099	-4.68
209.57	-10.38
210.042	-11.58
210.514	-4.28
210.986	-0.98
211.458	-10.38
211.93	-2.08
212.402	0.72
212.873	-4.88
213.345	-12.48
213.817	-10.48
214.288	-3.78
214.76	-12.58
215.232	0.32
215.703	-2.98
216.175	-2.68
216.646	-5.58
217.118	-8.08
217.589	-6.58
218.061	-1.78
218.532	-2.78
219.004	-5.68
219.475	-2.68
219.946	-0.38
220.418	-8.58
220.889	7.22
221.36	-2.98
221.832	-6.98
222.303	-12.38
222.774	-0.08
223.245	-11.18
223.717	-7.88
224.188	-3.98
224.659	-13.78
225.13	-3.78
225.601	-3.78
226.072	-1.28
226.543	2.12
227.014	-2.28
227.485	-3.28
227.956	-9.08
228.427	-5.28
228.898	-1.88
229.369	-2.98
229.839	-9.68
230.31	-7.28
230.781	4.52
231.252	-6.28
231.722	-4.88
232.193	-7.38
232.664	2.82
233.135	-4.68
233.605	-4.48
234.076	-2.88
234.546	0.62
235.017	3.22
235.487	-1.28
235.958	-0.38
236.428	-9.58
236.899	2.62
237.369	-2.38
237.84	-3.08
238.31	-0.48
238.78	-4.28
239.251	-7.68
239.721	-5.98
240.191	-3.48
240.662	-4.58
241.132	-3.78
241.602	-7.28
242.072	-4.28
242.542	1.92
243.013	-1.18
243.483	2.62
243.953	-0.18
244.423	-2.08
244.893	-8.48
245.363	-2.98
245.833	-7.58
246.303	-6.28
246.773	-0.78
247.243	-1.38
247.712	1.92
248.182	3.22
248.652	-0.88
249.122	-7.98
249.592	0.22
250.061	-0.78
250.531	7.62
251.001	-9.08
251.471	2.12
251.94	2.52
252.41	-5.88
252.879	-9.28
253.349	1.22
253.818	7.12
254.288	3.12
254.757	-0.18
255.227	-10.48
255.696	3.02
256.166	3.02
256.635	-1.58
257.105	4.42
257.574	-3.18
258.043	4.42
258.513	-5.98
258.982	-2.58
259.451	-6.08
259.92	-5.28
260.389	-2.08
260.859	8.12
261.328	-1.18
261.797	-4.98
262.266	-2.68
262.735	3.62
263.204	1.72
263.673	-3.08
264.142	5.12
264.611	-5.38
265.08	-4.68
265.549	-6.98
266.018	3.32
266.487	-8.38
266.955	-6.78
267.424	-5.68
267.893	3.32
268.362	3.22
268.83	1.32
269.299	2.72
269.768	-5.18
270.236	-1.98
270.705	-2.88
271.174	-1.78
271.642	-4.18
272.111	-0.88
272.579	1.22
273.048	1.92
273.516	-7.08
273.985	0.42
274.453	6.62
274.922	12.02
275.39	5.02
275.858	-9.58
276.327	2.02
276.795	7.02
277.263	-1.48
277.731	9.02
278.2	-1.78
278.668	9.12
279.136	13.42
279.604	3.82
280.072	8.72
280.54	8.22
281.008	4.32
281.477	8.42
281.945	7.02
282.413	4.62
282.881	11.32
283.348	2.52
283.816	7.22
284.284	1.02
284.752	14.52
285.22	7.92
285.688	13.02
286.156	5.32
286.623	17.62
287.091	4.62
287.559	4.62
288.026	6.02
288.494	6.72
288.962	-2.68
289.429	6.22
289.897	10.22
290.364	6.92
290.832	6.12
291.3	8.82
291.767	6.72
292.234	8.82
292.702	6.22
293.169	10.52
293.637	12.52
294.104	12.62
294.571	1.62
295.039	6.72
295.506	7.22
295.973	6.42
296.44	9.22
296.908	11.82
297.375	10.62
297.842	13.82
298.309	8.52
298.776	0.62
299.243	5.92
299.71	5.52
300.177	8.72
300.644	14.62
301.111	16.02
301.578	9.72
302.045	6.22
302.512	17.62
302.979	18.52
303.446	17.12
303.913	11.92
304.379	13.42
304.846	19.02
305.313	17.72
305.78	12.92
306.246	15.42
306.713	15.12
307.18	13.32
307.646	15.22
308.113	13.72
308.579	9.22
309.046	18.42
309.512	22.32
309.979	9.82
310.445	13.02
310.912	16.02
311.378	25.82
311.845	18.82
312.311	23.62
312.777	20.12
313.244	18.72
313.71	33.72
314.176	20.62
314.642	20.42
315.109	18.02
315.575	20.92
316.041	27.12
316.507	19.52
316.973	21.62
317.439	23.52
317.905	23.62
318.371	25.72
318.837	20.92
319.303	20.62
319.769	24.12
320.235	23.62
320.701	26.22
321.167	23.22
321.633	20.42
322.099	28.22
322.564	28.92
323.03	19.72
323.496	27.32
323.962	26.22
324.427	23.52
324.893	26.92
325.359	28.52
325.824	26.22
326.29	22.32
326.755	27.52
327.221	25.72
327.686	21.92
328.152	37.22
328.617	29.72
329.083	36.22
329.548	36.72
330.014	35.12
330.479	26.72
330.944	29.62
331.41	28.12
331.875	33.22
332.34	36.02
332.805	27.62
333.271	33.92
333.736	27.22
334.201	35.62
334.666	36.72
335.131	40.42
335.596	36.52
336.061	35.02
336.526	31.12
336.991	36.22
337.456	45.32
337.921	35.22
338.386	32.62
338.851	34.22
339.316	34.92
339.781	34.72
340.246	41.32
340.711	33.62
341.175	39.12
341.64	30.12
342.105	35.22
342.569	36.42
343.034	43.82
343.499	41.82
343.963	39.12
344.428	49.92
344.893	44.92
345.357	47.22
345.822	46.02
346.286	51.42
346.751	54.22
347.215	56.82
347.679	55.92
348.144	69.12
348.608	59.42
349.073	49.22
349.537	58.22
350.001	56.92
350.465	63.92
350.93	57.72
351.394	63.02
351.858	64.02
352.322	67.22
352.786	66.22
353.25	75.12
353.715	84.02
354.179	74.42
354.643	97.42
355.107	88.82
355.571	75.62
356.035	76.72
356.498	81.02
356.962	85.32
357.426	92.22
357.89	88.72
358.354	65.32
358.818	61.22
359.281	61.22
359.745	59.32
360.209	64.82
360.673	62.12
361.136	67.02
361.6	66.32
362.064	67.12
362.527	66.42
362.991	69.72
363.454	65.32
363.918	61.02
364.381	60.92
364.845	71.82
365.308	73.72
365.772	75.22
366.235	68.02
366.698	66.02
367.162	68.62
367.625	68.92
368.088	74.52
368.552	73.72
369.015	73.32
369.478	79.72
369.941	80.22
370.404	76.12
370.867	82.42
371.331	88.12
371.794	88.72
372.257	83.82
372.72	85.12
373.183	86.12
373.646	84.02
374.109	82.22
374.572	81.42
375.035	85.22
375.497	91.62
375.96	85.42
376.423	91.52
376.886	104.42
377.349	83.62
377.811	82.62
378.274	87.82
378.737	86.72
379.199	92.72
379.662	95.92
380.125	99.92
380.587	86.42
381.05	97.72
381.512	97.82
381.975	105.92
382.437	102.22
382.9	100.12
383.362	105.32
383.825	113.62
384.287	104.82
384.75	100.32
385.212	108.12
385.674	118.12
386.136	121.82
386.599	112.72
387.061	106.92
387.523	106.12
387.985	113.82
388.447	117.32
388.91	113.72
389.372	112.12
389.834	119.22
390.296	114.92
390.758	115.72
391.22	122.52
391.682	134.82
392.144	142.02
392.606	125.22
393.068	123.22
393.529	133.92
393.991	126.92
394.453	117.22
394.915	118.62
395.377	119.52
395.838	121.32
396.3	127.12
396.762	126.52
397.224	122.82
397.685	121.62
398.147	125.02
398.608	119.22
399.07	123.32
399.531	122.72
399.993	131.02
400.454	144.12
400.916	133.22
401.377	134.52
401.839	131.82
402.3	134.92
402.762	160.92
403.223	159.42
403.684	159.52
404.145	144.62
404.607	142.72
405.068	150.22
405.529	153.52
405.99	163.12
406.451	161.72
406.913	164.52
407.374	154.12
407.835	148.62
408.296	160.82
408.757	151.42
409.218	171.72
409.679	164.02
410.14	161.72
410.601	163.52
411.062	166.12
411.522	162.22
411.983	169.92
412.444	168.52
412.905	169.22
413.366	175.12
413.826	185.02
414.287	210.52
414.748	259.02
415.208	239.02
415.669	207.02
416.13	205.52
416.59	199.32
417.051	218.82
417.511	213.62
417.972	230.12
418.432	238.62
418.893	277.22
419.353	248.22
419.814	191.52
420.274	177.52
420.734	171.62
421.195	186.32
421.655	182.32
422.115	183.52
422.576	182.62
423.036	191.72
423.496	206.12
423.956	205.02
424.416	218.82
424.876	260.42
425.336	257.72
425.797	248.22
426.257	247.92
426.717	224.52
427.177	226.02
427.637	217.12
428.097	224.52
428.556	230.12
429.016	251.62
429.476	250.42
429.936	257.62
430.396	258.92
430.856	270.32
431.315	295.42
431.775	328.42
432.235	351.62
432.694	324.62
433.154	340.92
433.614	369.42
434.073	312.82
434.533	271.82
434.993	250.62
435.452	266.72
435.912	264.82
436.371	264.32
436.83	257.92
437.29	246.92
437.749	232.32
438.209	236.82
438.668	261.62
439.127	282.92
439.587	246.92
440.046	234.62
440.505	250.32
440.964	263.42
441.424	315.22
441.883	300.12
442.342	248.22
442.801	219.52
443.26	225.52
443.719	219.12
444.178	216.32
444.637	211.32
445.096	217.72
445.555	222.42
446.014	221.92
446.473	230.72
446.932	237.42
447.391	225.02
447.849	228.32
448.308	216.72
448.767	219.72
449.226	231.42
449.685	244.52
450.143	250.72
450.602	233.52
451.061	226.22
451.519	231.12
451.978	229.52
452.436	238.42
452.895	240.72
453.353	248.12
453.812	237.42
454.27	237.32
454.729	242.72
455.187	239.02
455.646	244.52
456.104	246.82
456.562	258.32
457.021	262.32
457.479	256.52
457.937	270.62
458.395	258.12
458.854	249.02
459.312	251.72
459.77	270.72
460.228	255.62
460.686	242.32
461.144	250.82
461.602	245.32
462.06	244.82
462.518	256.52
462.976	253.42
463.434	260.62
463.892	259.12
464.35	273.72
464.808	290.42
465.266	268.32
465.724	271.62
466.181	272.72
466.639	279.92
467.097	278.82
467.555	297.62
468.012	308.52
468.47	312.72
468.928	322.72
469.385	346.52
469.843	350.02
470.3	346.42
470.758	352.82
471.215	376.52
471.673	406.02
472.13	399.42
472.588	415.52
473.045	373.22
473.503	375.62
473.96	395.42
474.417	404.12
474.875	428.42
475.332	472.92
475.789	461.42
476.246	458.52
476.704	471.92
477.161	498.72
477.618	516.32
478.075	549.02
478.532	604.82
478.989	670.42
479.446	767.92
479.903	741.62
480.36	769.82
480.817	814.82
481.274	896.32
481.731	982.12
482.188	1067.12
482.645	1182.82
483.102	1259.82
483.558	1383.12
484.015	1415.52
484.472	1389.82
484.929	1361.12
485.385	1311.42
485.842	1283.92
486.299	1239.92
486.755	1211.62
487.212	1019.22
487.668	886.22
488.125	806.42
488.582	747.22
489.038	721.82
489.494	687.92
489.951	675.92
490.407	658.32
490.864	639.62
491.32	632.52
491.776	629.22
492.233	640.62
492.689	603.82
493.145	602.02
493.602	596.22
494.058	609.42
494.514	607.42
494.97	632.32
495.426	641.72
495.882	619.22
496.338	612.62
496.794	618.82
497.251	610.42
497.707	626.22
498.163	623.92
498.618	637.82
499.074	640.42
499.53	665.82
499.986	659.02
500.442	633.62
500.898	628.52
501.354	609.12
501.809	624.52
502.265	623.12
502.721	631.72
503.177	636.82
503.632	640.02
504.088	644.42
504.543	667.52
504.999	687.22
505.455	663.72
505.91	644.72
506.366	646.22
506.821	637.02
507.277	645.02
507.732	639.92
508.187	642.02
508.643	655.22
509.098	650.02
509.553	666.92
510.009	671.82
510.464	686.32
510.919	693.72
511.375	697.52
511.83	713.62
512.285	733.32
512.74	761.42
513.195	781.62
513.65	784.32
514.105	769.02
514.56	780.42
515.015	788.62
515.47	789.92
515.925	780.72
516.38	787.32
516.835	786.92
517.29	792.02
517.745	791.12
518.2	767.12
518.655	751.72
519.109	751.72
519.564	751.12
520.019	738.02
520.474	736.72
520.928	736.82
521.383	728.32
521.838	709.32
522.292	715.12
522.747	719.12
523.201	713.22
523.656	701.62
524.11	710.22
524.565	692.52
525.019	710.22
525.474	705.52
525.928	706.82
526.382	698.52
526.837	702.92
527.291	708.52
527.745	702.02
528.2	716.52
528.654	701.72
529.108	698.12
529.562	702.62
530.016	700.82
530.47	697.02
530.925	695.32
531.379	692.62
531.833	711.02
532.287	714.62
532.741	713.02
533.195	705.42
533.649	725.32
534.103	734.52
534.556	709.52
535.01	715.32
535.464	711.52
535.918	731.32
536.372	724.12
536.826	720.02
537.279	713.92
537.733	723.92
538.187	725.52
538.64	727.62
539.094	733.12
539.548	733.72
540.001	740.62
540.455	732.32
540.908	739.92
541.362	750.52
541.815	754.62
542.269	771.62
542.722	767.82
543.175	790.22
543.629	778.12
544.082	795.22
544.536	804.62
544.989	800.22
545.442	801.92
545.895	814.72
546.349	814.02
546.802	800.22
547.255	817.42
547.708	826.82
548.161	833.82
548.614	845.32
549.067	843.82
549.52	837.72
549.973	829.92
550.426	819.22
550.879	817.22
551.332	826.02
551.785	818.62
552.238	828.42
552.691	831.42
553.144	856.92
553.596	857.42
554.049	891.22
554.502	917.62
554.955	929.22
555.407	923.22
555.86	916.02
556.313	914.52
556.765	907.42
557.218	897.92
557.67	897.12
558.123	891.32
558.576	884.82
559.028	889.02
559.48	911.82
559.933	899.32
560.385	854.72
560.838	831.42
561.29	807.92
561.742	797.62
562.195	785.62
562.647	782.72
563.099	788.12
563.551	795.62
564.004	805.22
564.456	781.82
564.908	779.32
565.36	755.92
565.812	750.02
566.264	736.62
566.716	734.02
567.168	719.72
567.62	723.52
568.072	710.22
568.524	710.32
568.976	702.42
569.428	691.52
569.88	697.12
570.332	696.02
570.784	701.12
571.235	696.62
571.687	718.32
572.139	722.82
572.59	725.72
573.042	731.52
573.494	727.42
573.945	730.82
574.397	712.52
574.849	707.02
575.3	710.72
575.752	704.42
576.203	691.02
576.655	701.92
577.106	692.72
577.557	677.52
578.009	693.02
578.46	699.32
578.912	682.92
579.363	681.92
579.814	686.12
580.265	685.52
580.717	690.62
581.168	685.02
581.619	694.22
582.07	698.72
582.521	688.82
582.972	680.42
583.423	694.42
583.875	696.82
584.326	697.12
584.777	715.52
585.227	733.72
585.678	751.62
586.129	764.72
586.58	790.12
587.031	805.92
587.482	834.32
587.933	879.92
588.384	835.72
588.834	800.42
589.285	794.12
589.736	782.32
590.186	787.62
590.637	779.32
591.088	759.22
591.538	757.82
591.989	751.02
592.439	747.82
592.89	732.82
593.34	730.22
593.791	714.82
594.241	715.12
594.692	725.02
595.142	714.92
595.593	712.12
596.043	723.92
596.493	724.52
596.943	726.92
597.394	739.12
597.844	739.72
598.294	753.12
598.744	788.12
599.195	805.52
599.645	847.92
600.095	898.22
600.545	949.32
600.995	1000.62
601.445	1061.62
601.895	1117.32
602.345	1162.22
602.795	1140.12
603.245	1094.82
603.695	1044.42
604.145	984.92
604.594	939.82
605.044	888.92
605.494	829.32
605.944	784.72
606.393	770.92
606.843	747.02
607.293	746.72
607.743	747.62
608.192	758.72
608.642	782.62
609.091	782.32
609.541	790.02
609.99	793.82
610.44	782.02
610.889	738.32
611.339	715.62
611.788	696.82
612.238	707.42
612.687	727.72
613.136	728.92
613.586	738.82
614.035	720.02
614.484	734.52
614.933	739.92
615.383	731.52
615.832	724.52
616.281	714.52
616.73	689.72
617.179	677.82
617.628	667.62
618.077	651.62
618.526	647.42
618.975	635.82
619.424	638.02
619.873	631.42
620.322	633.12
620.771	626.02
621.22	622.12
621.669	609.82
622.118	614.92
622.567	597.82
623.015	584.42
623.464	589.32
623.913	571.62
624.361	565.62
624.81	571.42
625.259	576.52
625.707	581.52
626.156	574.32
626.604	577.42
627.053	581.92
627.501	586.12
627.95	587.42
628.398	604.62
628.847	590.52
629.295	596.92
629.744	599.62
630.192	592.02
630.64	578.62
631.089	560.12
631.537	557.72
631.985	550.72
632.433	551.12
632.881	550.72
633.33	551.32
633.778	536.92
634.226	539.32
634.674	553.82
635.122	557.72
635.57	569.82
636.018	580.72
636.466	571.22
636.914	578.02
637.362	591.22
637.81	594.42
638.258	591.32
638.705	601.42
639.153	629.72
639.601	646.42
640.049	664.42
640.497	694.12
640.944	711.32
641.392	669.62
641.84	619.52
642.287	605.32
642.735	587.02
643.182	575.52
643.63	579.52
644.078	585.22
644.525	592.12
644.973	592.72
645.42	612.02
645.867	635.42
646.315	650.52
646.762	682.92
647.21	701.12
647.657	719.12
648.104	756.62
648.551	786.32
648.999	832.42
649.446	906.42
649.893	1002.42
650.34	1141.42
650.787	1371.42
651.234	1676.72
651.682	2161.12
652.129	2947.82
652.576	4204.02
653.023	6097.92
653.47	8208.22
653.917	10104.22
654.363	11523.22
654.81	12631.32
655.257	11948.72
655.704	7938.72
656.151	4766.72
656.598	3137.12
657.044	2255.42
657.491	1751.62
657.938	1421.12
658.385	1199.32
658.831	1044.32
659.278	942.82
659.724	835.82
660.171	793.12
660.618	728.72
661.064	692.22
661.511	669.42
661.957	659.52
662.404	652.62
662.85	662.92
663.296	631.32
663.743	570.02
664.189	553.12
664.635	542.32
665.082	541.92
665.528	542.22
665.974	530.62
666.42	516.92
666.867	517.02
667.313	496.92
667.759	484.82
668.205	470.12
668.651	467.82
669.097	463.32
669.543	450.92
669.989	466.52
670.435	465.32
670.881	463.62
671.327	467.62
671.773	500.02
672.219	514.42
672.665	574.72
673.11	617.32
673.556	660.72
674.002	696.52
674.448	684.62
674.893	577.02
675.339	504.52
675.785	461.22
676.23	438.02
676.676	405.02
677.122	404.02
677.567	387.12
678.013	395.42
678.458	373.92
678.904	379.62
679.349	364.62
679.794	375.62
680.24	366.62
680.685	366.02
681.131	366.52
681.576	377.12
682.021	374.12
682.466	364.92
682.912	361.12
683.357	374.72
683.802	398.62
684.247	436.82
684.692	482.32
685.137	520.92
685.583	565.22
686.028	586.82
686.473	543.52
686.918	472.42
687.363	437.92
687.807	417.52
688.252	384.22
688.697	376.82
689.142	356.62
689.587	351.32
690.032	345.52
690.477	356.42
690.921	372.52
691.366	413.72
691.811	417.12
692.255	450.72
692.7	487.22
693.145	540.22
693.589	771.72
694.034	1243.72
694.478	1658.92
694.923	1813.22
695.367	2348.92
695.812	1254.52
696.256	528.72
696.701	394.72
697.145	356.52
697.59	336.92
698.034	334.02
698.478	344.92
698.922	343.82
699.367	344.12
699.811	349.92
700.255	369.52
700.699	409.82
701.143	447.42
701.588	497.12
702.032	545.02
702.476	538.32
702.92	512.22
703.364	533.62
703.808	708.42
704.252	1138.02
704.696	1569.62
705.14	1773.52
705.584	2231.62
706.027	1131.82
706.471	551.62
706.915	422.02
707.359	372.62
707.803	340.02
708.246	326.52
708.69	328.52
709.134	330.12
709.577	321.82
710.021	336.92
710.465	323.22
710.908	313.82
711.352	308.32
711.795	325.92
712.239	378.22
712.682	408.02
713.126	430.72
713.569	481.22
714.012	379.52
714.456	313.52
714.899	307.72
715.342	287.62
715.786	275.52
716.229	273.82
716.672	270.72
717.115	271.12
717.558	257.52
718.002	265.22
718.445	276.02
718.888	297.42
719.331	310.52
719.774	330.52
720.217	317.92
720.66	293.62
721.103	281.32
721.546	270.32
721.989	264.32
722.432	244.62
722.874	249.42
723.317	244.62
723.76	249.52
724.203	274.32
724.645	347.62
725.088	472.92
725.531	607.52
725.974	679.02
726.416	575.42
726.859	327.22
727.301	259.62
727.744	249.52
728.187	251.42
728.629	242.92
729.071	259.92
729.514	268.72
729.956	291.52
730.399	301.42
730.841	301.42
731.283	296.22
731.726	277.32
732.168	273.72
732.61	287.32
733.053	303.92
733.495	331.02
733.937	378.12
734.379	424.22
734.821	472.32
735.263	598.22
735.705	938.82
736.148	1770.12
736.59	2798.22
737.032	3188.82
737.474	2601.32
737.916	865.72
738.357	457.72
738.799	353.12
739.241	318.62
739.683	304.12
740.125	309.72
740.567	320.62
741.008	338.12
741.45	336.52
741.892	337.22
742.334	372.02
742.775	382.72
743.217	365.72
743.658	291.12
744.1	264.82
744.542	286.02
744.983	333.12
745.425	372.32
745.866	369.02
746.307	295.52
746.749	303.72
747.19	358.22
747.632	506.62
748.073	994.42
748.514	2064.12
748.956	3051.52
749.397	3863.42
749.838	3202.42
750.279	3081.02
750.72	1590.42
751.162	595.82
751.603	339.92
752.044	271.52
752.485	235.12
752.926	224.32
753.367	214.52
753.808	204.62
754.249	201.52
754.69	189.32
755.131	194.92
755.572	193.32
756.013	189.22
756.453	192.72
756.894	196.92
757.335	205.52
757.776	209.62
758.216	212.62
758.657	210.72
759.098	206.52
759.538	246.92
759.979	297.92
760.42	407.82
760.86	799.92
761.301	2104.72
761.741	4898.82
762.182	6698.62
762.622	4758.02
763.063	1416.32
763.503	576.12
763.943	338.42
764.384	287.02
764.824	256.12
765.264	237.82
765.705	216.62
766.145	195.42
766.585	188.12
767.025	180.72
767.465	179.92
767.906	190.02
768.346	199.62
768.786	211.92
769.226	227.12
769.666	334.72
770.106	702.42
770.546	1748.52
770.986	2826.42
771.426	2461.12
771.866	841.32
772.306	348.92
772.745	218.52
773.185	182.82
773.625	168.52
774.065	158.52
774.505	174.32
774.944	220.42
775.384	382.32
775.824	604.72
776.263	580.32
776.703	284.42
777.142	165.02
777.582	141.32
778.021	129.42
778.461	121.02
778.9	136.82
779.34	136.72
779.779	123.62
780.219	113.02
780.658	115.22
781.097	122.92
781.537	123.52
781.976	111.82
782.415	112.82
782.855	110.02
783.294	105.12
783.733	109.12
784.172	110.72
784.611	106.82
785.05	113.32
785.489	110.72
785.928	119.22
786.367	132.22
786.806	120.82
787.245	140.72
787.684	142.02
788.123	155.42
788.562	144.52
789.001	135.82
789.44	133.12
789.879	130.92
790.317	123.52
790.756	133.62
791.195	137.72
791.634	155.92
792.072	222.42
792.511	409.62
792.95	1132.22
793.388	2253.72
793.827	1981.92
794.265	706.92
794.704	300.52
795.142	192.22
795.581	162.22
796.019	142.92
796.458	140.42
796.896	133.82
797.334	141.72
797.773	177.42
798.211	242.92
798.649	492.22
799.087	1126.22
799.526	1744.22
799.964	2179.92
800.402	2083.22
800.84	800.82
801.278	329.22
801.716	203.32
802.154	163.92
802.592	158.52
803.03	146.12
803.468	149.52
803.906	155.92
804.344	152.02
804.782	153.32
805.22	150.72
805.658	138.62
806.096	159.82
806.533	173.62
806.971	191.62
807.409	234.62
807.847	358.52
808.284	757.42
808.722	2099.02
809.16	3509.02
809.597	3498.72
810.035	5906.22
810.472	6001.02
810.91	2245.02
811.347	871.82
811.785	435.02
812.222	270.52
812.66	215.52
813.097	177.52
813.535	149.52
813.972	141.52
814.409	126.22
814.846	111.92
815.284	118.22
815.721	111.72
816.158	107.42
816.595	118.22
817.032	157.52
817.47	189.12
817.907	132.02
818.344	103.72
818.781	106.82
819.218	103.62
819.655	127.92
820.092	202.52
820.529	223.72
820.966	178.72
821.403	134.32
821.839	104.32
822.276	101.92
822.713	130.72
823.15	143.42
823.587	123.22
824.023	162.02
824.46	351.12
824.897	997.62
825.333	1412.32
825.77	615.02
826.206	252.42
826.643	151.42
827.08	104.92
827.516	88.82
827.953	82.42
828.389	84.22
828.825	72.62
829.262	67.02
829.698	62.12
830.135	66.82
830.571	62.72
831.007	70.82
831.443	66.92
831.88	66.92
832.316	68.12
832.752	67.72
833.188	64.02
833.624	63.42
834.06	76.52
834.497	72.22
834.933	71.82
835.369	78.92
835.805	76.22
836.241	83.02
836.677	85.82
837.112	99.42
837.548	114.92
837.984	145.52
838.42	224.72
838.856	559.52
839.292	1671.72
839.727	2421.72
840.163	1155.02
840.599	1044.22
841.034	2210.92
841.47	2197.12
841.906	823.72
842.341	356.32
842.777	213.12
843.212	209.72
843.648	191.42
844.083	112.12
844.519	89.52
844.954	73.22
845.39	57.12
845.825	66.62
846.261	63.22
846.696	57.52
847.131	56.92
847.566	63.22
848.002	59.12
848.437	59.72
848.872	61.72
849.307	65.42
849.742	95.02
850.177	208.42
850.613	619.52
851.048	918.12
851.483	408.52
851.918	161.72
852.353	85.82
852.788	58.82
853.223	54.42
853.657	58.22
854.092	50.82
854.527	44.92
854.962	46.02
855.397	49.12
855.832	53.42
856.266	41.62
856.701	41.42
857.136	42.32
857.57	47.32
858.005	57.62
858.44	61.12
858.874	51.32
859.309	57.52
859.743	44.52
860.178	50.12
860.612	47.12
861.047	59.02
861.481	73.12
861.915	79.02
862.35	52.42
862.784	35.02
863.218	39.62
863.653	30.22
864.087	41.92
864.521	59.72
864.955	79.42
865.39	163.12
865.824	188.72
866.258	130.92
866.692	185.82
867.126	195.82
867.56	115.22
867.994	59.32
868.428	40.32
868.862	48.42
869.296	57.62
869.73	65.42
870.164	59.32
870.598	53.82
871.031	39.42
871.465	28.72
871.899	33.82
872.333	29.52
872.766	23.72
873.2	25.72
873.634	29.32
874.067	22.92
874.501	30.12
874.935	30.92
875.368	33.32
875.802	32.52
876.235	27.62
876.669	29.72
877.102	22.32
877.535	26.42
877.969	23.02
878.402	30.12
878.836	20.12
879.269	19.22
879.702	25.82
880.135	22.92
880.569	22.42
881.002	25.22
881.435	19.72
881.868	21.02
882.301	19.82
882.734	17.62
883.167	31.22
883.601	22.42
884.034	26.42
884.467	16.72
884.899	20.02
885.332	20.42
885.765	12.52
886.198	20.52
886.631	15.72
887.064	22.62
887.497	19.22
887.929	29.02
888.362	20.02
888.795	14.12
889.228	17.22
889.66	20.62
890.093	19.82
890.526	20.92
890.958	19.82
891.391	20.12
891.823	24.62
892.256	9.82
892.688	16.32
893.121	15.22
893.553	19.22
893.985	27.62
894.418	20.62
894.85	15.42
895.282	18.02
895.715	20.72
896.147	22.62
896.579	22.92
897.011	16.22
897.444	18.22
897.876	8.22
898.308	19.22
898.74	14.02
899.172	13.42
899.604	19.02
900.036	24.52
900.468	16.92
900.9	15.82
901.332	18.22
901.764	19.22
902.196	17.72
902.628	18.22
903.06	14.42
903.491	31.52
903.923	25.42
904.355	20.12
904.787	22.02
905.218	19.42
905.65	18.92
906.082	15.62
906.513	13.52
906.945	14.62
907.376	15.02
907.808	23.42
908.239	21.62
908.671	24.52
909.102	24.42
909.534	29.32
909.965	54.72
910.397	106.52
910.828	343.32
911.259	496.72
911.691	234.42
912.122	116.12
912.553	55.22
912.984	39.32
913.415	22.52
913.847	30.52
914.278	9.92
914.709	18.32
915.14	17.22
915.571	19.32
916.002	13.12
916.433	17.22
916.864	12.92
917.295	9.22
917.726	19.22
918.157	16.62
918.587	28.72
919.018	24.02
919.449	23.32
919.88	26.82
920.311	36.42
920.741	50.52
921.172	176.72
921.603	158.72
922.033	74.52
922.464	51.92
922.895	26.62
923.325	19.22
923.756	7.52
924.186	14.02
924.617	21.92
925.047	25.72
925.478	24.02
925.908	21.82
926.338	12.42
926.769	13.92
927.199	15.82
927.629	4.72
928.06	16.32
928.49	15.62
928.92	13.82
929.35	11.12
929.78	11.32
930.21	6.32
930.641	4.52
931.071	7.52
931.501	6.32
931.931	3.92
932.361	6.92
932.791	0.02
933.221	11.72
933.651	4.02
934.08	14.72
934.51	29.92
934.94	12.02
935.37	5.52
935.8	10.02
936.229	9.32
936.659	12.82
937.089	-0.08
937.519	18.72
937.948	27.02
938.378	23.82
938.807	3.22
939.237	4.62
939.666	7.22
940.096	-2.18
940.525	5.32
940.955	1.62
941.384	-0.68
941.814	-4.78
942.243	-1.18
942.672	5.12
943.102	1.92
943.531	-1.18
943.96	2.92
944.39	6.32
944.819	6.02
945.248	6.22
945.677	-0.28
946.106	9.02
946.535	2.42
946.964	0.22
947.393	3.22
947.822	2.82
948.251	-10.38
948.68	3.92
949.109	2.02
949.538	2.02
949.967	3.12
950.396	-0.18
950.825	-4.88
951.254	-0.08
951.682	-3.48
952.111	3.62
952.54	8.42
952.969	0.42
953.397	-6.68
953.826	-5.08
954.254	-6.08
954.683	9.52
955.112	-1.68
955.54	2.82
955.969	3.02
956.397	0.82
956.826	-0.08
957.254	6.52
957.682	-0.98
958.111	7.42
958.539	4.92
958.967	-0.08
959.396	-0.28
959.824	2.32
960.252	2.72
960.68	-6.08
961.109	-4.78
961.537	-5.38
961.965	2.72
962.393	-2.88
962.821	-5.38
963.249	7.02
963.677	6.42
964.105	3.62
964.533	50.12
964.961	43.32
965.389	15.02
965.817	5.62
966.245	-3.18
966.672	-5.18
967.1	-4.08
967.528	-0.98
967.956	-0.48
968.383	-2.28
968.811	0.12
969.239	-0.08
969.666	-2.28
970.094	0.12
970.522	5.22
970.949	0.22
971.377	-4.58
971.804	-3.28
972.232	-5.08
972.659	-2.38
973.087	3.32
973.514	-2.48
973.941	-4.28
974.369	-4.18
974.796	-3.78
975.223	-0.08
975.651	1.12
976.078	0.52
976.505	-1.68
976.932	3.52
977.359	15.72
977.786	13.02
978.214	0.82
978.641	-2.68
979.068	-6.68
979.495	-4.48
979.922	2.52
980.349	-4.18
980.776	5.22
981.202	0.22
981.629	-1.68
982.056	0.92
982.483	0.02
982.91	4.42
983.337	-7.58
983.763	6.52
984.19	-5.78
984.617	-6.38
985.043	-7.38
985.47	-5.38
985.897	-7.58
986.323	-4.78
986.75	5.32
987.176	1.62
987.603	3.82
988.029	1.52
988.456	-4.58
988.882	4.72
989.308	-10.18
989.735	-9.98
990.161	-1.38
990.587	-3.08
991.014	-1.28
991.44	8.12
991.866	-0.78
992.292	1.12
992.719	-0.88
993.145	5.52
993.571	-8.98
993.997	-6.48
994.423	-2.58
994.849	-2.68
995.275	-0.28
995.701	0.72
996.127	1.32
996.553	4.22
996.979	-3.08
997.405	-10.18
997.83	-2.18
998.256	-4.68
998.682	-4.68
999.108	-6.48
999.534	5.22
999.959	0.72
1000.385	-6.28
1000.811	4.12
1001.236	-1.48
1001.662	-6.08
1002.087	-6.58
1002.513	6.62
1002.938	3.22
1003.364	-0.48
1003.789	-0.68
1004.215	2.82
1004.64	-2.58
1005.066	0.92
1005.491	-7.18
1005.916	-4.58
1006.342	-1.18
1006.767	-10.18
1007.192	-0.78
1007.617	-2.08
1008.042	-4.88
1008.468	-6.18
1008.893	-1.98
1009.318	-2.98
1009.743	-2.98
1010.168	1.02
1010.593	3.02
1011.018	-8.98
1011.443	-0.28
1011.868	2.72
1012.293	1.62
1012.718	-0.78
1013.143	2.22
1013.567	4.62
1013.992	-5.98
1014.417	-12.08
1014.842	4.32
1015.267	-8.68
1015.691	-4.68
1016.116	5.02
1016.541	1.02
1016.965	-2.08
1017.39	6.12
1017.814	-2.98
1018.239	0.42
1018.663	-10.08
1019.088	-16.28
1019.512	-5.78
1019.937	-1.88
1020.361	-4.98
1020.785	-8.18
1021.21	-7.08
1021.634	-3.08
1022.058	-1.08
1022.483	4.22
1022.907	-5.78
1023.331	-4.38
1023.755	-0.78
1024.179	0.52
1024.604	-5.58
1025.028	-6.08
1025.452	-8.28
1025.876	-2.88
1026.3	4.92
1026.724	-11.28
1027.148	-6.38
1027.572	-5.88
1027.996	-4.68
1028.42	-4.88
1028.843	-2.48
1029.267	-10.58
1029.691	-5.68
1030.115	-8.78
1030.539	-12.08
1030.962	-7.48
1031.386	-13.98
1031.81	-4.18
1032.233	0.12
1032.657	-2.98
1033.08	-2.48
1033.504	-2.08
1033.927	-6.18
1034.351	-1.38
1034.774	-4.58
1035.198	0.22
1035.621	-10.58
1036.045	-5.28
1036.468	-0.88
1036.891	-8.28
1037.315	-3.98
1037.738	-7.18
1038.161	-0.18
1038.584	-5.38
1039.008	-6.28
1039.431	-1.08
1039.854	0.62
1040.277	-7.98
1040.7	-10.78
1041.123	0.12
1041.546	-7.08
1041.969	-10.98
1042.392	-6.58
1042.815	-1.78
1043.238	0.52
1043.661	-0.18
1044.084	-6.28
1044.507	-2.48
1044.93	-6.78
1045.352	-4.68
1045.775	-2.58
1046.198	-1.08
1046.621	-3.58
1047.043	-6.38
1047.466	4.92
1047.889	-2.38
1048.311	-4.18
1048.734	-0.48
1049.156	-4.28
1049.579	-4.78
1050.001	-8.98
1050.424	-2.18
1050.846	-2.28
1051.269	-5.78
1051.691	-3.18
1052.113	-2.98
1052.536	2.02
1052.958	-1.68
1053.38	-10.18
1053.802	-6.28
1054.225	0.22
1054.647	-5.48
1055.069	-1.48
1055.491	-1.28
1055.913	0.72
1056.335	2.12
1056.757	-8.38
1057.179	-8.08
1057.601	-0.78
1058.023	-5.28
1058.445	-7.68
1058.867	-11.78
1059.289	-6.58
1059.711	-6.28
1060.133	-3.68
1060.555	-8.78
1060.976	-4.78
1061.398	-6.98
1061.82	-8.28
1062.241	-5.08
1062.663	-9.38
1063.085	-7.28
1063.506	-3.88
1063.928	-6.08
1064.35	-0.88
1064.771	-4.48
1065.193	-8.48
1065.614	-15.98
1066.035	-3.78
1066.457	-4.08
1066.878	-1.58
1067.3	-5.88
1067.721	-5.58
1068.142	-5.58
1068.564	-6.58
1068.985	-3.38
1069.406	-4.78
1069.827	-8.18
1070.248	-1.88
1070.67	-9.98
1071.091	-9.18
1071.512	-0.38
1071.933	-5.48
1072.354	-9.98
1072.775	-8.48
1073.196	-8.68
1073.617	-2.48
1074.038	-6.18
1074.459	-4.08
1074.88	-3.48
1075.3	-3.28
1075.721	-10.28
1076.142	-5.38
1076.563	-2.28
1076.983	-9.48
1077.404	-3.48
1077.825	-11.78
1078.246	-3.88
1078.666	-16.38
1079.087	-7.08
1079.507	-2.88
1079.928	-0.28
1080.348	-0.38
1080.769	-4.48
1081.189	-1.08
1081.61	-6.68
1082.03	-7.18
1082.451	-3.68
1082.871	-5.78
1083.291	-7.48
1083.711	-7.48
1084.132	-4.68
1084.552	-3.38
1084.972	-2.88
1085.392	-6.18
1085.813	-12.28
1086.233	-11.58
1086.653	-8.68
1087.073	-2.18
1087.493	-10.38
1087.913	-11.68
1088.333	-4.38
1088.753	-4.18
1089.173	-0.88
1089.593	-4.28
1090.013	5.72
1090.433	0.82
1090.852	-7.68
1091.272	-2.98
1091.692	2.62
1092.112	-5.18
1092.531	-7.68
1092.951	-13.88
1093.371	-1.78
1093.79	-0.38
1094.21	-8.38
1094.63	-3.98
1095.049	-6.78
1095.469	-4.98
1095.888	-5.98
1096.308	0.32
1096.727	0.12
1097.146	-5.98
1097.566	-2.08
1097.985	-9.08
1098.405	-5.48
1098.824	-6.78
1099.243	-6.08
1099.662	-6.78
1100.082	-7.98
1100.501	-3.28
1100.92	-10.18
1101.339	-2.78
1101.758	-9.38
