Data from 20171114-ORNL-Ar_H_NY_Subt18_08-09-18-228.txt Node
Date: Tue Nov 14 08:09:18 EST 2017
User: Ender
Spectrometer: HR+D1039
Trigger mode: 0
Integration Time (sec): 2.730000E-2
Scans to average: 10
Electric dark correction enabled: true
Nonlinearity correction enabled: false
Boxcar width: 0
XAxis mode: Wavelengths
Number of Pixels in Spectrum: 2048
>>>>>Begin Spectral Data<<<<<
187.836	-8.03
188.309	-8.03
188.782	-8.03
189.255	1.67
189.728	0.87
190.201	6.67
190.674	-0.13
191.147	4.27
191.619	-6.03
192.092	2.07
192.565	6.17
193.038	-1.03
193.511	2.27
193.984	-1.23
194.456	-7.83
194.929	-1.53
195.402	-0.33
195.874	2.17
196.347	-0.43
196.82	-9.73
197.292	0.97
197.765	-4.63
198.237	-7.13
198.71	1.97
199.182	-0.93
199.655	4.17
200.127	9.07
200.6	-2.63
201.072	-4.43
201.544	-4.93
202.017	2.97
202.489	6.67
202.961	0.47
203.433	-3.53
203.906	-8.73
204.378	-6.63
204.85	-3.93
205.322	-10.83
205.794	-8.73
206.266	-1.83
206.739	-0.13
207.211	5.17
207.683	-8.23
208.155	-3.43
208.627	-8.53
209.099	-6.53
209.57	-0.03
210.042	-3.93
210.514	-3.83
210.986	-5.43
211.458	-9.83
211.93	2.27
212.402	3.37
212.873	-8.13
213.345	-2.03
213.817	-10.73
214.288	-4.53
214.76	-12.63
215.232	-3.13
215.703	-6.63
216.175	-4.53
216.646	-6.03
217.118	-7.03
217.589	-6.33
218.061	-2.43
218.532	-1.53
219.004	-2.73
219.475	-4.33
219.946	-7.93
220.418	-10.13
220.889	1.27
221.36	-0.03
221.832	-9.03
222.303	-9.03
222.774	-1.03
223.245	-9.73
223.717	-3.23
224.188	-5.83
224.659	-6.43
225.13	-5.43
225.601	-7.83
226.072	0.07
226.543	-1.63
227.014	0.07
227.485	-4.23
227.956	-7.53
228.427	-2.53
228.898	3.37
229.369	7.87
229.839	-5.83
230.31	-7.03
230.781	0.97
231.252	-4.33
231.722	-6.03
232.193	-8.83
232.664	-3.03
233.135	5.77
233.605	-5.33
234.076	-9.03
234.546	0.57
235.017	0.07
235.487	-0.23
235.958	-5.33
236.428	-8.93
236.899	-3.03
237.369	-0.43
237.84	-5.13
238.31	7.27
238.78	-4.53
239.251	-7.83
239.721	-4.83
240.191	1.27
240.662	-6.83
241.132	0.37
241.602	-5.83
242.072	0.37
242.542	0.57
243.013	-6.53
243.483	-1.53
243.953	-8.33
244.423	-1.43
244.893	-7.53
245.363	2.37
245.833	-1.53
246.303	-7.13
246.773	2.77
247.243	-6.23
247.712	-3.33
248.182	-1.33
248.652	4.87
249.122	-5.13
249.592	0.97
250.061	-0.23
250.531	7.37
251.001	-0.13
251.471	7.37
251.94	6.37
252.41	-1.23
252.879	-8.43
253.349	7.37
253.818	5.27
254.288	0.37
254.757	-0.63
255.227	-6.33
255.696	-0.23
256.166	3.87
256.635	1.87
257.105	0.57
257.574	-1.33
258.043	-2.63
258.513	-8.93
258.982	-2.93
259.451	-7.33
259.92	-0.23
260.389	1.77
260.859	1.57
261.328	5.27
261.797	-0.23
262.266	-5.93
262.735	5.27
263.204	-0.03
263.673	-2.23
264.142	2.77
264.611	-14.53
265.08	-4.93
265.549	-3.33
266.018	1.97
266.487	-7.93
266.955	-5.93
267.424	-7.03
267.893	1.67
268.362	-1.63
268.83	-3.33
269.299	5.27
269.768	-2.93
270.236	2.57
270.705	-8.33
271.174	0.27
271.642	1.07
272.111	-5.83
272.579	-1.43
273.048	3.37
273.516	-1.43
273.985	6.27
274.453	1.77
274.922	10.37
275.39	1.37
275.858	1.57
276.327	5.77
276.795	9.17
277.263	-3.43
277.731	6.87
278.2	8.37
278.668	4.17
279.136	6.37
279.604	0.37
280.072	5.57
280.54	2.67
281.008	5.97
281.477	11.37
281.945	3.97
282.413	8.57
282.881	8.77
283.348	0.27
283.816	3.17
284.284	5.87
284.752	14.97
285.22	4.67
285.688	8.17
286.156	6.37
286.623	10.67
287.091	5.47
287.559	10.27
288.026	5.67
288.494	9.77
288.962	-0.53
289.429	4.77
289.897	13.37
290.364	8.87
290.832	12.27
291.3	0.77
291.767	3.67
292.234	12.17
292.702	3.37
293.169	9.07
293.637	15.97
294.104	15.47
294.571	-5.93
295.039	4.47
295.506	9.17
295.973	13.27
296.44	13.17
296.908	14.87
297.375	6.27
297.842	16.17
298.309	6.87
298.776	4.57
299.243	17.07
299.71	2.87
300.177	12.47
300.644	11.07
301.111	10.27
301.578	14.67
302.045	8.47
302.512	13.37
302.979	19.27
303.446	6.07
303.913	10.47
304.379	7.67
304.846	9.57
305.313	13.97
305.78	9.27
306.246	15.57
306.713	23.07
307.18	16.37
307.646	21.07
308.113	12.57
308.579	9.97
309.046	17.17
309.512	17.37
309.979	3.27
310.445	17.77
310.912	22.67
311.378	16.67
311.845	20.97
312.311	20.37
312.777	23.37
313.244	22.37
313.71	26.47
314.176	19.87
314.642	17.67
315.109	14.57
315.575	21.67
316.041	16.67
316.507	19.77
316.973	25.37
317.439	19.37
317.905	27.67
318.371	26.97
318.837	24.47
319.303	18.27
319.769	20.27
320.235	20.67
320.701	22.57
321.167	29.17
321.633	20.87
322.099	22.57
322.564	32.37
323.03	20.07
323.496	23.77
323.962	32.97
324.427	24.47
324.893	36.47
325.359	30.57
325.824	26.37
326.29	17.67
326.755	27.27
327.221	29.27
327.686	28.27
328.152	29.47
328.617	28.47
329.083	33.17
329.548	38.07
330.014	36.97
330.479	26.77
330.944	29.67
331.41	34.37
331.875	34.67
332.34	34.67
332.805	27.77
333.271	33.87
333.736	27.17
334.201	37.87
334.666	37.37
335.131	40.97
335.596	35.97
336.061	36.17
336.526	29.07
336.991	37.27
337.456	39.27
337.921	32.87
338.386	32.97
338.851	34.27
339.316	35.57
339.781	38.07
340.246	41.97
340.711	36.17
341.175	39.07
341.64	32.97
342.105	32.17
342.569	36.67
343.034	43.47
343.499	37.47
343.963	42.27
344.428	54.07
344.893	50.47
345.357	50.17
345.822	45.67
346.286	53.67
346.751	55.77
347.215	51.17
347.679	56.17
348.144	69.17
348.608	61.67
349.073	55.17
349.537	52.67
350.001	51.47
350.465	72.17
350.93	62.87
351.394	57.07
351.858	55.87
352.322	67.47
352.786	65.97
353.25	72.77
353.715	81.87
354.179	77.67
354.643	90.07
355.107	93.47
355.571	78.87
356.035	79.17
356.498	84.77
356.962	87.77
357.426	89.87
357.89	93.27
358.354	69.27
358.818	62.47
359.281	57.57
359.745	59.37
360.209	56.67
360.673	63.17
361.136	65.67
361.6	64.47
362.064	68.57
362.527	69.77
362.991	74.67
363.454	67.27
363.918	58.87
364.381	60.07
364.845	60.87
365.308	67.07
365.772	72.97
366.235	69.57
366.698	61.97
367.162	67.47
367.625	72.47
368.088	72.97
368.552	65.87
369.015	72.37
369.478	75.97
369.941	84.37
370.404	73.97
370.867	76.97
371.331	84.87
371.794	85.37
372.257	78.97
372.72	89.77
373.183	85.67
373.646	78.07
374.109	83.77
374.572	85.27
375.035	84.27
375.497	82.77
375.96	92.47
376.423	90.47
376.886	93.07
377.349	86.97
377.811	88.07
378.274	94.27
378.737	88.17
379.199	98.07
379.662	96.37
380.125	92.27
380.587	91.57
381.05	93.27
381.512	98.57
381.975	105.37
382.437	101.67
382.9	99.17
383.362	106.07
383.825	114.97
384.287	108.17
384.75	105.77
385.212	107.27
385.674	113.47
386.136	114.47
386.599	104.57
387.061	104.67
387.523	101.47
387.985	106.97
388.447	115.17
388.91	115.87
389.372	110.07
389.834	108.37
390.296	115.27
390.758	115.17
391.22	121.87
391.682	125.87
392.144	131.27
392.606	132.77
393.068	124.77
393.529	127.37
393.991	117.47
394.453	109.37
394.915	116.57
395.377	118.67
395.838	119.47
396.3	124.57
396.762	124.67
397.224	121.17
397.685	108.97
398.147	117.47
398.608	123.57
399.07	117.27
399.531	117.17
399.993	121.37
400.454	135.67
400.916	127.27
401.377	131.17
401.839	133.67
402.3	135.47
402.762	151.17
403.223	158.57
403.684	143.67
404.145	141.17
404.607	140.57
405.068	138.97
405.529	146.37
405.99	160.47
406.451	146.77
406.913	151.87
407.374	147.57
407.835	143.07
408.296	154.67
408.757	159.37
409.218	166.37
409.679	163.47
410.14	158.47
410.601	161.47
411.062	167.97
411.522	167.67
411.983	163.17
412.444	157.77
412.905	167.87
413.366	161.37
413.826	184.77
414.287	199.47
414.748	252.17
415.208	230.97
415.669	198.27
416.13	198.27
416.59	189.17
417.051	199.27
417.511	206.77
417.972	218.27
418.432	237.57
418.893	264.07
419.353	235.57
419.814	190.87
420.274	175.77
420.734	166.27
421.195	189.37
421.655	171.97
422.115	178.17
422.576	180.57
423.036	182.07
423.496	195.57
423.956	209.17
424.416	213.17
424.876	254.77
425.336	242.87
425.797	249.37
426.257	241.87
426.717	223.77
427.177	215.97
427.637	201.77
428.097	211.67
428.556	230.17
429.016	252.87
429.476	240.57
429.936	248.47
430.396	252.47
430.856	267.67
431.315	284.67
431.775	313.97
432.235	345.57
432.694	320.27
433.154	325.17
433.614	349.47
434.073	308.97
434.533	259.67
434.993	248.07
435.452	260.97
435.912	263.97
436.371	260.27
436.83	254.77
437.29	241.97
437.749	233.77
438.209	226.17
438.668	256.17
439.127	260.17
439.587	246.57
440.046	233.77
440.505	243.17
440.964	261.17
441.424	292.87
441.883	289.37
442.342	246.57
442.801	212.57
443.26	210.77
443.719	221.77
444.178	211.37
444.637	199.97
445.096	221.97
445.555	218.07
446.014	222.77
446.473	217.37
446.932	223.27
447.391	214.87
447.849	221.67
448.308	215.07
448.767	215.77
449.226	227.97
449.685	227.97
450.143	247.87
450.602	230.47
451.061	218.17
451.519	224.97
451.978	226.47
452.436	219.37
452.895	227.97
453.353	249.57
453.812	237.67
454.27	236.07
454.729	232.57
455.187	238.07
455.646	228.97
456.104	236.87
456.562	251.87
457.021	256.87
457.479	252.57
457.937	264.17
458.395	258.27
458.854	236.37
459.312	241.57
459.77	256.07
460.228	250.07
460.686	241.07
461.144	239.77
461.602	242.27
462.06	238.77
462.518	249.77
462.976	249.67
463.434	258.57
463.892	258.17
464.35	267.87
464.808	271.17
465.266	255.77
465.724	259.47
466.181	260.47
466.639	265.27
467.097	279.77
467.555	293.87
468.012	296.57
468.47	300.47
468.928	315.57
469.385	331.67
469.843	335.77
470.3	340.77
470.758	353.17
471.215	371.17
471.673	386.97
472.13	383.97
472.588	408.17
473.045	367.57
473.503	370.27
473.96	381.27
474.417	389.57
474.875	417.07
475.332	456.97
475.789	443.07
476.246	446.87
476.704	466.97
477.161	493.37
477.618	505.67
478.075	538.07
478.532	586.97
478.989	651.67
479.446	745.57
479.903	719.27
480.36	758.47
480.817	795.47
481.274	878.97
481.731	973.07
482.188	1046.17
482.645	1148.47
483.102	1224.67
483.558	1348.67
484.015	1394.37
484.472	1372.47
484.929	1322.87
485.385	1277.27
485.842	1251.17
486.299	1200.57
486.755	1182.67
487.212	1002.07
487.668	853.17
488.125	808.07
488.582	729.67
489.038	707.57
489.494	676.37
489.951	651.37
490.407	634.37
490.864	613.97
491.32	615.37
491.776	620.17
492.233	628.77
492.689	584.87
493.145	581.67
493.602	584.87
494.058	595.17
494.514	586.67
494.97	623.97
495.426	626.17
495.882	599.57
496.338	590.27
496.794	600.57
497.251	589.87
497.707	605.27
498.163	611.47
498.618	631.07
499.074	615.67
499.53	642.97
499.986	644.37
500.442	625.07
500.898	602.57
501.354	601.37
501.809	605.27
502.265	614.27
502.721	620.17
503.177	616.87
503.632	626.17
504.088	629.77
504.543	656.97
504.999	673.17
505.455	638.57
505.91	609.47
506.366	615.47
506.821	608.17
507.277	617.97
507.732	615.07
508.187	608.37
508.643	618.67
509.098	619.17
509.553	649.17
510.009	658.07
510.464	670.97
510.919	677.27
511.375	687.97
511.83	688.57
512.285	712.27
512.74	734.37
513.195	752.57
513.65	749.47
514.105	746.27
514.56	753.27
515.015	781.17
515.47	782.37
515.925	766.37
516.38	766.67
516.835	774.27
517.29	763.67
517.745	760.17
518.2	749.77
518.655	738.27
519.109	730.47
519.564	727.97
520.019	718.57
520.474	712.17
520.928	720.17
521.383	705.27
521.838	700.97
522.292	697.57
522.747	700.67
523.201	696.47
523.656	686.37
524.11	682.67
524.565	689.57
525.019	684.87
525.474	690.37
525.928	681.97
526.382	683.57
526.837	688.47
527.291	686.17
527.745	690.27
528.2	682.67
528.654	686.07
529.108	671.07
529.562	682.17
530.016	676.07
530.47	678.07
530.925	682.87
531.379	672.27
531.833	689.97
532.287	687.77
532.741	686.27
533.195	691.27
533.649	700.57
534.103	705.07
534.556	693.27
535.01	696.97
535.464	694.67
535.918	709.27
536.372	703.47
536.826	708.17
537.279	688.87
537.733	699.47
538.187	714.37
538.64	701.87
539.094	720.87
539.548	715.87
540.001	716.17
540.455	712.97
540.908	723.37
541.362	726.77
541.815	746.27
542.269	749.97
542.722	744.07
543.175	761.17
543.629	763.07
544.082	774.77
544.536	780.97
544.989	777.77
545.442	794.57
545.895	782.47
546.349	770.97
546.802	789.47
547.255	799.37
547.708	803.97
548.161	813.17
548.614	817.47
549.067	827.77
549.52	811.47
549.973	805.87
550.426	802.77
550.879	786.87
551.332	790.17
551.785	794.97
552.238	801.47
552.691	819.07
553.144	830.67
553.596	838.67
554.049	864.67
554.502	883.07
554.955	903.57
555.407	894.77
555.86	894.47
556.313	889.87
556.765	874.57
557.218	879.97
557.67	871.97
558.123	868.67
558.576	872.57
559.028	875.07
559.48	883.97
559.933	876.47
560.385	831.37
560.838	801.87
561.29	791.07
561.742	785.27
562.195	762.37
562.647	760.57
563.099	769.87
563.551	778.97
564.004	777.07
564.456	775.07
564.908	757.27
565.36	749.97
565.812	731.47
566.264	710.07
566.716	713.37
567.168	697.07
567.62	710.57
568.072	698.67
568.524	692.57
568.976	686.27
569.428	679.97
569.88	673.57
570.332	687.37
570.784	685.37
571.235	685.17
571.687	711.87
572.139	694.27
572.59	709.17
573.042	713.47
573.494	708.67
573.945	704.67
574.397	692.07
574.849	694.87
575.3	696.17
575.752	682.27
576.203	678.17
576.655	682.57
577.106	668.87
577.557	673.27
578.009	689.17
578.46	675.77
578.912	658.07
579.363	662.17
579.814	666.47
580.265	669.37
580.717	669.97
581.168	668.37
581.619	682.27
582.07	686.57
582.521	670.97
582.972	660.67
583.423	677.27
583.875	674.77
584.326	679.27
584.777	701.37
585.227	720.87
585.678	737.57
586.129	756.17
586.58	780.47
587.031	800.17
587.482	824.97
587.933	856.47
588.384	821.37
588.834	806.37
589.285	777.47
589.736	774.67
590.186	786.77
590.637	762.77
591.088	746.17
591.538	734.57
591.989	731.07
592.439	723.57
592.89	726.47
593.34	711.67
593.791	705.47
594.241	707.27
594.692	700.17
595.142	698.87
595.593	695.27
596.043	720.67
596.493	710.07
596.943	699.77
597.394	727.17
597.844	719.17
598.294	739.07
598.744	757.67
599.195	783.97
599.645	823.67
600.095	866.87
600.545	918.37
600.995	978.37
601.445	1036.67
601.895	1098.57
602.345	1137.67
602.795	1123.17
603.245	1065.27
603.695	1017.57
604.145	969.97
604.594	928.17
605.044	870.37
605.494	804.87
605.944	757.67
606.393	744.07
606.843	724.37
607.293	734.37
607.743	729.17
608.192	748.87
608.642	758.27
609.091	756.17
609.541	771.37
609.99	763.77
610.44	750.87
610.889	715.97
611.339	698.97
611.788	680.97
612.238	690.67
612.687	701.37
613.136	697.47
613.586	712.37
614.035	705.97
614.484	721.37
614.933	718.07
615.383	707.17
615.832	715.67
616.281	704.87
616.73	683.87
617.179	657.57
617.628	659.57
618.077	633.37
618.526	621.27
618.975	625.37
619.424	617.17
619.873	609.97
620.322	622.77
620.771	610.97
621.22	608.17
621.669	594.37
622.118	589.37
622.567	575.47
623.015	571.07
623.464	575.87
623.913	571.27
624.361	562.17
624.81	557.67
625.259	556.17
625.707	563.87
626.156	562.07
626.604	567.77
627.053	570.17
627.501	571.77
627.95	571.97
628.398	584.57
628.847	580.27
629.295	583.27
629.744	588.07
630.192	576.07
630.64	562.17
631.089	542.27
631.537	543.77
631.985	532.07
632.433	536.07
632.881	527.57
633.33	540.47
633.778	530.47
634.226	531.17
634.674	547.97
635.122	546.27
635.57	568.17
636.018	565.27
636.466	564.67
636.914	562.37
637.362	580.27
637.81	586.97
638.258	590.47
638.705	588.57
639.153	617.97
639.601	624.47
640.049	659.47
640.497	682.87
640.944	700.17
641.392	648.37
641.84	616.87
642.287	582.17
642.735	568.77
643.182	572.47
643.63	566.17
644.078	567.57
644.525	577.07
644.973	583.97
645.42	596.47
645.867	606.57
646.315	633.07
646.762	659.27
647.21	685.67
647.657	699.67
648.104	739.97
648.551	760.67
648.999	820.37
649.446	894.27
649.893	983.97
650.34	1116.67
650.787	1338.97
651.234	1643.87
651.682	2116.37
652.129	2895.77
652.576	4101.07
653.023	5975.17
653.47	8032.47
653.917	9929.67
654.363	11320.97
654.81	12403.27
655.257	11755.67
655.704	7811.27
656.151	4702.87
656.598	3101.87
657.044	2222.87
657.491	1719.87
657.938	1402.17
658.385	1172.87
658.831	1030.47
659.278	919.67
659.724	828.07
660.171	759.47
660.618	710.97
661.064	675.47
661.511	655.57
661.957	645.67
662.404	643.27
662.85	645.77
663.296	623.67
663.743	565.27
664.189	538.87
664.635	541.77
665.082	523.27
665.528	526.97
665.974	515.97
666.42	520.07
666.867	504.27
667.313	488.77
667.759	470.97
668.205	453.97
668.651	456.57
669.097	453.27
669.543	450.97
669.989	451.57
670.435	450.87
670.881	454.07
671.327	463.77
671.773	473.27
672.219	502.77
672.665	559.67
673.11	603.47
673.556	647.87
674.002	687.37
674.448	678.57
674.893	552.97
675.339	489.17
675.785	441.27
676.23	436.47
676.676	411.07
677.122	387.27
677.567	379.27
678.013	371.97
678.458	369.27
678.904	371.27
679.349	355.77
679.794	364.37
680.24	359.57
680.685	353.67
681.131	358.37
681.576	364.97
682.021	365.47
682.466	365.67
682.912	358.57
683.357	369.07
683.802	394.27
684.247	419.87
684.692	471.27
685.137	515.47
685.583	554.67
686.028	568.37
686.473	532.07
686.918	456.47
687.363	430.57
687.807	402.57
688.252	370.07
688.697	360.97
689.142	344.17
689.587	333.57
690.032	335.57
690.477	353.47
690.921	348.17
691.366	389.87
691.811	411.97
692.255	434.87
692.7	479.37
693.145	534.67
693.589	753.27
694.034	1215.87
694.478	1614.57
694.923	1775.27
695.367	2301.07
695.812	1244.17
696.256	523.37
696.701	382.87
697.145	363.77
697.59	344.57
698.034	328.77
698.478	332.37
698.922	334.57
699.367	327.77
699.811	336.47
700.255	358.37
700.699	399.87
701.143	444.57
701.588	490.67
702.032	534.37
702.476	526.47
702.92	508.57
703.364	515.97
703.808	689.97
704.252	1107.57
704.696	1533.67
705.14	1702.37
705.584	2186.67
706.027	1103.87
706.471	551.77
706.915	410.77
707.359	369.87
707.803	324.67
708.246	323.47
708.69	320.57
709.134	322.47
709.577	319.27
710.021	335.17
710.465	315.47
710.908	309.87
711.352	308.97
711.795	328.17
712.239	362.87
712.682	390.27
713.126	416.97
713.569	470.17
714.012	367.57
714.456	314.47
714.899	291.17
715.342	279.47
715.786	273.77
716.229	263.27
716.672	269.97
717.115	259.07
717.558	264.47
718.002	261.57
718.445	268.97
718.888	294.37
719.331	300.27
719.774	319.27
720.217	316.27
720.66	291.27
721.103	269.17
721.546	262.07
721.989	257.57
722.432	239.57
722.874	247.77
723.317	236.47
723.76	243.47
724.203	258.57
724.645	330.87
725.088	468.47
725.531	596.17
725.974	669.47
726.416	564.27
726.859	316.67
727.301	257.57
727.744	240.07
728.187	238.27
728.629	250.77
729.071	255.77
729.514	269.17
729.956	279.97
730.399	297.97
730.841	301.87
731.283	286.27
731.726	275.37
732.168	277.07
732.61	276.57
733.053	302.17
733.495	336.47
733.937	363.27
734.379	413.17
734.821	458.87
735.263	588.67
735.705	912.97
736.148	1736.17
736.59	2720.67
737.032	3128.77
737.474	2533.27
737.916	850.87
738.357	455.87
738.799	336.87
739.241	309.67
739.683	297.07
740.125	302.17
740.567	311.77
741.008	320.17
741.45	329.47
741.892	329.37
742.334	374.57
742.775	375.67
743.217	359.07
743.658	286.17
744.1	265.07
744.542	280.17
744.983	325.77
745.425	358.37
745.866	353.87
746.307	295.37
746.749	278.67
747.19	345.67
747.632	493.47
748.073	975.97
748.514	2050.17
748.956	2984.97
749.397	3774.67
749.838	3113.87
750.279	3022.57
750.72	1550.17
751.162	574.67
751.603	337.27
752.044	265.07
752.485	221.97
752.926	218.57
753.367	210.17
753.808	205.37
754.249	199.07
754.69	188.17
755.131	192.97
755.572	189.37
756.013	186.97
756.453	186.17
756.894	194.67
757.335	194.07
757.776	192.17
758.216	203.57
758.657	205.97
759.098	210.27
759.538	232.87
759.979	276.87
760.42	404.37
760.86	795.17
761.301	2038.77
761.741	4776.77
762.182	6551.47
762.622	4652.77
763.063	1384.07
763.503	561.77
763.943	335.77
764.384	280.87
764.824	254.07
765.264	238.77
765.705	216.17
766.145	192.47
766.585	183.67
767.025	172.67
767.465	169.57
767.906	184.97
768.346	200.17
768.786	215.87
769.226	224.17
769.666	333.07
770.106	683.97
770.546	1701.27
770.986	2733.07
771.426	2412.17
771.866	830.07
772.306	341.07
772.745	214.27
773.185	172.57
773.625	169.37
774.065	160.07
774.505	171.07
774.944	217.37
775.384	376.17
775.824	602.87
776.263	580.87
776.703	294.87
777.142	167.87
777.582	137.17
778.021	126.57
778.461	130.77
778.9	129.47
779.34	129.97
779.779	112.47
780.219	115.27
780.658	110.87
781.097	106.57
781.537	121.07
781.976	117.37
782.415	116.37
782.855	105.37
783.294	106.87
783.733	112.67
784.172	115.37
784.611	101.77
785.05	110.87
785.489	119.67
785.928	121.47
786.367	119.17
786.806	129.17
787.245	133.37
787.684	142.37
788.123	150.67
788.562	145.67
789.001	135.57
789.44	129.07
789.879	126.87
790.317	117.87
790.756	135.57
791.195	130.97
791.634	158.27
792.072	216.47
792.511	401.67
792.95	1107.47
793.388	2199.57
793.827	1928.27
794.265	706.27
794.704	293.57
795.142	192.27
795.581	158.57
796.019	139.47
796.458	127.17
796.896	127.47
797.334	136.27
797.773	162.87
798.211	233.67
798.649	491.07
799.087	1099.87
799.526	1692.77
799.964	2131.37
800.402	2050.17
800.84	786.37
801.278	315.97
801.716	201.97
802.154	164.07
802.592	153.97
803.03	150.57
803.468	141.07
803.906	149.67
804.344	158.47
804.782	143.87
805.22	140.67
805.658	136.87
806.096	156.97
806.533	166.07
806.971	188.27
807.409	229.97
807.847	353.17
808.284	747.67
808.722	2047.17
809.16	3429.97
809.597	3411.37
810.035	5768.97
810.472	5852.57
810.91	2166.57
811.347	841.17
811.785	426.47
812.222	275.97
812.66	202.67
813.097	171.87
813.535	150.17
813.972	142.97
814.409	122.67
814.846	121.27
815.284	117.17
815.721	109.07
816.158	107.67
816.595	115.97
817.032	159.87
817.47	187.07
817.907	126.07
818.344	103.27
818.781	105.47
819.218	108.17
819.655	133.07
820.092	195.27
820.529	220.97
820.966	175.57
821.403	125.87
821.839	110.27
822.276	97.47
822.713	126.17
823.15	140.87
823.587	121.17
824.023	160.27
824.46	345.47
824.897	972.27
825.333	1388.07
825.77	599.67
826.206	248.77
826.643	144.47
827.08	102.27
827.516	85.07
827.953	79.17
828.389	84.77
828.825	76.27
829.262	70.67
829.698	62.97
830.135	67.97
830.571	63.27
831.007	66.67
831.443	69.87
831.88	60.77
832.316	60.87
832.752	65.27
833.188	68.77
833.624	71.57
834.06	73.87
834.497	72.17
834.933	77.37
835.369	74.07
835.805	73.17
836.241	80.57
836.677	87.27
837.112	93.37
837.548	113.77
837.984	144.17
838.42	215.37
838.856	558.27
839.292	1645.27
839.727	2370.47
840.163	1127.57
840.599	1029.47
841.034	2145.37
841.47	2162.77
841.906	809.87
842.341	347.77
842.777	210.67
843.212	215.37
843.648	193.17
844.083	114.67
844.519	85.27
844.954	80.97
845.39	62.17
845.825	58.77
846.261	64.67
846.696	56.67
847.131	55.57
847.566	58.27
848.002	52.17
848.437	59.37
848.872	65.47
849.307	66.87
849.742	93.97
850.177	200.17
850.613	594.67
851.048	897.37
851.483	391.97
851.918	165.07
852.353	86.87
852.788	56.57
853.223	52.47
853.657	51.87
854.092	47.37
854.527	46.57
854.962	47.07
855.397	53.07
855.832	52.47
856.266	38.27
856.701	45.97
857.136	39.17
857.57	44.57
858.005	49.97
858.44	65.47
858.874	46.17
859.309	51.47
859.743	45.37
860.178	45.67
860.612	50.17
861.047	57.67
861.481	69.47
861.915	72.07
862.35	54.57
862.784	37.27
863.218	39.87
863.653	32.87
864.087	48.87
864.521	50.77
864.955	71.47
865.39	169.17
865.824	181.67
866.258	123.97
866.692	175.77
867.126	176.57
867.56	106.87
867.994	54.27
868.428	41.87
868.862	54.07
869.296	60.77
869.73	69.37
870.164	58.27
870.598	50.47
871.031	42.17
871.465	36.77
871.899	38.77
872.333	25.97
872.766	25.57
873.2	25.67
873.634	34.57
874.067	21.87
874.501	22.67
874.935	31.47
875.368	27.37
875.802	22.77
876.235	30.07
876.669	20.97
877.102	24.67
877.535	27.07
877.969	21.27
878.402	25.47
878.836	20.87
879.269	24.07
879.702	25.87
880.135	21.77
880.569	20.97
881.002	25.47
881.435	18.27
881.868	25.47
882.301	29.67
882.734	24.87
883.167	25.37
883.601	22.97
884.034	25.87
884.467	19.17
884.899	19.77
885.332	12.57
885.765	15.87
886.198	13.17
886.631	20.77
887.064	19.07
887.497	21.77
887.929	29.77
888.362	15.77
888.795	14.47
889.228	18.07
889.66	23.67
890.093	21.07
890.526	18.17
890.958	16.77
891.391	16.07
891.823	23.17
892.256	19.47
892.688	16.87
893.121	25.67
893.553	15.47
893.985	22.17
894.418	19.47
894.85	11.47
895.282	15.67
895.715	15.87
896.147	22.77
896.579	19.27
897.011	15.57
897.444	12.87
897.876	20.17
898.308	16.37
898.74	18.77
899.172	15.67
899.604	26.47
900.036	20.67
900.468	19.17
900.9	11.97
901.332	19.37
901.764	14.57
902.196	20.17
902.628	21.37
903.06	21.27
903.491	33.27
903.923	28.17
904.355	21.17
904.787	23.47
905.218	23.77
905.65	21.57
906.082	18.87
906.513	15.07
906.945	17.57
907.376	17.67
907.808	19.87
908.239	16.97
908.671	18.27
909.102	23.17
909.534	31.17
909.965	51.37
910.397	97.17
910.828	324.87
911.259	479.77
911.691	219.17
912.122	109.57
912.553	58.27
912.984	35.17
913.415	26.27
913.847	25.37
914.278	12.37
914.709	15.77
915.14	17.67
915.571	13.17
916.002	15.87
916.433	22.17
916.864	20.17
917.295	15.57
917.726	19.27
918.157	13.87
918.587	34.47
919.018	23.97
919.449	23.27
919.88	25.97
920.311	37.27
920.741	52.57
921.172	179.87
921.603	156.17
922.033	76.37
922.464	50.37
922.895	24.37
923.325	22.97
923.756	13.67
924.186	4.37
924.617	15.37
925.047	20.97
925.478	27.67
925.908	23.07
926.338	13.37
926.769	12.07
927.199	11.07
927.629	5.37
928.06	13.77
928.49	14.07
928.92	10.47
929.35	8.37
929.78	13.37
930.21	13.37
930.641	9.57
931.071	8.97
931.501	4.77
931.931	5.07
932.361	6.87
932.791	2.07
933.221	9.17
933.651	2.37
934.08	23.27
934.51	30.37
934.94	10.57
935.37	10.77
935.8	14.27
936.229	8.17
936.659	11.57
937.089	6.37
937.519	11.17
937.948	29.77
938.378	11.47
938.807	6.87
939.237	-0.93
939.666	8.97
940.096	0.37
940.525	6.77
940.955	8.77
941.384	3.87
941.814	-0.93
942.243	-1.93
942.672	1.77
943.102	3.87
943.531	1.77
943.96	2.37
944.39	7.67
944.819	5.57
945.248	-0.83
945.677	1.07
946.106	9.27
946.535	8.37
946.964	5.47
947.393	1.37
947.822	5.47
948.251	1.17
948.68	2.37
949.109	3.17
949.538	2.47
949.967	-0.93
950.396	3.97
950.825	-1.33
951.254	-3.03
951.682	-0.73
952.111	7.87
952.54	7.97
952.969	-0.03
953.397	-5.33
953.826	-1.33
954.254	-1.53
954.683	4.77
955.112	-4.53
955.54	1.77
955.969	-2.13
956.397	0.17
956.826	-6.03
957.254	3.07
957.682	3.47
958.111	6.17
958.539	-0.93
958.967	6.57
959.396	-2.73
959.824	2.37
960.252	8.77
960.68	-4.03
961.109	-3.53
961.537	-2.93
961.965	-4.93
962.393	-5.83
962.821	-6.73
963.249	6.27
963.677	5.07
964.105	7.37
964.533	47.07
964.961	46.37
965.389	27.47
965.817	13.77
966.245	3.07
966.672	7.37
967.1	-3.73
967.528	-0.73
967.956	-5.23
968.383	-0.43
968.811	-0.33
969.239	-3.73
969.666	-8.33
970.094	-1.93
970.522	-0.13
970.949	-2.63
971.377	0.67
971.804	-3.83
972.232	1.77
972.659	-3.83
973.087	-2.53
973.514	-3.13
973.941	0.67
974.369	0.77
974.796	1.17
975.223	0.07
975.651	-0.73
976.078	4.27
976.505	1.37
976.932	4.07
977.359	12.47
977.786	10.37
978.214	-1.13
978.641	-2.63
979.068	-5.13
979.495	-10.23
979.922	0.07
980.349	-3.53
980.776	8.07
981.202	-2.43
981.629	-0.13
982.056	6.77
982.483	-2.53
982.91	6.77
983.337	-3.73
983.763	1.87
984.19	-1.73
984.617	-4.73
985.043	-5.73
985.47	-0.33
985.897	-5.53
986.323	-5.53
986.75	10.37
987.176	2.07
987.603	-4.43
988.029	2.37
988.456	-5.63
988.882	3.87
989.308	-3.43
989.735	-0.93
990.161	-0.13
990.587	-4.13
991.014	-1.93
991.44	11.37
991.866	-2.03
992.292	-5.23
992.719	-3.63
993.145	4.17
993.571	-6.13
993.997	0.57
994.423	4.47
994.849	-6.63
995.275	5.07
995.701	-1.33
996.127	0.47
996.553	-0.73
996.979	-4.13
997.405	-3.43
997.83	-4.53
998.256	-9.33
998.682	-5.53
999.108	-7.43
999.534	-3.73
999.959	-3.13
1000.385	-2.53
1000.811	-1.03
1001.236	-11.03
1001.662	-7.63
1002.087	-6.03
1002.513	-4.33
1002.938	-1.43
1003.364	-1.13
1003.789	-2.03
1004.215	7.57
1004.64	-2.73
1005.066	1.87
1005.491	-0.53
1005.916	0.17
1006.342	-6.53
1006.767	-9.53
1007.192	4.27
1007.617	-4.53
1008.042	-5.13
1008.468	-10.33
1008.893	-3.13
1009.318	-0.83
1009.743	-2.93
1010.168	-0.83
1010.593	0.57
1011.018	-9.13
1011.443	0.57
1011.868	2.57
1012.293	-3.13
1012.718	-5.73
1013.143	-1.23
1013.567	1.37
1013.992	-2.93
1014.417	-14.03
1014.842	9.47
1015.267	-9.33
1015.691	-6.13
1016.116	2.07
1016.541	-1.33
1016.965	-3.93
1017.39	-0.93
1017.814	-0.43
1018.239	-3.33
1018.663	-4.73
1019.088	-9.23
1019.512	0.37
1019.937	-2.63
1020.361	-2.93
1020.785	-7.33
1021.21	-0.33
1021.634	-3.93
1022.058	-1.93
1022.483	5.07
1022.907	-3.63
1023.331	-1.13
1023.755	-1.43
1024.179	1.37
1024.604	-1.93
1025.028	-2.13
1025.452	-2.73
1025.876	-0.53
1026.3	5.07
1026.724	-7.53
1027.148	-6.23
1027.572	-12.83
1027.996	-0.93
1028.42	-4.13
1028.843	-2.73
1029.267	-6.53
1029.691	-1.53
1030.115	-4.03
1030.539	-5.53
1030.962	-3.23
1031.386	-5.43
1031.81	-3.53
1032.233	-1.23
1032.657	-2.33
1033.08	-6.43
1033.504	1.27
1033.927	-3.73
1034.351	1.77
1034.774	-0.13
1035.198	-7.83
1035.621	-6.63
1036.045	-4.43
1036.468	5.67
1036.891	-9.63
1037.315	-10.83
1037.738	-5.23
1038.161	0.07
1038.584	-1.73
1039.008	-2.73
1039.431	-2.43
1039.854	0.47
1040.277	-8.83
1040.7	-11.23
1041.123	1.57
1041.546	-11.43
1041.969	-3.73
1042.392	-8.73
1042.815	-2.73
1043.238	0.07
1043.661	5.27
1044.084	-6.53
1044.507	-3.13
1044.93	-5.23
1045.352	-5.53
1045.775	-3.13
1046.198	0.87
1046.621	-5.03
1047.043	-1.63
1047.466	5.57
1047.889	0.47
1048.311	-12.03
1048.734	-5.13
1049.156	-3.93
1049.579	-4.13
1050.001	-4.73
1050.424	-2.23
1050.846	-5.83
1051.269	-2.73
1051.691	-6.73
1052.113	-4.93
1052.536	-3.03
1052.958	-2.43
1053.38	-12.83
1053.802	-9.33
1054.225	6.27
1054.647	-3.13
1055.069	-4.63
1055.491	2.07
1055.913	-11.23
1056.335	-3.83
1056.757	-8.93
1057.179	-9.53
1057.601	-2.93
1058.023	-6.73
1058.445	-5.33
1058.867	2.87
1059.289	-6.03
1059.711	-6.33
1060.133	-3.13
1060.555	-3.33
1060.976	-5.03
1061.398	-2.93
1061.82	-8.33
1062.241	-9.33
1062.663	-4.33
1063.085	-2.33
1063.506	1.37
1063.928	-1.73
1064.35	-1.33
1064.771	-7.73
1065.193	-6.03
1065.614	-8.43
1066.035	-3.63
1066.457	-4.93
1066.878	5.47
1067.3	0.57
1067.721	-1.23
1068.142	-7.13
1068.564	-3.93
1068.985	-3.73
1069.406	-5.03
1069.827	-4.93
1070.248	2.57
1070.67	-7.53
1071.091	-3.83
1071.512	-6.53
1071.933	-5.53
1072.354	-6.13
1072.775	-1.03
1073.196	0.57
1073.617	-4.33
1074.038	-9.63
1074.459	1.57
1074.88	-13.33
1075.3	4.17
1075.721	-0.43
1076.142	-0.83
1076.563	1.87
1076.983	-7.33
1077.404	-9.03
1077.825	-10.23
1078.246	-5.43
1078.666	-10.53
1079.087	-2.73
1079.507	-3.13
1079.928	-3.23
1080.348	-2.53
1080.769	-4.13
1081.189	-6.03
1081.61	-9.43
1082.03	-7.93
1082.451	-4.83
1082.871	-5.53
1083.291	-8.43
1083.711	-8.03
1084.132	-8.73
1084.552	-1.63
1084.972	0.77
1085.392	-9.63
1085.813	-7.43
1086.233	-5.63
1086.653	-10.03
1087.073	-1.13
1087.493	-5.43
1087.913	-8.83
1088.333	-7.53
1088.753	-4.53
1089.173	0.17
1089.593	-3.93
1090.013	1.27
1090.433	0.77
1090.852	-1.03
1091.272	1.47
1091.692	-2.13
1092.112	-6.83
1092.531	-8.93
1092.951	-13.43
1093.371	-2.83
1093.79	4.17
1094.21	-6.03
1094.63	-1.53
1095.049	-6.73
1095.469	1.17
1095.888	-1.53
1096.308	3.67
1096.727	6.27
1097.146	-6.03
1097.566	-3.03
1097.985	-1.73
1098.405	-3.03
1098.824	-13.13
1099.243	-5.33
1099.662	-8.13
1100.082	-4.43
1100.501	-0.23
1100.92	-6.73
1101.339	-2.13
1101.758	-4.73
