Data from 20171114-ORNL-Ar_H_NY_Subt18_08-08-38-587.txt Node
Date: Tue Nov 14 08:08:38 EST 2017
User: Ender
Spectrometer: HR+D1039
Trigger mode: 0
Integration Time (sec): 2.730000E-2
Scans to average: 10
Electric dark correction enabled: true
Nonlinearity correction enabled: false
Boxcar width: 0
XAxis mode: Wavelengths
Number of Pixels in Spectrum: 2048
>>>>>Begin Spectral Data<<<<<
187.836	-3.43
188.309	-3.43
188.782	-3.43
189.255	-4.93
189.728	-3.43
190.201	6.07
190.674	-3.53
191.147	3.57
191.619	-6.33
192.092	3.67
192.565	6.17
193.038	3.57
193.511	-0.33
193.984	2.17
194.456	-7.93
194.929	0.97
195.402	-0.53
195.874	4.27
196.347	1.47
196.82	-8.23
197.292	5.77
197.765	3.87
198.237	-3.83
198.71	2.87
199.182	-2.93
199.655	0.67
200.127	2.37
200.6	-3.13
201.072	-5.23
201.544	-11.13
202.017	-0.63
202.489	1.97
202.961	-1.33
203.433	-1.93
203.906	-3.73
204.378	-8.33
204.85	-3.43
205.322	-6.83
205.794	0.37
206.266	-7.63
206.739	-0.73
207.211	0.07
207.683	-8.13
208.155	-12.33
208.627	-6.93
209.099	3.17
209.57	-3.83
210.042	-5.63
210.514	-3.83
210.986	-2.33
211.458	-2.93
211.93	-5.83
212.402	4.17
212.873	-8.43
213.345	-6.43
213.817	-8.33
214.288	-5.83
214.76	-11.83
215.232	-2.23
215.703	1.07
216.175	3.97
216.646	-2.03
217.118	-3.23
217.589	-6.23
218.061	-0.53
218.532	-7.23
219.004	-3.93
219.475	-6.03
219.946	-1.33
220.418	-1.93
220.889	2.97
221.36	-1.33
221.832	-2.03
222.303	-9.53
222.774	1.67
223.245	-8.83
223.717	-2.83
224.188	-3.53
224.659	-5.83
225.13	-7.13
225.601	-6.33
226.072	-1.53
226.543	-0.63
227.014	-3.63
227.485	-1.83
227.956	-7.43
228.427	-2.43
228.898	-1.43
229.369	8.47
229.839	0.57
230.31	-3.53
230.781	1.47
231.252	-2.53
231.722	-8.83
232.193	5.27
232.664	-1.83
233.135	-2.03
233.605	-3.33
234.076	-3.83
234.546	-5.33
235.017	4.37
235.487	-5.13
235.958	0.07
236.428	-6.73
236.899	-3.63
237.369	-0.83
237.84	-6.43
238.31	8.17
238.78	3.67
239.251	-5.43
239.721	0.67
240.191	-0.53
240.662	1.57
241.132	-0.63
241.602	-2.93
242.072	0.27
242.542	7.17
243.013	3.17
243.483	7.27
243.953	4.07
244.423	-0.43
244.893	-7.53
245.363	6.47
245.833	1.77
246.303	-1.93
246.773	6.77
247.243	3.97
247.712	-1.73
248.182	2.27
248.652	0.97
249.122	-3.13
249.592	4.47
250.061	8.37
250.531	19.37
251.001	11.37
251.471	12.77
251.94	11.77
252.41	3.67
252.879	-4.63
253.349	11.87
253.818	2.27
254.288	-0.93
254.757	1.87
255.227	3.07
255.696	0.87
256.166	4.17
256.635	2.67
257.105	1.77
257.574	7.07
258.043	6.57
258.513	5.67
258.982	3.17
259.451	0.67
259.92	6.97
260.389	2.87
260.859	13.97
261.328	5.77
261.797	4.67
262.266	5.47
262.735	6.77
263.204	-0.43
263.673	1.07
264.142	5.27
264.611	-10.93
265.08	0.27
265.549	-6.83
266.018	11.07
266.487	-5.23
266.955	-2.63
267.424	2.37
267.893	10.57
268.362	-0.43
268.83	6.07
269.299	11.47
269.768	4.67
270.236	0.77
270.705	-0.63
271.174	0.27
271.642	3.27
272.111	8.27
272.579	7.37
273.048	10.17
273.516	10.57
273.985	12.07
274.453	16.87
274.922	13.37
275.39	2.07
275.858	0.07
276.327	7.97
276.795	19.27
277.263	8.07
277.731	16.37
278.2	29.27
278.668	30.67
279.136	30.27
279.604	8.17
280.072	10.37
280.54	6.67
281.008	1.47
281.477	8.07
281.945	7.87
282.413	15.37
282.881	13.37
283.348	6.87
283.816	10.27
284.284	14.17
284.752	18.17
285.22	11.17
285.688	14.87
286.156	12.17
286.623	24.97
287.091	29.17
287.559	17.57
288.026	8.77
288.494	8.17
288.962	5.77
289.429	4.57
289.897	13.77
290.364	13.37
290.832	16.77
291.3	11.57
291.767	16.07
292.234	9.17
292.702	14.17
293.169	11.77
293.637	17.67
294.104	13.77
294.571	8.27
295.039	6.37
295.506	13.67
295.973	15.87
296.44	14.37
296.908	20.37
297.375	6.67
297.842	18.27
298.309	9.07
298.776	6.67
299.243	17.87
299.71	9.27
300.177	17.47
300.644	18.67
301.111	14.77
301.578	21.17
302.045	16.47
302.512	21.87
302.979	18.17
303.446	14.27
303.913	17.27
304.379	17.27
304.846	23.37
305.313	15.27
305.78	15.97
306.246	23.47
306.713	27.17
307.18	22.77
307.646	22.57
308.113	22.37
308.579	21.27
309.046	20.07
309.512	24.57
309.979	13.97
310.445	16.47
310.912	29.27
311.378	24.77
311.845	23.37
312.311	27.17
312.777	23.57
313.244	27.17
313.71	33.37
314.176	27.27
314.642	26.27
315.109	23.87
315.575	34.77
316.041	32.87
316.507	24.87
316.973	36.87
317.439	26.17
317.905	33.07
318.371	34.67
318.837	33.67
319.303	28.57
319.769	28.17
320.235	25.57
320.701	33.47
321.167	36.87
321.633	27.37
322.099	36.87
322.564	41.47
323.03	33.97
323.496	36.27
323.962	37.87
324.427	35.47
324.893	38.97
325.359	29.67
325.824	32.87
326.29	34.37
326.755	35.57
327.221	33.57
327.686	36.67
328.152	49.67
328.617	38.87
329.083	40.67
329.548	41.27
330.014	39.37
330.479	35.47
330.944	42.97
331.41	35.67
331.875	41.67
332.34	34.37
332.805	39.57
333.271	42.47
333.736	33.87
334.201	44.77
334.666	50.57
335.131	46.97
335.596	43.17
336.061	43.87
336.526	31.67
336.991	36.37
337.456	53.07
337.921	43.57
338.386	38.37
338.851	40.97
339.316	42.27
339.781	36.57
340.246	49.07
340.711	41.47
341.175	43.37
341.64	41.17
342.105	40.17
342.569	43.27
343.034	50.57
343.499	49.77
343.963	43.77
344.428	63.67
344.893	54.97
345.357	56.57
345.822	60.47
346.286	58.17
346.751	69.57
347.215	53.27
347.679	63.07
348.144	88.77
348.608	71.87
349.073	60.57
349.537	64.07
350.001	63.07
350.465	76.97
350.93	78.07
351.394	76.37
351.858	60.67
352.322	78.97
352.786	77.07
353.25	89.17
353.715	98.77
354.179	86.77
354.643	103.37
355.107	109.87
355.571	97.57
356.035	93.57
356.498	110.37
356.962	102.17
357.426	111.77
357.89	108.17
358.354	92.17
358.818	72.27
359.281	70.97
359.745	72.67
360.209	66.57
360.673	65.17
361.136	74.67
361.6	76.57
362.064	81.07
362.527	73.87
362.991	92.67
363.454	82.57
363.918	69.37
364.381	74.87
364.845	79.57
365.308	76.67
365.772	80.57
366.235	84.47
366.698	80.27
367.162	81.47
367.625	80.87
368.088	85.37
368.552	86.27
369.015	81.87
369.478	88.87
369.941	88.87
370.404	89.37
370.867	94.47
371.331	107.07
371.794	105.67
372.257	95.07
372.72	102.37
373.183	104.57
373.646	97.37
374.109	92.37
374.572	98.97
375.035	100.97
375.497	101.17
375.96	95.37
376.423	99.87
376.886	107.87
377.349	98.37
377.811	98.77
378.274	96.27
378.737	102.17
379.199	104.57
379.662	106.17
380.125	110.37
380.587	101.67
381.05	110.07
381.512	110.77
381.975	124.57
382.437	118.47
382.9	124.57
383.362	119.17
383.825	126.17
384.287	134.17
384.75	125.87
385.212	133.07
385.674	129.87
386.136	135.97
386.599	120.17
387.061	121.27
387.523	121.97
387.985	123.27
388.447	134.87
388.91	131.17
389.372	135.37
389.834	134.07
390.296	129.37
390.758	138.77
391.22	147.17
391.682	178.37
392.144	221.77
392.606	195.97
393.068	152.97
393.529	150.47
393.991	142.67
394.453	136.67
394.915	141.47
395.377	158.17
395.838	173.27
396.3	144.57
396.762	136.77
397.224	125.27
397.685	130.07
398.147	128.07
398.608	134.87
399.07	123.57
399.531	136.57
399.993	140.57
400.454	147.67
400.916	137.47
401.377	134.87
401.839	140.77
402.3	146.17
402.762	155.87
403.223	173.27
403.684	162.67
404.145	157.37
404.607	156.27
405.068	158.37
405.529	160.67
405.99	179.67
406.451	168.77
406.913	170.57
407.374	160.57
407.835	157.57
408.296	168.97
408.757	166.17
409.218	185.27
409.679	171.47
410.14	177.97
410.601	167.87
411.062	178.87
411.522	179.37
411.983	181.17
412.444	168.87
412.905	178.07
413.366	177.67
413.826	190.57
414.287	217.77
414.748	259.77
415.208	243.67
415.669	209.77
416.13	211.07
416.59	204.67
417.051	218.37
417.511	217.87
417.972	233.07
418.432	245.07
418.893	273.27
419.353	255.17
419.814	199.77
420.274	191.37
420.734	183.47
421.195	203.27
421.655	189.97
422.115	193.47
422.576	191.37
423.036	197.17
423.496	208.07
423.956	218.77
424.416	233.37
424.876	262.97
425.336	257.97
425.797	260.47
426.257	259.77
426.717	234.97
427.177	231.37
427.637	218.77
428.097	235.67
428.556	249.17
429.016	268.97
429.476	263.97
429.936	268.67
430.396	273.07
430.856	285.77
431.315	308.67
431.775	343.87
432.235	371.47
432.694	338.37
433.154	358.07
433.614	381.07
434.073	330.07
434.533	276.27
434.993	263.27
435.452	269.97
435.912	286.87
436.371	284.27
436.83	278.57
437.29	268.67
437.749	245.87
438.209	245.27
438.668	269.27
439.127	286.47
439.587	263.07
440.046	250.57
440.505	254.37
440.964	278.07
441.424	325.07
441.883	305.87
442.342	262.47
442.801	230.07
443.26	231.07
443.719	227.37
444.178	221.47
444.637	214.07
445.096	223.87
445.555	229.07
446.014	227.77
446.473	227.17
446.932	235.37
447.391	236.27
447.849	232.17
448.308	221.87
448.767	226.27
449.226	238.57
449.685	241.77
450.143	246.57
450.602	234.07
451.061	226.37
451.519	235.77
451.978	233.47
452.436	238.37
452.895	245.87
453.353	260.97
453.812	245.37
454.27	246.17
454.729	243.57
455.187	241.67
455.646	249.27
456.104	255.07
456.562	261.17
457.021	267.97
457.479	264.87
457.937	272.57
458.395	260.77
458.854	248.87
459.312	259.07
459.77	280.87
460.228	258.57
460.686	249.97
461.144	256.07
461.602	252.77
462.06	252.17
462.518	259.67
462.976	251.77
463.434	264.27
463.892	271.07
464.35	276.27
464.808	291.47
465.266	262.67
465.724	273.07
466.181	282.57
466.639	274.47
467.097	289.57
467.555	306.87
468.012	304.17
468.47	318.87
468.928	334.67
469.385	346.57
469.843	346.87
470.3	350.27
470.758	370.57
471.215	392.67
471.673	417.67
472.13	414.47
472.588	420.07
473.045	381.57
473.503	379.57
473.96	403.37
474.417	410.47
474.875	435.87
475.332	478.67
475.789	461.37
476.246	468.67
476.704	489.87
477.161	512.07
477.618	525.87
478.075	550.87
478.532	615.07
478.989	685.57
479.446	790.87
479.903	767.67
480.36	788.17
480.817	842.87
481.274	929.27
481.731	1032.07
482.188	1113.17
482.645	1239.17
483.102	1334.87
483.558	1461.47
484.015	1500.27
484.472	1469.47
484.929	1443.47
485.385	1393.07
485.842	1352.27
486.299	1293.97
486.755	1247.77
487.212	1074.97
487.668	913.17
488.125	836.77
488.582	761.57
489.038	732.57
489.494	708.77
489.951	681.67
490.407	672.07
490.864	654.17
491.32	642.57
491.776	632.77
492.233	633.07
492.689	611.37
493.145	613.57
493.602	594.27
494.058	613.17
494.514	621.57
494.97	634.87
495.426	643.97
495.882	622.27
496.338	616.97
496.794	621.37
497.251	610.87
497.707	629.27
498.163	629.17
498.618	643.87
499.074	651.87
499.53	670.17
499.986	667.57
500.442	646.47
500.898	624.87
501.354	622.77
501.809	631.47
502.265	635.37
502.721	647.37
503.177	657.37
503.632	660.57
504.088	661.47
504.543	691.67
504.999	710.87
505.455	661.77
505.91	639.57
506.366	637.67
506.821	624.27
507.277	635.87
507.732	638.27
508.187	628.97
508.643	639.97
509.098	636.57
509.553	665.57
510.009	666.17
510.464	675.37
510.919	685.77
511.375	694.67
511.83	708.97
512.285	730.97
512.74	763.47
513.195	779.07
513.65	771.27
514.105	770.97
514.56	770.57
515.015	795.17
515.47	804.27
515.925	789.57
516.38	793.07
516.835	789.27
517.29	784.07
517.745	779.87
518.2	764.77
518.655	748.87
519.109	752.87
519.564	737.97
520.019	730.37
520.474	723.77
520.928	728.77
521.383	734.67
521.838	716.87
522.292	724.87
522.747	710.07
523.201	707.37
523.656	697.87
524.11	698.17
524.565	705.57
525.019	699.17
525.474	704.37
525.928	699.77
526.382	698.57
526.837	706.27
527.291	703.37
527.745	692.87
528.2	692.67
528.654	689.57
529.108	683.47
529.562	689.77
530.016	689.27
530.47	697.47
530.925	694.37
531.379	703.87
531.833	701.87
532.287	707.97
532.741	714.97
533.195	707.37
533.649	719.37
534.103	720.77
534.556	712.67
535.01	704.87
535.464	709.47
535.918	719.07
536.372	715.37
536.826	715.07
537.279	712.87
537.733	710.87
538.187	720.57
538.64	721.07
539.094	731.87
539.548	729.47
540.001	712.67
540.455	720.87
540.908	729.97
541.362	735.87
541.815	754.77
542.269	760.57
542.722	765.57
543.175	771.17
543.629	775.67
544.082	789.27
544.536	803.47
544.989	798.77
545.442	800.17
545.895	804.17
546.349	804.17
546.802	804.67
547.255	803.17
547.708	807.27
548.161	823.07
548.614	821.57
549.067	840.47
549.52	821.97
549.973	821.37
550.426	817.97
550.879	801.17
551.332	797.37
551.785	816.97
552.238	809.37
552.691	824.37
553.144	843.07
553.596	857.67
554.049	873.27
554.502	896.47
554.955	922.47
555.407	914.27
555.86	908.57
556.313	892.57
556.765	881.77
557.218	885.87
557.67	884.97
558.123	881.27
558.576	880.77
559.028	886.87
559.48	897.87
559.933	882.87
560.385	851.17
560.838	826.67
561.29	792.57
561.742	797.47
562.195	779.47
562.647	773.27
563.099	784.87
563.551	777.67
564.004	802.67
564.456	779.27
564.908	764.87
565.36	755.47
565.812	739.67
566.264	731.67
566.716	735.17
567.168	720.27
567.62	726.57
568.072	707.47
568.524	712.97
568.976	701.67
569.428	686.37
569.88	691.67
570.332	705.37
570.784	684.87
571.235	686.97
571.687	713.17
572.139	714.07
572.59	726.97
573.042	717.07
573.494	712.97
573.945	714.17
574.397	689.07
574.849	702.07
575.3	695.87
575.752	696.67
576.203	688.57
576.655	690.07
577.106	684.07
577.557	674.47
578.009	677.47
578.46	680.77
578.912	681.77
579.363	668.87
579.814	673.27
580.265	670.27
580.717	669.07
581.168	678.67
581.619	697.47
582.07	690.47
582.521	681.57
582.972	678.87
583.423	690.67
583.875	692.17
584.326	715.17
584.777	736.47
585.227	786.07
585.678	842.97
586.129	896.17
586.58	925.97
587.031	994.47
587.482	1087.37
587.933	1191.77
588.384	1091.97
588.834	903.17
589.285	802.77
589.736	785.57
590.186	780.57
590.637	778.07
591.088	763.57
591.538	755.67
591.989	742.07
592.439	733.77
592.89	725.77
593.34	713.17
593.791	714.17
594.241	714.47
594.692	708.07
595.142	714.37
595.593	710.17
596.043	721.37
596.493	719.47
596.943	723.87
597.394	744.77
597.844	731.87
598.294	754.87
598.744	773.77
599.195	796.77
599.645	834.97
600.095	872.27
600.545	934.37
600.995	996.47
601.445	1038.97
601.895	1108.97
602.345	1158.87
602.795	1132.97
603.245	1078.17
603.695	1032.47
604.145	980.47
604.594	936.27
605.044	882.57
605.494	811.87
605.944	775.07
606.393	753.07
606.843	729.37
607.293	741.37
607.743	745.77
608.192	751.77
608.642	763.87
609.091	778.37
609.541	778.57
609.99	784.17
610.44	779.87
610.889	738.07
611.339	723.17
611.788	694.97
612.238	714.87
612.687	726.27
613.136	725.07
613.586	739.37
614.035	736.67
614.484	745.07
614.933	747.97
615.383	739.97
615.832	742.47
616.281	730.47
616.73	692.97
617.179	668.27
617.628	659.27
618.077	638.07
618.526	641.47
618.975	638.97
619.424	631.17
619.873	628.97
620.322	630.77
620.771	612.27
621.22	625.47
621.669	603.27
622.118	607.67
622.567	575.97
623.015	587.97
623.464	584.27
623.913	566.17
624.361	562.17
624.81	560.17
625.259	559.37
625.707	566.37
626.156	571.37
626.604	579.47
627.053	580.27
627.501	573.97
627.95	575.17
628.398	594.97
628.847	578.37
629.295	571.47
629.744	577.87
630.192	580.17
630.64	574.27
631.089	567.67
631.537	568.87
631.985	569.37
632.433	583.87
632.881	583.57
633.33	609.97
633.778	598.27
634.226	552.67
634.674	568.67
635.122	577.27
635.57	581.27
636.018	607.97
636.466	589.17
636.914	576.97
637.362	592.27
637.81	582.77
638.258	597.27
638.705	594.47
639.153	621.67
639.601	629.67
640.049	658.47
640.497	689.97
640.944	705.97
641.392	658.77
641.84	635.27
642.287	602.27
642.735	574.97
643.182	583.17
643.63	585.27
644.078	586.97
644.525	590.07
644.973	605.07
645.42	608.07
645.867	627.47
646.315	643.17
646.762	676.17
647.21	703.97
647.657	718.07
648.104	743.27
648.551	773.07
648.999	843.27
649.446	916.17
649.893	1006.27
650.34	1161.67
650.787	1392.17
651.234	1717.97
651.682	2221.77
652.129	3044.67
652.576	4359.17
653.023	6359.77
653.47	8615.07
653.917	10626.07
654.363	12197.17
654.81	13396.57
655.257	12699.17
655.704	8386.47
656.151	5028.87
656.598	3286.27
657.044	2349.37
657.491	1800.27
657.938	1456.77
658.385	1216.57
658.831	1073.17
659.278	967.27
659.724	857.47
660.171	798.97
660.618	726.47
661.064	688.47
661.511	671.97
661.957	660.57
662.404	657.37
662.85	655.77
663.296	629.87
663.743	571.87
664.189	549.97
664.635	543.27
665.082	532.47
665.528	539.77
665.974	523.77
666.42	520.17
666.867	514.97
667.313	500.97
667.759	493.17
668.205	476.37
668.651	479.67
669.097	467.37
669.543	472.17
669.989	469.27
670.435	452.47
670.881	453.57
671.327	462.47
671.773	487.47
672.219	504.07
672.665	563.27
673.11	597.07
673.556	648.17
674.002	680.97
674.448	675.97
674.893	572.87
675.339	492.87
675.785	454.07
676.23	440.27
676.676	400.27
677.122	396.47
677.567	385.87
678.013	385.37
678.458	370.37
678.904	368.67
679.349	350.07
679.794	367.87
680.24	358.17
680.685	355.17
681.131	355.77
681.576	362.27
682.021	366.07
682.466	355.97
682.912	359.37
683.357	362.07
683.802	393.77
684.247	424.17
684.692	477.57
685.137	519.57
685.583	552.37
686.028	581.57
686.473	539.97
686.918	453.97
687.363	435.67
687.807	404.37
688.252	374.57
688.697	361.47
689.142	348.17
689.587	342.17
690.032	336.27
690.477	349.97
690.921	364.87
691.366	398.87
691.811	412.47
692.255	440.97
692.7	480.17
693.145	519.57
693.589	741.97
694.034	1199.67
694.478	1598.47
694.923	1784.97
695.367	2295.27
695.812	1229.37
696.256	514.37
696.701	374.67
697.145	354.27
697.59	335.97
698.034	326.67
698.478	338.57
698.922	333.17
699.367	330.87
699.811	349.57
700.255	363.67
700.699	397.67
701.143	445.47
701.588	490.57
702.032	528.17
702.476	520.47
702.92	503.37
703.364	510.37
703.808	685.57
704.252	1101.17
704.696	1524.97
705.14	1713.57
705.584	2176.47
706.027	1098.47
706.471	542.07
706.915	416.17
707.359	367.47
707.803	334.47
708.246	325.27
708.69	328.67
709.134	322.67
709.577	324.37
710.021	332.67
710.465	317.27
710.908	305.57
711.352	308.47
711.795	328.37
712.239	373.67
712.682	396.77
713.126	417.07
713.569	470.97
714.012	375.57
714.456	324.47
714.899	299.57
715.342	292.07
715.786	273.57
716.229	274.67
716.672	260.37
717.115	252.77
717.558	259.77
718.002	258.27
718.445	274.17
718.888	297.57
719.331	307.57
719.774	313.97
720.217	312.77
720.66	292.87
721.103	273.47
721.546	268.87
721.989	260.87
722.432	236.57
722.874	247.87
723.317	232.87
723.76	239.17
724.203	268.87
724.645	334.07
725.088	471.47
725.531	586.37
725.974	652.67
726.416	561.67
726.859	317.07
727.301	252.47
727.744	247.77
728.187	244.67
728.629	249.77
729.071	258.77
729.514	274.57
729.956	284.07
730.399	296.47
730.841	301.97
731.283	282.97
731.726	278.17
732.168	265.87
732.61	277.47
733.053	303.47
733.495	332.67
733.937	369.97
734.379	410.37
734.821	462.47
735.263	585.27
735.705	890.67
736.148	1685.97
736.59	2690.97
737.032	3103.67
737.474	2543.67
737.916	847.17
738.357	446.67
738.799	339.07
739.241	306.77
739.683	295.57
740.125	314.07
740.567	307.87
741.008	328.37
741.45	326.27
741.892	327.57
742.334	362.77
742.775	369.57
743.217	358.07
743.658	277.37
744.1	267.57
744.542	279.87
744.983	329.57
745.425	354.57
745.866	347.87
746.307	289.07
746.749	287.97
747.19	344.77
747.632	481.67
748.073	950.77
748.514	1975.57
748.956	2962.27
749.397	3717.47
749.838	3089.07
750.279	3010.97
750.72	1551.37
751.162	569.97
751.603	343.67
752.044	262.47
752.485	230.77
752.926	223.17
753.367	210.37
753.808	205.77
754.249	196.97
754.69	196.77
755.131	194.37
755.572	186.17
756.013	186.77
756.453	190.77
756.894	195.87
757.335	200.57
757.776	204.57
758.216	203.57
758.657	208.67
759.098	211.87
759.538	235.07
759.979	279.17
760.42	400.87
760.86	762.67
761.301	1999.87
761.741	4699.77
762.182	6518.47
762.622	4584.17
763.063	1367.97
763.503	559.07
763.943	346.67
764.384	316.87
764.824	340.67
765.264	344.27
765.705	264.67
766.145	202.67
766.585	187.17
767.025	181.77
767.465	178.77
767.906	215.97
768.346	263.07
768.786	284.77
769.226	254.57
769.666	326.67
770.106	671.77
770.546	1676.47
770.986	2709.47
771.426	2406.67
771.866	821.57
772.306	338.37
772.745	213.67
773.185	174.47
773.625	167.97
774.065	164.27
774.505	184.07
774.944	265.57
775.384	538.27
775.824	902.27
776.263	868.57
776.703	393.77
777.142	190.77
777.582	148.17
778.021	134.97
778.461	134.97
778.9	141.47
779.34	136.17
779.779	114.97
780.219	112.17
780.658	110.17
781.097	110.47
781.537	123.87
781.976	105.57
782.415	105.17
782.855	112.67
783.294	100.07
783.733	111.07
784.172	114.77
784.611	108.87
785.05	113.07
785.489	116.77
785.928	116.97
786.367	127.97
786.806	131.47
787.245	139.17
787.684	141.17
788.123	155.07
788.562	139.37
789.001	138.17
789.44	126.47
789.879	126.47
790.317	125.27
790.756	132.07
791.195	134.77
791.634	159.07
792.072	210.37
792.511	397.77
792.95	1078.77
793.388	2211.47
793.827	1959.47
794.265	705.67
794.704	287.97
795.142	188.77
795.581	161.07
796.019	144.87
796.458	130.57
796.896	130.67
797.334	144.17
797.773	160.37
798.211	225.87
798.649	481.07
799.087	1074.37
799.526	1663.37
799.964	2105.17
800.402	2035.17
800.84	774.47
801.278	314.37
801.716	191.77
802.154	158.27
802.592	145.27
803.03	148.37
803.468	130.67
803.906	150.77
804.344	161.87
804.782	145.57
805.22	145.37
805.658	137.67
806.096	158.77
806.533	165.37
806.971	183.87
807.409	228.97
807.847	336.37
808.284	727.47
808.722	1980.47
809.16	3394.37
809.597	3321.87
810.035	5666.57
810.472	5830.47
810.91	2147.67
811.347	832.57
811.785	424.47
812.222	264.67
812.66	202.87
813.097	175.97
813.535	152.77
813.972	128.87
814.409	124.07
814.846	109.67
815.284	117.07
815.721	105.57
816.158	110.17
816.595	118.47
817.032	171.77
817.47	200.07
817.907	144.97
818.344	124.27
818.781	109.77
819.218	93.97
819.655	126.67
820.092	198.47
820.529	220.87
820.966	182.37
821.403	139.17
821.839	111.57
822.276	102.97
822.713	125.17
823.15	138.37
823.587	125.47
824.023	162.37
824.46	333.07
824.897	959.57
825.333	1393.47
825.77	600.97
826.206	245.17
826.643	138.77
827.08	107.27
827.516	90.57
827.953	83.07
828.389	82.47
828.825	68.67
829.262	69.07
829.698	65.97
830.135	64.37
830.571	64.77
831.007	68.67
831.443	69.07
831.88	64.47
832.316	69.17
832.752	72.47
833.188	63.17
833.624	62.27
834.06	70.97
834.497	72.17
834.933	82.47
835.369	76.37
835.805	77.07
836.241	85.77
836.677	79.77
837.112	90.27
837.548	109.27
837.984	140.47
838.42	216.67
838.856	548.77
839.292	1603.67
839.727	2359.37
840.163	1115.87
840.599	994.47
841.034	2122.37
841.47	2144.87
841.906	800.57
842.341	345.87
842.777	220.07
843.212	261.17
843.648	245.37
844.083	134.67
844.519	92.47
844.954	75.77
845.39	57.07
845.825	59.57
846.261	60.27
846.696	60.97
847.131	53.67
847.566	58.47
848.002	50.97
848.437	61.37
848.872	63.87
849.307	70.47
849.742	94.87
850.177	194.77
850.613	590.87
851.048	899.77
851.483	387.57
851.918	162.67
852.353	92.17
852.788	59.77
853.223	52.87
853.657	59.77
854.092	51.47
854.527	48.57
854.962	42.37
855.397	46.77
855.832	48.27
856.266	42.07
856.701	47.27
857.136	39.77
857.57	42.47
858.005	61.87
858.44	68.27
858.874	43.67
859.309	53.87
859.743	44.37
860.178	43.17
860.612	45.37
861.047	52.17
861.481	65.37
861.915	76.47
862.35	52.87
862.784	38.77
863.218	36.77
863.653	37.27
864.087	47.27
864.521	54.17
864.955	69.37
865.39	166.17
865.824	182.77
866.258	120.17
866.692	173.77
867.126	185.07
867.56	113.67
867.994	53.97
868.428	43.17
868.862	47.67
869.296	56.47
869.73	60.27
870.164	59.47
870.598	48.97
871.031	39.67
871.465	31.97
871.899	32.47
872.333	26.77
872.766	26.57
873.2	23.07
873.634	33.27
874.067	27.87
874.501	26.47
874.935	41.27
875.368	33.97
875.802	27.97
876.235	28.27
876.669	26.27
877.102	23.57
877.535	29.37
877.969	23.37
878.402	28.97
878.836	23.47
879.269	26.37
879.702	24.17
880.135	22.17
880.569	25.57
881.002	28.87
881.435	15.47
881.868	20.67
882.301	23.87
882.734	21.97
883.167	26.37
883.601	18.07
884.034	27.47
884.467	19.87
884.899	24.87
885.332	16.77
885.765	18.27
886.198	21.37
886.631	17.37
887.064	18.67
887.497	24.67
887.929	31.47
888.362	19.07
888.795	9.27
889.228	16.27
889.66	29.17
890.093	19.07
890.526	21.47
890.958	20.67
891.391	13.27
891.823	16.97
892.256	16.87
892.688	11.77
893.121	15.17
893.553	19.47
893.985	24.37
894.418	24.57
894.85	18.27
895.282	18.47
895.715	16.67
896.147	17.47
896.579	25.47
897.011	15.37
897.444	17.77
897.876	8.17
898.308	22.67
898.74	20.67
899.172	15.17
899.604	20.07
900.036	18.57
900.468	18.97
900.9	17.77
901.332	22.47
901.764	13.87
902.196	16.67
902.628	21.37
903.06	14.27
903.491	33.87
903.923	23.67
904.355	19.97
904.787	19.07
905.218	23.57
905.65	22.57
906.082	17.87
906.513	12.47
906.945	14.47
907.376	14.07
907.808	20.97
908.239	19.47
908.671	22.87
909.102	27.07
909.534	27.17
909.965	54.47
910.397	103.07
910.828	326.07
911.259	492.37
911.691	225.27
912.122	109.27
912.553	52.47
912.984	41.37
913.415	23.37
913.847	29.37
914.278	17.37
914.709	15.67
915.14	21.17
915.571	21.97
916.002	18.77
916.433	18.97
916.864	14.47
917.295	15.27
917.726	21.77
918.157	21.07
918.587	36.17
919.018	24.97
919.449	22.87
919.88	23.77
920.311	32.07
920.741	53.57
921.172	172.27
921.603	154.47
922.033	73.97
922.464	45.47
922.895	28.77
923.325	22.27
923.756	14.57
924.186	15.17
924.617	16.97
925.047	31.07
925.478	35.47
925.908	33.17
926.338	18.57
926.769	17.37
927.199	20.67
927.629	11.47
928.06	18.27
928.49	15.77
928.92	17.07
929.35	12.37
929.78	12.77
930.21	7.17
930.641	12.07
931.071	12.17
931.501	7.07
931.931	8.17
932.361	8.07
932.791	7.97
933.221	10.57
933.651	2.77
934.08	9.97
934.51	28.07
934.94	14.97
935.37	6.77
935.8	11.37
936.229	7.57
936.659	10.17
937.089	1.77
937.519	15.57
937.948	24.37
938.378	17.27
938.807	9.67
939.237	2.27
939.666	5.07
940.096	-3.23
940.525	3.37
940.955	6.17
941.384	8.07
941.814	-4.13
942.243	-0.23
942.672	6.07
943.102	2.57
943.531	-0.23
943.96	7.67
944.39	3.47
944.819	-4.03
945.248	1.17
945.677	9.37
946.106	3.07
946.535	9.57
946.964	3.37
947.393	4.37
947.822	3.87
948.251	-2.33
948.68	4.27
949.109	6.57
949.538	6.97
949.967	0.27
950.396	2.37
950.825	0.47
951.254	1.67
951.682	-4.43
952.111	8.17
952.54	5.37
952.969	-4.13
953.397	0.97
953.826	0.97
954.254	-6.83
954.683	3.17
955.112	0.77
955.54	-3.23
955.969	-0.53
956.397	3.37
956.826	0.97
957.254	0.47
957.682	4.77
958.111	7.97
958.539	-0.13
958.967	7.17
959.396	3.67
959.824	3.57
960.252	2.87
960.68	-8.63
961.109	-1.13
961.537	-6.73
961.965	-2.23
962.393	-0.13
962.821	-0.53
963.249	-3.13
963.677	0.97
964.105	6.77
964.533	41.97
964.961	46.77
965.389	21.47
965.817	10.77
966.245	-0.13
966.672	0.07
967.1	-4.73
967.528	3.97
967.956	-0.33
968.383	-0.03
968.811	-3.03
969.239	-1.33
969.666	-2.93
970.094	3.77
970.522	4.17
970.949	3.47
971.377	-4.53
971.804	1.77
972.232	2.57
972.659	-1.83
973.087	-2.73
973.514	-5.03
973.941	-6.73
974.369	4.57
974.796	4.77
975.223	-0.43
975.651	-2.63
976.078	0.77
976.505	-3.23
976.932	5.67
977.359	14.67
977.786	15.87
978.214	3.67
978.641	-4.63
979.068	-5.23
979.495	-7.73
979.922	-0.43
980.349	5.87
980.776	1.37
981.202	-3.83
981.629	2.67
982.056	-2.13
982.483	-2.73
982.91	3.57
983.337	-3.13
983.763	3.97
984.19	-3.73
984.617	-1.63
985.043	-0.03
985.47	3.67
985.897	-6.73
986.323	-9.83
986.75	3.37
987.176	0.87
987.603	2.27
988.029	1.17
988.456	-0.13
988.882	5.57
989.308	-10.53
989.735	-5.03
990.161	3.07
990.587	-5.53
991.014	2.37
991.44	10.97
991.866	0.67
992.292	-2.03
992.719	4.27
993.145	0.27
993.571	-7.03
993.997	-0.53
994.423	1.37
994.849	1.87
995.275	2.17
995.701	2.17
996.127	0.57
996.553	4.17
996.979	-7.23
997.405	-4.23
997.83	-4.63
998.256	-5.83
998.682	-4.83
999.108	-6.43
999.534	1.07
999.959	-1.33
1000.385	-0.43
1000.811	1.37
1001.236	-2.63
1001.662	-9.33
1002.087	-9.13
1002.513	1.17
1002.938	-2.33
1003.364	-3.33
1003.789	-2.83
1004.215	3.47
1004.64	-2.53
1005.066	8.47
1005.491	-0.83
1005.916	-0.63
1006.342	-4.43
1006.767	-9.33
1007.192	0.97
1007.617	-8.53
1008.042	-4.03
1008.468	-7.33
1008.893	-6.53
1009.318	-1.93
1009.743	-4.93
1010.168	4.17
1010.593	4.67
1011.018	-5.43
1011.443	-3.93
1011.868	0.17
1012.293	-7.43
1012.718	-2.33
1013.143	1.67
1013.567	0.67
1013.992	2.67
1014.417	-5.33
1014.842	5.57
1015.267	-6.23
1015.691	-0.63
1016.116	3.37
1016.541	-0.43
1016.965	-4.43
1017.39	1.57
1017.814	4.67
1018.239	-1.23
1018.663	-6.33
1019.088	-9.03
1019.512	0.27
1019.937	-0.83
1020.361	-2.03
1020.785	-12.43
1021.21	-9.23
1021.634	0.07
1022.058	-4.33
1022.483	-0.73
1022.907	-8.73
1023.331	-1.73
1023.755	-2.33
1024.179	1.77
1024.604	-10.43
1025.028	-4.73
1025.452	-7.23
1025.876	0.07
1026.3	-0.33
1026.724	-10.83
1027.148	-4.83
1027.572	-9.63
1027.996	3.27
1028.42	-0.73
1028.843	-2.43
1029.267	-2.63
1029.691	-7.03
1030.115	-6.63
1030.539	-7.03
1030.962	-2.43
1031.386	-9.13
1031.81	0.07
1032.233	-1.23
1032.657	-0.83
1033.08	1.87
1033.504	-3.73
1033.927	-2.83
1034.351	1.37
1034.774	-2.53
1035.198	-1.53
1035.621	-3.73
1036.045	-8.43
1036.468	3.97
1036.891	-10.63
1037.315	-16.03
1037.738	-7.63
1038.161	-1.43
1038.584	0.27
1039.008	-4.33
1039.431	-3.63
1039.854	0.67
1040.277	-7.03
1040.7	-7.63
1041.123	0.27
1041.546	-5.93
1041.969	-4.43
1042.392	-1.83
1042.815	1.97
1043.238	0.67
1043.661	2.47
1044.084	-7.13
1044.507	-4.13
1044.93	-4.63
1045.352	-8.93
1045.775	-12.83
1046.198	1.17
1046.621	-2.73
1047.043	2.37
1047.466	5.27
1047.889	1.87
1048.311	-5.33
1048.734	-3.03
1049.156	0.47
1049.579	1.57
1050.001	-0.93
1050.424	-0.23
1050.846	-1.53
1051.269	-6.63
1051.691	-5.13
1052.113	-4.33
1052.536	2.67
1052.958	-0.13
1053.38	-2.93
1053.802	-8.63
1054.225	1.17
1054.647	-13.03
1055.069	-3.13
1055.491	3.37
1055.913	-10.13
1056.335	0.87
1056.757	-8.13
1057.179	-2.83
1057.601	-5.33
1058.023	0.07
1058.445	-3.23
1058.867	-5.13
1059.289	-6.53
1059.711	-4.53
1060.133	1.07
1060.555	-0.13
1060.976	-8.53
1061.398	-4.03
1061.82	-6.33
1062.241	-5.13
1062.663	-10.13
1063.085	-3.83
1063.506	4.27
1063.928	-6.23
1064.35	-2.93
1064.771	-13.23
1065.193	-2.53
1065.614	-10.73
1066.035	0.27
1066.457	0.27
1066.878	-3.43
1067.3	-6.63
1067.721	-6.13
1068.142	-2.93
1068.564	0.67
1068.985	3.67
1069.406	-3.63
1069.827	-5.23
1070.248	-2.13
1070.67	-10.83
1071.091	-7.93
1071.512	-2.03
1071.933	-6.23
1072.354	-6.83
1072.775	-3.53
1073.196	-7.93
1073.617	-4.13
1074.038	-6.03
1074.459	0.07
1074.88	-2.83
1075.3	5.77
1075.721	-1.33
1076.142	0.77
1076.563	-3.03
1076.983	-8.03
1077.404	-8.43
1077.825	-9.33
1078.246	-4.83
1078.666	-3.93
1079.087	-3.83
1079.507	-10.43
1079.928	-0.13
1080.348	3.17
1080.769	-4.83
1081.189	1.57
1081.61	-2.33
1082.03	-3.33
1082.451	-5.63
1082.871	-8.93
1083.291	-11.33
1083.711	-7.13
1084.132	-7.13
1084.552	-9.93
1084.972	4.37
1085.392	-8.13
1085.813	-9.63
1086.233	-10.03
1086.653	0.47
1087.073	0.17
1087.493	-6.23
1087.913	-6.73
1088.333	-7.73
1088.753	0.87
1089.173	4.47
1089.593	-2.33
1090.013	-1.03
1090.433	2.57
1090.852	-3.33
1091.272	-5.43
1091.692	-1.53
1092.112	-2.63
1092.531	-11.93
1092.951	-8.63
1093.371	-5.03
1093.79	0.97
1094.21	-1.23
1094.63	-13.33
1095.049	-6.03
1095.469	-4.63
1095.888	-6.23
1096.308	1.87
1096.727	-1.13
1097.146	-3.23
1097.566	2.07
1097.985	2.77
1098.405	5.57
1098.824	-4.63
1099.243	-11.63
1099.662	-11.63
1100.082	-3.23
1100.501	-4.33
1100.92	-9.23
1101.339	-3.13
1101.758	-1.93
