Data from 20171114-ORNL-Ar_H_NY_Subt18_08-04-39-187.txt Node
Date: Tue Nov 14 08:04:39 EST 2017
User: Ender
Spectrometer: HR+D1039
Trigger mode: 0
Integration Time (sec): 2.730000E-2
Scans to average: 10
Electric dark correction enabled: true
Nonlinearity correction enabled: false
Boxcar width: 0
XAxis mode: Wavelengths
Number of Pixels in Spectrum: 2048
>>>>>Begin Spectral Data<<<<<
187.836	-9.04
188.309	-9.04
188.782	-9.04
189.255	-1.74
189.728	1.56
190.201	4.06
190.674	5.06
191.147	2.26
191.619	-3.74
192.092	-1.44
192.565	6.56
193.038	-1.24
193.511	2.66
193.984	-2.54
194.456	-0.24
194.929	-0.04
195.402	-5.64
195.874	3.56
196.347	-6.14
196.82	-5.94
197.292	3.66
197.765	-5.04
198.237	-6.74
198.71	-0.34
199.182	-0.84
199.655	2.06
200.127	1.26
200.6	0.56
201.072	0.06
201.544	-3.44
202.017	-8.44
202.489	1.66
202.961	-2.04
203.433	-2.84
203.906	-5.74
204.378	-2.24
204.85	-5.84
205.322	-4.34
205.794	-1.04
206.266	-2.64
206.739	-5.74
207.211	7.16
207.683	-4.94
208.155	-5.04
208.627	-8.44
209.099	-6.64
209.57	-5.54
210.042	-4.74
210.514	-8.84
210.986	-3.34
211.458	-12.24
211.93	-3.14
212.402	-1.44
212.873	-8.74
213.345	-11.04
213.817	-8.04
214.288	-6.04
214.76	-9.64
215.232	-4.14
215.703	-4.44
216.175	1.16
216.646	-10.74
217.118	-8.64
217.589	-2.24
218.061	1.76
218.532	-11.44
219.004	-7.64
219.475	-8.24
219.946	-2.34
220.418	-3.94
220.889	-1.74
221.36	2.86
221.832	-9.14
222.303	-5.74
222.774	-5.64
223.245	-8.24
223.717	-7.34
224.188	-5.74
224.659	-3.64
225.13	-12.74
225.601	-5.34
226.072	0.26
226.543	5.86
227.014	5.86
227.485	-7.84
227.956	-3.04
228.427	-3.84
228.898	1.96
229.369	2.56
229.839	-2.54
230.31	-9.14
230.781	3.06
231.252	-4.14
231.722	-2.44
232.193	-0.04
232.664	-0.54
233.135	-2.84
233.605	-0.24
234.076	-0.04
234.546	-5.24
235.017	2.26
235.487	-3.44
235.958	5.16
236.428	4.06
236.899	7.86
237.369	5.16
237.84	-4.24
238.31	9.46
238.78	-0.44
239.251	-4.64
239.721	-3.74
240.191	1.06
240.662	-2.54
241.132	-2.04
241.602	1.76
242.072	0.46
242.542	6.76
243.013	-4.44
243.483	3.06
243.953	-1.24
244.423	3.76
244.893	-0.44
245.363	6.16
245.833	3.16
246.303	2.86
246.773	8.86
247.243	1.66
247.712	8.16
248.182	6.06
248.652	15.26
249.122	-7.24
249.592	12.56
250.061	22.76
250.531	31.76
251.001	22.86
251.471	23.66
251.94	20.16
252.41	7.76
252.879	5.26
253.349	11.66
253.818	15.76
254.288	7.26
254.757	4.96
255.227	0.26
255.696	8.76
256.166	6.66
256.635	7.36
257.105	11.36
257.574	10.46
258.043	12.36
258.513	10.56
258.982	19.66
259.451	8.56
259.92	17.86
260.389	17.76
260.859	8.86
261.328	18.16
261.797	16.86
262.266	11.56
262.735	15.06
263.204	8.76
263.673	2.96
264.142	4.66
264.611	-2.74
265.08	5.56
265.549	2.66
266.018	7.06
266.487	1.26
266.955	0.16
267.424	2.96
267.893	6.46
268.362	2.16
268.83	7.46
269.299	11.86
269.768	10.66
270.236	6.16
270.705	6.36
271.174	8.86
271.642	12.76
272.111	9.36
272.579	16.36
273.048	29.26
273.516	27.16
273.985	35.26
274.453	21.56
274.922	22.16
275.39	11.06
275.858	5.96
276.327	14.86
276.795	16.46
277.263	7.36
277.731	33.06
278.2	60.06
278.668	59.56
279.136	55.16
279.604	23.66
280.072	19.16
280.54	16.76
281.008	13.66
281.477	18.76
281.945	15.36
282.413	21.36
282.881	15.26
283.348	8.06
283.816	12.16
284.284	17.66
284.752	18.06
285.22	15.46
285.688	14.16
286.156	25.56
286.623	51.86
287.091	52.76
287.559	26.76
288.026	16.56
288.494	13.96
288.962	9.96
289.429	4.96
289.897	11.96
290.364	17.26
290.832	21.76
291.3	17.46
291.767	19.46
292.234	16.46
292.702	19.86
293.169	17.26
293.637	27.16
294.104	24.06
294.571	15.96
295.039	14.16
295.506	12.46
295.973	21.06
296.44	21.46
296.908	21.76
297.375	17.76
297.842	26.46
298.309	18.66
298.776	15.16
299.243	26.76
299.71	10.76
300.177	23.26
300.644	19.06
301.111	24.96
301.578	19.86
302.045	22.26
302.512	27.16
302.979	33.46
303.446	24.86
303.913	18.56
304.379	24.36
304.846	25.56
305.313	35.76
305.78	24.96
306.246	29.36
306.713	31.06
307.18	25.76
307.646	30.86
308.113	23.46
308.579	27.36
309.046	19.66
309.512	30.36
309.979	23.36
310.445	30.16
310.912	29.06
311.378	31.06
311.845	27.36
312.311	34.16
312.777	38.76
313.244	25.16
313.71	40.86
314.176	31.66
314.642	34.46
315.109	33.36
315.575	37.46
316.041	35.86
316.507	24.46
316.973	47.66
317.439	30.36
317.905	38.36
318.371	41.26
318.837	40.76
319.303	38.06
319.769	40.16
320.235	30.26
320.701	36.06
321.167	38.96
321.633	34.46
322.099	47.66
322.564	44.36
323.03	43.86
323.496	38.66
323.962	36.56
324.427	32.86
324.893	43.46
325.359	41.96
325.824	39.06
326.29	38.66
326.755	38.66
327.221	46.36
327.686	34.86
328.152	48.76
328.617	43.56
329.083	51.26
329.548	53.96
330.014	47.76
330.479	45.06
330.944	43.86
331.41	42.06
331.875	48.06
332.34	47.46
332.805	41.96
333.271	52.46
333.736	48.46
334.201	55.06
334.666	53.56
335.131	47.76
335.596	57.86
336.061	47.56
336.526	47.56
336.991	54.06
337.456	56.56
337.921	53.46
338.386	45.06
338.851	52.26
339.316	49.56
339.781	47.26
340.246	54.66
340.711	44.96
341.175	50.56
341.64	46.46
342.105	50.36
342.569	52.56
343.034	59.16
343.499	57.06
343.963	50.46
344.428	63.26
344.893	62.56
345.357	62.76
345.822	63.96
346.286	69.16
346.751	71.86
347.215	57.96
347.679	67.96
348.144	97.46
348.608	78.66
349.073	74.26
349.537	67.46
350.001	81.76
350.465	87.76
350.93	83.96
351.394	80.26
351.858	70.16
352.322	84.06
352.786	81.06
353.25	96.06
353.715	109.56
354.179	101.66
354.643	113.46
355.107	128.56
355.571	108.46
356.035	100.66
356.498	118.66
356.962	126.76
357.426	129.86
357.89	112.26
358.354	89.36
358.818	84.16
359.281	81.86
359.745	74.16
360.209	71.26
360.673	74.16
361.136	69.16
361.6	86.06
362.064	80.66
362.527	83.16
362.991	89.56
363.454	79.36
363.918	74.56
364.381	77.96
364.845	79.06
365.308	82.76
365.772	85.16
366.235	81.36
366.698	79.66
367.162	83.86
367.625	86.96
368.088	86.16
368.552	90.76
369.015	82.66
369.478	91.36
369.941	94.76
370.404	90.16
370.867	104.76
371.331	98.76
371.794	111.66
372.257	102.36
372.72	115.86
373.183	111.46
373.646	97.46
374.109	97.96
374.572	104.86
375.035	108.16
375.497	103.06
375.96	98.46
376.423	102.76
376.886	105.86
377.349	103.46
377.811	97.26
378.274	106.16
378.737	96.46
379.199	108.16
379.662	104.76
380.125	112.66
380.587	109.86
381.05	114.66
381.512	116.96
381.975	130.46
382.437	129.86
382.9	117.96
383.362	129.96
383.825	133.06
384.287	140.26
384.75	136.56
385.212	127.16
385.674	130.36
386.136	123.06
386.599	118.56
387.061	119.36
387.523	125.36
387.985	127.96
388.447	141.96
388.91	136.26
389.372	151.86
389.834	142.86
390.296	140.36
390.758	152.26
391.22	161.76
391.682	199.16
392.144	276.46
392.606	219.66
393.068	155.96
393.529	161.46
393.991	147.76
394.453	140.66
394.915	148.56
395.377	180.36
395.838	198.66
396.3	143.16
396.762	138.56
397.224	123.26
397.685	129.56
398.147	125.56
398.608	119.56
399.07	120.76
399.531	127.56
399.993	138.16
400.454	145.06
400.916	137.06
401.377	129.86
401.839	141.96
402.3	144.36
402.762	153.56
403.223	175.26
403.684	167.86
404.145	157.76
404.607	158.36
405.068	153.86
405.529	157.66
405.99	180.06
406.451	164.06
406.913	159.46
407.374	162.26
407.835	150.56
408.296	154.16
408.757	156.26
409.218	177.16
409.679	163.36
410.14	172.66
410.601	162.66
411.062	179.16
411.522	183.86
411.983	175.76
412.444	164.56
412.905	166.86
413.366	176.36
413.826	171.66
414.287	210.36
414.748	245.66
415.208	233.36
415.669	197.66
416.13	193.96
416.59	191.06
417.051	200.06
417.511	205.06
417.972	220.46
418.432	238.16
418.893	265.76
419.353	237.36
419.814	186.16
420.274	172.86
420.734	166.66
421.195	192.96
421.655	186.76
422.115	185.16
422.576	179.66
423.036	180.46
423.496	196.36
423.956	201.46
424.416	220.26
424.876	252.66
425.336	246.66
425.797	248.76
426.257	237.86
426.717	225.06
427.177	216.46
427.637	211.76
428.097	221.26
428.556	233.66
429.016	255.76
429.476	244.76
429.936	258.76
430.396	257.16
430.856	274.76
431.315	290.86
431.775	324.96
432.235	357.56
432.694	334.26
433.154	342.96
433.614	367.56
434.073	312.06
434.533	263.26
434.993	256.46
435.452	262.96
435.912	283.06
436.371	272.36
436.83	268.96
437.29	245.56
437.749	233.96
438.209	230.66
438.668	249.96
439.127	270.96
439.587	236.46
440.046	229.16
440.505	243.66
440.964	265.06
441.424	302.36
441.883	289.96
442.342	241.06
442.801	209.36
443.26	207.86
443.719	199.26
444.178	210.26
444.637	195.96
445.096	201.96
445.555	202.16
446.014	206.66
446.473	211.36
446.932	213.06
447.391	210.86
447.849	208.06
448.308	200.36
448.767	203.56
449.226	220.36
449.685	222.76
450.143	235.56
450.602	225.26
451.061	207.26
451.519	219.16
451.978	215.26
452.436	219.46
452.895	223.26
453.353	238.46
453.812	228.56
454.27	230.16
454.729	225.66
455.187	225.16
455.646	232.06
456.104	232.56
456.562	251.16
457.021	247.46
457.479	245.76
457.937	256.86
458.395	251.56
458.854	234.26
459.312	242.06
459.77	258.46
460.228	244.16
460.686	224.66
461.144	228.46
461.602	234.76
462.06	224.26
462.518	240.56
462.976	235.06
463.434	239.46
463.892	241.16
464.35	253.66
464.808	271.26
465.266	249.86
465.724	251.46
466.181	255.06
466.639	259.16
467.097	274.06
467.555	284.26
468.012	284.26
468.47	287.36
468.928	311.16
469.385	319.66
469.843	327.36
470.3	320.96
470.758	340.66
471.215	357.46
471.673	381.56
472.13	377.16
472.588	389.76
473.045	351.56
473.503	355.96
473.96	372.46
474.417	382.46
474.875	406.76
475.332	447.66
475.789	427.06
476.246	437.06
476.704	460.26
477.161	473.66
477.618	489.76
478.075	532.26
478.532	575.06
478.989	645.66
479.446	748.96
479.903	727.26
480.36	764.86
480.817	816.56
481.274	910.86
481.731	1014.66
482.188	1109.36
482.645	1219.86
483.102	1330.96
483.558	1452.26
484.015	1506.96
484.472	1486.56
484.929	1445.66
485.385	1397.86
485.842	1351.66
486.299	1290.06
486.755	1229.46
487.212	1042.76
487.668	865.56
488.125	795.56
488.582	741.86
489.038	700.66
489.494	675.26
489.951	646.76
490.407	624.36
490.864	609.36
491.32	611.16
491.776	596.76
492.233	607.46
492.689	571.46
493.145	562.56
493.602	567.66
494.058	573.26
494.514	584.46
494.97	604.86
495.426	619.06
495.882	584.36
496.338	579.86
496.794	597.96
497.251	582.46
497.707	599.26
498.163	599.76
498.618	613.56
499.074	610.46
499.53	652.96
499.986	632.56
500.442	618.56
500.898	595.96
501.354	589.16
501.809	599.96
502.265	599.16
502.721	624.46
503.177	623.46
503.632	625.06
504.088	631.76
504.543	669.86
504.999	659.66
505.455	609.86
505.91	598.36
506.366	591.66
506.821	594.96
507.277	589.46
507.732	594.86
508.187	588.96
508.643	598.26
509.098	592.26
509.553	621.96
510.009	614.26
510.464	629.66
510.919	641.06
511.375	651.26
511.83	661.56
512.285	680.26
512.74	721.56
513.195	739.06
513.65	730.46
514.105	730.36
514.56	729.96
515.015	756.16
515.47	761.76
515.925	750.36
516.38	743.06
516.835	753.66
517.29	736.66
517.745	727.06
518.2	717.86
518.655	703.66
519.109	703.16
519.564	692.86
520.019	687.66
520.474	683.06
520.928	685.36
521.383	669.46
521.838	665.46
522.292	666.16
522.747	663.76
523.201	658.26
523.656	647.36
524.11	648.86
524.565	647.46
525.019	648.46
525.474	659.26
525.928	660.36
526.382	653.66
526.837	650.76
527.291	656.46
527.745	645.16
528.2	658.36
528.654	632.56
529.108	648.76
529.562	637.96
530.016	636.36
530.47	647.06
530.925	642.16
531.379	649.16
531.833	659.66
532.287	657.76
532.741	651.46
533.195	660.56
533.649	662.66
534.103	675.96
534.556	664.06
535.01	661.36
535.464	664.06
535.918	676.36
536.372	676.36
536.826	670.86
537.279	661.36
537.733	656.56
538.187	678.36
538.64	664.96
539.094	666.66
539.548	670.76
540.001	675.96
540.455	673.76
540.908	683.16
541.362	688.26
541.815	683.96
542.269	710.56
542.722	707.66
543.175	720.56
543.629	711.66
544.082	728.16
544.536	733.76
544.989	724.86
545.442	734.46
545.895	726.96
546.349	727.26
546.802	721.66
547.255	728.26
547.708	741.16
548.161	758.86
548.614	752.66
549.067	769.76
549.52	765.36
549.973	747.16
550.426	751.06
550.879	732.86
551.332	738.96
551.785	743.46
552.238	745.76
552.691	751.66
553.144	769.76
553.596	779.66
554.049	803.56
554.502	831.16
554.955	845.76
555.407	850.76
555.86	835.66
556.313	831.06
556.765	814.56
557.218	810.36
557.67	815.76
558.123	806.26
558.576	809.16
559.028	795.26
559.48	804.46
559.933	796.26
560.385	766.96
560.838	748.66
561.29	722.76
561.742	715.86
562.195	696.76
562.647	700.56
563.099	701.76
563.551	709.66
564.004	712.86
564.456	711.46
564.908	695.76
565.36	686.06
565.812	675.66
566.264	665.26
566.716	659.66
567.168	657.36
567.62	666.96
568.072	637.06
568.524	640.96
568.976	628.26
569.428	618.26
569.88	616.36
570.332	618.56
570.784	617.66
571.235	618.16
571.687	632.96
572.139	635.76
572.59	651.56
573.042	648.46
573.494	651.46
573.945	642.16
574.397	626.36
574.849	634.76
575.3	629.86
575.752	624.16
576.203	623.26
576.655	626.96
577.106	617.76
577.557	611.66
578.009	601.36
578.46	602.26
578.912	604.36
579.363	602.66
579.814	604.36
580.265	605.76
580.717	607.06
581.168	598.36
581.619	607.16
582.07	623.06
582.521	602.16
582.972	608.06
583.423	617.86
583.875	620.56
584.326	628.36
584.777	679.86
585.227	740.16
585.678	831.66
586.129	910.46
586.58	968.56
587.031	1057.56
587.482	1196.76
587.933	1372.66
588.384	1180.86
588.834	889.06
589.285	727.96
589.736	711.46
590.186	695.96
590.637	693.36
591.088	668.66
591.538	657.96
591.989	669.36
592.439	652.76
592.89	648.66
593.34	638.66
593.791	649.86
594.241	638.46
594.692	646.46
595.142	625.06
595.593	626.06
596.043	635.66
596.493	634.86
596.943	639.06
597.394	650.66
597.844	633.56
598.294	652.76
598.744	674.06
599.195	701.96
599.645	727.26
600.095	771.76
600.545	813.46
600.995	857.66
601.445	922.26
601.895	980.26
602.345	1017.66
602.795	996.56
603.245	960.26
603.695	907.86
604.145	858.86
604.594	816.46
605.044	761.66
605.494	695.36
605.944	676.26
606.393	664.26
606.843	650.26
607.293	650.96
607.743	650.16
608.192	660.46
608.642	674.86
609.091	682.96
609.541	688.76
609.99	687.06
610.44	676.36
610.889	645.26
611.339	623.06
611.788	615.56
612.238	612.56
612.687	643.66
613.136	647.66
613.586	652.16
614.035	660.06
614.484	672.16
614.933	676.76
615.383	663.76
615.832	653.66
616.281	636.66
616.73	613.36
617.179	587.06
617.628	575.26
618.077	565.56
618.526	551.96
618.975	540.96
619.424	544.76
619.873	542.86
620.322	542.96
620.771	533.86
621.22	537.66
621.669	527.56
622.118	517.86
622.567	517.46
623.015	506.66
623.464	503.86
623.913	497.06
624.361	490.66
624.81	486.76
625.259	484.96
625.707	490.96
626.156	488.16
626.604	495.06
627.053	500.16
627.501	495.16
627.95	503.06
628.398	515.06
628.847	503.46
629.295	500.46
629.744	498.66
630.192	503.26
630.64	490.96
631.089	495.16
631.537	497.66
631.985	513.26
632.433	513.06
632.881	532.06
633.33	575.76
633.778	557.46
634.226	496.56
634.674	495.96
635.122	504.66
635.57	524.56
636.018	539.26
636.466	503.36
636.914	475.06
637.362	498.26
637.81	506.46
638.258	498.76
638.705	502.56
639.153	530.16
639.601	533.76
640.049	559.46
640.497	587.66
640.944	613.56
641.392	562.46
641.84	540.56
642.287	511.46
642.735	488.96
643.182	508.56
643.63	488.06
644.078	508.56
644.525	513.86
644.973	515.46
645.42	517.96
645.867	540.86
646.315	556.76
646.762	571.96
647.21	602.66
647.657	614.46
648.104	659.06
648.551	663.66
648.999	718.96
649.446	796.56
649.893	867.36
650.34	995.66
650.787	1188.66
651.234	1473.56
651.682	1924.66
652.129	2633.46
652.576	3761.06
653.023	5607.36
653.47	7726.06
653.917	9740.46
654.363	11394.06
654.81	12775.96
655.257	12143.56
655.704	7862.16
656.151	4637.46
656.598	2984.06
657.044	2113.86
657.491	1622.46
657.938	1314.36
658.385	1086.16
658.831	947.26
659.278	834.76
659.724	745.96
660.171	691.16
660.618	623.16
661.064	602.36
661.511	567.86
661.957	552.56
662.404	546.66
662.85	556.46
663.296	534.16
663.743	479.06
664.189	476.36
664.635	461.96
665.082	453.66
665.528	458.86
665.974	458.76
666.42	440.86
666.867	434.16
667.313	418.16
667.759	405.96
668.205	413.36
668.651	417.56
669.097	415.86
669.543	428.46
669.989	412.16
670.435	378.36
670.881	385.66
671.327	396.76
671.773	404.36
672.219	428.76
672.665	457.96
673.11	495.26
673.556	539.46
674.002	582.06
674.448	566.46
674.893	469.06
675.339	414.46
675.785	372.86
676.23	360.26
676.676	340.86
677.122	322.56
677.567	310.46
678.013	314.66
678.458	305.76
678.904	307.96
679.349	302.26
679.794	305.76
680.24	300.76
680.685	292.66
681.131	301.26
681.576	298.86
682.021	304.86
682.466	286.76
682.912	291.46
683.357	301.66
683.802	317.76
684.247	349.06
684.692	384.56
685.137	420.26
685.583	453.26
686.028	486.26
686.473	437.06
686.918	383.16
687.363	352.46
687.807	330.76
688.252	322.26
688.697	303.06
689.142	281.06
689.587	285.36
690.032	281.16
690.477	289.86
690.921	299.66
691.366	324.76
691.811	342.36
692.255	370.26
692.7	398.46
693.145	422.86
693.589	582.56
694.034	936.26
694.478	1295.86
694.923	1499.16
695.367	1989.16
695.812	1033.26
696.256	429.26
696.701	307.66
697.145	295.16
697.59	274.56
698.034	274.96
698.478	278.96
698.922	275.96
699.367	284.46
699.811	290.66
700.255	296.06
700.699	329.26
701.143	358.46
701.588	402.06
702.032	440.36
702.476	438.26
702.92	425.56
703.364	417.86
703.808	523.26
704.252	854.36
704.696	1217.26
705.14	1445.96
705.584	1846.76
706.027	920.86
706.471	438.26
706.915	337.06
707.359	293.06
707.803	264.56
708.246	268.86
708.69	262.06
709.134	264.26
709.577	265.06
710.021	273.86
710.465	259.46
710.908	252.76
711.352	253.76
711.795	264.26
712.239	289.56
712.682	323.96
713.126	348.36
713.569	398.66
714.012	318.76
714.456	270.96
714.899	250.76
715.342	235.16
715.786	225.26
716.229	220.96
716.672	216.36
717.115	212.66
717.558	207.86
718.002	214.06
718.445	213.36
718.888	248.16
719.331	249.56
719.774	266.36
720.217	262.46
720.66	241.76
721.103	228.96
721.546	222.66
721.989	209.56
722.432	194.86
722.874	207.66
723.317	191.26
723.76	194.26
724.203	217.26
724.645	265.16
725.088	369.86
725.531	479.46
725.974	554.46
726.416	465.36
726.859	260.76
727.301	205.46
727.744	200.56
728.187	193.96
728.629	207.66
729.071	211.56
729.514	225.76
729.956	219.96
730.399	231.96
730.841	246.66
731.283	226.96
731.726	230.36
732.168	220.26
732.61	224.86
733.053	238.06
733.495	268.06
733.937	301.76
734.379	322.56
734.821	367.16
735.263	451.36
735.705	685.96
736.148	1302.66
736.59	2169.06
737.032	2665.26
737.474	2168.86
737.916	682.56
738.357	360.56
738.799	278.46
739.241	240.26
739.683	241.06
740.125	245.66
740.567	245.06
741.008	274.26
741.45	268.66
741.892	266.56
742.334	285.96
742.775	303.76
743.217	288.46
743.658	227.86
744.1	213.56
744.542	229.46
744.983	271.16
745.425	293.46
745.866	292.86
746.307	235.16
746.749	239.16
747.19	267.86
747.632	382.46
748.073	714.16
748.514	1526.86
748.956	2411.86
749.397	3020.96
749.838	2514.96
750.279	2572.16
750.72	1290.16
751.162	470.26
751.603	270.06
752.044	210.66
752.485	186.36
752.926	172.36
753.367	169.86
753.808	158.16
754.249	159.96
754.69	164.56
755.131	154.56
755.572	154.76
756.013	145.26
756.453	154.06
756.894	158.26
757.335	162.06
757.776	163.06
758.216	166.36
758.657	170.26
759.098	166.16
759.538	188.86
759.979	222.66
760.42	307.46
760.86	564.76
761.301	1471.36
761.741	3693.36
762.182	5627.66
762.622	3978.26
763.063	1124.86
763.503	454.76
763.943	280.76
764.384	284.46
764.824	337.36
765.264	380.36
765.705	257.96
766.145	167.46
766.585	160.36
767.025	146.26
767.465	150.16
767.906	199.26
768.346	270.26
768.786	290.46
769.226	215.16
769.666	260.06
770.106	496.36
770.546	1281.36
770.986	2271.06
771.426	2068.66
771.866	671.86
772.306	277.36
772.745	174.36
773.185	143.26
773.625	143.06
774.065	128.76
774.505	167.86
774.944	252.06
775.384	545.36
775.824	1042.96
776.263	1043.26
776.703	436.66
777.142	191.86
777.582	130.86
778.021	118.46
778.461	116.36
778.9	120.46
779.34	115.56
779.779	95.16
780.219	96.06
780.658	88.66
781.097	99.36
781.537	95.76
781.976	91.56
782.415	89.26
782.855	82.86
783.294	94.96
783.733	90.16
784.172	90.16
784.611	87.86
785.05	92.16
785.489	89.76
785.928	99.96
786.367	97.76
786.806	99.06
787.245	117.16
787.684	116.16
788.123	128.46
788.562	112.16
789.001	110.36
789.44	100.96
789.879	95.06
790.317	104.56
790.756	108.76
791.195	104.06
791.634	120.36
792.072	166.66
792.511	300.56
792.95	815.66
793.388	1820.56
793.827	1708.76
794.265	576.96
794.704	228.66
795.142	150.96
795.581	129.66
796.019	117.06
796.458	100.76
796.896	100.66
797.334	105.26
797.773	134.46
798.211	178.16
798.649	351.76
799.087	845.46
799.526	1349.56
799.964	1700.66
800.402	1772.96
800.84	641.76
801.278	247.76
801.716	161.96
802.154	128.56
802.592	128.36
803.03	116.66
803.468	112.46
803.906	124.46
804.344	126.86
804.782	122.76
805.22	112.26
805.658	104.56
806.096	123.26
806.533	132.16
806.971	144.16
807.409	181.36
807.847	264.56
808.284	528.76
808.722	1529.06
809.16	2835.06
809.597	2599.06
810.035	4614.96
810.472	5158.66
810.91	1815.26
811.347	676.16
811.785	347.16
812.222	213.76
812.66	161.26
813.097	130.56
813.535	113.26
813.972	110.36
814.409	99.76
814.846	92.16
815.284	101.26
815.721	85.26
816.158	89.26
816.595	103.06
817.032	147.86
817.47	173.86
817.907	145.86
818.344	137.86
818.781	101.56
819.218	82.66
819.655	111.46
820.092	160.16
820.529	183.16
820.966	151.26
821.403	109.86
821.839	89.16
822.276	89.76
822.713	102.56
823.15	123.26
823.587	99.86
824.023	123.06
824.46	244.66
824.897	745.26
825.333	1172.06
825.77	501.06
826.206	193.46
826.643	112.36
827.08	89.16
827.516	67.26
827.953	61.96
828.389	66.86
828.825	60.76
829.262	53.56
829.698	48.06
830.135	55.36
830.571	47.16
831.007	50.16
831.443	48.26
831.88	53.56
832.316	57.26
832.752	54.46
833.188	58.36
833.624	50.66
834.06	56.26
834.497	55.96
834.933	63.96
835.369	64.86
835.805	59.16
836.241	65.56
836.677	60.56
837.112	78.86
837.548	86.36
837.984	110.86
838.42	155.66
838.856	407.76
839.292	1273.26
839.727	1997.76
840.163	925.86
840.599	757.96
841.034	1724.86
841.47	1886.16
841.906	682.46
842.341	280.56
842.777	193.46
843.212	270.16
843.648	274.46
844.083	132.96
844.519	84.96
844.954	63.56
845.39	48.66
845.825	47.56
846.261	48.26
846.696	47.66
847.131	39.76
847.566	47.86
848.002	42.56
848.437	45.36
848.872	45.66
849.307	44.26
849.742	71.76
850.177	142.26
850.613	467.26
851.048	763.96
851.483	330.16
851.918	127.46
852.353	75.36
852.788	52.46
853.223	43.76
853.657	50.06
854.092	41.36
854.527	42.76
854.962	31.06
855.397	40.06
855.832	42.76
856.266	33.36
856.701	33.16
857.136	32.66
857.57	36.06
858.005	35.66
858.44	54.86
858.874	34.36
859.309	46.26
859.743	27.56
860.178	37.26
860.612	31.16
861.047	45.26
861.481	59.76
861.915	60.26
862.35	44.36
862.784	21.56
863.218	39.56
863.653	28.96
864.087	43.16
864.521	43.16
864.955	55.06
865.39	132.26
865.824	139.76
866.258	97.56
866.692	140.46
867.126	157.26
867.56	91.06
867.994	44.56
868.428	32.16
868.862	39.86
869.296	44.36
869.73	48.36
870.164	43.66
870.598	37.76
871.031	31.46
871.465	24.16
871.899	25.56
872.333	20.96
872.766	18.66
873.2	25.36
873.634	25.46
874.067	20.06
874.501	23.46
874.935	34.06
875.368	22.36
875.802	25.76
876.235	19.76
876.669	20.86
877.102	23.16
877.535	17.86
877.969	19.46
878.402	16.66
878.836	22.06
879.269	20.06
879.702	26.16
880.135	16.76
880.569	20.76
881.002	23.56
881.435	25.86
881.868	18.36
882.301	14.06
882.734	11.36
883.167	19.66
883.601	15.16
884.034	18.26
884.467	8.36
884.899	13.36
885.332	9.66
885.765	12.16
886.198	14.36
886.631	20.86
887.064	15.96
887.497	23.66
887.929	22.76
888.362	15.16
888.795	15.46
889.228	18.46
889.66	17.66
890.093	17.96
890.526	14.76
890.958	10.86
891.391	17.76
891.823	23.26
892.256	12.96
892.688	12.96
893.121	8.86
893.553	12.26
893.985	24.86
894.418	18.46
894.85	8.16
895.282	11.26
895.715	12.26
896.147	10.46
896.579	12.46
897.011	10.26
897.444	14.46
897.876	7.46
898.308	12.56
898.74	8.36
899.172	10.46
899.604	20.46
900.036	21.06
900.468	15.96
900.9	13.96
901.332	15.56
901.764	7.86
902.196	15.46
902.628	8.36
903.06	15.46
903.491	17.76
903.923	19.46
904.355	14.46
904.787	15.56
905.218	22.66
905.65	17.36
906.082	11.86
906.513	8.56
906.945	16.16
907.376	9.76
907.808	18.16
908.239	15.06
908.671	17.06
909.102	14.36
909.534	15.96
909.965	38.66
910.397	75.26
910.828	266.76
911.259	410.66
911.691	190.46
912.122	89.76
912.553	39.46
912.984	27.86
913.415	20.76
913.847	21.56
914.278	19.06
914.709	13.06
915.14	12.36
915.571	17.66
916.002	9.86
916.433	17.16
916.864	9.96
917.295	7.56
917.726	15.76
918.157	12.96
918.587	23.76
919.018	15.36
919.449	19.56
919.88	21.26
920.311	26.26
920.741	34.76
921.172	142.36
921.603	133.76
922.033	57.76
922.464	40.36
922.895	15.16
923.325	24.76
923.756	3.36
924.186	12.46
924.617	22.26
925.047	29.96
925.478	45.96
925.908	38.66
926.338	23.96
926.769	13.46
927.199	21.56
927.629	7.56
928.06	13.66
928.49	15.16
928.92	7.66
929.35	15.26
929.78	9.96
930.21	4.86
930.641	8.16
931.071	7.46
931.501	0.46
931.931	4.86
932.361	2.56
932.791	1.46
933.221	1.46
933.651	0.26
934.08	14.86
934.51	18.56
934.94	10.26
935.37	7.36
935.8	12.96
936.229	9.26
936.659	5.46
937.089	-2.14
937.519	15.06
937.948	18.26
938.378	12.26
938.807	4.56
939.237	5.26
939.666	15.86
940.096	-8.64
940.525	-0.34
940.955	-2.44
941.384	6.16
941.814	-1.94
942.243	-3.64
942.672	6.96
943.102	-0.44
943.531	3.66
943.96	-2.44
944.39	3.66
944.819	-3.64
945.248	4.56
945.677	4.96
946.106	4.46
946.535	1.36
946.964	-0.44
947.393	5.86
947.822	2.46
948.251	-0.84
948.68	2.26
949.109	0.56
949.538	5.86
949.967	-5.64
950.396	2.76
950.825	-2.24
951.254	4.46
951.682	-9.44
952.111	6.16
952.54	6.26
952.969	-3.34
953.397	-4.44
953.826	0.66
954.254	-3.34
954.683	-2.54
955.112	-4.14
955.54	-1.04
955.969	5.16
956.397	-2.24
956.826	0.06
957.254	2.16
957.682	-0.64
958.111	3.86
958.539	-5.34
958.967	4.76
959.396	-4.24
959.824	1.96
960.252	-2.94
960.68	-0.64
961.109	0.06
961.537	-3.24
961.965	-0.94
962.393	-5.34
962.821	-3.44
963.249	0.36
963.677	-0.84
964.105	5.26
964.533	40.26
964.961	33.36
965.389	18.66
965.817	7.36
966.245	-0.34
966.672	-2.34
967.1	-10.14
967.528	0.66
967.956	-10.74
968.383	3.06
968.811	-2.74
969.239	-3.64
969.666	-1.94
970.094	1.26
970.522	2.96
970.949	-4.84
971.377	-1.14
971.804	-2.14
972.232	-1.54
972.659	0.16
973.087	-3.34
973.514	2.76
973.941	-7.64
974.369	3.86
974.796	-1.54
975.223	-2.14
975.651	-8.64
976.078	-3.14
976.505	-4.94
976.932	-2.44
977.359	11.06
977.786	10.16
978.214	-4.14
978.641	-10.24
979.068	-3.64
979.495	-5.24
979.922	-0.14
980.349	-4.04
980.776	1.96
981.202	-2.84
981.629	7.26
982.056	7.46
982.483	-7.44
982.91	3.66
983.337	-12.04
983.763	-3.34
984.19	-2.54
984.617	-2.54
985.043	-6.74
985.47	-9.04
985.897	-3.64
986.323	-7.44
986.75	7.26
987.176	-4.74
987.603	-0.04
988.029	-8.34
988.456	-5.64
988.882	-1.14
989.308	-8.74
989.735	-0.04
990.161	-4.84
990.587	-5.14
991.014	-2.04
991.44	6.46
991.866	-4.94
992.292	-1.14
992.719	0.66
993.145	2.96
993.571	-8.14
993.997	-8.54
994.423	-0.44
994.849	-5.24
995.275	-2.34
995.701	-3.84
996.127	-1.24
996.553	4.76
996.979	-3.54
997.405	-4.04
997.83	-11.34
998.256	-6.14
998.682	-3.64
999.108	-5.44
999.534	-5.64
999.959	-4.24
1000.385	-5.64
1000.811	-1.44
1001.236	-9.94
1001.662	-5.74
1002.087	-8.94
1002.513	-4.14
1002.938	1.46
1003.364	-1.14
1003.789	1.96
1004.215	-0.74
1004.64	-6.64
1005.066	2.66
1005.491	4.56
1005.916	0.76
1006.342	-1.74
1006.767	-4.84
1007.192	2.86
1007.617	-4.94
1008.042	-7.84
1008.468	-2.54
1008.893	-9.34
1009.318	-1.04
1009.743	0.16
1010.168	-1.74
1010.593	-0.34
1011.018	-7.34
1011.443	-3.94
1011.868	-3.64
1012.293	-1.24
1012.718	-9.94
1013.143	-2.84
1013.567	0.66
1013.992	-7.44
1014.417	-10.04
1014.842	-6.24
1015.267	-5.04
1015.691	-10.04
1016.116	8.26
1016.541	-4.24
1016.965	-0.34
1017.39	2.06
1017.814	0.16
1018.239	-3.14
1018.663	-10.74
1019.088	-9.54
1019.512	-2.24
1019.937	4.36
1020.361	-5.64
1020.785	-11.34
1021.21	-3.54
1021.634	-6.54
1022.058	1.96
1022.483	-1.14
1022.907	0.16
1023.331	-11.64
1023.755	-0.54
1024.179	-0.94
1024.604	-8.74
1025.028	-7.34
1025.452	-3.94
1025.876	-4.04
1026.3	0.06
1026.724	-10.44
1027.148	-12.74
1027.572	-3.74
1027.996	-5.64
1028.42	-1.74
1028.843	2.96
1029.267	-0.54
1029.691	2.66
1030.115	-6.94
1030.539	-8.34
1030.962	-3.14
1031.386	-5.14
1031.81	0.86
1032.233	-1.14
1032.657	-0.24
1033.08	-1.54
1033.504	-8.74
1033.927	-9.44
1034.351	0.36
1034.774	-7.24
1035.198	2.26
1035.621	-9.64
1036.045	-6.04
1036.468	0.96
1036.891	-10.94
1037.315	-10.94
1037.738	-9.24
1038.161	0.96
1038.584	-6.14
1039.008	-2.84
1039.431	-8.44
1039.854	-0.14
1040.277	-9.14
1040.7	-12.24
1041.123	-5.44
1041.546	-5.54
1041.969	-7.04
1042.392	-8.34
1042.815	-4.54
1043.238	-3.64
1043.661	6.96
1044.084	-9.54
1044.507	-4.64
1044.93	-5.84
1045.352	-1.74
1045.775	1.26
1046.198	0.06
1046.621	-4.54
1047.043	-2.54
1047.466	1.46
1047.889	-6.44
1048.311	1.26
1048.734	-5.34
1049.156	-6.74
1049.579	0.16
1050.001	-8.24
1050.424	0.66
1050.846	-7.14
1051.269	-0.44
1051.691	-10.64
1052.113	-1.04
1052.536	0.66
1052.958	-6.24
1053.38	-5.84
1053.802	-10.84
1054.225	-0.54
1054.647	-7.94
1055.069	-7.54
1055.491	-1.14
1055.913	-8.54
1056.335	-1.24
1056.757	-5.34
1057.179	-9.54
1057.601	-5.54
1058.023	-8.64
1058.445	-10.44
1058.867	1.56
1059.289	-8.04
1059.711	-2.14
1060.133	-6.84
1060.555	-3.04
1060.976	-8.04
1061.398	-0.84
1061.82	-8.44
1062.241	-11.24
1062.663	-9.34
1063.085	-4.44
1063.506	6.46
1063.928	-3.14
1064.35	1.56
1064.771	-8.94
1065.193	-5.14
1065.614	-9.54
1066.035	-4.14
1066.457	-2.64
1066.878	4.16
1067.3	-11.04
1067.721	-3.24
1068.142	-3.94
1068.564	-4.04
1068.985	-6.34
1069.406	-6.54
1069.827	-11.04
1070.248	4.06
1070.67	-2.24
1071.091	-1.74
1071.512	-5.94
1071.933	-8.34
1072.354	-9.34
1072.775	-7.34
1073.196	-7.04
1073.617	-5.04
1074.038	-5.94
1074.459	-6.14
1074.88	-3.64
1075.3	-0.24
1075.721	-7.74
1076.142	-7.24
1076.563	-2.64
1076.983	-15.04
1077.404	-8.84
1077.825	-8.24
1078.246	-4.24
1078.666	-8.24
1079.087	-3.54
1079.507	-1.74
1079.928	-2.14
1080.348	-4.74
1080.769	-8.44
1081.189	2.06
1081.61	-2.44
1082.03	-9.34
1082.451	-1.64
1082.871	-10.14
1083.291	-3.44
1083.711	-8.44
1084.132	-8.04
1084.552	-8.04
1084.972	-2.04
1085.392	-7.94
1085.813	-9.64
1086.233	-0.14
1086.653	-6.04
1087.073	3.76
1087.493	-5.44
1087.913	-9.24
1088.333	-7.24
1088.753	-4.34
1089.173	3.96
1089.593	-5.44
1090.013	0.66
1090.433	-7.54
1090.852	-3.34
1091.272	-8.04
1091.692	-2.44
1092.112	-0.44
1092.531	-13.04
1092.951	-13.14
1093.371	-6.34
1093.79	-4.14
1094.21	-7.44
1094.63	-3.14
1095.049	-7.34
1095.469	-6.84
1095.888	-5.14
1096.308	0.56
1096.727	6.56
1097.146	-4.44
1097.566	-6.44
1097.985	-9.14
1098.405	5.06
1098.824	-7.64
1099.243	-5.34
1099.662	-12.04
1100.082	-2.54
1100.501	-3.24
1100.92	-10.24
1101.339	-3.14
1101.758	-11.34
