Data from 20171114-ORNL-Ar_H_NY_Subt18_08-05-13-582.txt Node
Date: Tue Nov 14 08:05:13 EST 2017
User: Ender
Spectrometer: HR+D1039
Trigger mode: 0
Integration Time (sec): 2.730000E-2
Scans to average: 10
Electric dark correction enabled: true
Nonlinearity correction enabled: false
Boxcar width: 0
XAxis mode: Wavelengths
Number of Pixels in Spectrum: 2048
>>>>>Begin Spectral Data<<<<<
187.836	-1.33
188.309	-1.33
188.782	-1.33
189.255	-1.43
189.728	0.77
190.201	12.48
190.674	2.17
191.147	-1.73
191.619	-9.33
192.092	-0.42
192.565	6.97
193.038	-3.62
193.511	-2.93
193.984	1.67
194.456	-1.23
194.929	0.77
195.402	-4.62
195.874	1.77
196.347	0.27
196.82	-9.83
197.292	5.67
197.765	-2.02
198.237	0.38
198.71	2.27
199.182	-3.43
199.655	3.57
200.127	1.67
200.6	0.48
201.072	-3.23
201.544	-8.33
202.017	-3.83
202.489	3.97
202.961	-0.02
203.433	-6.23
203.906	-5.92
204.378	-6.82
204.85	-4.83
205.322	-10.43
205.794	-4.33
206.266	-4.12
206.739	-6.62
207.211	4.48
207.683	-13.42
208.155	-7.43
208.627	-3.52
209.099	-4.93
209.57	-7.12
210.042	-6.63
210.514	-6.52
210.986	-7.83
211.458	-6.43
211.93	0.27
212.402	1.27
212.873	-2.33
213.345	-11.83
213.817	-9.62
214.288	-4.13
214.76	-6.53
215.232	-4.12
215.703	-5.42
216.175	-8.02
216.646	-7.23
217.118	-2.62
217.589	3.68
218.061	0.87
218.532	-3.62
219.004	-3.43
219.475	-5.02
219.946	-1.93
220.418	-8.42
220.889	0.48
221.36	-0.23
221.832	-6.33
222.303	-10.42
222.774	-3.83
223.245	-8.02
223.717	-3.73
224.188	-10.33
224.659	-11.93
225.13	-9.23
225.601	-4.23
226.072	-2.52
226.543	1.77
227.014	-1.53
227.485	3.67
227.956	-4.73
228.427	-6.02
228.898	0.38
229.369	2.38
229.839	-8.23
230.31	-8.33
230.781	1.38
231.252	-3.62
231.722	-8.03
232.193	-6.73
232.664	0.58
233.135	-0.43
233.605	3.38
234.076	-9.33
234.546	5.57
235.017	10.17
235.487	1.17
235.958	-3.02
236.428	-4.43
236.899	5.08
237.369	7.18
237.84	2.07
238.31	4.27
238.78	0.38
239.251	0.18
239.721	1.27
240.191	0.68
240.662	-1.82
241.132	-3.52
241.602	-4.23
242.072	5.77
242.542	8.98
243.013	-3.23
243.483	3.98
243.953	0.98
244.423	4.68
244.893	1.88
245.363	5.57
245.833	0.48
246.303	-0.52
246.773	8.48
247.243	0.37
247.712	4.37
248.182	11.67
248.652	6.27
249.122	-1.83
249.592	13.48
250.061	24.48
250.531	34.77
251.001	16.88
251.471	20.98
251.94	18.27
252.41	8.77
252.879	-0.52
253.349	10.67
253.818	11.27
254.288	6.38
254.757	6.88
255.227	6.58
255.696	2.47
256.166	7.38
256.635	3.77
257.105	8.48
257.574	4.07
258.043	9.08
258.513	15.97
258.982	12.58
259.451	9.67
259.92	11.07
260.389	9.48
260.859	13.67
261.328	8.08
261.797	18.27
262.266	5.27
262.735	12.27
263.204	10.17
263.673	2.38
264.142	4.48
264.611	-4.03
265.08	1.77
265.549	0.68
266.018	8.38
266.487	-1.63
266.955	1.17
267.424	-6.02
267.893	7.18
268.362	4.98
268.83	1.77
269.299	9.77
269.768	5.88
270.236	6.58
270.705	2.67
271.174	5.98
271.642	7.27
272.111	13.58
272.579	17.97
273.048	22.37
273.516	33.27
273.985	29.27
274.453	26.88
274.922	20.07
275.39	15.87
275.858	-1.02
276.327	8.57
276.795	17.38
277.263	11.67
277.731	31.47
278.2	51.67
278.668	60.77
279.136	47.48
279.604	24.67
280.072	18.88
280.54	13.17
281.008	19.47
281.477	11.77
281.945	9.98
282.413	12.77
282.881	16.88
283.348	11.18
283.816	12.17
284.284	18.67
284.752	20.57
285.22	12.98
285.688	17.27
286.156	26.08
286.623	46.57
287.091	55.67
287.559	33.17
288.026	15.88
288.494	17.98
288.962	8.57
289.429	8.67
289.897	19.58
290.364	15.88
290.832	15.18
291.3	19.77
291.767	15.08
292.234	23.67
292.702	18.27
293.169	19.38
293.637	25.58
294.104	23.67
294.571	7.37
295.039	12.17
295.506	14.07
295.973	22.38
296.44	14.77
296.908	20.38
297.375	23.88
297.842	26.48
298.309	17.88
298.776	11.27
299.243	19.07
299.71	13.97
300.177	24.88
300.644	21.17
301.111	23.38
301.578	27.88
302.045	21.88
302.512	24.88
302.979	26.38
303.446	22.67
303.913	19.68
304.379	19.88
304.846	29.77
305.313	27.07
305.78	22.87
306.246	28.48
306.713	29.87
307.18	25.58
307.646	25.17
308.113	30.57
308.579	25.97
309.046	22.77
309.512	30.18
309.979	23.07
310.445	24.07
310.912	21.57
311.378	32.48
311.845	34.18
312.311	32.07
312.777	34.67
313.244	32.38
313.71	33.07
314.176	34.48
314.642	32.88
315.109	38.07
315.575	34.98
316.041	41.88
316.507	33.87
316.973	42.97
317.439	37.48
317.905	36.68
318.371	39.48
318.837	42.27
319.303	28.38
319.769	33.38
320.235	35.07
320.701	31.47
321.167	39.37
321.633	38.58
322.099	41.17
322.564	43.07
323.03	36.88
323.496	43.17
323.962	41.88
324.427	45.17
324.893	38.17
325.359	44.07
325.824	44.77
326.29	39.97
326.755	36.97
327.221	34.37
327.686	39.88
328.152	50.18
328.617	45.27
329.083	49.67
329.548	49.27
330.014	53.98
330.479	43.47
330.944	47.87
331.41	48.17
331.875	47.48
332.34	35.77
332.805	45.77
333.271	46.88
333.736	48.57
334.201	54.58
334.666	50.17
335.131	55.97
335.596	57.67
336.061	57.07
336.526	43.87
336.991	49.68
337.456	56.38
337.921	50.57
338.386	44.17
338.851	45.67
339.316	53.77
339.781	47.48
340.246	45.77
340.711	47.07
341.175	56.88
341.64	48.98
342.105	51.48
342.569	51.57
343.034	57.27
343.499	56.07
343.963	50.98
344.428	61.77
344.893	62.37
345.357	62.67
345.822	60.37
346.286	69.48
346.751	80.98
347.215	73.57
347.679	83.98
348.144	101.38
348.608	82.67
349.073	70.67
349.537	73.98
350.001	77.77
350.465	94.88
350.93	80.57
351.394	85.88
351.858	73.27
352.322	86.68
352.786	88.58
353.25	105.27
353.715	122.67
354.179	112.07
354.643	118.08
355.107	125.67
355.571	105.98
356.035	103.38
356.498	114.77
356.962	126.87
357.426	134.07
357.89	111.58
358.354	89.67
358.818	86.57
359.281	79.58
359.745	72.08
360.209	77.48
360.673	73.38
361.136	78.58
361.6	85.87
362.064	91.38
362.527	92.67
362.991	89.67
363.454	74.07
363.918	84.57
364.381	82.57
364.845	79.57
365.308	86.17
365.772	86.97
366.235	87.48
366.698	87.88
367.162	89.17
367.625	86.47
368.088	84.57
368.552	88.38
369.015	89.17
369.478	98.77
369.941	100.17
370.404	90.17
370.867	104.67
371.331	110.87
371.794	120.57
372.257	110.67
372.72	121.37
373.183	107.38
373.646	102.27
374.109	99.88
374.572	109.87
375.035	106.88
375.497	110.67
375.96	98.77
376.423	108.87
376.886	114.08
377.349	113.38
377.811	99.98
378.274	105.68
378.737	106.77
379.199	114.58
379.662	106.77
380.125	115.48
380.587	121.67
381.05	123.38
381.512	126.07
381.975	136.47
382.437	131.58
382.9	127.67
383.362	131.07
383.825	137.77
384.287	143.27
384.75	135.57
385.212	138.07
385.674	135.37
386.136	135.68
386.599	124.77
387.061	128.08
387.523	127.07
387.985	134.47
388.447	145.38
388.91	139.48
389.372	153.48
389.834	147.77
390.296	141.27
390.758	147.67
391.22	159.98
391.682	209.67
392.144	282.88
392.606	228.07
393.068	169.48
393.529	165.97
393.991	143.27
394.453	146.77
394.915	153.17
395.377	188.27
395.838	207.67
396.3	151.88
396.762	141.08
397.224	127.77
397.685	133.97
398.147	132.08
398.608	127.88
399.07	129.67
399.531	133.98
399.993	146.58
400.454	150.27
400.916	142.27
401.377	142.38
401.839	147.07
402.3	148.27
402.762	163.38
403.223	175.07
403.684	168.57
404.145	159.47
404.607	158.98
405.068	164.97
405.529	164.08
405.99	178.98
406.451	173.37
406.913	170.57
407.374	164.77
407.835	161.58
408.296	168.27
408.757	173.98
409.218	183.17
409.679	181.08
410.14	176.98
410.601	180.57
411.062	185.98
411.522	188.67
411.983	189.17
412.444	176.58
412.905	176.08
413.366	182.17
413.826	188.57
414.287	218.08
414.748	254.28
415.208	242.57
415.669	208.77
416.13	205.17
416.59	195.98
417.051	211.18
417.511	215.07
417.972	235.38
418.432	246.97
418.893	281.88
419.353	247.27
419.814	198.08
420.274	180.77
420.734	181.17
421.195	193.37
421.655	197.18
422.115	187.87
422.576	191.77
423.036	198.37
423.496	202.87
423.956	212.27
424.416	225.67
424.876	260.87
425.336	264.77
425.797	258.07
426.257	258.07
426.717	233.68
427.177	230.78
427.637	218.98
428.097	232.87
428.556	250.78
429.016	257.47
429.476	258.07
429.936	271.68
430.396	279.17
430.856	289.67
431.315	312.77
431.775	341.67
432.235	375.38
432.694	347.37
433.154	364.08
433.614	381.37
434.073	337.18
434.533	289.18
434.993	267.38
435.452	281.08
435.912	295.48
436.371	281.07
436.83	279.07
437.29	267.67
437.749	249.28
438.209	239.67
438.668	263.08
439.127	286.78
439.587	260.77
440.046	250.97
440.505	255.57
440.964	282.48
441.424	325.37
441.883	313.27
442.342	261.77
442.801	216.38
443.26	217.08
443.719	217.47
444.178	219.38
444.637	202.77
445.096	217.37
445.555	216.17
446.014	215.98
446.473	220.47
446.932	226.68
447.391	223.67
447.849	222.18
448.308	214.58
448.767	223.27
449.226	229.18
449.685	237.97
450.143	242.97
450.602	230.07
451.061	225.58
451.519	226.57
451.978	231.77
452.436	233.97
452.895	228.98
453.353	248.87
453.812	244.27
454.27	241.97
454.729	236.38
455.187	242.97
455.646	248.98
456.104	244.47
456.562	260.48
457.021	262.38
457.479	257.38
457.937	267.18
458.395	257.57
458.854	245.88
459.312	264.58
459.77	270.97
460.228	253.48
460.686	243.77
461.144	242.17
461.602	245.18
462.06	235.57
462.518	249.57
462.976	253.27
463.434	255.88
463.892	258.17
464.35	279.87
464.808	282.78
465.266	259.17
465.724	262.48
466.181	268.58
466.639	273.58
467.097	287.17
467.555	298.17
468.012	305.27
468.47	306.88
468.928	323.87
469.385	333.48
469.843	344.97
470.3	343.48
470.758	363.17
471.215	382.97
471.673	400.88
472.13	398.57
472.588	415.28
473.045	372.98
473.503	366.57
473.96	382.77
474.417	396.38
474.875	435.17
475.332	471.58
475.789	459.48
476.246	464.27
476.704	487.77
477.161	501.97
477.618	523.97
478.075	561.77
478.532	610.88
478.989	689.08
479.446	799.77
479.903	761.77
480.36	805.88
480.817	862.67
481.274	962.97
481.731	1072.47
482.188	1167.38
482.645	1295.18
483.102	1410.88
483.558	1537.78
484.015	1591.68
484.472	1568.88
484.929	1528.88
485.385	1461.67
485.842	1429.38
486.299	1373.67
486.755	1290.17
487.212	1086.68
487.668	916.17
488.125	846.88
488.582	775.68
489.038	743.47
489.494	706.77
489.951	679.38
490.407	663.68
490.864	643.27
491.32	636.47
491.776	634.88
492.233	639.57
492.689	608.28
493.145	600.48
493.602	596.27
494.058	618.27
494.514	608.18
494.97	635.48
495.426	650.67
495.882	616.08
496.338	611.97
496.794	626.28
497.251	610.97
497.707	644.48
498.163	650.27
498.618	649.57
499.074	651.78
499.53	669.18
499.986	679.77
500.442	661.77
500.898	624.68
501.354	621.17
501.809	626.87
502.265	640.58
502.721	651.57
503.177	658.98
503.632	660.38
504.088	682.18
504.543	702.37
504.999	705.58
505.455	656.57
505.91	632.28
506.366	639.17
506.821	616.77
507.277	614.67
507.732	619.07
508.187	619.38
508.643	631.58
509.098	620.67
509.553	654.67
510.009	663.98
510.464	664.17
510.919	687.38
511.375	689.57
511.83	702.57
512.285	717.27
512.74	757.38
513.195	783.17
513.65	769.88
514.105	770.87
514.56	763.57
515.015	788.68
515.47	805.88
515.925	785.07
516.38	791.27
516.835	799.97
517.29	769.27
517.745	765.57
518.2	758.17
518.655	749.77
519.109	739.68
519.564	740.77
520.019	726.67
520.474	726.77
520.928	723.87
521.383	716.37
521.838	695.97
522.292	708.28
522.747	711.17
523.201	696.98
523.656	684.58
524.11	685.68
524.565	682.17
525.019	677.68
525.474	695.08
525.928	699.18
526.382	682.97
526.837	689.28
527.291	703.47
527.745	684.77
528.2	691.98
528.654	681.38
529.108	675.08
529.562	690.17
530.016	682.77
530.47	683.77
530.925	691.88
531.379	692.17
531.833	694.48
532.287	688.98
532.741	701.27
533.195	694.87
533.649	705.38
534.103	716.08
534.556	705.98
535.01	709.18
535.464	701.17
535.918	723.68
536.372	718.87
536.826	704.87
537.279	704.07
537.733	705.17
538.187	708.97
538.64	701.67
539.094	725.88
539.548	728.27
540.001	721.48
540.455	712.27
540.908	720.08
541.362	727.28
541.815	736.08
542.269	757.27
542.722	750.88
543.175	760.17
543.629	758.07
544.082	770.97
544.536	777.17
544.989	777.27
545.442	774.58
545.895	770.87
546.349	787.48
546.802	782.27
547.255	787.67
547.708	791.67
548.161	803.48
548.614	807.87
549.067	818.08
549.52	810.38
549.973	800.27
550.426	792.67
550.879	789.88
551.332	786.07
551.785	801.67
552.238	801.38
552.691	812.98
553.144	816.27
553.596	834.77
554.049	841.08
554.502	886.17
554.955	899.67
555.407	894.88
555.86	889.97
556.313	886.97
556.765	874.48
557.218	865.87
557.67	863.07
558.123	870.57
558.576	855.27
559.028	862.68
559.48	869.07
559.933	865.28
560.385	831.57
560.838	801.17
561.29	776.38
561.742	758.98
562.195	750.78
562.647	748.48
563.099	760.57
563.551	760.08
564.004	764.77
564.456	754.98
564.908	744.48
565.36	735.58
565.812	724.07
566.264	712.68
566.716	705.98
567.168	700.77
567.62	704.68
568.072	688.97
568.524	684.18
568.976	671.07
569.428	660.67
569.88	658.08
570.332	659.68
570.784	673.27
571.235	661.27
571.687	669.08
572.139	679.77
572.59	695.67
573.042	695.77
573.494	692.07
573.945	689.07
574.397	669.88
574.849	679.77
575.3	677.08
575.752	675.77
576.203	647.98
576.655	664.37
577.106	658.58
577.557	657.88
578.009	651.18
578.46	650.98
578.912	652.98
579.363	652.08
579.814	654.87
580.265	637.27
580.717	649.17
581.168	659.88
581.619	661.57
582.07	672.88
582.521	653.57
582.972	648.57
583.423	659.48
583.875	662.47
584.326	682.37
584.777	721.07
585.227	804.17
585.678	878.97
586.129	965.88
586.58	1036.17
587.031	1113.28
587.482	1263.48
587.933	1424.07
588.384	1252.58
588.834	938.98
589.285	780.37
589.736	765.77
590.186	744.57
590.637	745.27
591.088	718.57
591.538	711.17
591.989	706.28
592.439	710.87
592.89	698.98
593.34	691.88
593.791	686.57
594.241	669.98
594.692	681.47
595.142	680.08
595.593	669.78
596.043	686.18
596.493	694.88
596.943	695.98
597.394	692.17
597.844	680.97
598.294	696.48
598.744	719.88
599.195	751.88
599.645	784.08
600.095	837.77
600.545	880.98
600.995	925.87
601.445	995.37
601.895	1046.88
602.345	1091.78
602.795	1061.88
603.245	1037.68
603.695	979.28
604.145	931.38
604.594	870.57
605.044	821.88
605.494	772.87
605.944	729.47
606.393	709.87
606.843	700.08
607.293	699.68
607.743	694.38
608.192	715.77
608.642	731.97
609.091	732.98
609.541	740.67
609.99	736.48
610.44	731.18
610.889	691.07
611.339	672.27
611.788	661.88
612.238	669.07
612.687	686.57
613.136	682.17
613.586	717.48
614.035	694.18
614.484	716.38
614.933	719.58
615.383	724.47
615.832	698.27
616.281	696.68
616.73	661.47
617.179	635.07
617.628	626.17
618.077	607.58
618.526	609.17
618.975	589.27
619.424	590.07
619.873	588.27
620.322	595.47
620.771	580.78
621.22	575.87
621.669	568.27
622.118	552.68
622.567	546.48
623.015	548.77
623.464	543.58
623.913	535.37
624.361	535.27
624.81	529.67
625.259	522.38
625.707	527.48
626.156	528.88
626.604	538.98
627.053	529.67
627.501	531.67
627.95	539.48
628.398	537.17
628.847	541.18
629.295	537.67
629.744	548.98
630.192	548.18
630.64	541.48
631.089	535.48
631.537	548.08
631.985	549.47
632.433	563.67
632.881	573.88
633.33	622.87
633.778	600.67
634.226	535.07
634.674	537.18
635.122	546.27
635.57	558.77
636.018	581.58
636.466	553.78
636.914	526.97
637.362	545.27
637.81	542.27
638.258	549.68
638.705	544.17
639.153	570.08
639.601	580.47
640.049	598.07
640.497	639.68
640.944	656.37
641.392	608.97
641.84	583.87
642.287	550.67
642.735	546.27
643.182	532.48
643.63	542.58
644.078	545.57
644.525	556.77
644.973	558.58
645.42	562.07
645.867	582.88
646.315	600.88
646.762	628.77
647.21	660.98
647.657	679.87
648.104	708.88
648.551	728.88
648.999	784.47
649.446	861.28
649.893	945.38
650.34	1081.78
650.787	1304.97
651.234	1630.08
651.682	2113.88
652.129	2881.57
652.576	4113.38
653.023	6108.98
653.47	8401.67
653.917	10561.27
654.363	12295.88
654.81	13717.07
655.257	13058.77
655.704	8522.07
656.151	5016.68
656.598	3256.88
657.044	2278.88
657.491	1742.78
657.938	1412.68
658.385	1178.67
658.831	1028.08
659.278	907.47
659.724	813.87
660.171	752.98
660.618	678.47
661.064	640.18
661.511	627.97
661.957	618.68
662.404	602.77
662.85	610.98
663.296	588.67
663.743	531.27
664.189	503.87
664.635	491.97
665.082	497.47
665.528	485.18
665.974	487.97
666.42	483.68
666.867	473.47
667.313	455.58
667.759	445.18
668.205	451.77
668.651	449.68
669.097	452.17
669.543	469.37
669.989	442.97
670.435	413.57
670.881	418.18
671.327	422.77
671.773	439.98
672.219	454.87
672.665	504.87
673.11	540.37
673.556	582.77
674.002	619.67
674.448	613.98
674.893	519.08
675.339	442.37
675.785	419.38
676.23	387.18
676.676	369.17
677.122	351.98
677.567	350.47
678.013	340.47
678.458	334.78
678.904	334.18
679.349	320.58
679.794	332.88
680.24	325.57
680.685	324.77
681.131	323.97
681.576	317.27
682.021	324.97
682.466	326.27
682.912	324.17
683.357	329.17
683.802	350.27
684.247	376.27
684.692	424.27
685.137	459.67
685.583	498.97
686.028	527.98
686.473	485.07
686.918	412.48
687.363	390.37
687.807	364.87
688.252	340.48
688.697	329.48
689.142	313.38
689.587	308.27
690.032	304.77
690.477	320.77
690.921	322.57
691.366	353.88
691.811	364.27
692.255	399.17
692.7	435.88
693.145	468.88
693.589	635.18
694.034	1031.97
694.478	1402.98
694.923	1618.28
695.367	2131.28
695.812	1118.78
696.256	464.37
696.701	340.27
697.145	320.97
697.59	302.57
698.034	296.07
698.478	306.57
698.922	300.07
699.367	303.08
699.811	316.77
700.255	323.77
700.699	348.67
701.143	391.77
701.588	440.68
702.032	485.47
702.476	479.27
702.92	457.18
703.364	454.98
703.808	576.87
704.252	933.08
704.696	1316.28
705.14	1554.38
705.584	2009.38
706.027	998.87
706.471	484.57
706.915	366.27
707.359	326.77
707.803	291.37
708.246	287.68
708.69	290.48
709.134	288.77
709.577	289.78
710.021	293.27
710.465	288.68
710.908	275.27
711.352	271.97
711.795	292.07
712.239	322.67
712.682	351.57
713.126	380.87
713.569	426.17
714.012	340.38
714.456	297.68
714.899	276.47
715.342	258.57
715.786	240.88
716.229	234.37
716.672	244.27
717.115	229.88
717.558	233.77
718.002	226.07
718.445	243.17
718.888	262.48
719.331	265.48
719.774	287.27
720.217	278.38
720.66	264.87
721.103	248.37
721.546	236.07
721.989	231.07
722.432	219.38
722.874	223.37
723.317	214.17
723.76	223.08
724.203	235.77
724.645	290.08
725.088	404.07
725.531	521.18
725.974	591.17
726.416	506.37
726.859	286.48
727.301	231.38
727.744	223.88
728.187	214.57
728.629	214.77
729.071	217.47
729.514	240.38
729.956	255.77
730.399	259.17
730.841	261.98
731.283	252.77
731.726	252.77
732.168	243.38
732.61	240.98
733.053	263.68
733.495	289.07
733.937	320.98
734.379	369.48
734.821	396.78
735.263	492.77
735.705	755.27
736.148	1411.78
736.59	2351.98
737.032	2866.27
737.474	2305.88
737.916	748.17
738.357	400.38
738.799	299.77
739.241	272.47
739.683	261.37
740.125	270.58
740.567	271.88
741.008	290.37
741.45	294.38
741.892	290.97
742.334	318.88
742.775	331.98
743.217	317.98
743.658	240.77
744.1	233.68
744.542	237.28
744.983	282.78
745.425	317.18
745.866	320.17
746.307	264.58
746.749	256.28
747.19	292.07
747.632	409.07
748.073	781.68
748.514	1671.38
748.956	2616.58
749.397	3282.28
749.838	2750.98
750.279	2789.47
750.72	1387.77
751.162	498.97
751.603	284.27
752.044	230.77
752.485	197.58
752.926	186.98
753.367	181.97
753.808	183.07
754.249	177.17
754.69	173.27
755.131	169.08
755.572	164.88
756.013	174.27
756.453	171.38
756.894	167.48
757.335	171.88
757.776	184.57
758.216	185.67
758.657	190.18
759.098	185.97
759.538	203.08
759.979	237.67
760.42	334.97
760.86	629.27
761.301	1617.38
761.741	3997.28
762.182	6046.58
762.622	4274.48
763.063	1217.78
763.503	495.07
763.943	310.98
764.384	308.87
764.824	369.98
765.264	404.08
765.705	275.87
766.145	195.47
766.585	165.88
767.025	165.07
767.465	171.47
767.906	214.47
768.346	286.87
768.786	317.18
769.226	237.67
769.666	287.57
770.106	555.27
770.546	1381.38
770.986	2457.57
771.426	2209.88
771.866	726.98
772.306	301.08
772.745	186.07
773.185	157.27
773.625	148.07
774.065	148.07
774.505	172.97
774.944	269.48
775.384	600.18
775.824	1113.98
776.263	1098.67
776.703	462.68
777.142	204.28
777.582	148.37
778.021	124.08
778.461	125.38
778.9	120.07
779.34	123.27
779.779	107.38
780.219	97.88
780.658	105.17
781.097	100.77
781.537	102.48
781.976	98.97
782.415	101.87
782.855	94.38
783.294	91.58
783.733	94.17
784.172	95.27
784.611	93.97
785.05	98.88
785.489	108.98
785.928	102.98
786.367	116.27
786.806	105.87
787.245	119.97
787.684	126.07
788.123	138.57
788.562	112.57
789.001	112.77
789.44	109.58
789.879	109.57
790.317	111.48
790.756	118.67
791.195	117.38
791.634	129.77
792.072	179.38
792.511	328.27
792.95	897.77
793.388	1966.47
793.827	1818.47
794.265	627.27
794.704	257.47
795.142	171.88
795.581	144.88
796.019	127.27
796.458	119.17
796.896	108.48
797.334	118.98
797.773	134.27
798.211	200.27
798.649	389.27
799.087	927.98
799.526	1445.48
799.964	1835.18
800.402	1880.48
800.84	705.37
801.278	266.97
801.716	163.77
802.154	144.47
802.592	128.58
803.03	129.77
803.468	123.48
803.906	125.67
804.344	134.58
804.782	130.48
805.22	121.67
805.658	112.97
806.096	136.18
806.533	140.67
806.971	156.37
807.409	198.87
807.847	283.68
808.284	587.77
808.722	1675.98
809.16	3027.98
809.597	2823.38
810.035	4942.88
810.472	5444.18
810.91	1949.58
811.347	734.77
811.785	363.98
812.222	235.67
812.66	175.88
813.097	155.97
813.535	131.47
813.972	116.48
814.409	106.57
814.846	100.27
815.284	99.27
815.721	95.97
816.158	96.77
816.595	104.88
817.032	163.37
817.47	180.77
817.907	148.38
818.344	133.97
818.781	103.58
819.218	81.27
819.655	107.58
820.092	167.77
820.529	201.37
820.966	165.18
821.403	122.97
821.839	95.38
822.276	94.38
822.713	110.27
823.15	123.08
823.587	104.77
824.023	128.17
824.46	259.98
824.897	813.28
825.333	1262.88
825.77	539.48
826.206	212.17
826.643	126.38
827.08	99.27
827.516	76.08
827.953	66.07
828.389	78.77
828.825	61.57
829.262	59.77
829.698	51.57
830.135	59.48
830.571	54.57
831.007	59.38
831.443	60.48
831.88	59.58
832.316	52.77
832.752	53.67
833.188	60.88
833.624	56.58
834.06	53.48
834.497	68.07
834.933	67.88
835.369	75.27
835.805	53.77
836.241	66.07
836.677	74.18
837.112	80.67
837.548	92.98
837.984	119.27
838.42	182.18
838.856	432.88
839.292	1369.28
839.727	2150.78
840.163	993.78
840.599	827.88
841.034	1857.88
841.47	1990.58
841.906	724.77
842.341	306.47
842.777	206.88
843.212	287.37
843.648	278.48
844.083	140.47
844.519	91.77
844.954	72.77
845.39	58.77
845.825	56.57
846.261	50.88
846.696	52.27
847.131	47.17
847.566	54.07
848.002	52.67
848.437	48.48
848.872	54.98
849.307	54.98
849.742	76.77
850.177	158.68
850.613	496.88
851.048	820.27
851.483	349.98
851.918	139.97
852.353	76.17
852.788	56.47
853.223	51.67
853.657	54.57
854.092	44.17
854.527	34.67
854.962	35.97
855.397	37.27
855.832	42.48
856.266	39.98
856.701	38.77
857.136	30.38
857.57	37.88
858.005	42.77
858.44	55.27
858.874	44.48
859.309	52.08
859.743	38.67
860.178	42.07
860.612	33.07
861.047	41.07
861.481	64.07
861.915	64.88
862.35	38.07
862.784	29.97
863.218	35.98
863.653	27.17
864.087	38.88
864.521	46.08
864.955	65.88
865.39	148.97
865.824	165.18
866.258	102.77
866.692	146.27
867.126	160.07
867.56	96.07
867.994	47.07
868.428	30.77
868.862	40.88
869.296	42.68
869.73	56.37
870.164	42.77
870.598	38.88
871.031	38.77
871.465	29.07
871.899	24.58
872.333	25.08
872.766	23.17
873.2	21.57
873.634	29.88
874.067	25.67
874.501	22.07
874.935	30.27
875.368	24.57
875.802	26.27
876.235	20.27
876.669	19.48
877.102	16.38
877.535	23.77
877.969	14.08
878.402	25.27
878.836	18.88
879.269	23.08
879.702	20.27
880.135	10.27
880.569	25.27
881.002	24.18
881.435	15.17
881.868	13.98
882.301	21.38
882.734	17.47
883.167	24.17
883.601	12.48
884.034	24.27
884.467	14.27
884.899	15.77
885.332	11.27
885.765	13.98
886.198	12.47
886.631	11.97
887.064	16.48
887.497	17.57
887.929	15.77
888.362	10.77
888.795	10.07
889.228	11.57
889.66	19.17
890.093	16.07
890.526	13.67
890.958	13.77
891.391	17.38
891.823	22.27
892.256	20.38
892.688	13.77
893.121	13.77
893.553	14.77
893.985	19.47
894.418	15.97
894.85	8.67
895.282	7.47
895.715	14.57
896.147	15.18
896.579	17.88
897.011	11.98
897.444	15.17
897.876	15.68
898.308	11.17
898.74	13.18
899.172	10.77
899.604	18.18
900.036	15.27
900.468	9.07
900.9	10.97
901.332	20.17
901.764	10.38
902.196	24.38
902.628	15.07
903.06	14.87
903.491	28.17
903.923	20.67
904.355	15.98
904.787	20.57
905.218	19.38
905.65	13.27
906.082	13.47
906.513	12.57
906.945	8.88
907.376	6.77
907.808	24.38
908.239	16.98
908.671	19.58
909.102	21.38
909.534	21.48
909.965	42.58
910.397	81.77
910.828	281.77
911.259	444.68
911.691	196.58
912.122	89.88
912.553	48.67
912.984	30.88
913.415	20.48
913.847	21.88
914.278	14.38
914.709	12.38
915.14	20.27
915.571	13.88
916.002	8.48
916.433	12.88
916.864	14.47
917.295	14.47
917.726	19.98
918.157	19.17
918.587	25.27
919.018	20.18
919.449	10.58
919.88	23.67
920.311	27.17
920.741	39.87
921.172	150.27
921.603	138.87
922.033	64.57
922.464	36.48
922.895	19.57
923.325	18.98
923.756	6.17
924.186	10.77
924.617	20.88
925.047	34.88
925.478	49.17
925.908	36.17
926.338	18.77
926.769	13.68
927.199	16.27
927.629	8.17
928.06	17.27
928.49	17.27
928.92	12.07
929.35	10.18
929.78	6.17
930.21	6.17
930.641	9.67
931.071	3.98
931.501	4.58
931.931	0.98
932.361	12.27
932.791	3.67
933.221	7.98
933.651	3.58
934.08	11.88
934.51	26.77
934.94	9.77
935.37	7.58
935.8	11.97
936.229	11.77
936.659	10.57
937.089	1.48
937.519	8.17
937.948	25.27
938.378	14.88
938.807	5.37
939.237	1.27
939.666	7.58
940.096	-4.52
940.525	2.47
940.955	4.08
941.384	1.48
941.814	-11.53
942.243	-4.73
942.672	5.67
943.102	-4.52
943.531	-0.33
943.96	-1.93
944.39	0.37
944.819	4.37
945.248	1.48
945.677	-0.62
946.106	9.77
946.535	8.17
946.964	-2.62
947.393	4.98
947.822	-0.23
948.251	-5.23
948.68	0.77
949.109	4.17
949.538	1.38
949.967	-1.73
950.396	-1.23
950.825	-7.13
951.254	-1.82
951.682	-10.23
952.111	2.77
952.54	1.98
952.969	-3.52
953.397	-8.03
953.826	-1.62
954.254	-7.93
954.683	-2.93
955.112	-4.42
955.54	-4.32
955.969	-3.92
956.397	-4.33
956.826	-2.73
957.254	2.48
957.682	2.57
958.111	7.77
958.539	0.38
958.967	-3.12
959.396	-4.23
959.824	-0.92
960.252	4.07
960.68	-7.63
961.109	-8.93
961.537	-3.73
961.965	-0.33
962.393	2.58
962.821	-1.32
963.249	3.38
963.677	7.17
964.105	2.27
964.533	37.98
964.961	31.67
965.389	16.18
965.817	11.87
966.245	2.88
966.672	-0.02
967.1	-7.82
967.528	0.87
967.956	-2.12
968.383	6.97
968.811	-4.42
969.239	-7.43
969.666	-3.33
970.094	6.08
970.522	-0.93
970.949	1.57
971.377	-5.62
971.804	-2.52
972.232	-9.02
972.659	-2.62
973.087	-1.63
973.514	-1.83
973.941	-8.62
974.369	3.38
974.796	-3.42
975.223	-2.93
975.651	-2.73
976.078	4.98
976.505	-3.73
976.932	3.88
977.359	9.17
977.786	13.67
978.214	-7.12
978.641	-9.23
979.068	-7.23
979.495	-6.43
979.922	-0.73
980.349	-4.43
980.776	2.57
981.202	-2.93
981.629	-4.12
982.056	1.07
982.483	-0.92
982.91	0.88
983.337	-7.23
983.763	1.77
984.19	-9.12
984.617	-5.83
985.043	-8.62
985.47	-2.52
985.897	-4.12
986.323	-3.62
986.75	1.48
987.176	0.27
987.603	-0.23
988.029	1.67
988.456	-4.12
988.882	-2.52
989.308	-4.43
989.735	-5.83
990.161	-3.02
990.587	-5.43
991.014	-2.23
991.44	3.27
991.866	-4.42
992.292	-8.73
992.719	-4.93
993.145	1.67
993.571	-8.42
993.997	-5.12
994.423	-2.33
994.849	-5.43
995.275	-3.62
995.701	1.97
996.127	-2.83
996.553	-2.52
996.979	-8.83
997.405	-7.52
997.83	-7.43
998.256	-8.13
998.682	-2.52
999.108	-8.53
999.534	-1.83
999.959	-0.43
1000.385	-1.33
1000.811	-1.23
1001.236	-11.33
1001.662	-8.83
1002.087	-13.32
1002.513	1.57
1002.938	-1.12
1003.364	1.88
1003.789	-0.12
1004.215	1.38
1004.64	-2.62
1005.066	4.38
1005.491	-4.73
1005.916	-3.43
1006.342	-6.12
1006.767	-5.42
1007.192	6.98
1007.617	-4.43
1008.042	-2.42
1008.468	-1.33
1008.893	-1.52
1009.318	-3.52
1009.743	-1.53
1010.168	6.67
1010.593	-2.02
1011.018	-5.02
1011.443	-5.93
1011.868	-0.42
1012.293	-6.12
1012.718	-9.62
1013.143	-0.53
1013.567	3.57
1013.992	-1.52
1014.417	-11.53
1014.842	-8.93
1015.267	-8.33
1015.691	-6.42
1016.116	0.77
1016.541	-5.33
1016.965	-0.03
1017.39	0.47
1017.814	-3.32
1018.239	2.67
1018.663	-6.83
1019.088	-7.03
1019.512	-2.53
1019.937	-5.93
1020.361	-7.73
1020.785	-9.63
1021.21	-6.12
1021.634	-4.12
1022.058	-0.12
1022.483	7.38
1022.907	-6.53
1023.331	-7.73
1023.755	-3.12
1024.179	-6.73
1024.604	-4.33
1025.028	-8.33
1025.452	-0.43
1025.876	1.07
1026.3	-2.83
1026.724	-8.33
1027.148	-7.73
1027.572	-8.92
1027.996	-3.33
1028.42	-5.73
1028.843	-7.83
1029.267	-3.23
1029.691	-4.73
1030.115	-9.93
1030.539	-6.13
1030.962	-5.23
1031.386	-14.42
1031.81	-1.12
1032.233	-1.62
1032.657	-4.52
1033.08	-1.62
1033.504	-7.33
1033.927	-4.73
1034.351	-2.32
1034.774	-5.12
1035.198	3.38
1035.621	-4.62
1036.045	-7.23
1036.468	-1.93
1036.891	-8.43
1037.315	-13.13
1037.738	-8.92
1038.161	-4.33
1038.584	-11.83
1039.008	-4.83
1039.431	-8.12
1039.854	-8.23
1040.277	-11.52
1040.7	-14.52
1041.123	-4.33
1041.546	-0.92
1041.969	-4.92
1042.392	-8.43
1042.815	-5.23
1043.238	-4.03
1043.661	-0.33
1044.084	-7.83
1044.507	-11.52
1044.93	-9.12
1045.352	-4.33
1045.775	-4.43
1046.198	-1.92
1046.621	-0.73
1047.043	-4.42
1047.466	2.27
1047.889	-1.43
1048.311	-9.73
1048.734	-1.83
1049.156	-7.02
1049.579	-2.43
1050.001	-4.92
1050.424	-3.33
1050.846	-5.03
1051.269	-3.82
1051.691	-9.73
1052.113	-11.33
1052.536	-5.83
1052.958	-1.43
1053.38	-3.23
1053.802	-3.93
1054.225	-6.03
1054.647	-9.33
1055.069	-7.13
1055.491	-0.12
1055.913	-2.73
1056.335	-4.03
1056.757	-7.23
1057.179	-13.23
1057.601	-3.83
1058.023	-4.23
1058.445	-4.33
1058.867	-11.43
1059.289	-4.53
1059.711	-4.02
1060.133	0.57
1060.555	-5.03
1060.976	-12.93
1061.398	-10.62
1061.82	-12.23
1062.241	-0.73
1062.663	-8.43
1063.085	-5.83
1063.506	-0.12
1063.928	-4.33
1064.35	-2.42
1064.771	-7.53
1065.193	-7.23
1065.614	-7.83
1066.035	-5.23
1066.457	-0.12
1066.878	-1.43
1067.3	-4.33
1067.721	0.67
1068.142	-1.83
1068.564	-4.83
1068.985	-5.53
1069.406	-7.12
1069.827	-7.33
1070.248	-1.52
1070.67	-6.23
1071.091	-6.92
1071.512	-5.03
1071.933	-5.12
1072.354	-10.32
1072.775	-8.52
1073.196	-8.73
1073.617	-6.73
1074.038	-5.42
1074.459	-6.32
1074.88	-5.83
1075.3	-0.93
1075.721	-9.43
1076.142	-0.12
1076.563	0.97
1076.983	-14.83
1077.404	-9.52
1077.825	-15.52
1078.246	-5.43
1078.666	-10.03
1079.087	-2.02
1079.507	-7.93
1079.928	0.07
1080.348	-2.42
1080.769	-3.33
1081.189	3.68
1081.61	-5.02
1082.03	-3.33
1082.451	-3.43
1082.871	-2.62
1083.291	-9.53
1083.711	-11.23
1084.132	-5.73
1084.552	-3.43
1084.972	-1.42
1085.392	-10.63
1085.813	-12.23
1086.233	-5.02
1086.653	-4.62
1087.073	-2.73
1087.493	-6.93
1087.913	-12.63
1088.333	-7.83
1088.753	-5.73
1089.173	-0.43
1089.593	-1.32
1090.013	2.97
1090.433	-6.93
1090.852	-5.83
1091.272	-1.83
1091.692	-0.02
1092.112	-6.23
1092.531	-9.83
1092.951	-14.42
1093.371	-1.93
1093.79	5.08
1094.21	2.17
1094.63	-6.52
1095.049	-11.02
1095.469	-0.02
1095.888	-4.33
1096.308	0.57
1096.727	3.38
1097.146	-3.92
1097.566	-2.62
1097.985	-7.62
1098.405	-6.62
1098.824	-4.93
1099.243	-9.33
1099.662	-10.53
1100.082	-8.62
1100.501	-1.53
1100.92	-4.33
1101.339	-8.13
1101.758	-4.92
