Data from 20171114-ORNL-Ar_H_NY_Subt18_08-07-08-778.txt Node
Date: Tue Nov 14 08:07:08 EST 2017
User: Ender
Spectrometer: HR+D1039
Trigger mode: 0
Integration Time (sec): 2.730000E-2
Scans to average: 10
Electric dark correction enabled: true
Nonlinearity correction enabled: false
Boxcar width: 0
XAxis mode: Wavelengths
Number of Pixels in Spectrum: 2048
>>>>>Begin Spectral Data<<<<<
187.836	-5.53
188.309	-5.53
188.782	-5.53
189.255	7.27
189.728	-2.23
190.201	5.97
190.674	0.87
191.147	1.97
191.619	-3.53
192.092	1.67
192.565	-0.23
193.038	0.57
193.511	0.57
193.984	-2.43
194.456	-6.83
194.929	-1.52
195.402	-1.23
195.874	4.57
196.347	1.47
196.82	-5.33
197.292	3.57
197.765	1.88
198.237	-1.02
198.71	6.17
199.182	0.88
199.655	7.27
200.127	1.97
200.6	-0.83
201.072	1.77
201.544	-2.93
202.017	0.97
202.489	5.37
202.961	-4.02
203.433	2.77
203.906	-2.12
204.378	-2.42
204.85	-5.33
205.322	-4.93
205.794	-6.93
206.266	-2.03
206.739	-4.83
207.211	3.07
207.683	-6.33
208.155	-9.73
208.627	-7.53
209.099	-2.83
209.57	-5.92
210.042	-8.93
210.514	-1.42
210.986	0.07
211.458	-7.23
211.93	-1.33
212.402	8.57
212.873	-8.03
213.345	-8.93
213.817	-13.43
214.288	-1.73
214.76	-6.63
215.232	0.88
215.703	-2.83
216.175	-5.23
216.646	-2.93
217.118	-12.33
217.589	-0.73
218.061	5.07
218.532	-2.12
219.004	5.27
219.475	2.07
219.946	-3.83
220.418	-4.33
220.889	2.47
221.36	1.67
221.832	1.87
222.303	-12.62
222.774	-0.53
223.245	-7.23
223.717	0.07
224.188	-5.52
224.659	-4.33
225.13	-8.73
225.601	-2.53
226.072	-5.02
226.543	0.77
227.014	1.67
227.485	-1.03
227.956	-10.83
228.427	-0.02
228.898	1.88
229.369	5.67
229.839	-6.53
230.31	-2.43
230.781	3.17
231.252	-1.62
231.722	-1.63
232.193	0.08
232.664	1.48
233.135	-3.83
233.605	-2.23
234.076	-3.23
234.546	3.87
235.017	0.67
235.487	1.88
235.958	-0.62
236.428	-10.83
236.899	-0.92
237.369	4.08
237.84	-2.23
238.31	2.57
238.78	1.27
239.251	-9.33
239.721	1.67
240.191	2.08
240.662	-3.73
241.132	-0.62
241.602	-6.93
242.072	-1.93
242.542	0.77
243.013	-2.53
243.483	-0.93
243.953	2.58
244.423	-2.42
244.893	-5.93
245.363	2.17
245.833	2.57
246.303	-0.83
246.773	6.17
247.243	1.17
247.712	-3.73
248.182	4.47
248.652	0.67
249.122	-6.53
249.592	-1.93
250.061	-1.73
250.531	8.98
251.001	1.67
251.471	4.47
251.94	6.67
252.41	-1.42
252.879	-2.43
253.349	10.07
253.818	5.27
254.288	3.77
254.757	-1.02
255.227	-2.23
255.696	3.37
256.166	2.08
256.635	8.98
257.105	3.27
257.574	3.47
258.043	1.58
258.513	-7.33
258.982	3.88
259.451	-3.63
259.92	1.07
260.389	3.38
260.859	6.38
261.328	3.88
261.797	-0.83
262.266	-2.62
262.735	7.17
263.204	2.97
263.673	1.17
264.142	-0.73
264.611	-8.53
265.08	-5.93
265.549	-5.12
266.018	2.88
266.487	-3.43
266.955	-3.23
267.424	0.07
267.893	3.88
268.362	4.58
268.83	1.88
269.299	9.17
269.768	6.87
270.236	3.67
270.705	3.07
271.174	5.88
271.642	3.07
272.111	2.67
272.579	-0.63
273.048	-2.23
273.516	6.07
273.985	6.67
274.453	5.88
274.922	6.37
275.39	4.77
275.858	-4.12
276.327	3.77
276.795	16.38
277.263	4.07
277.731	10.57
278.2	2.77
278.668	4.88
279.136	6.47
279.604	4.67
280.072	7.77
280.54	9.77
281.008	3.97
281.477	11.07
281.945	2.97
282.413	2.17
282.881	8.98
283.348	3.48
283.816	9.07
284.284	12.17
284.752	14.17
285.22	2.48
285.688	14.77
286.156	7.98
286.623	18.97
287.091	10.17
287.559	9.07
288.026	16.98
288.494	12.17
288.962	-1.23
289.429	11.47
289.897	13.58
290.364	13.07
290.832	16.27
291.3	9.77
291.767	15.38
292.234	13.97
292.702	6.98
293.169	20.88
293.637	20.88
294.104	16.57
294.571	8.07
295.039	3.87
295.506	14.27
295.973	13.97
296.44	10.48
296.908	13.27
297.375	11.77
297.842	12.17
298.309	16.98
298.776	8.58
299.243	16.97
299.71	11.07
300.177	12.98
300.644	17.27
301.111	17.88
301.578	20.17
302.045	7.17
302.512	19.27
302.979	13.07
303.446	19.97
303.913	14.38
304.379	13.67
304.846	22.98
305.313	22.88
305.78	19.47
306.246	22.57
306.713	25.87
307.18	17.58
307.646	20.87
308.113	21.07
308.579	21.47
309.046	21.77
309.512	20.88
309.979	14.47
310.445	22.97
310.912	23.07
311.378	33.38
311.845	20.17
312.311	24.77
312.777	26.07
313.244	25.27
313.71	32.27
314.176	24.08
314.642	24.38
315.109	25.88
315.575	32.07
316.041	31.27
316.507	20.97
316.973	27.67
317.439	27.47
317.905	34.67
318.371	34.17
318.837	24.77
319.303	30.07
319.769	25.58
320.235	29.37
320.701	29.27
321.167	26.37
321.633	31.27
322.099	27.27
322.564	34.97
323.03	36.77
323.496	30.57
323.962	33.48
324.427	26.27
324.893	34.47
325.359	31.87
325.824	30.47
326.29	28.37
326.755	32.37
327.221	34.37
327.686	32.38
328.152	41.67
328.617	31.38
329.083	38.07
329.548	45.97
330.014	39.27
330.479	31.47
330.944	35.17
331.41	39.57
331.875	45.08
332.34	40.48
332.805	39.97
333.271	41.38
333.736	31.17
334.201	46.67
334.666	44.47
335.131	46.67
335.596	39.87
336.061	48.57
336.526	35.77
336.991	39.27
337.456	48.17
337.921	41.37
338.386	43.67
338.851	41.07
339.316	42.27
339.781	39.38
340.246	51.07
340.711	44.57
341.175	43.67
341.64	39.38
342.105	46.17
342.569	51.87
343.034	50.57
343.499	53.88
343.963	49.17
344.428	58.27
344.893	58.37
345.357	56.57
345.822	57.07
346.286	55.17
346.751	66.17
347.215	59.97
347.679	63.77
348.144	75.07
348.608	73.17
349.073	57.88
349.537	67.07
350.001	69.67
350.465	71.88
350.93	63.57
351.394	72.48
351.858	62.08
352.322	73.48
352.786	74.27
353.25	84.17
353.715	91.88
354.179	90.47
354.643	97.88
355.107	99.67
355.571	85.88
356.035	85.97
356.498	100.87
356.962	98.87
357.426	105.77
357.89	102.38
358.354	83.37
358.818	78.07
359.281	68.98
359.745	66.58
360.209	68.77
360.673	63.98
361.136	74.17
361.6	83.07
362.064	75.67
362.527	74.67
362.991	85.67
363.454	77.38
363.918	68.77
364.381	74.77
364.845	76.77
365.308	79.37
365.772	84.37
366.235	78.97
366.698	75.47
367.162	73.07
367.625	77.87
368.088	83.37
368.552	83.57
369.015	78.48
369.478	86.38
369.941	94.17
370.404	85.97
370.867	96.07
371.331	90.87
371.794	98.47
372.257	89.07
372.72	94.17
373.183	93.48
373.646	91.07
374.109	89.17
374.572	99.07
375.035	92.47
375.497	104.97
375.96	102.27
376.423	98.37
376.886	107.48
377.349	99.57
377.811	95.07
378.274	97.27
378.737	102.37
379.199	106.48
379.662	106.57
380.125	108.38
380.587	102.27
381.05	95.88
381.512	109.67
381.975	109.37
382.437	114.27
382.9	104.37
383.362	116.57
383.825	116.77
384.287	122.47
384.75	107.97
385.212	121.57
385.674	122.47
386.136	121.67
386.599	116.27
387.061	124.38
387.523	122.27
387.985	117.87
388.447	126.97
388.91	119.07
389.372	121.58
389.834	124.27
390.296	119.67
390.758	134.47
391.22	126.57
391.682	146.27
392.144	144.88
392.606	142.87
393.068	128.38
393.529	144.37
393.991	133.57
394.453	130.47
394.915	136.37
395.377	134.07
395.838	130.17
396.3	134.67
396.762	137.77
397.224	132.07
397.685	132.17
398.147	139.98
398.608	126.38
399.07	128.48
399.531	135.67
399.993	147.58
400.454	154.17
400.916	147.27
401.377	143.67
401.839	153.07
402.3	144.67
402.762	164.77
403.223	170.17
403.684	168.87
404.145	164.37
404.607	160.07
405.068	160.27
405.529	165.77
405.99	185.67
406.451	173.67
406.913	170.67
407.374	164.47
407.835	162.07
408.296	171.08
408.757	172.38
409.218	188.37
409.679	177.27
410.14	171.88
410.601	174.38
411.062	177.77
411.522	192.48
411.983	174.67
412.444	173.38
412.905	183.17
413.366	186.88
413.826	197.17
414.287	223.68
414.748	271.37
415.208	261.88
415.669	223.17
416.13	215.88
416.59	211.38
417.051	218.58
417.511	229.17
417.972	241.88
418.432	257.98
418.893	297.57
419.353	258.47
419.814	207.07
420.274	192.87
420.734	184.87
421.195	198.07
421.655	203.67
422.115	202.67
422.576	202.77
423.036	203.58
423.496	214.58
423.956	226.67
424.416	236.17
424.876	273.77
425.336	271.17
425.797	258.77
426.257	265.47
426.717	248.97
427.177	235.27
427.637	226.67
428.097	237.17
428.556	248.07
429.016	273.27
429.476	266.58
429.936	273.67
430.396	276.87
430.856	287.47
431.315	304.57
431.775	338.88
432.235	371.67
432.694	349.38
433.154	355.37
433.614	381.77
434.073	326.17
434.533	280.58
434.993	270.27
435.452	280.48
435.912	290.57
436.371	283.38
436.83	274.08
437.29	268.67
437.749	253.48
438.209	254.27
438.668	274.48
439.127	286.57
439.587	263.78
440.046	256.68
440.505	265.17
440.964	280.88
441.424	323.08
441.883	304.67
442.342	267.47
442.801	231.77
443.26	232.98
443.719	235.27
444.178	224.98
444.637	226.28
445.096	231.88
445.555	235.57
446.014	242.77
446.473	240.07
446.932	245.38
447.391	238.37
447.849	237.38
448.308	228.57
448.767	230.77
449.226	243.97
449.685	244.67
450.143	261.07
450.602	255.38
451.061	239.98
451.519	249.47
451.978	246.17
452.436	244.48
452.895	254.78
453.353	264.27
453.812	250.28
454.27	249.67
454.729	253.58
455.187	249.67
455.646	255.27
456.104	256.98
456.562	273.47
457.021	287.67
457.479	269.87
457.937	285.17
458.395	276.27
458.854	265.37
459.312	272.27
459.77	290.07
460.228	271.07
460.686	260.27
461.144	271.77
461.602	264.27
462.06	262.58
462.518	268.47
462.976	264.97
463.434	276.87
463.892	278.07
464.35	288.27
464.808	303.07
465.266	284.68
465.724	293.17
466.181	289.37
466.639	293.17
467.097	310.27
467.555	321.87
468.012	328.37
468.47	322.18
468.928	348.38
469.385	351.08
469.843	358.98
470.3	362.47
470.758	382.18
471.215	405.27
471.673	434.57
472.13	421.08
472.588	431.18
473.045	386.58
473.503	410.28
473.96	419.57
474.417	421.98
474.875	458.77
475.332	494.37
475.789	478.27
476.246	496.07
476.704	513.08
477.161	534.37
477.618	545.57
478.075	573.28
478.532	631.57
478.989	697.87
479.446	807.88
479.903	768.47
480.36	815.07
480.817	861.38
481.274	949.57
481.731	1042.58
482.188	1118.07
482.645	1237.97
483.102	1330.38
483.558	1461.48
484.015	1508.47
484.472	1461.58
484.929	1422.37
485.385	1381.28
485.842	1356.68
486.299	1316.97
486.755	1268.67
487.212	1084.77
487.668	934.88
488.125	861.77
488.582	789.88
489.038	752.77
489.494	731.77
489.951	714.57
490.407	689.47
490.864	674.47
491.32	657.57
491.776	658.98
492.233	673.57
492.689	636.27
493.145	636.47
493.602	620.67
494.058	640.37
494.514	645.58
494.97	671.97
495.426	683.57
495.882	647.57
496.338	637.37
496.794	649.77
497.251	642.87
497.707	665.28
498.163	668.87
498.618	667.88
499.074	671.77
499.53	696.77
499.986	691.38
500.442	668.58
500.898	650.58
501.354	649.27
501.809	646.47
502.265	659.68
502.721	661.38
503.177	669.58
503.632	676.77
504.088	678.17
504.543	693.88
504.999	717.77
505.455	681.88
505.91	672.98
506.366	675.37
506.821	678.77
507.277	657.38
507.732	679.07
508.187	670.48
508.643	675.77
509.098	673.18
509.553	694.97
510.009	706.58
510.464	707.07
510.919	729.07
511.375	736.88
511.83	743.67
512.285	757.47
512.74	790.68
513.195	817.27
513.65	811.47
514.105	811.07
514.56	811.38
515.015	837.08
515.47	837.27
515.925	829.28
516.38	824.17
516.835	830.98
517.29	819.67
517.745	817.47
518.2	809.57
518.655	799.07
519.109	785.28
519.564	773.38
520.019	768.98
520.474	755.28
520.928	765.58
521.383	757.57
521.838	747.27
522.292	754.18
522.747	746.77
523.201	747.97
523.656	739.98
524.11	736.88
524.565	724.87
525.019	718.77
525.474	734.77
525.928	737.58
526.382	725.37
526.837	741.87
527.291	742.48
527.745	743.97
528.2	737.88
528.654	717.98
529.108	727.87
529.562	728.48
530.016	718.58
530.47	715.67
530.925	733.98
531.379	725.48
531.833	725.08
532.287	734.07
532.741	737.97
533.195	736.38
533.649	752.67
534.103	753.18
534.556	758.27
535.01	755.38
535.464	739.07
535.918	751.47
536.372	756.58
536.826	748.88
537.279	743.88
537.733	749.18
538.187	743.87
538.64	747.47
539.094	761.68
539.548	765.97
540.001	766.67
540.455	758.17
540.908	774.07
541.362	780.87
541.815	789.77
542.269	798.17
542.722	797.57
543.175	815.77
543.629	815.97
544.082	839.57
544.536	835.77
544.989	831.47
545.442	843.07
545.895	826.17
546.349	845.67
546.802	845.47
547.255	841.17
547.708	851.18
548.161	862.17
548.614	870.67
549.067	874.27
549.52	868.18
549.973	859.48
550.426	850.97
550.879	847.77
551.332	843.58
551.785	850.57
552.238	865.77
552.691	869.78
553.144	891.38
553.596	903.78
554.049	919.37
554.502	946.17
554.955	975.17
555.407	965.87
555.86	953.27
556.313	945.98
556.765	928.27
557.218	929.38
557.67	932.27
558.123	922.67
558.576	913.87
559.028	940.17
559.48	935.38
559.933	921.57
560.385	897.17
560.838	849.57
561.29	834.07
561.742	828.28
562.195	810.27
562.647	803.17
563.099	815.07
563.551	810.37
564.004	826.67
564.456	814.58
564.908	805.47
565.36	794.77
565.812	776.08
566.264	754.47
566.716	754.17
567.168	738.88
567.62	748.77
568.072	726.68
568.524	736.28
568.976	730.97
569.428	708.77
569.88	707.17
570.332	720.38
570.784	721.88
571.235	726.58
571.687	738.27
572.139	740.27
572.59	758.27
573.042	759.27
573.494	753.58
573.945	742.97
574.397	734.98
574.849	723.17
575.3	725.68
575.752	730.27
576.203	712.38
576.655	722.27
577.106	702.68
577.557	707.67
578.009	702.67
578.46	704.47
578.912	705.97
579.363	703.48
579.814	705.88
580.265	691.67
580.717	705.07
581.168	708.67
581.619	717.17
582.07	723.97
582.521	711.57
582.972	706.38
583.423	704.77
583.875	711.98
584.326	708.97
584.777	718.67
585.227	742.17
585.678	756.98
586.129	772.67
586.58	791.47
587.031	816.68
587.482	843.88
587.933	855.77
588.384	849.88
588.834	822.37
589.285	822.67
589.736	814.98
590.186	812.38
590.637	815.07
591.088	780.88
591.538	763.98
591.989	766.87
592.439	763.27
592.89	751.67
593.34	735.48
593.791	734.07
594.241	725.67
594.692	740.98
595.142	732.98
595.593	729.07
596.043	730.88
596.493	747.87
596.943	742.47
597.394	754.27
597.844	748.57
598.294	771.28
598.744	798.67
599.195	817.37
599.645	859.68
600.095	903.47
600.545	966.47
600.995	1010.47
601.445	1072.07
601.895	1148.67
602.345	1181.88
602.795	1172.78
603.245	1133.38
603.695	1065.88
604.145	1012.37
604.594	960.88
605.044	914.48
605.494	845.47
605.944	783.37
606.393	783.47
606.843	766.27
607.293	764.17
607.743	755.37
608.192	767.67
608.642	777.07
609.091	790.28
609.541	800.07
609.99	799.28
610.44	791.58
610.889	753.67
611.339	730.97
611.788	713.58
612.238	729.88
612.687	740.47
613.136	729.18
613.586	740.58
614.035	724.17
614.484	733.07
614.933	732.37
615.383	735.87
615.832	736.67
616.281	727.47
616.73	707.98
617.179	685.58
617.628	675.47
618.077	665.27
618.526	659.67
618.975	641.27
619.424	642.07
619.873	639.67
620.322	643.57
620.771	630.68
621.22	628.57
621.669	623.08
622.118	615.17
622.567	611.08
623.015	591.27
623.464	604.77
623.913	589.27
624.361	584.57
624.81	568.77
625.259	576.78
625.707	581.88
626.156	589.57
626.604	600.27
627.053	592.77
627.501	596.47
627.95	591.58
628.398	618.97
628.847	593.17
629.295	597.48
629.744	596.58
630.192	590.88
630.64	592.27
631.089	570.57
631.537	565.07
631.985	551.07
632.433	557.37
632.881	544.67
633.33	551.47
633.778	540.48
634.226	544.58
634.674	551.67
635.122	569.17
635.57	564.88
636.018	579.17
636.466	569.98
636.914	579.27
637.362	602.47
637.81	600.27
638.258	593.97
638.705	604.87
639.153	635.77
639.601	650.77
640.049	666.57
640.497	704.77
640.944	722.88
641.392	681.57
641.84	638.97
642.287	612.57
642.735	580.67
643.182	585.17
643.63	585.27
644.078	583.88
644.525	586.88
644.973	596.98
645.42	612.17
645.867	637.87
646.315	656.97
646.762	679.97
647.21	709.97
647.657	727.67
648.104	755.17
648.551	781.57
648.999	836.07
649.446	914.18
649.893	988.08
650.34	1134.67
650.787	1351.58
651.234	1656.97
651.682	2126.27
652.129	2892.18
652.576	4119.77
653.023	5979.38
653.47	8053.77
653.917	10054.18
654.363	11558.88
654.81	12780.68
655.257	12062.08
655.704	7988.17
656.151	4843.37
656.598	3169.98
657.044	2277.77
657.491	1777.17
657.938	1421.08
658.385	1200.38
658.831	1056.47
659.278	948.27
659.724	841.47
660.171	787.67
660.618	725.07
661.064	703.58
661.511	673.77
661.957	667.17
662.404	652.67
662.85	667.28
663.296	635.17
663.743	573.07
664.189	556.27
664.635	545.67
665.082	543.57
665.528	548.17
665.974	534.27
666.42	523.27
666.867	518.48
667.313	507.27
667.759	486.97
668.205	466.58
668.651	471.38
669.097	460.88
669.543	460.67
669.989	463.07
670.435	470.78
670.881	465.47
671.327	472.07
671.773	495.17
672.219	513.77
672.665	569.88
673.11	596.57
673.556	647.67
674.002	702.57
674.448	694.57
674.893	576.37
675.339	503.38
675.785	456.57
676.23	430.58
676.676	417.87
677.122	402.88
677.567	386.57
678.013	382.37
678.458	381.27
678.904	380.58
679.349	366.27
679.794	370.77
680.24	368.08
680.685	366.67
681.131	367.37
681.576	368.97
682.021	368.57
682.466	361.67
682.912	369.67
683.357	366.07
683.802	394.38
684.247	433.27
684.692	481.47
685.137	519.27
685.583	555.07
686.028	587.57
686.473	539.97
686.918	467.17
687.363	444.17
687.807	405.38
688.252	384.17
688.697	366.67
689.142	351.48
689.587	349.38
690.032	341.27
690.477	357.88
690.921	362.67
691.366	393.07
691.811	424.47
692.255	448.98
692.7	489.57
693.145	520.28
693.589	728.47
694.034	1200.67
694.478	1625.78
694.923	1832.38
695.367	2382.68
695.812	1257.17
696.256	521.17
696.701	391.27
697.145	362.68
697.59	345.27
698.034	332.47
698.478	347.88
698.922	335.78
699.367	339.48
699.811	343.48
700.255	369.58
700.699	405.37
701.143	444.78
701.588	491.08
702.032	543.37
702.476	540.67
702.92	515.67
703.364	514.38
703.808	675.77
704.252	1103.28
704.696	1523.18
705.14	1758.18
705.584	2251.27
706.027	1121.57
706.471	541.07
706.915	413.08
707.359	364.37
707.803	339.27
708.246	332.28
708.69	334.47
709.134	328.48
709.577	324.27
710.021	328.47
710.465	320.27
710.908	314.77
711.352	305.48
711.795	324.77
712.239	371.87
712.682	395.07
713.126	435.17
713.569	474.77
714.012	370.48
714.456	320.88
714.899	306.68
715.342	292.88
715.786	271.68
716.229	267.17
716.672	270.87
717.115	260.77
717.558	266.08
718.002	261.77
718.445	271.48
718.888	297.67
719.331	314.08
719.774	326.48
720.217	321.98
720.66	298.38
721.103	279.27
721.546	269.38
721.989	255.77
722.432	248.57
722.874	250.67
723.317	242.48
723.76	252.57
724.203	263.07
724.645	338.18
725.088	475.67
725.531	600.58
725.974	668.07
726.416	577.97
726.859	319.47
727.301	255.87
727.744	252.58
728.187	242.78
728.629	246.77
729.071	252.57
729.514	270.37
729.956	288.08
730.399	293.27
730.841	306.77
731.283	289.78
731.726	279.38
732.168	279.37
732.61	284.88
733.053	301.28
733.495	333.97
733.937	376.58
734.379	423.57
734.821	456.98
735.263	575.38
735.705	895.87
736.148	1678.38
736.59	2732.97
737.032	3232.57
737.474	2625.88
737.916	869.87
738.357	460.77
738.799	345.17
739.241	311.37
739.683	303.17
740.125	313.17
740.567	315.07
741.008	338.58
741.45	335.37
741.892	345.27
742.334	362.58
742.775	381.27
743.217	365.17
743.658	287.58
744.1	276.97
744.542	280.07
744.983	336.07
745.425	370.77
745.866	362.17
746.307	296.77
746.749	294.27
747.19	338.38
747.632	479.67
748.073	945.38
748.514	1977.67
748.956	3019.97
749.397	3789.07
749.838	3145.38
750.279	3114.67
750.72	1582.28
751.162	581.57
751.603	337.97
752.044	273.88
752.485	227.37
752.926	222.38
753.367	210.17
753.808	208.47
754.249	200.88
754.69	191.48
755.131	184.88
755.572	198.27
756.013	195.27
756.453	192.88
756.894	203.38
757.335	200.88
757.776	207.38
758.216	205.67
758.657	209.78
759.098	217.48
759.538	238.18
759.979	283.57
760.42	391.87
760.86	753.57
761.301	1953.78
761.741	4722.07
762.182	6790.67
762.622	4792.18
763.063	1385.17
763.503	561.27
763.943	344.38
764.384	273.97
764.824	245.67
765.264	231.77
765.705	214.47
766.145	191.87
766.585	184.67
767.025	178.37
767.465	170.47
767.906	184.07
768.346	199.88
768.786	203.77
769.226	227.27
769.666	322.47
770.106	655.38
770.546	1661.47
770.986	2779.78
771.426	2473.88
771.866	828.88
772.306	347.37
772.745	218.37
773.185	180.57
773.625	170.07
774.065	156.77
774.505	171.57
774.944	215.77
775.384	361.77
775.824	603.78
776.263	586.57
776.703	292.38
777.142	170.88
777.582	137.57
778.021	123.67
778.461	127.58
778.9	132.57
779.34	129.38
779.779	116.38
780.219	116.08
780.658	106.57
781.097	112.38
781.537	120.07
781.976	112.87
782.415	111.67
782.855	108.67
783.294	103.67
783.733	107.17
784.172	108.47
784.611	108.87
785.05	111.37
785.489	117.88
785.928	126.67
786.367	125.88
786.806	122.07
787.245	133.27
787.684	143.97
788.123	152.17
788.562	138.57
789.001	132.67
789.44	131.77
789.879	125.67
790.317	123.27
790.756	133.17
791.195	137.48
791.634	151.08
792.072	216.58
792.511	388.78
792.95	1064.97
793.388	2237.88
793.827	2006.08
794.265	698.27
794.704	296.18
795.142	196.48
795.581	161.67
796.019	147.88
796.458	141.27
796.896	131.88
797.334	140.38
797.773	170.77
798.211	238.37
798.649	469.88
799.087	1091.97
799.526	1680.57
799.964	2130.28
800.402	2103.38
800.84	806.47
801.278	321.18
801.716	196.27
802.154	159.87
802.592	151.88
803.03	150.27
803.468	143.67
803.906	152.88
804.344	156.07
804.782	148.77
805.22	144.47
805.658	141.57
806.096	159.98
806.533	167.77
806.971	182.17
807.409	229.77
807.847	341.47
808.284	716.88
808.722	2003.17
809.16	3496.47
809.597	3345.98
810.035	5767.57
810.472	6082.07
810.91	2214.68
811.347	850.47
811.785	433.88
812.222	273.57
812.66	204.47
813.097	175.17
813.535	153.67
813.972	140.48
814.409	121.67
814.846	110.17
815.284	121.07
815.721	112.47
816.158	111.88
816.595	114.58
817.032	166.47
817.47	186.17
817.907	147.07
818.344	109.37
818.781	98.38
819.218	103.07
819.655	132.98
820.092	199.98
820.529	224.77
820.966	181.58
821.403	136.07
821.839	107.77
822.276	107.48
822.713	123.57
823.15	148.38
823.587	126.57
824.023	154.17
824.46	325.78
824.897	962.37
825.333	1429.57
825.77	619.67
826.206	245.88
826.643	141.17
827.08	109.27
827.516	86.88
827.953	87.47
828.389	87.57
828.825	80.38
829.262	72.37
829.698	67.47
830.135	62.38
830.571	65.57
831.007	60.77
831.443	69.97
831.88	66.48
832.316	68.47
832.752	66.27
833.188	68.08
833.624	65.17
834.06	68.48
834.497	71.77
834.933	79.08
835.369	79.88
835.805	72.17
836.241	83.67
836.677	81.17
837.112	93.47
837.548	109.38
837.984	140.47
838.42	211.67
838.856	534.48
839.292	1616.27
839.727	2431.57
840.163	1131.77
840.599	999.07
841.034	2161.37
841.47	2232.97
841.906	823.28
842.341	345.37
842.777	207.97
843.212	214.47
843.648	196.57
844.083	115.87
844.519	89.17
844.954	75.48
845.39	65.48
845.825	60.27
846.261	62.58
846.696	58.57
847.131	57.88
847.566	62.87
848.002	56.98
848.437	55.67
848.872	66.38
849.307	68.88
849.742	93.27
850.177	195.48
850.613	581.97
851.048	926.38
851.483	405.17
851.918	159.57
852.353	93.07
852.788	59.97
853.223	51.67
853.657	59.07
854.092	53.48
854.527	42.37
854.962	43.27
855.397	54.67
855.832	58.67
856.266	44.77
856.701	47.77
857.136	38.48
857.57	46.38
858.005	54.17
858.44	66.67
858.874	47.88
859.309	53.17
859.743	43.47
860.178	47.07
860.612	45.27
861.047	53.37
861.481	75.47
861.915	73.98
862.35	54.07
862.784	36.87
863.218	42.67
863.653	38.37
864.087	51.97
864.521	57.88
864.955	77.67
865.39	162.97
865.824	184.17
866.258	122.58
866.692	176.77
867.126	197.27
867.56	117.87
867.994	59.27
868.428	45.27
868.862	50.27
869.296	60.48
869.73	61.97
870.164	60.27
870.598	52.48
871.031	45.07
871.465	32.57
871.899	33.88
872.333	32.58
872.766	24.17
873.2	24.67
873.634	28.38
874.067	27.88
874.501	30.47
874.935	40.37
875.368	29.57
875.802	28.88
876.235	27.57
876.669	29.88
877.102	28.27
877.535	30.67
877.969	23.48
878.402	26.17
878.836	21.17
879.269	30.67
879.702	28.97
880.135	22.57
880.569	29.37
881.002	28.27
881.435	24.87
881.868	16.38
882.301	25.88
882.734	14.67
883.167	24.98
883.601	21.67
884.034	25.27
884.467	13.67
884.899	18.47
885.332	18.77
885.765	14.98
886.198	23.37
886.631	22.47
887.064	25.38
887.497	21.97
887.929	27.27
888.362	13.07
888.795	17.77
889.228	23.47
889.66	25.37
890.093	19.97
890.526	17.67
890.958	25.98
891.391	17.98
891.823	23.27
892.256	17.77
892.688	18.77
893.121	16.48
893.553	14.07
893.985	28.27
894.418	23.87
894.85	13.67
895.282	17.27
895.715	16.88
896.147	18.08
896.579	20.67
897.011	15.88
897.444	17.67
897.876	12.88
898.308	16.97
898.74	22.48
899.172	17.77
899.604	24.38
900.036	20.57
900.468	17.88
900.9	19.17
901.332	17.77
901.764	19.38
902.196	21.88
902.628	23.88
903.06	21.37
903.491	39.17
903.923	30.67
904.355	26.58
904.787	26.57
905.218	29.98
905.65	22.67
906.082	16.27
906.513	10.97
906.945	16.97
907.376	14.87
907.808	23.17
908.239	24.88
908.671	18.77
909.102	23.48
909.534	22.17
909.965	51.48
910.397	98.67
910.828	341.17
911.259	492.28
911.691	228.57
912.122	113.77
912.553	51.47
912.984	39.17
913.415	30.98
913.847	25.27
914.278	17.17
914.709	11.27
915.14	20.48
915.571	22.97
916.002	11.38
916.433	26.38
916.864	21.57
917.295	18.77
917.726	21.17
918.157	21.07
918.587	27.88
919.018	26.77
919.449	25.88
919.88	27.37
920.311	30.77
920.741	51.47
921.172	186.88
921.603	166.17
922.033	75.57
922.464	44.88
922.895	21.37
923.325	14.38
923.756	16.07
924.186	10.08
924.617	16.88
925.047	22.27
925.478	29.17
925.908	29.97
926.338	13.98
926.769	14.08
927.199	20.98
927.629	4.38
928.06	20.77
928.49	15.67
928.92	14.88
929.35	9.67
929.78	14.47
930.21	13.27
930.641	11.57
931.071	12.47
931.501	8.77
931.931	10.77
932.361	11.88
932.791	6.77
933.221	6.48
933.651	5.17
934.08	22.57
934.51	28.97
934.94	13.57
935.37	13.48
935.8	9.97
936.229	5.27
936.659	11.97
937.089	3.48
937.519	17.57
937.948	24.67
938.378	19.67
938.807	6.77
939.237	5.58
939.666	12.08
940.096	-1.12
940.525	5.27
940.955	3.77
941.384	8.27
941.814	-4.33
942.243	7.67
942.672	5.38
943.102	-3.12
943.531	0.27
943.96	7.47
944.39	2.97
944.819	0.77
945.248	1.17
945.677	9.47
946.106	7.98
946.535	6.17
946.964	3.77
947.393	8.77
947.822	4.27
948.251	-5.03
948.68	2.08
949.109	2.17
949.538	5.27
949.967	-1.12
950.396	-2.93
950.825	5.07
951.254	2.67
951.682	-7.83
952.111	5.07
952.54	9.77
952.969	-3.23
953.397	-1.83
953.826	1.67
954.254	-0.73
954.683	-1.83
955.112	-0.83
955.54	-1.62
955.969	1.27
956.397	6.57
956.826	-1.02
957.254	6.08
957.682	2.57
958.111	4.27
958.539	6.98
958.967	2.77
959.396	-2.43
959.824	3.98
960.252	1.77
960.68	-3.93
961.109	0.37
961.537	-3.93
961.965	1.97
962.393	0.07
962.821	-2.02
963.249	3.07
963.677	2.07
964.105	5.47
964.533	51.17
964.961	47.77
965.389	19.98
965.817	11.87
966.245	0.67
966.672	-2.92
967.1	-3.42
967.528	5.57
967.956	3.77
968.383	-0.23
968.811	-2.12
969.239	-5.03
969.666	1.57
970.094	1.98
970.522	0.57
970.949	-3.73
971.377	-4.83
971.804	-6.02
972.232	-1.52
972.659	-3.33
973.087	0.47
973.514	-1.33
973.941	-5.83
974.369	3.77
974.796	6.17
975.223	1.27
975.651	-2.42
976.078	2.57
976.505	0.87
976.932	6.27
977.359	17.17
977.786	11.88
978.214	4.07
978.641	0.67
979.068	2.07
979.495	-6.33
979.922	-5.23
980.349	-0.83
980.776	5.87
981.202	6.47
981.629	5.67
982.056	4.67
982.483	2.67
982.91	5.27
983.337	-0.73
983.763	5.47
984.19	-3.43
984.617	-2.73
985.043	-2.33
985.47	-4.73
985.897	-3.83
986.323	-9.03
986.75	3.08
987.176	-1.73
987.603	2.97
988.029	5.87
988.456	-3.63
988.882	7.58
989.308	-2.53
989.735	-4.53
990.161	1.07
990.587	-8.03
991.014	3.17
991.44	10.37
991.866	6.38
992.292	-7.52
992.719	-2.13
993.145	2.07
993.571	-6.83
993.997	-5.03
994.423	-2.73
994.849	-4.63
995.275	-1.92
995.701	6.77
996.127	1.67
996.553	3.07
996.979	-1.52
997.405	-4.12
997.83	-7.63
998.256	-6.23
998.682	-4.12
999.108	-8.53
999.534	1.47
999.959	-4.83
1000.385	-2.23
1000.811	0.47
1001.236	-3.83
1001.662	-9.83
1002.087	-3.83
1002.513	3.67
1002.938	0.08
1003.364	-4.92
1003.789	-2.02
1004.215	5.07
1004.64	0.67
1005.066	-1.43
1005.491	1.48
1005.916	-5.03
1006.342	-4.73
1006.767	-10.23
1007.192	8.98
1007.617	-3.63
1008.042	-3.23
1008.468	-3.43
1008.893	-4.92
1009.318	-8.33
1009.743	1.77
1010.168	3.07
1010.593	6.07
1011.018	-4.83
1011.443	-0.93
1011.868	3.98
1012.293	-1.52
1012.718	-5.42
1013.143	1.67
1013.567	3.57
1013.992	-0.03
1014.417	-10.23
1014.842	-0.03
1015.267	-3.63
1015.691	-1.62
1016.116	6.97
1016.541	1.97
1016.965	3.77
1017.39	-2.63
1017.814	-1.92
1018.239	-4.63
1018.663	-6.43
1019.088	-10.73
1019.512	-2.83
1019.937	-2.62
1020.361	-2.73
1020.785	-11.43
1021.21	-6.83
1021.634	-4.33
1022.058	-2.53
1022.483	2.38
1022.907	-4.23
1023.331	-1.92
1023.755	0.37
1024.179	1.38
1024.604	-5.23
1025.028	-2.13
1025.452	-10.53
1025.876	3.47
1026.3	4.37
1026.724	-9.33
1027.148	-7.73
1027.572	-11.33
1027.996	-3.83
1028.42	-3.03
1028.843	-4.33
1029.267	2.07
1029.691	-7.83
1030.115	-5.73
1030.539	-7.53
1030.962	-6.93
1031.386	-6.33
1031.81	-0.73
1032.233	7.17
1032.657	-5.33
1033.08	-1.73
1033.504	-1.93
1033.927	0.17
1034.351	2.77
1034.774	1.47
1035.198	-1.62
1035.621	-0.12
1036.045	-1.73
1036.468	2.47
1036.891	-8.63
1037.315	-10.43
1037.738	-9.43
1038.161	-4.43
1038.584	-10.73
1039.008	-9.03
1039.431	-0.23
1039.854	-0.73
1040.277	-13.12
1040.7	-9.33
1041.123	4.37
1041.546	-2.83
1041.969	-2.02
1042.392	-4.93
1042.815	0.87
1043.238	-1.63
1043.661	7.67
1044.084	-1.83
1044.507	0.97
1044.93	-4.33
1045.352	-6.83
1045.775	-2.93
1046.198	-4.52
1046.621	-0.62
1047.043	-3.12
1047.466	7.57
1047.889	-0.93
1048.311	-0.62
1048.734	-5.93
1049.156	2.38
1049.579	4.97
1050.001	0.67
1050.424	2.27
1050.846	-7.23
1051.269	2.58
1051.691	-3.33
1052.113	-3.83
1052.536	1.88
1052.958	-2.23
1053.38	-0.93
1053.802	-6.53
1054.225	-0.23
1054.647	-8.83
1055.069	-6.83
1055.491	0.48
1055.913	-14.33
1056.335	3.27
1056.757	-1.62
1057.179	1.57
1057.601	-1.73
1058.023	-7.52
1058.445	-6.33
1058.867	2.47
1059.289	-1.83
1059.711	-5.52
1060.133	-7.23
1060.555	-3.23
1060.976	-5.23
1061.398	-7.62
1061.82	-5.43
1062.241	-3.33
1062.663	-4.93
1063.085	-7.33
1063.506	6.17
1063.928	-5.43
1064.35	-0.43
1064.771	-11.63
1065.193	-2.03
1065.614	-4.53
1066.035	2.27
1066.457	-1.03
1066.878	1.97
1067.3	-5.23
1067.721	0.07
1068.142	0.27
1068.564	-3.33
1068.985	-2.63
1069.406	-3.62
1069.827	-6.12
1070.248	-2.62
1070.67	-5.03
1071.091	-7.62
1071.512	-1.73
1071.933	-2.83
1072.354	-8.12
1072.775	-2.23
1073.196	-8.73
1073.617	-1.83
1074.038	-6.43
1074.459	1.48
1074.88	-9.43
1075.3	4.57
1075.721	-8.13
1076.142	4.27
1076.563	-1.33
1076.983	-3.93
1077.404	-7.02
1077.825	-12.12
1078.246	-2.53
1078.666	-8.33
1079.087	-7.33
1079.507	-8.43
1079.928	-1.73
1080.348	-2.23
1080.769	0.17
1081.189	-2.12
1081.61	-0.62
1082.03	-9.83
1082.451	-10.73
1082.871	-0.73
1083.291	-3.43
1083.711	-10.73
1084.132	-1.43
1084.552	-2.53
1084.972	-2.43
1085.392	-7.33
1085.813	-10.62
1086.233	-4.62
1086.653	-5.73
1087.073	-9.33
1087.493	-2.13
1087.913	-5.83
1088.333	-8.53
1088.753	-1.83
1089.173	0.87
1089.593	-1.42
1090.013	1.97
1090.433	-4.03
1090.852	-4.12
1091.272	-4.63
1091.692	1.38
1092.112	-0.43
1092.531	-7.33
1092.951	-8.73
1093.371	0.57
1093.79	-3.23
1094.21	-4.33
1094.63	-6.73
1095.049	-8.02
1095.469	-3.83
1095.888	1.07
1096.308	2.97
1096.727	-0.52
1097.146	-5.12
1097.566	-0.62
1097.985	1.88
1098.405	-0.52
1098.824	-8.33
1099.243	-3.12
1099.662	-5.03
1100.082	0.17
1100.501	-5.53
1100.92	-8.83
1101.339	-3.43
1101.758	-9.73
