Data from 20171114-ORNL-Ar_H_NY_Subt18_08-05-57-804.txt Node
Date: Tue Nov 14 08:05:57 EST 2017
User: Ender
Spectrometer: HR+D1039
Trigger mode: 0
Integration Time (sec): 2.730000E-2
Scans to average: 10
Electric dark correction enabled: true
Nonlinearity correction enabled: false
Boxcar width: 0
XAxis mode: Wavelengths
Number of Pixels in Spectrum: 2048
>>>>>Begin Spectral Data<<<<<
187.836	-3.68
188.309	-3.68
188.782	-3.68
189.255	1.12
189.728	1.32
190.201	4.12
190.674	7.32
191.147	3.02
191.619	-4.38
192.092	-0.18
192.565	0.12
193.038	-4.88
193.511	0.82
193.984	2.52
194.456	-3.78
194.929	-3.88
195.402	-0.68
195.874	1.02
196.347	0.52
196.82	-3.18
197.292	4.62
197.765	-1.58
198.237	-4.78
198.71	-3.58
199.182	-3.18
199.655	-0.48
200.127	2.32
200.6	-6.28
201.072	0.52
201.544	-2.78
202.017	-3.78
202.489	3.92
202.961	-5.27
203.433	-0.18
203.906	-11.48
204.378	-5.08
204.85	-4.98
205.322	-10.78
205.794	-2.68
206.266	-9.88
206.739	-6.38
207.211	0.82
207.683	-4.77
208.155	-7.98
208.627	2.12
209.099	1.82
209.57	-4.98
210.042	-9.38
210.514	-4.48
210.986	5.22
211.458	-3.68
211.93	-0.18
212.402	5.42
212.873	-2.28
213.345	-5.58
213.817	-11.68
214.288	-1.78
214.76	-8.78
215.232	-5.27
215.703	-9.98
216.175	2.62
216.646	-5.38
217.118	-5.68
217.589	-5.68
218.061	-2.58
218.532	-2.88
219.004	-1.68
219.475	0.02
219.946	-5.48
220.418	-7.08
220.889	-0.68
221.36	0.52
221.832	-7.18
222.303	-9.98
222.774	-0.98
223.245	-15.08
223.717	-4.98
224.188	-0.78
224.659	-6.38
225.13	-10.27
225.601	-2.38
226.072	-2.08
226.543	-0.78
227.014	1.72
227.485	-0.48
227.956	-4.48
228.427	-6.48
228.898	1.12
229.369	6.12
229.839	-3.08
230.31	-6.18
230.781	-0.28
231.252	-0.18
231.722	-4.58
232.193	-5.88
232.664	2.52
233.135	0.22
233.605	-6.68
234.076	-5.88
234.546	2.62
235.017	0.52
235.487	1.32
235.958	-0.58
236.428	3.02
236.899	3.82
237.369	9.92
237.84	-1.58
238.31	9.22
238.78	4.02
239.251	-2.77
239.721	2.72
240.191	0.73
240.662	-3.48
241.132	0.22
241.602	-0.28
242.072	-0.18
242.542	14.12
243.013	-2.98
243.483	6.62
243.953	1.12
244.423	3.02
244.893	-2.18
245.363	4.02
245.833	6.02
246.303	-3.08
246.773	9.32
247.243	0.82
247.712	4.62
248.182	10.32
248.652	9.12
249.122	0.42
249.592	19.02
250.061	27.52
250.531	35.32
251.001	12.32
251.471	16.22
251.94	22.32
252.41	6.23
252.879	1.42
253.349	8.62
253.818	6.82
254.288	7.73
254.757	5.52
255.227	1.62
255.696	-1.18
256.166	6.23
256.635	3.52
257.105	11.52
257.574	4.12
258.043	6.32
258.513	9.42
258.982	14.02
259.451	12.72
259.92	14.42
260.389	11.32
260.859	16.52
261.328	17.52
261.797	13.62
262.266	12.22
262.735	13.92
263.204	7.32
263.673	4.42
264.142	9.12
264.611	1.12
265.08	-2.68
265.549	1.12
266.018	6.12
266.487	3.62
266.955	6.82
267.424	0.72
267.893	11.92
268.362	3.32
268.83	5.72
269.299	18.62
269.768	12.82
270.236	11.92
270.705	10.02
271.174	13.32
271.642	11.72
272.111	17.72
272.579	21.12
273.048	21.42
273.516	28.82
273.985	30.52
274.453	22.52
274.922	18.72
275.39	8.62
275.858	4.62
276.327	15.12
276.795	16.12
277.263	11.82
277.731	24.52
278.2	62.32
278.668	61.52
279.136	51.72
279.604	27.22
280.072	14.32
280.54	13.22
281.008	15.52
281.477	19.52
281.945	13.12
282.413	11.62
282.881	15.22
283.348	9.92
283.816	17.22
284.284	20.22
284.752	22.62
285.22	14.52
285.688	16.42
286.156	24.42
286.623	45.82
287.091	54.82
287.559	29.72
288.026	19.52
288.494	19.02
288.962	6.32
289.429	10.02
289.897	23.32
290.364	19.82
290.832	17.62
291.3	12.82
291.767	14.92
292.234	22.22
292.702	17.72
293.169	16.92
293.637	24.82
294.104	23.82
294.571	14.12
295.039	15.22
295.506	18.22
295.973	16.92
296.44	19.12
296.908	20.02
297.375	22.52
297.842	21.62
298.309	23.82
298.776	10.92
299.243	22.72
299.71	9.22
300.177	22.42
300.644	22.52
301.111	21.42
301.578	30.82
302.045	17.02
302.512	28.72
302.979	25.52
303.446	28.72
303.913	18.02
304.379	26.32
304.846	29.92
305.313	25.32
305.78	23.32
306.246	25.72
306.713	29.52
307.18	27.02
307.646	29.52
308.113	28.82
308.579	27.12
309.046	23.92
309.512	31.62
309.979	27.82
310.445	22.82
310.912	30.12
311.378	30.92
311.845	26.62
312.311	29.02
312.777	35.52
313.244	34.23
313.71	35.42
314.176	38.12
314.642	35.62
315.109	29.82
315.575	34.92
316.041	42.02
316.507	31.62
316.973	38.72
317.439	33.92
317.905	43.02
318.371	35.12
318.837	41.52
319.303	38.62
319.769	35.23
320.235	35.92
320.701	34.32
321.167	44.82
321.633	35.73
322.099	44.92
322.564	49.32
323.03	39.92
323.496	43.82
323.962	40.42
324.427	44.82
324.893	40.82
325.359	44.02
325.824	39.12
326.29	40.72
326.755	40.32
327.221	36.72
327.686	41.32
328.152	54.23
328.617	42.82
329.083	53.42
329.548	47.12
330.014	47.12
330.479	39.72
330.944	37.12
331.41	46.02
331.875	43.42
332.34	44.92
332.805	50.32
333.271	53.42
333.736	45.52
334.201	54.23
334.666	51.22
335.131	56.52
335.596	49.92
336.061	57.52
336.526	36.42
336.991	46.62
337.456	50.02
337.921	53.82
338.386	43.52
338.851	46.52
339.316	45.92
339.781	46.52
340.246	57.32
340.711	46.12
341.175	48.22
341.64	44.92
342.105	53.02
342.569	58.02
343.034	57.82
343.499	52.72
343.963	54.12
344.428	64.02
344.893	59.32
345.357	59.82
345.822	61.22
346.286	69.32
346.751	74.82
347.215	78.02
347.679	71.82
348.144	96.32
348.608	76.12
349.073	79.92
349.537	80.32
350.001	75.72
350.465	87.42
350.93	79.62
351.394	89.52
351.858	70.02
352.322	88.32
352.786	81.02
353.25	104.52
353.715	118.12
354.179	100.72
354.643	127.12
355.107	128.62
355.571	105.52
356.035	98.52
356.498	116.32
356.962	127.52
357.426	138.62
357.89	115.02
358.354	92.72
358.818	88.82
359.281	80.82
359.745	79.12
360.209	77.42
360.673	73.92
361.136	83.92
361.6	87.82
362.064	82.62
362.527	75.72
362.991	95.82
363.454	80.22
363.918	77.42
364.381	80.62
364.845	89.02
365.308	89.62
365.772	88.92
366.235	87.42
366.698	83.32
367.162	91.82
367.625	80.92
368.088	90.92
368.552	92.82
369.015	93.12
369.478	86.72
369.941	107.82
370.404	97.72
370.867	104.02
371.331	109.12
371.794	111.72
372.257	117.02
372.72	122.52
373.183	112.72
373.646	101.92
374.109	102.23
374.572	110.72
375.035	109.82
375.497	112.22
375.96	103.72
376.423	102.22
376.886	112.73
377.349	114.42
377.811	94.82
378.274	108.42
378.737	112.62
379.199	114.82
379.662	112.12
380.125	121.42
380.587	115.72
381.05	119.02
381.512	130.92
381.975	133.92
382.437	126.72
382.9	125.42
383.362	126.82
383.825	136.02
384.287	148.32
384.75	142.62
385.212	134.92
385.674	144.22
386.136	137.23
386.599	124.42
387.061	132.32
387.523	128.92
387.985	137.92
388.447	137.82
388.91	150.72
389.372	160.02
389.834	151.12
390.296	146.12
390.758	162.02
391.22	173.72
391.682	212.32
392.144	291.62
392.606	229.42
393.068	170.92
393.529	167.72
393.991	150.02
394.453	150.72
394.915	159.32
395.377	188.22
395.838	219.82
396.3	157.42
396.762	141.73
397.224	132.32
397.685	123.72
398.147	132.82
398.608	130.02
399.07	134.52
399.531	129.22
399.993	141.62
400.454	158.02
400.916	146.22
401.377	141.42
401.839	154.62
402.3	160.62
402.762	166.82
403.223	182.22
403.684	169.22
404.145	159.52
404.607	160.12
405.068	161.52
405.529	172.32
405.99	185.02
406.451	178.52
406.913	175.82
407.374	166.92
407.835	158.52
408.296	167.02
408.757	168.02
409.218	188.02
409.679	176.62
410.14	176.32
410.601	170.42
411.062	181.82
411.522	195.12
411.983	189.92
412.444	181.22
412.905	177.62
413.366	181.72
413.826	191.62
414.287	218.72
414.748	261.52
415.208	240.52
415.669	211.82
416.13	200.22
416.59	203.52
417.051	207.92
417.511	217.92
417.972	235.62
418.432	239.22
418.893	290.22
419.353	248.52
419.814	203.02
420.274	188.72
420.734	182.02
421.195	190.92
421.655	192.02
422.115	192.92
422.576	190.32
423.036	200.62
423.496	202.62
423.956	216.82
424.416	228.12
424.876	261.62
425.336	253.22
425.797	260.92
426.257	259.12
426.717	239.23
427.177	236.52
427.637	222.23
428.097	233.02
428.556	240.52
429.016	270.22
429.476	264.02
429.936	279.43
430.396	284.02
430.856	289.22
431.315	324.22
431.775	347.92
432.235	382.02
432.694	356.02
433.154	370.83
433.614	388.62
434.073	343.32
434.533	283.12
434.993	270.83
435.452	279.52
435.912	298.62
436.371	297.62
436.83	282.82
437.29	268.32
437.749	242.22
438.209	251.32
438.668	274.82
439.127	291.92
439.587	264.93
440.046	246.83
440.505	258.32
440.964	275.12
441.424	328.23
441.883	311.82
442.342	256.82
442.801	216.33
443.26	225.22
443.719	224.22
444.178	222.72
444.637	209.32
445.096	219.23
445.555	225.52
446.014	222.02
446.473	224.42
446.932	235.73
447.391	226.32
447.849	223.92
448.308	212.22
448.767	223.02
449.226	231.12
449.685	233.12
450.143	240.12
450.602	228.92
451.061	231.42
451.519	238.32
451.978	227.82
452.436	232.52
452.895	241.82
453.353	247.02
453.812	247.23
454.27	233.72
454.729	237.02
455.187	234.52
455.646	243.62
456.104	250.83
456.562	259.12
457.021	264.32
457.479	257.32
457.937	275.42
458.395	262.42
458.854	247.62
459.312	255.02
459.77	275.02
460.228	259.02
460.686	238.82
461.144	250.02
461.602	243.82
462.06	246.42
462.518	252.62
462.976	250.32
463.434	254.72
463.892	265.83
464.35	277.42
464.808	289.42
465.266	263.22
465.724	271.52
466.181	276.62
466.639	266.42
467.097	291.92
467.555	300.33
468.012	301.72
468.47	310.02
468.928	327.62
469.385	337.73
469.843	349.62
470.3	352.62
470.758	357.52
471.215	389.22
471.673	406.02
472.13	406.62
472.588	416.33
473.045	368.82
473.503	380.12
473.96	387.92
474.417	410.82
474.875	431.42
475.332	475.62
475.789	456.73
476.246	473.52
476.704	492.92
477.161	511.72
477.618	533.02
478.075	557.02
478.532	622.72
478.989	697.12
479.446	815.82
479.903	778.43
480.36	812.42
480.817	881.22
481.274	983.52
481.731	1082.22
482.188	1168.72
482.645	1311.12
483.102	1422.72
483.558	1574.42
484.015	1618.12
484.472	1582.42
484.929	1529.42
485.385	1484.82
485.842	1439.22
486.299	1380.42
486.755	1318.22
487.212	1102.82
487.668	930.32
488.125	861.52
488.582	785.32
489.038	754.92
489.494	711.73
489.951	695.83
490.407	669.12
490.864	652.92
491.32	647.62
491.776	643.83
492.233	646.52
492.689	612.02
493.145	605.02
493.602	598.22
494.058	614.12
494.514	627.23
494.97	644.73
495.426	650.33
495.882	633.12
496.338	611.52
496.794	628.83
497.251	621.22
497.707	644.12
498.163	649.92
498.618	650.12
499.074	648.42
499.53	683.52
499.986	681.12
500.442	649.23
500.898	639.92
501.354	625.12
501.809	632.72
502.265	638.02
502.721	665.02
503.177	673.32
503.632	658.52
504.088	688.23
504.543	711.82
504.999	711.83
505.455	645.72
505.91	628.22
506.366	637.12
506.821	631.72
507.277	621.72
507.732	625.32
508.187	630.12
508.643	629.83
509.098	630.92
509.553	654.22
510.009	660.92
510.464	667.32
510.919	687.72
511.375	691.12
511.83	706.12
512.285	727.92
512.74	763.52
513.195	792.92
513.65	768.93
514.105	764.72
514.56	764.52
515.015	787.32
515.47	804.42
515.925	785.43
516.38	787.92
516.835	790.72
517.29	778.32
517.745	777.23
518.2	774.82
518.655	746.22
519.109	742.23
519.564	739.02
520.019	730.32
520.474	728.23
520.928	725.42
521.383	720.22
521.838	705.72
522.292	719.42
522.747	706.52
523.201	703.02
523.656	701.33
524.11	691.82
524.565	689.92
525.019	681.32
525.474	703.12
525.928	696.82
526.382	698.22
526.837	699.72
527.291	707.42
527.745	699.62
528.2	700.62
528.654	690.12
529.108	682.12
529.562	683.52
530.016	695.73
530.47	690.32
530.925	697.52
531.379	694.83
531.833	704.62
532.287	707.02
532.741	707.62
533.195	711.52
533.649	719.12
534.103	718.83
534.556	718.52
535.01	708.82
535.464	708.22
535.918	714.12
536.372	724.82
536.826	720.32
537.279	710.42
537.733	713.92
538.187	716.02
538.64	713.82
539.094	712.52
539.548	732.32
540.001	719.42
540.455	718.82
540.908	723.32
541.362	735.52
541.815	744.62
542.269	762.32
542.722	758.22
543.175	759.42
543.629	768.22
544.082	795.02
544.536	785.92
544.989	794.62
545.442	787.22
545.895	786.82
546.349	788.52
546.802	788.22
547.255	791.82
547.708	805.62
548.161	810.72
548.614	817.72
549.067	835.12
549.52	820.72
549.973	823.22
550.426	804.42
550.879	786.72
551.332	784.82
551.785	805.32
552.238	801.42
552.691	814.93
553.144	823.02
553.596	855.62
554.049	860.12
554.502	889.82
554.955	905.62
555.407	897.82
555.86	892.82
556.313	891.33
556.765	871.82
557.218	871.73
557.67	870.22
558.123	878.92
558.576	866.92
559.028	879.02
559.48	880.52
559.933	872.62
560.385	833.12
560.838	811.42
561.29	785.82
561.742	781.43
562.195	757.52
562.647	764.02
563.099	767.92
563.551	764.02
564.004	784.82
564.456	755.92
564.908	752.22
565.36	734.82
565.812	724.73
566.264	718.02
566.716	724.32
567.168	710.82
567.62	717.82
568.072	701.33
568.524	693.32
568.976	695.42
569.428	670.92
569.88	674.52
570.332	687.62
570.784	674.02
571.235	678.73
571.687	690.62
572.139	697.72
572.59	698.72
573.042	716.32
573.494	708.42
573.945	701.82
574.397	682.72
574.849	679.62
575.3	685.42
575.752	674.62
576.203	680.42
576.655	681.12
577.106	671.72
577.557	663.62
578.009	664.93
578.46	656.12
578.912	664.73
579.363	670.83
579.814	673.42
580.265	654.73
580.717	660.62
581.168	650.72
581.619	666.32
582.07	672.93
582.521	670.72
582.972	666.82
583.423	680.32
583.875	675.62
584.326	704.92
584.777	737.02
585.227	827.32
585.678	908.52
586.129	1009.72
586.58	1073.23
587.031	1159.92
587.482	1320.42
587.933	1506.92
588.384	1307.32
588.834	966.63
589.285	801.12
589.736	778.92
590.186	758.82
590.637	764.82
591.088	732.73
591.538	722.72
591.989	727.62
592.439	722.82
592.89	713.12
593.34	713.92
593.791	695.52
594.241	704.52
594.692	705.02
595.142	700.92
595.593	689.72
596.043	704.42
596.493	713.62
596.943	705.23
597.394	706.12
597.844	703.62
598.294	725.82
598.744	747.42
599.195	758.52
599.645	805.42
600.095	844.32
600.545	909.82
600.995	956.12
601.445	1012.52
601.895	1063.92
602.345	1126.92
602.795	1098.22
603.245	1047.03
603.695	992.53
604.145	939.42
604.594	900.62
605.044	847.52
605.494	795.73
605.944	736.12
606.393	735.52
606.843	727.72
607.293	722.02
607.743	724.42
608.192	742.42
608.642	754.33
609.091	757.43
609.541	766.12
609.99	775.93
610.44	755.32
610.889	702.82
611.339	694.52
611.788	670.82
612.238	694.02
612.687	708.72
613.136	712.62
613.586	730.02
614.035	725.62
614.484	748.62
614.933	748.12
615.383	735.42
615.832	739.12
616.281	719.02
616.73	679.33
617.179	657.02
617.628	640.52
618.077	622.22
618.526	613.02
618.975	611.02
619.424	604.22
619.873	602.02
620.322	605.42
620.771	597.52
621.22	590.62
621.669	592.93
622.118	577.42
622.567	563.82
623.015	558.32
623.464	568.72
623.913	552.23
624.361	546.72
624.81	546.02
625.259	544.62
625.707	557.02
626.156	549.32
626.604	553.92
627.053	558.02
627.501	550.52
627.95	548.52
628.398	572.02
628.847	565.62
629.295	559.92
629.744	561.32
630.192	562.32
630.64	558.02
631.089	558.32
631.537	574.62
631.985	579.92
632.433	581.83
632.881	592.32
633.33	648.12
633.778	628.02
634.226	558.12
634.674	566.23
635.122	567.02
635.57	580.22
636.018	615.72
636.466	565.22
636.914	547.02
637.362	563.52
637.81	574.42
638.258	565.62
638.705	569.02
639.153	592.12
639.601	609.22
640.049	623.42
640.497	666.32
640.944	678.73
641.392	637.82
641.84	604.42
642.287	573.92
642.735	571.23
643.182	569.73
643.63	567.82
644.078	570.62
644.525	585.02
644.973	590.32
645.42	603.82
645.867	610.33
646.315	626.82
646.762	647.93
647.21	681.62
647.657	697.82
648.104	745.62
648.551	756.22
648.999	818.33
649.446	910.52
649.893	1007.22
650.34	1140.92
650.787	1362.82
651.234	1692.62
651.682	2217.02
652.129	3044.12
652.576	4401.93
653.023	6510.62
653.47	8925.62
653.917	11175.33
654.363	12965.73
654.81	14341.12
655.257	13666.43
655.704	8950.32
656.151	5254.32
656.598	3409.33
657.044	2409.32
657.491	1847.82
657.938	1484.52
658.385	1232.62
658.831	1077.92
659.278	948.43
659.724	846.62
660.171	774.02
660.618	719.32
661.064	677.62
661.511	654.33
661.957	647.62
662.404	638.02
662.85	644.23
663.296	616.92
663.743	547.92
664.189	531.52
664.635	522.12
665.082	516.12
665.528	512.23
665.974	506.22
666.42	499.42
666.867	496.32
667.313	485.02
667.759	473.42
668.205	460.62
668.651	474.43
669.097	476.02
669.543	490.92
669.989	458.42
670.435	435.32
670.881	434.43
671.327	441.62
671.773	458.32
672.219	477.52
672.665	532.42
673.11	566.72
673.556	612.12
674.002	645.72
674.448	640.52
674.893	530.42
675.339	461.62
675.785	427.02
676.23	399.12
676.676	378.42
677.122	371.73
677.567	361.92
678.013	363.92
678.458	344.33
678.904	341.23
679.349	332.42
679.794	348.02
680.24	340.02
680.685	336.72
681.131	334.02
681.576	347.62
682.021	340.62
682.466	341.92
682.912	347.22
683.357	340.02
683.802	364.43
684.247	401.52
684.692	439.23
685.137	482.92
685.583	525.12
686.028	548.52
686.473	509.92
686.918	428.82
687.363	406.42
687.807	381.73
688.252	355.02
688.697	341.12
689.142	325.82
689.587	320.32
690.032	312.32
690.477	327.32
690.921	339.73
691.366	377.12
691.811	391.73
692.255	409.02
692.7	439.33
693.145	478.32
693.589	669.62
694.034	1076.53
694.478	1472.62
694.923	1666.53
695.367	2198.72
695.812	1156.32
696.256	482.82
696.701	357.32
697.145	329.92
697.59	313.12
698.034	312.22
698.478	315.73
698.922	313.93
699.367	314.83
699.811	330.62
700.255	349.43
700.699	372.62
701.143	403.12
701.588	457.82
702.032	497.92
702.476	494.23
702.92	474.82
703.364	475.82
703.808	620.32
704.252	984.62
704.696	1391.22
705.14	1602.62
705.584	2061.12
706.027	1024.02
706.471	503.02
706.915	392.12
707.359	335.42
707.803	312.72
708.246	302.02
708.69	308.32
709.134	304.22
709.577	303.83
710.021	303.32
710.465	297.42
710.908	296.22
711.352	287.72
711.795	301.12
712.239	335.52
712.682	381.92
713.126	400.62
713.569	452.62
714.012	365.92
714.456	308.82
714.899	284.62
715.342	262.82
715.786	251.83
716.229	250.82
716.672	243.32
717.115	234.62
717.558	244.32
718.002	240.92
718.445	253.42
718.888	268.73
719.331	288.93
719.774	300.12
720.217	286.72
720.66	272.23
721.103	256.42
721.546	245.82
721.989	245.22
722.432	221.42
722.874	228.32
723.317	218.22
723.76	228.62
724.203	252.82
724.645	304.33
725.088	422.92
725.531	551.52
725.974	613.12
726.416	528.02
726.859	293.42
727.301	237.02
727.744	234.82
728.187	220.93
728.629	224.72
729.071	232.42
729.514	244.22
729.956	259.52
730.399	271.52
730.841	278.12
731.283	263.02
731.726	257.43
732.168	243.82
732.61	254.82
733.053	268.52
733.495	303.02
733.937	336.62
734.379	385.82
734.821	413.02
735.263	512.12
735.705	780.82
736.148	1491.12
736.59	2456.12
737.032	2943.93
737.474	2400.43
737.916	773.22
738.357	404.72
738.799	313.12
739.241	287.02
739.683	272.32
740.125	282.02
740.567	291.22
741.008	297.82
741.45	300.02
741.892	295.72
742.334	334.62
742.775	345.92
743.217	322.92
743.658	254.52
744.1	245.93
744.542	243.33
744.983	293.92
745.425	333.52
745.866	328.22
746.307	273.52
746.749	273.12
747.19	308.32
747.632	433.12
748.073	830.02
748.514	1750.42
748.956	2723.52
749.397	3406.82
749.838	2834.32
750.279	2860.62
750.72	1447.62
751.162	527.62
751.603	303.02
752.044	249.02
752.485	210.52
752.926	199.02
753.367	196.52
753.808	184.92
754.249	183.62
754.69	176.62
755.131	178.02
755.572	174.12
756.013	174.52
756.453	175.82
756.894	180.23
757.335	186.73
757.776	186.62
758.216	185.82
758.657	192.62
759.098	210.83
759.538	208.62
759.979	247.72
760.42	356.02
760.86	657.12
761.301	1705.82
761.741	4197.73
762.182	6183.62
762.622	4362.12
763.063	1255.22
763.503	517.12
763.943	338.92
764.384	335.02
764.824	398.82
765.264	435.42
765.705	296.82
766.145	204.82
766.585	175.62
767.025	179.02
767.465	187.12
767.906	244.02
768.346	308.32
768.786	331.42
769.226	254.02
769.666	306.82
770.106	584.12
770.546	1462.22
770.986	2548.32
771.426	2282.62
771.866	762.93
772.306	318.52
772.745	201.62
773.185	162.52
773.625	166.12
774.065	163.92
774.505	189.12
774.944	305.52
775.384	655.23
775.824	1228.42
776.263	1198.82
776.703	512.42
777.142	218.92
777.582	154.92
778.021	135.52
778.461	140.52
778.9	144.52
779.34	131.42
779.779	116.82
780.219	111.23
780.658	108.02
781.097	111.42
781.537	110.22
781.976	99.82
782.415	98.02
782.855	101.42
783.294	102.92
783.733	104.92
784.172	103.42
784.611	105.12
785.05	97.52
785.489	106.32
785.928	119.32
786.367	117.32
786.806	113.12
787.245	124.32
787.684	128.72
788.123	144.02
788.562	130.02
789.001	118.52
789.44	117.42
789.879	112.92
790.317	108.52
790.756	121.12
791.195	121.92
791.634	141.02
792.072	195.73
792.511	349.12
792.95	941.92
793.388	2037.72
793.827	1866.52
794.265	647.72
794.704	267.02
795.142	181.82
795.581	145.52
796.019	130.02
796.458	127.92
796.896	120.42
797.334	126.82
797.773	150.22
798.211	203.22
798.649	414.52
799.087	964.33
799.526	1517.92
799.964	1921.62
800.402	1926.72
800.84	730.92
801.278	289.92
801.716	181.92
802.154	144.32
802.592	141.73
803.03	125.62
803.468	138.73
803.906	137.02
804.344	141.92
804.782	135.42
805.22	127.22
805.658	120.32
806.096	139.82
806.533	150.62
806.971	162.72
807.409	212.52
807.847	299.32
808.284	614.73
808.722	1755.42
809.16	3136.22
809.597	2960.62
810.035	5149.33
810.472	5603.23
810.91	2001.22
811.347	755.43
811.785	382.82
812.222	246.12
812.66	184.52
813.097	162.62
813.535	126.82
813.972	129.52
814.409	119.12
814.846	112.82
815.284	103.92
815.721	92.62
816.158	106.82
816.595	111.52
817.032	175.42
817.47	190.22
817.907	171.32
818.344	148.62
818.781	104.32
819.218	98.52
819.655	115.12
820.092	178.22
820.529	203.02
820.966	169.92
821.403	128.02
821.839	111.52
822.276	106.82
822.713	121.72
823.15	129.92
823.587	106.62
824.023	138.92
824.46	277.93
824.897	848.62
825.333	1295.22
825.77	562.02
826.206	224.52
826.643	131.32
827.08	98.02
827.516	81.92
827.953	80.92
828.389	80.12
828.825	69.82
829.262	62.22
829.698	62.82
830.135	66.52
830.571	61.42
831.007	61.72
831.443	59.22
831.88	56.02
832.316	55.72
832.752	65.82
833.188	59.23
833.624	62.82
834.06	65.02
834.497	67.62
834.933	68.52
835.369	73.62
835.805	67.92
836.241	73.42
836.677	70.52
837.112	80.52
837.548	101.72
837.984	122.82
838.42	190.02
838.856	458.22
839.292	1428.72
839.727	2216.52
840.163	1028.92
840.599	866.92
841.034	1927.32
841.47	2046.52
841.906	745.43
842.341	323.12
842.777	226.73
843.212	309.12
843.648	307.22
844.083	148.42
844.519	96.52
844.954	74.12
845.39	59.92
845.825	58.02
846.261	54.92
846.696	51.52
847.131	48.32
847.566	57.02
848.002	43.92
848.437	52.82
848.872	57.42
849.307	54.92
849.742	76.42
850.177	172.62
850.613	524.93
851.048	835.42
851.483	368.12
851.918	148.22
852.353	85.52
852.788	59.22
853.223	53.12
853.657	58.32
854.092	47.22
854.527	47.72
854.962	42.32
855.397	40.82
855.832	46.72
856.266	45.12
856.701	37.12
857.136	38.12
857.57	38.32
858.005	51.52
858.44	51.92
858.874	41.62
859.309	56.32
859.743	36.52
860.178	53.42
860.612	44.12
861.047	53.12
861.481	61.72
861.915	71.73
862.35	55.32
862.784	37.72
863.218	34.92
863.653	35.12
864.087	45.02
864.521	52.92
864.955	71.73
865.39	152.12
865.824	165.52
866.258	106.82
866.692	149.62
867.126	169.22
867.56	98.02
867.994	48.62
868.428	34.42
868.862	45.73
869.296	53.52
869.73	53.82
870.164	53.32
870.598	40.02
871.031	31.02
871.465	32.82
871.899	34.42
872.333	20.62
872.766	22.02
873.2	20.42
873.634	32.02
874.067	27.32
874.501	25.32
874.935	32.72
875.368	33.52
875.802	27.02
876.235	20.82
876.669	27.22
877.102	20.62
877.535	30.23
877.969	18.62
878.402	20.52
878.836	13.02
879.269	26.92
879.702	27.02
880.135	21.12
880.569	25.82
881.002	29.23
881.435	26.02
881.868	14.22
882.301	24.12
882.734	21.32
883.167	21.02
883.601	17.32
884.034	24.32
884.467	10.12
884.899	14.22
885.332	16.32
885.765	13.52
886.198	18.52
886.631	18.52
887.064	17.02
887.497	21.72
887.929	24.02
888.362	12.42
888.795	11.42
889.228	19.62
889.66	21.92
890.093	14.62
890.526	13.42
890.958	14.92
891.391	17.23
891.823	24.72
892.256	12.92
892.688	15.62
893.121	14.82
893.553	15.52
893.985	19.02
894.418	17.92
894.85	11.72
895.282	17.32
895.715	19.52
896.147	20.42
896.579	15.42
897.011	10.32
897.444	13.22
897.876	13.62
898.308	12.42
898.74	13.62
899.172	14.92
899.604	27.02
900.036	16.42
900.468	9.92
900.9	16.02
901.332	15.22
901.764	17.82
902.196	19.52
902.628	15.12
903.06	15.22
903.491	24.82
903.923	21.82
904.355	19.92
904.787	19.52
905.218	23.23
905.65	21.22
906.082	11.72
906.513	15.22
906.945	16.32
907.376	11.22
907.808	20.82
908.239	22.42
908.671	20.82
909.102	20.62
909.534	19.92
909.965	46.52
910.397	89.52
910.828	292.72
911.259	456.12
911.691	208.42
912.122	107.73
912.553	55.32
912.984	30.82
913.415	24.12
913.847	19.12
914.278	14.62
914.709	16.62
915.14	21.62
915.571	20.52
916.002	8.72
916.433	22.62
916.864	15.22
917.295	15.32
917.726	18.72
918.157	23.82
918.587	27.82
919.018	16.42
919.449	24.82
919.88	22.02
920.311	31.52
920.741	37.62
921.172	162.72
921.603	139.72
922.033	68.02
922.464	42.62
922.895	23.92
923.325	21.32
923.756	12.22
924.186	17.32
924.617	25.12
925.047	43.72
925.478	58.82
925.908	44.32
926.338	29.22
926.769	23.23
927.199	22.12
927.629	8.32
928.06	18.02
928.49	16.73
928.92	14.92
929.35	5.62
929.78	11.02
930.21	1.32
930.641	10.52
931.071	7.82
931.501	8.22
931.931	11.82
932.361	12.02
932.791	8.82
933.221	5.22
933.651	9.73
934.08	13.72
934.51	26.72
934.94	10.42
935.37	10.23
935.8	13.82
936.229	6.32
936.659	9.22
937.089	0.42
937.519	13.52
937.948	22.42
938.378	16.92
938.807	6.32
939.237	-0.48
939.666	11.02
940.096	-2.88
940.525	-0.58
940.955	-4.18
941.384	-0.48
941.814	-6.38
942.243	-4.28
942.672	-1.58
943.102	1.12
943.531	3.12
943.96	3.32
944.39	5.42
944.819	2.12
945.248	7.62
945.677	-0.98
946.106	5.82
946.535	3.22
946.964	0.82
947.393	2.42
947.822	4.92
948.251	-4.98
948.68	2.73
949.109	8.22
949.538	5.92
949.967	3.82
950.396	1.22
950.825	-1.28
951.254	2.73
951.682	-5.48
952.111	6.32
952.54	6.52
952.969	-1.48
953.397	-8.58
953.826	5.22
954.254	-2.58
954.683	5.12
955.112	-3.58
955.54	-2.08
955.969	2.42
956.397	1.12
956.826	2.12
957.254	-1.68
957.682	4.12
958.111	7.22
958.539	-5.68
958.967	5.62
959.396	4.02
959.824	-2.08
960.252	-2.78
960.68	-1.98
961.109	7.22
961.537	-3.08
961.965	-4.38
962.393	1.72
962.821	-2.88
963.249	-3.08
963.677	2.12
964.105	1.52
964.533	44.12
964.961	39.62
965.389	18.52
965.817	5.32
966.245	4.22
966.672	1.23
967.1	-6.48
967.528	0.52
967.956	0.23
968.383	1.72
968.811	-3.68
969.239	0.32
969.666	-8.18
970.094	5.02
970.522	1.22
970.949	-1.68
971.377	-5.08
971.804	-8.28
972.232	-0.58
972.659	1.22
973.087	-1.88
973.514	-7.28
973.941	-7.78
974.369	8.12
974.796	0.52
975.223	6.82
975.651	-7.58
976.078	7.22
976.505	-0.58
976.932	4.22
977.359	9.82
977.786	13.42
978.214	2.92
978.641	-2.08
979.068	-6.88
979.495	-3.48
979.922	-0.88
980.349	-5.38
980.776	4.92
981.202	-0.08
981.629	-2.68
982.056	4.92
982.483	-1.28
982.91	7.72
983.337	-3.58
983.763	1.92
984.19	-1.88
984.617	1.22
985.043	-8.98
985.47	0.22
985.897	-3.18
986.323	-6.08
986.75	2.23
987.176	-3.28
987.603	-2.98
988.029	-1.68
988.456	-3.08
988.882	-3.68
989.308	-6.08
989.735	-7.88
990.161	-3.78
990.587	-7.18
991.014	-3.28
991.44	6.92
991.866	-4.68
992.292	-2.68
992.719	1.92
993.145	5.72
993.571	-12.08
993.997	-3.18
994.423	-2.18
994.849	-5.78
995.275	1.92
995.701	0.82
996.127	-3.48
996.553	3.92
996.979	-7.78
997.405	1.82
997.83	-3.38
998.256	-8.88
998.682	-8.08
999.108	-7.88
999.534	2.62
999.959	-0.68
1000.385	-6.78
1000.811	4.82
1001.236	-10.08
1001.662	-6.08
1002.087	-7.08
1002.513	2.22
1002.938	2.32
1003.364	-1.58
1003.789	3.32
1004.215	2.92
1004.64	1.32
1005.066	-1.38
1005.491	-1.48
1005.916	-2.58
1006.342	-6.18
1006.767	-6.98
1007.192	0.92
1007.617	0.82
1008.042	-6.08
1008.468	-7.98
1008.893	-3.08
1009.318	2.32
1009.743	-6.08
1010.168	6.02
1010.593	-2.88
1011.018	-9.08
1011.443	-3.28
1011.868	2.73
1012.293	0.23
1012.718	-4.38
1013.143	4.32
1013.567	-2.18
1013.992	-3.98
1014.417	-13.58
1014.842	0.02
1015.267	-4.08
1015.691	-4.68
1016.116	11.82
1016.541	-2.38
1016.965	2.32
1017.39	5.42
1017.814	1.32
1018.239	-1.98
1018.663	-10.78
1019.088	-12.28
1019.512	-1.28
1019.937	0.62
1020.361	-7.58
1020.785	-0.58
1021.21	-1.78
1021.634	-3.08
1022.058	-2.28
1022.483	1.82
1022.907	-4.28
1023.331	-2.48
1023.755	-1.58
1024.179	-0.58
1024.604	-5.98
1025.028	-2.68
1025.452	-6.18
1025.876	-6.18
1026.3	1.72
1026.724	-12.78
1027.148	-7.18
1027.572	-1.28
1027.996	-0.48
1028.42	5.02
1028.843	-1.48
1029.267	-1.28
1029.691	-3.58
1030.115	-5.18
1030.539	-6.68
1030.962	-5.98
1031.386	-9.48
1031.81	-4.27
1032.233	2.22
1032.657	1.23
1033.08	-4.98
1033.504	0.42
1033.927	-2.68
1034.351	3.92
1034.774	-3.08
1035.198	2.32
1035.621	-6.27
1036.045	-2.08
1036.468	2.82
1036.891	-13.98
1037.315	-10.78
1037.738	-10.58
1038.161	0.32
1038.584	-2.88
1039.008	-2.78
1039.431	-0.78
1039.854	-5.48
1040.277	-8.78
1040.7	-9.08
1041.123	-2.48
1041.546	-4.77
1041.969	-7.08
1042.392	-5.28
1042.815	0.32
1043.238	-2.78
1043.661	0.12
1044.084	-10.68
1044.507	0.32
1044.93	-9.88
1045.352	0.22
1045.775	-8.58
1046.198	-5.28
1046.621	-0.18
1047.043	0.52
1047.466	10.42
1047.889	-4.88
1048.311	-2.58
1048.734	-5.48
1049.156	-1.88
1049.579	-1.68
1050.001	-6.78
1050.424	-3.18
1050.846	2.02
1051.269	0.12
1051.691	-9.08
1052.113	-4.68
1052.536	-1.68
1052.958	-0.68
1053.38	-7.48
1053.802	-9.18
1054.225	-2.38
1054.647	-7.28
1055.069	-4.18
1055.491	-0.28
1055.913	-0.58
1056.335	-4.58
1056.757	2.12
1057.179	-5.48
1057.601	-1.38
1058.023	-2.58
1058.445	-1.18
1058.867	-5.48
1059.289	-6.78
1059.711	-5.08
1060.133	-9.38
1060.555	-3.38
1060.976	-9.38
1061.398	-5.88
1061.82	-7.78
1062.241	-7.48
1062.663	-8.78
1063.085	-9.78
1063.506	2.32
1063.928	-5.88
1064.35	4.02
1064.771	-12.78
1065.193	-0.58
1065.614	-10.58
1066.035	-3.58
1066.457	-5.08
1066.878	-2.28
1067.3	-3.88
1067.721	-8.08
1068.142	-1.98
1068.564	-2.88
1068.985	-5.48
1069.406	-5.28
1069.827	-9.88
1070.248	-1.68
1070.67	-3.98
1071.091	-4.27
1071.512	-8.98
1071.933	-2.78
1072.354	-8.48
1072.775	-4.88
1073.196	-10.08
1073.617	-3.18
1074.038	-10.58
1074.459	-4.08
1074.88	-3.08
1075.3	-0.38
1075.721	-10.08
1076.142	-1.27
1076.563	2.02
1076.983	-13.08
1077.404	-9.18
1077.825	-10.68
1078.246	-9.98
1078.666	-11.08
1079.087	-5.27
1079.507	-4.38
1079.928	0.72
1080.348	-0.68
1080.769	-9.48
1081.189	-0.68
1081.61	-2.78
1082.03	-8.28
1082.451	-2.98
1082.871	-5.88
1083.291	-5.58
1083.711	-12.68
1084.132	-6.28
1084.552	-11.18
1084.972	0.92
1085.392	-7.38
1085.813	-9.68
1086.233	-9.08
1086.653	-1.28
1087.073	1.52
1087.493	-9.78
1087.913	-9.18
1088.333	-5.78
1088.753	-2.88
1089.173	0.82
1089.593	1.32
1090.013	-1.88
1090.433	-0.68
1090.852	-1.18
1091.272	-4.68
1091.692	2.92
1092.112	-2.78
1092.531	-11.18
1092.951	-13.38
1093.371	-1.28
1093.79	-4.27
1094.21	-5.88
1094.63	-2.08
1095.049	-3.18
1095.469	-6.98
1095.888	-9.28
1096.308	4.42
1096.727	5.12
1097.146	-6.08
1097.566	-2.48
1097.985	-6.38
1098.405	3.02
1098.824	-2.58
1099.243	-1.98
1099.662	-13.08
1100.082	-6.77
1100.501	-1.28
1100.92	-8.28
1101.339	2.82
1101.758	-3.58
