Data from 20171114-ORNL-Ar_H_NY_Subt18_08-07-14-783.txt Node
Date: Tue Nov 14 08:07:14 EST 2017
User: Ender
Spectrometer: HR+D1039
Trigger mode: 0
Integration Time (sec): 2.730000E-2
Scans to average: 10
Electric dark correction enabled: true
Nonlinearity correction enabled: false
Boxcar width: 0
XAxis mode: Wavelengths
Number of Pixels in Spectrum: 2048
>>>>>Begin Spectral Data<<<<<
187.836	-5.79
188.309	-5.79
188.782	-5.79
189.255	-0.99
189.728	0.71
190.201	6.41
190.674	1.51
191.147	3.01
191.619	-7.39
192.092	-0.39
192.565	5.01
193.038	4.61
193.511	0.21
193.984	0.91
194.456	-1.39
194.929	0.21
195.402	-0.79
195.874	-5.89
196.347	-6.19
196.82	-7.09
197.292	4.91
197.765	-2.69
198.237	-3.09
198.71	0.91
199.182	-2.59
199.655	0.21
200.127	6.31
200.6	-5.09
201.072	-2.09
201.544	-5.19
202.017	-0.79
202.489	1.51
202.961	-3.09
203.433	-1.79
203.906	-4.39
204.378	-7.29
204.85	2.01
205.322	-6.69
205.794	-2.29
206.266	-0.09
206.739	-8.59
207.211	5.71
207.683	-8.69
208.155	-3.59
208.627	-8.19
209.099	-4.59
209.57	-7.79
210.042	-0.59
210.514	-5.99
210.986	-5.29
211.458	-9.69
211.93	-8.49
212.402	2.61
212.873	-2.09
213.345	-5.59
213.817	-10.29
214.288	-1.09
214.76	-8.29
215.232	-3.59
215.703	-5.39
216.175	-5.39
216.646	-9.19
217.118	-6.49
217.589	-7.89
218.061	-2.39
218.532	-3.99
219.004	-4.19
219.475	-8.39
219.946	-11.39
220.418	-5.29
220.889	1.11
221.36	1.51
221.832	-3.89
222.303	-7.49
222.774	-2.59
223.245	-6.69
223.717	-3.49
224.188	-1.19
224.659	-8.69
225.13	-6.79
225.601	1.81
226.072	-4.89
226.543	-7.69
227.014	-1.89
227.485	-2.99
227.956	-4.99
228.427	-3.79
228.898	-0.69
229.369	1.21
229.839	-2.69
230.31	-9.79
230.781	0.81
231.252	1.41
231.722	-7.59
232.193	-3.79
232.664	-1.79
233.135	-2.69
233.605	-4.49
234.076	-4.99
234.546	0.51
235.017	1.21
235.487	-1.49
235.958	-4.49
236.428	-6.99
236.899	-5.19
237.369	-2.89
237.84	-6.29
238.31	-0.79
238.78	-5.39
239.251	-1.59
239.721	-4.99
240.191	-1.39
240.662	-1.89
241.132	5.31
241.602	-2.29
242.072	-4.59
242.542	-3.79
243.013	-6.99
243.483	-4.29
243.953	-0.89
244.423	-4.09
244.893	-10.49
245.363	-3.89
245.833	-0.39
246.303	-0.39
246.773	0.11
247.243	-0.39
247.712	-6.09
248.182	0.31
248.652	-0.79
249.122	-11.89
249.592	-0.59
250.061	-0.09
250.531	4.01
251.001	-9.09
251.471	4.81
251.94	11.51
252.41	-0.89
252.879	-6.29
253.349	7.01
253.818	1.11
254.288	-0.49
254.757	-2.49
255.227	-8.79
255.696	-0.79
256.166	1.01
256.635	-0.69
257.105	6.61
257.574	-3.29
258.043	2.51
258.513	-3.09
258.982	0.01
259.451	-3.89
259.92	0.11
260.389	-1.39
260.859	11.61
261.328	4.21
261.797	-3.99
262.266	-1.29
262.735	0.91
263.204	-0.89
263.673	-3.09
264.142	8.41
264.611	-1.89
265.08	-10.59
265.549	-4.89
266.018	3.21
266.487	-3.49
266.955	-9.09
267.424	-2.59
267.893	3.41
268.362	-1.79
268.83	-0.79
269.299	1.31
269.768	-2.09
270.236	5.41
270.705	-2.39
271.174	2.21
271.642	-2.59
272.111	5.51
272.579	-1.69
273.048	3.21
273.516	1.71
273.985	-1.19
274.453	5.51
274.922	12.11
275.39	7.21
275.858	-2.89
276.327	1.11
276.795	12.11
277.263	9.81
277.731	7.01
278.2	9.71
278.668	1.31
279.136	2.21
279.604	-0.09
280.072	10.11
280.54	3.81
281.008	8.51
281.477	10.11
281.945	3.51
282.413	9.31
282.881	8.71
283.348	5.61
283.816	9.51
284.284	13.31
284.752	19.51
285.22	0.01
285.688	9.51
286.156	8.51
286.623	12.11
287.091	2.71
287.559	6.61
288.026	8.31
288.494	14.01
288.962	-4.69
289.429	6.21
289.897	12.91
290.364	9.61
290.832	12.61
291.3	3.81
291.767	12.51
292.234	15.71
292.702	8.31
293.169	8.51
293.637	17.61
294.104	6.71
294.571	8.01
295.039	8.31
295.506	6.11
295.973	10.21
296.44	4.21
296.908	14.41
297.375	4.31
297.842	18.31
298.309	6.51
298.776	11.11
299.243	10.51
299.71	9.11
300.177	17.61
300.644	12.21
301.111	13.91
301.578	12.21
302.045	8.41
302.512	14.71
302.979	14.91
303.446	20.11
303.913	14.71
304.379	16.91
304.846	16.31
305.313	16.61
305.78	11.61
306.246	18.81
306.713	21.81
307.18	24.01
307.646	12.01
308.113	24.01
308.579	16.91
309.046	15.81
309.512	20.11
309.979	8.31
310.445	17.81
310.912	16.51
311.378	22.31
311.845	20.41
312.311	23.91
312.777	24.41
313.244	20.71
313.71	30.51
314.176	22.11
314.642	15.01
315.109	22.81
315.575	29.51
316.041	28.41
316.507	16.21
316.973	24.21
317.439	21.11
317.905	30.11
318.371	24.21
318.837	27.31
319.303	23.41
319.769	18.61
320.235	21.91
320.701	28.11
321.167	23.91
321.633	22.81
322.099	30.31
322.564	33.81
323.03	30.51
323.496	29.01
323.962	35.11
324.427	25.21
324.893	31.51
325.359	29.41
325.824	30.21
326.29	29.31
326.755	30.91
327.221	31.81
327.686	28.11
328.152	41.41
328.617	26.21
329.083	40.51
329.548	43.51
330.014	34.11
330.479	34.41
330.944	35.41
331.41	30.01
331.875	34.31
332.34	36.71
332.805	33.21
333.271	32.51
333.736	28.21
334.201	41.51
334.666	43.31
335.131	41.51
335.596	39.91
336.061	40.41
336.526	30.91
336.991	42.51
337.456	45.51
337.921	36.11
338.386	35.11
338.851	41.11
339.316	35.71
339.781	36.61
340.246	41.81
340.711	39.01
341.175	41.01
341.64	42.01
342.105	43.31
342.569	42.61
343.034	46.11
343.499	44.01
343.963	45.41
344.428	55.21
344.893	49.11
345.357	50.21
345.822	56.31
346.286	50.11
346.751	48.71
347.215	53.71
347.679	53.31
348.144	70.41
348.608	67.91
349.073	60.01
349.537	57.11
350.001	66.51
350.465	71.01
350.93	64.21
351.394	65.31
351.858	56.71
352.322	74.51
352.786	65.41
353.25	80.91
353.715	88.81
354.179	77.11
354.643	96.41
355.107	98.21
355.571	82.61
356.035	80.81
356.498	89.21
356.962	91.01
357.426	104.21
357.89	94.31
358.354	75.81
358.818	66.61
359.281	66.41
359.745	63.01
360.209	64.41
360.673	62.91
361.136	68.41
361.6	71.61
362.064	68.21
362.527	67.71
362.991	78.81
363.454	65.61
363.918	65.51
364.381	70.81
364.845	75.31
365.308	75.71
365.772	76.51
366.235	70.51
366.698	73.81
367.162	77.41
367.625	70.61
368.088	73.11
368.552	80.51
369.015	76.51
369.478	81.81
369.941	91.71
370.404	90.51
370.867	87.41
371.331	89.91
371.794	90.31
372.257	82.51
372.72	95.41
373.183	89.01
373.646	80.61
374.109	88.61
374.572	81.41
375.035	89.31
375.497	91.21
375.96	93.11
376.423	94.01
376.886	104.31
377.349	97.81
377.811	93.61
378.274	95.31
378.737	89.51
379.199	100.21
379.662	103.91
380.125	93.81
380.587	87.51
381.05	95.31
381.512	105.81
381.975	115.01
382.437	109.81
382.9	106.01
383.362	113.81
383.825	116.51
384.287	116.71
384.75	110.31
385.212	114.81
385.674	120.91
386.136	119.41
386.599	106.21
387.061	110.71
387.523	107.61
387.985	109.21
388.447	122.01
388.91	115.91
389.372	112.71
389.834	116.41
390.296	114.81
390.758	115.81
391.22	122.01
391.682	130.41
392.144	145.71
392.606	127.41
393.068	127.51
393.529	139.11
393.991	127.61
394.453	126.11
394.915	120.41
395.377	123.41
395.838	128.21
396.3	133.21
396.762	127.81
397.224	129.11
397.685	125.01
398.147	125.21
398.608	126.11
399.07	115.01
399.531	127.31
399.993	133.81
400.454	140.41
400.916	138.91
401.377	135.71
401.839	142.61
402.3	141.21
402.762	147.81
403.223	163.61
403.684	152.61
404.145	153.71
404.607	142.91
405.068	154.31
405.529	153.91
405.99	177.81
406.451	162.31
406.913	162.81
407.374	157.21
407.835	157.61
408.296	154.91
408.757	163.31
409.218	173.01
409.679	168.81
410.14	163.11
410.601	162.71
411.062	170.81
411.522	170.31
411.983	165.81
412.444	164.61
412.905	176.21
413.366	175.61
413.826	187.41
414.287	206.91
414.748	260.81
415.208	238.51
415.669	212.21
416.13	208.11
416.59	198.61
417.051	214.21
417.511	216.21
417.972	230.11
418.432	244.41
418.893	282.11
419.353	252.81
419.814	199.01
420.274	182.41
420.734	181.31
421.195	191.21
421.655	188.41
422.115	182.81
422.576	191.31
423.036	201.01
423.496	210.81
423.956	208.41
424.416	224.31
424.876	267.31
425.336	257.01
425.797	256.81
426.257	247.21
426.717	239.91
427.177	236.91
427.637	215.11
428.097	223.91
428.556	233.01
429.016	261.11
429.476	249.01
429.936	259.81
430.396	260.91
430.856	280.91
431.315	303.71
431.775	333.51
432.235	366.41
432.694	335.31
433.154	341.61
433.614	371.71
434.073	325.41
434.533	270.21
434.993	266.71
435.452	275.01
435.912	280.01
436.371	270.71
436.83	270.81
437.29	257.41
437.749	242.11
438.209	236.21
438.668	264.81
439.127	276.61
439.587	246.01
440.046	240.71
440.505	256.11
440.964	265.71
441.424	311.91
441.883	305.61
442.342	261.21
442.801	225.61
443.26	216.81
443.719	224.81
444.178	223.41
444.637	213.01
445.096	222.71
445.555	218.31
446.014	226.61
446.473	230.01
446.932	232.51
447.391	221.91
447.849	224.61
448.308	223.51
448.767	225.21
449.226	231.61
449.685	239.61
450.143	250.71
450.602	237.81
451.061	232.11
451.519	231.51
451.978	243.01
452.436	232.91
452.895	244.41
453.353	250.21
453.812	237.51
454.27	239.31
454.729	243.21
455.187	246.51
455.646	245.81
456.104	257.01
456.562	256.01
457.021	271.81
457.479	264.71
457.937	277.81
458.395	267.71
458.854	250.91
459.312	251.21
459.77	277.31
460.228	262.41
460.686	242.21
461.144	254.61
461.602	248.71
462.06	246.71
462.518	259.31
462.976	264.81
463.434	260.01
463.892	262.31
464.35	274.61
464.808	286.71
465.266	275.51
465.724	277.71
466.181	278.21
466.639	277.11
467.097	300.31
467.555	306.61
468.012	307.71
468.47	314.91
468.928	332.81
469.385	353.01
469.843	346.81
470.3	355.01
470.758	369.51
471.215	385.61
471.673	410.31
472.13	411.21
472.588	419.21
473.045	375.41
473.503	383.51
473.96	406.81
474.417	402.61
474.875	437.21
475.332	477.61
475.789	467.41
476.246	471.51
476.704	487.91
477.161	512.31
477.618	520.71
478.075	560.11
478.532	614.11
478.989	680.71
479.446	777.01
479.903	744.61
480.36	783.41
480.817	829.01
481.274	921.81
481.731	1023.71
482.188	1095.21
482.645	1205.71
483.102	1295.31
483.558	1420.51
484.015	1460.31
484.472	1431.21
484.929	1387.71
485.385	1350.41
485.842	1311.81
486.299	1272.81
486.755	1219.31
487.212	1048.11
487.668	895.01
488.125	824.01
488.582	770.11
489.038	732.31
489.494	702.91
489.951	685.31
490.407	670.81
490.864	657.41
491.32	652.91
491.776	644.11
492.233	648.81
492.689	625.91
493.145	614.91
493.602	611.21
494.058	617.11
494.514	618.41
494.97	643.21
495.426	663.11
495.882	622.71
496.338	619.71
496.794	624.41
497.251	623.01
497.707	642.21
498.163	647.71
498.618	638.61
499.074	647.31
499.53	682.61
499.986	682.31
500.442	647.41
500.898	629.81
501.354	613.71
501.809	627.41
502.265	627.21
502.721	643.11
503.177	650.71
503.632	655.41
504.088	656.81
504.543	676.91
504.999	690.51
505.455	668.81
505.91	651.61
506.366	658.51
506.821	652.31
507.277	643.61
507.732	646.31
508.187	651.91
508.643	653.11
509.098	649.41
509.553	681.01
510.009	691.21
510.464	688.11
510.919	707.91
511.375	725.21
511.83	731.41
512.285	738.81
512.74	777.91
513.195	800.91
513.65	782.41
514.105	779.41
514.56	788.01
515.015	805.21
515.47	817.31
515.925	798.61
516.38	806.71
516.835	807.91
517.29	799.31
517.745	790.11
518.2	786.31
518.655	772.71
519.109	763.51
519.564	761.01
520.019	751.61
520.474	734.01
520.928	736.11
521.383	735.51
521.838	727.21
522.292	724.31
522.747	728.51
523.201	723.91
523.656	716.21
524.11	710.61
524.565	706.51
525.019	708.71
525.474	716.91
525.928	708.81
526.382	718.11
526.837	718.71
527.291	719.91
527.745	724.61
528.2	726.21
528.654	710.21
529.108	700.71
529.562	705.51
530.016	714.61
530.47	701.01
530.925	711.81
531.379	716.31
531.833	718.11
532.287	719.81
532.741	719.41
533.195	718.41
533.649	724.21
534.103	735.41
534.556	730.81
535.01	732.91
535.464	720.91
535.918	731.41
536.372	744.71
536.826	729.01
537.279	714.31
537.733	728.81
538.187	736.51
538.64	726.31
539.094	734.91
539.548	749.91
540.001	744.91
540.455	744.51
540.908	746.71
541.362	761.51
541.815	765.31
542.269	777.81
542.722	782.21
543.175	792.61
543.629	790.31
544.082	804.01
544.536	808.81
544.989	806.01
545.442	815.31
545.895	811.31
546.349	816.01
546.802	816.61
547.255	816.11
547.708	823.71
548.161	835.91
548.614	841.51
549.067	858.11
549.52	851.81
549.973	835.61
550.426	826.11
550.879	815.21
551.332	829.51
551.785	839.01
552.238	833.51
552.691	843.71
553.144	858.31
553.596	870.01
554.049	883.11
554.502	934.81
554.955	939.81
555.407	936.41
555.86	927.01
556.313	908.61
556.765	908.91
557.218	902.81
557.67	907.51
558.123	906.11
558.576	899.61
559.028	902.11
559.48	905.71
559.933	891.71
560.385	867.51
560.838	838.41
561.29	806.21
561.742	817.31
562.195	794.51
562.647	795.21
563.099	792.61
563.551	794.71
564.004	799.11
564.456	803.51
564.908	784.91
565.36	770.71
565.812	754.81
566.264	739.51
566.716	742.51
567.168	727.81
567.62	721.61
568.072	720.51
568.524	718.51
568.976	712.71
569.428	699.21
569.88	693.61
570.332	711.01
570.784	713.41
571.235	710.81
571.687	718.61
572.139	719.81
572.59	739.31
573.042	730.11
573.494	732.21
573.945	725.41
574.397	715.11
574.849	707.11
575.3	719.11
575.752	704.91
576.203	702.51
576.655	695.01
577.106	681.21
577.557	690.51
578.009	692.31
578.46	689.41
578.912	678.01
579.363	686.71
579.814	688.51
580.265	682.71
580.717	688.31
581.168	693.01
581.619	700.51
582.07	704.51
582.521	697.71
582.972	684.71
583.423	689.91
583.875	695.61
584.326	693.11
584.777	712.21
585.227	723.61
585.678	736.61
586.129	750.21
586.58	770.01
587.031	780.91
587.482	804.41
587.933	820.31
588.384	807.51
588.834	792.21
589.285	782.21
589.736	781.11
590.186	795.01
590.637	786.81
591.088	761.11
591.538	760.11
591.989	749.41
592.439	742.81
592.89	734.91
593.34	720.01
593.791	720.41
594.241	716.11
594.692	712.51
595.142	706.81
595.593	701.81
596.043	715.81
596.493	725.31
596.943	722.11
597.394	739.51
597.844	731.21
598.294	747.51
598.744	774.51
599.195	795.81
599.645	832.81
600.095	873.11
600.545	949.61
600.995	999.31
601.445	1051.51
601.895	1119.81
602.345	1166.01
602.795	1146.81
603.245	1094.41
603.695	1043.71
604.145	987.11
604.594	943.41
605.044	889.81
605.494	826.71
605.944	776.21
606.393	758.51
606.843	748.21
607.293	740.61
607.743	744.31
608.192	756.01
608.642	776.61
609.091	778.31
609.541	777.91
609.99	781.81
610.44	773.21
610.889	727.51
611.339	717.11
611.788	699.21
612.238	707.01
612.687	717.91
613.136	703.51
613.586	716.41
614.035	713.51
614.484	723.51
614.933	713.61
615.383	718.91
615.832	712.41
616.281	714.21
616.73	690.21
617.179	665.21
617.628	661.31
618.077	634.91
618.526	630.21
618.975	631.51
619.424	635.21
619.873	625.01
620.322	633.81
620.771	618.61
621.22	622.21
621.669	598.41
622.118	598.41
622.567	594.11
623.015	577.71
623.464	572.01
623.913	568.41
624.361	574.01
624.81	560.41
625.259	563.71
625.707	560.71
626.156	569.41
626.604	569.51
627.053	574.91
627.501	577.21
627.95	581.11
628.398	587.31
628.847	586.21
629.295	580.61
629.744	584.31
630.192	573.71
630.64	568.11
631.089	554.31
631.537	543.01
631.985	534.31
632.433	533.61
632.881	529.31
633.33	530.71
633.778	531.71
634.226	533.91
634.674	539.01
635.122	547.61
635.57	556.31
636.018	565.91
636.466	573.51
636.914	572.11
637.362	575.71
637.81	581.51
638.258	588.21
638.705	595.31
639.153	621.91
639.601	632.51
640.049	653.81
640.497	683.01
640.944	700.21
641.392	658.31
641.84	627.31
642.287	585.81
642.735	581.11
643.182	566.41
643.63	583.61
644.078	568.91
644.525	576.51
644.973	584.51
645.42	603.51
645.867	621.81
646.315	635.41
646.762	653.61
647.21	692.31
647.657	708.11
648.104	736.61
648.551	762.91
648.999	811.11
649.446	891.21
649.893	964.61
650.34	1115.41
650.787	1326.31
651.234	1609.91
651.682	2088.21
652.129	2827.41
652.576	4013.21
653.023	5837.51
653.47	7905.11
653.917	9835.11
654.363	11314.11
654.81	12521.61
655.257	11856.31
655.704	7813.81
656.151	4730.61
656.598	3104.11
657.044	2243.91
657.491	1739.81
657.938	1399.51
658.385	1177.31
658.831	1034.11
659.278	936.11
659.724	826.71
660.171	761.31
660.618	715.31
661.064	679.81
661.511	657.11
661.957	643.71
662.404	640.11
662.85	652.11
663.296	620.91
663.743	555.51
664.189	539.11
664.635	539.41
665.082	532.61
665.528	521.91
665.974	520.41
666.42	518.11
666.867	511.41
667.313	489.91
667.759	480.81
668.205	458.41
668.651	455.71
669.097	455.51
669.543	445.61
669.989	445.21
670.435	452.41
670.881	452.11
671.327	455.21
671.773	478.61
672.219	507.21
672.665	554.21
673.11	593.11
673.556	640.21
674.002	688.71
674.448	671.21
674.893	564.01
675.339	488.31
675.785	455.21
676.23	427.11
676.676	405.91
677.122	380.91
677.567	379.81
678.013	379.61
678.458	366.41
678.904	370.81
679.349	359.01
679.794	354.41
680.24	352.21
680.685	361.21
681.131	349.41
681.576	363.11
682.021	361.91
682.466	349.21
682.912	354.11
683.357	356.51
683.802	389.41
684.247	415.91
684.692	467.81
685.137	510.51
685.583	553.91
686.028	581.21
686.473	535.21
686.918	460.71
687.363	426.51
687.807	403.91
688.252	370.51
688.697	358.11
689.142	348.11
689.587	340.11
690.032	329.61
690.477	350.41
690.921	362.81
691.366	398.91
691.811	414.01
692.255	444.31
692.7	476.31
693.145	515.01
693.589	725.41
694.034	1173.71
694.478	1584.81
694.923	1795.71
695.367	2341.21
695.812	1236.21
696.256	521.51
696.701	385.01
697.145	343.71
697.59	344.61
698.034	326.11
698.478	342.91
698.922	330.31
699.367	330.11
699.811	338.11
700.255	365.41
700.699	396.31
701.143	438.81
701.588	480.01
702.032	517.41
702.476	527.71
702.92	508.61
703.364	511.11
703.808	660.71
704.252	1071.11
704.696	1497.61
705.14	1727.51
705.584	2195.81
706.027	1098.41
706.471	537.51
706.915	412.81
707.359	366.11
707.803	328.91
708.246	319.61
708.69	329.11
709.134	326.81
709.577	320.91
710.021	327.21
710.465	317.91
710.908	305.91
711.352	305.71
711.795	321.31
712.239	360.31
712.682	388.81
713.126	412.51
713.569	457.91
714.012	357.71
714.456	306.41
714.899	292.31
715.342	276.81
715.786	268.41
716.229	266.51
716.672	259.21
717.115	256.11
717.558	259.51
718.002	258.51
718.445	266.11
718.888	286.41
719.331	302.61
719.774	313.31
720.217	307.51
720.66	291.91
721.103	277.21
721.546	258.71
721.989	252.01
722.432	236.61
722.874	244.41
723.317	227.21
723.76	235.61
724.203	260.41
724.645	326.71
725.088	459.71
725.531	584.61
725.974	653.91
726.416	556.01
726.859	319.61
727.301	251.51
727.744	245.01
728.187	242.61
728.629	244.01
729.071	251.91
729.514	260.51
729.956	278.71
730.399	294.11
730.841	302.51
731.283	286.31
731.726	278.91
732.168	265.21
732.61	278.81
733.053	291.31
733.495	324.91
733.937	367.61
734.379	409.51
734.821	453.31
735.263	559.61
735.705	880.41
736.148	1654.01
736.59	2688.11
737.032	3147.81
737.474	2560.41
737.916	839.31
738.357	440.11
738.799	336.21
739.241	314.31
739.683	287.11
740.125	299.71
740.567	302.21
741.008	322.31
741.45	322.41
741.892	326.21
742.334	353.91
742.775	371.21
743.217	353.31
743.658	277.41
744.1	267.41
744.542	267.61
744.983	330.01
745.425	358.91
745.866	353.11
746.307	295.41
746.749	283.51
747.19	330.71
747.632	477.01
748.073	922.61
748.514	1956.11
748.956	2956.81
749.397	3709.51
749.838	3090.01
750.279	3056.31
750.72	1553.61
751.162	562.11
751.603	331.11
752.044	263.71
752.485	225.71
752.926	213.31
753.367	206.51
753.808	202.11
754.249	191.31
754.69	184.91
755.131	185.11
755.572	185.91
756.013	187.01
756.453	191.81
756.894	196.31
757.335	193.61
757.776	191.31
758.216	199.51
758.657	199.51
759.098	209.11
759.538	233.81
759.979	278.71
760.42	390.51
760.86	743.21
761.301	1927.01
761.741	4659.91
762.182	6660.21
762.622	4687.31
763.063	1369.01
763.503	559.51
763.943	335.51
764.384	273.51
764.824	240.41
765.264	215.71
765.705	211.01
766.145	186.01
766.585	181.71
767.025	173.71
767.465	165.81
767.906	185.01
768.346	187.41
768.786	203.61
769.226	219.21
769.666	314.51
770.106	642.41
770.546	1625.71
770.986	2726.91
771.426	2442.61
771.866	824.21
772.306	331.41
772.745	211.41
773.185	176.31
773.625	175.11
774.065	146.41
774.505	159.01
774.944	205.81
775.384	361.41
775.824	582.81
776.263	564.01
776.703	282.01
777.142	159.51
777.582	131.81
778.021	126.61
778.461	120.91
778.9	129.91
779.34	131.71
779.779	116.71
780.219	113.01
780.658	104.81
781.097	112.21
781.537	114.01
781.976	111.61
782.415	106.41
782.855	114.11
783.294	100.91
783.733	102.41
784.172	111.61
784.611	105.41
785.05	114.31
785.489	115.51
785.928	120.41
786.367	116.71
786.806	114.41
787.245	128.71
787.684	138.41
788.123	153.91
788.562	136.41
789.001	133.91
789.44	122.81
789.879	127.31
790.317	115.81
790.756	133.71
791.195	134.61
791.634	154.61
792.072	212.11
792.511	376.01
792.95	1041.71
793.388	2186.01
793.827	1970.21
794.265	694.81
794.704	288.61
795.142	184.11
795.581	158.71
796.019	141.71
796.458	126.41
796.896	127.61
797.334	133.51
797.773	158.51
798.211	222.01
798.649	465.61
799.087	1055.51
799.526	1661.81
799.964	2091.61
800.402	2080.41
800.84	778.61
801.278	311.91
801.716	191.31
802.154	155.91
802.592	149.91
803.03	147.11
803.468	140.51
803.906	149.41
804.344	154.31
804.782	144.21
805.22	139.91
805.658	138.71
806.096	149.61
806.533	158.01
806.971	174.51
807.409	232.31
807.847	333.91
808.284	699.31
808.722	1958.81
809.16	3429.21
809.597	3282.61
810.035	5664.91
810.472	5985.61
810.91	2166.51
811.347	831.41
811.785	414.21
812.222	270.71
812.66	202.11
813.097	173.11
813.535	146.51
813.972	129.01
814.409	125.41
814.846	109.71
815.284	110.11
815.721	101.51
816.158	102.21
816.595	113.41
817.032	157.01
817.47	183.61
817.907	139.51
818.344	96.81
818.781	99.51
819.218	95.71
819.655	132.31
820.092	193.71
820.529	226.31
820.966	177.51
821.403	129.41
821.839	101.11
822.276	97.91
822.713	124.71
823.15	139.51
823.587	120.11
824.023	154.81
824.46	307.71
824.897	931.11
825.333	1406.31
825.77	601.21
826.206	242.21
826.643	140.21
827.08	99.41
827.516	86.51
827.953	80.81
828.389	83.11
828.825	71.51
829.262	64.21
829.698	61.91
830.135	71.01
830.571	70.91
831.007	65.61
831.443	65.11
831.88	62.21
832.316	66.11
832.752	65.71
833.188	69.31
833.624	64.11
834.06	68.61
834.497	69.01
834.933	72.91
835.369	79.91
835.805	68.61
836.241	78.51
836.677	85.41
837.112	92.11
837.548	103.41
837.984	135.11
838.42	210.41
838.856	517.71
839.292	1563.41
839.727	2390.51
840.163	1121.11
840.599	978.51
841.034	2124.21
841.47	2190.41
841.906	806.81
842.341	344.31
842.777	210.71
843.212	203.11
843.648	185.21
844.083	113.31
844.519	82.21
844.954	70.81
845.39	62.21
845.825	58.01
846.261	62.21
846.696	53.31
847.131	55.41
847.566	60.21
848.002	59.61
848.437	55.61
848.872	66.31
849.307	63.41
849.742	91.81
850.177	188.11
850.613	583.71
851.048	904.01
851.483	383.71
851.918	160.11
852.353	87.61
852.788	56.71
853.223	62.21
853.657	53.51
854.092	41.11
854.527	42.81
854.962	38.91
855.397	44.51
855.832	46.91
856.266	41.41
856.701	37.01
857.136	36.31
857.57	37.21
858.005	53.11
858.44	59.91
858.874	46.41
859.309	56.51
859.743	35.91
860.178	54.11
860.612	41.61
861.047	55.11
861.481	70.21
861.915	73.11
862.35	48.81
862.784	35.11
863.218	40.31
863.653	37.81
864.087	50.41
864.521	54.51
864.955	67.11
865.39	161.91
865.824	180.41
866.258	126.91
866.692	172.21
867.126	191.81
867.56	116.21
867.994	64.51
868.428	44.91
868.862	50.51
869.296	58.01
869.73	63.11
870.164	57.41
870.598	53.41
871.031	36.41
871.465	31.01
871.899	34.51
872.333	21.91
872.766	25.61
873.2	24.31
873.634	25.31
874.067	25.51
874.501	23.21
874.935	38.11
875.368	30.61
875.802	33.11
876.235	30.61
876.669	33.61
877.102	20.51
877.535	23.51
877.969	23.21
878.402	25.41
878.836	22.91
879.269	27.81
879.702	26.11
880.135	27.71
880.569	19.51
881.002	23.41
881.435	20.21
881.868	16.21
882.301	25.71
882.734	14.51
883.167	21.91
883.601	15.31
884.034	21.31
884.467	19.71
884.899	19.31
885.332	23.51
885.765	13.01
886.198	17.41
886.631	19.01
887.064	13.41
887.497	26.71
887.929	25.31
888.362	16.01
888.795	17.01
889.228	23.01
889.66	26.61
890.093	16.31
890.526	16.81
890.958	17.31
891.391	16.01
891.823	16.11
892.256	14.31
892.688	15.31
893.121	13.11
893.553	17.71
893.985	19.91
894.418	19.51
894.85	12.91
895.282	13.11
895.715	16.51
896.147	19.71
896.579	21.81
897.011	14.01
897.444	13.71
897.876	19.81
898.308	22.11
898.74	13.91
899.172	14.91
899.604	22.81
900.036	15.61
900.468	16.61
900.9	14.91
901.332	13.11
901.764	17.71
902.196	23.71
902.628	20.81
903.06	18.91
903.491	26.41
903.923	26.81
904.355	20.11
904.787	24.81
905.218	21.81
905.65	16.91
906.082	15.91
906.513	13.81
906.945	25.71
907.376	17.51
907.808	27.21
908.239	22.61
908.671	24.91
909.102	22.11
909.534	24.71
909.965	55.91
910.397	99.01
910.828	323.51
911.259	493.01
911.691	229.41
912.122	108.81
912.553	57.21
912.984	39.91
913.415	25.51
913.847	23.61
914.278	18.01
914.709	13.81
915.14	17.51
915.571	20.51
916.002	13.01
916.433	15.41
916.864	15.71
917.295	12.01
917.726	24.51
918.157	20.31
918.587	24.31
919.018	28.01
919.449	22.31
919.88	28.21
920.311	31.91
920.741	54.51
921.172	175.31
921.603	148.31
922.033	72.21
922.464	47.81
922.895	18.51
923.325	19.71
923.756	10.11
924.186	14.41
924.617	19.01
925.047	22.61
925.478	21.81
925.908	22.81
926.338	13.01
926.769	10.41
927.199	11.81
927.629	7.51
928.06	12.71
928.49	15.21
928.92	11.21
929.35	10.31
929.78	11.31
930.21	9.21
930.641	10.71
931.071	6.01
931.501	2.31
931.931	7.31
932.361	10.81
932.791	1.31
933.221	-1.29
933.651	7.21
934.08	15.21
934.51	29.01
934.94	13.91
935.37	9.11
935.8	9.91
936.229	6.21
936.659	5.31
937.089	3.11
937.519	16.21
937.948	24.91
938.378	19.31
938.807	5.71
939.237	-0.99
939.666	10.61
940.096	-9.79
940.525	2.71
940.955	-1.79
941.384	4.71
941.814	-4.89
942.243	-9.29
942.672	1.81
943.102	-3.29
943.531	-0.89
943.96	5.61
944.39	6.71
944.819	-2.89
945.248	6.31
945.677	-1.19
946.106	2.51
946.535	1.21
946.964	0.91
947.393	3.11
947.822	-4.79
948.251	-4.89
948.68	-0.89
949.109	5.71
949.538	1.11
949.967	-0.59
950.396	-0.99
950.825	-1.99
951.254	0.81
951.682	-4.59
952.111	1.71
952.54	9.41
952.969	-4.49
953.397	-6.49
953.826	0.31
954.254	-9.69
954.683	5.91
955.112	-2.19
955.54	-1.29
955.969	5.51
956.397	-1.89
956.826	-3.09
957.254	2.11
957.682	3.01
958.111	2.71
958.539	-0.69
958.967	-4.29
959.396	-3.79
959.824	1.91
960.252	4.11
960.68	-8.09
961.109	1.31
961.537	0.01
961.965	-6.29
962.393	-1.39
962.821	-5.19
963.249	-2.29
963.677	-0.89
964.105	6.31
964.533	49.01
964.961	45.51
965.389	24.91
965.817	7.71
966.245	1.51
966.672	1.91
967.1	-7.39
967.528	1.81
967.956	-4.09
968.383	-2.39
968.811	-1.09
969.239	-4.09
969.666	-8.29
970.094	-1.39
970.522	1.31
970.949	-2.79
971.377	-3.49
971.804	-4.79
972.232	-2.19
972.659	-3.69
973.087	0.41
973.514	-2.29
973.941	-5.99
974.369	1.81
974.796	-2.59
975.223	-0.39
975.651	-2.69
976.078	3.11
976.505	2.21
976.932	7.31
977.359	12.31
977.786	15.11
978.214	-0.29
978.641	1.11
979.068	-1.39
979.495	-7.49
979.922	1.51
980.349	-8.49
980.776	2.91
981.202	6.31
981.629	4.51
982.056	5.81
982.483	-8.39
982.91	4.31
983.337	-3.79
983.763	3.61
984.19	-4.29
984.617	-1.79
985.043	-8.39
985.47	-2.09
985.897	3.11
986.323	-6.79
986.75	5.81
987.176	-0.79
987.603	3.61
988.029	0.91
988.456	1.51
988.882	-0.49
989.308	-3.89
989.735	-6.39
990.161	4.11
990.587	-1.79
991.014	0.41
991.44	6.71
991.866	-3.69
992.292	-5.99
992.719	-6.99
993.145	2.41
993.571	-6.49
993.997	-2.89
994.423	-5.99
994.849	-0.99
995.275	4.41
995.701	0.91
996.127	-4.39
996.553	-0.49
996.979	4.31
997.405	1.71
997.83	-7.49
998.256	-4.69
998.682	-6.09
999.108	-7.09
999.534	-1.29
999.959	-1.29
1000.385	-0.89
1000.811	2.61
1001.236	-10.69
1001.662	-4.19
1002.087	-6.19
1002.513	0.71
1002.938	2.21
1003.364	2.51
1003.789	-2.69
1004.215	-1.89
1004.64	-2.29
1005.066	1.51
1005.491	-0.39
1005.916	-2.89
1006.342	-3.99
1006.767	-2.39
1007.192	5.41
1007.617	-8.39
1008.042	-1.39
1008.468	-7.29
1008.893	-1.69
1009.318	-3.39
1009.743	-1.99
1010.168	3.11
1010.593	0.31
1011.018	-11.39
1011.443	-3.39
1011.868	2.11
1012.293	-4.59
1012.718	-7.39
1013.143	-2.49
1013.567	-2.09
1013.992	-2.79
1014.417	-9.19
1014.842	-0.99
1015.267	-3.29
1015.691	-0.09
1016.116	5.11
1016.541	-3.19
1016.965	3.11
1017.39	1.41
1017.814	-3.19
1018.239	0.81
1018.663	-4.69
1019.088	-14.39
1019.512	-6.29
1019.937	-3.59
1020.361	-2.09
1020.785	-12.09
1021.21	-2.29
1021.634	-2.19
1022.058	2.11
1022.483	2.41
1022.907	-6.69
1023.331	-0.79
1023.755	-4.29
1024.179	-3.69
1024.604	-8.09
1025.028	-8.29
1025.452	-2.89
1025.876	-1.79
1026.3	5.51
1026.724	-7.49
1027.148	-2.69
1027.572	-6.09
1027.996	-7.69
1028.42	-1.19
1028.843	-7.59
1029.267	-5.79
1029.691	3.81
1030.115	-6.69
1030.539	-11.09
1030.962	-10.09
1031.386	-8.79
1031.81	1.11
1032.233	-3.29
1032.657	0.81
1033.08	-4.59
1033.504	-8.79
1033.927	-3.49
1034.351	-4.59
1034.774	-4.49
1035.198	-4.69
1035.621	-2.69
1036.045	-5.79
1036.468	0.91
1036.891	-5.29
1037.315	-9.09
1037.738	-11.79
1038.161	0.91
1038.584	-3.89
1039.008	-3.79
1039.431	-0.49
1039.854	-1.49
1040.277	-10.89
1040.7	-10.19
1041.123	-5.09
1041.546	-5.49
1041.969	-2.89
1042.392	-7.99
1042.815	5.01
1043.238	4.31
1043.661	0.51
1044.084	-5.59
1044.507	-2.19
1044.93	-8.19
1045.352	-5.19
1045.775	-5.79
1046.198	-3.69
1046.621	1.11
1047.043	1.71
1047.466	7.01
1047.889	-4.59
1048.311	-5.09
1048.734	3.61
1049.156	-3.09
1049.579	-1.89
1050.001	-1.09
1050.424	1.61
1050.846	-6.69
1051.269	-7.09
1051.691	-1.99
1052.113	-4.29
1052.536	-6.59
1052.958	-8.29
1053.38	-5.19
1053.802	-13.49
1054.225	0.71
1054.647	-8.69
1055.069	-8.99
1055.491	-0.99
1055.913	-4.69
1056.335	-1.99
1056.757	0.81
1057.179	-7.79
1057.601	-5.39
1058.023	-1.79
1058.445	-3.09
1058.867	-2.69
1059.289	-1.59
1059.711	-7.49
1060.133	0.41
1060.555	-0.59
1060.976	-5.19
1061.398	-4.79
1061.82	-9.19
1062.241	-8.49
1062.663	-7.29
1063.085	-12.09
1063.506	1.61
1063.928	-1.59
1064.35	-2.29
1064.771	-10.09
1065.193	-6.89
1065.614	-13.69
1066.035	-6.89
1066.457	-1.69
1066.878	0.31
1067.3	-12.49
1067.721	-7.79
1068.142	-4.99
1068.564	-2.79
1068.985	-11.09
1069.406	-6.29
1069.827	-6.59
1070.248	-0.89
1070.67	-9.29
1071.091	-5.89
1071.512	-0.19
1071.933	-6.89
1072.354	-15.79
1072.775	-5.09
1073.196	-5.59
1073.617	-5.99
1074.038	-5.69
1074.459	-3.69
1074.88	-9.19
1075.3	1.61
1075.721	-8.69
1076.142	4.21
1076.563	-1.79
1076.983	-12.09
1077.404	-2.39
1077.825	-15.79
1078.246	-7.89
1078.666	-13.39
1079.087	-7.79
1079.507	-7.09
1079.928	-1.09
1080.348	-3.09
1080.769	-6.39
1081.189	-3.89
1081.61	-3.99
1082.03	-4.09
1082.451	-7.49
1082.871	-7.29
1083.291	-8.69
1083.711	-18.39
1084.132	-3.79
1084.552	-2.59
1084.972	-0.79
1085.392	-12.29
1085.813	-4.79
1086.233	-5.79
1086.653	-6.19
1087.073	-1.79
1087.493	-10.19
1087.913	-5.89
1088.333	-8.69
1088.753	-4.99
1089.173	-0.79
1089.593	-2.99
1090.013	-0.59
1090.433	2.81
1090.852	1.11
1091.272	-1.19
1091.692	0.71
1092.112	-10.09
1092.531	-8.39
1092.951	-13.79
1093.371	-2.39
1093.79	4.31
1094.21	-3.49
1094.63	-4.29
1095.049	-6.39
1095.469	-6.59
1095.888	0.21
1096.308	-0.69
1096.727	-0.09
1097.146	-0.59
1097.566	1.01
1097.985	-8.09
1098.405	-0.79
1098.824	-8.29
1099.243	-2.39
1099.662	-15.69
1100.082	-8.69
1100.501	-2.29
1100.92	-4.79
1101.339	-5.29
1101.758	-4.69
