Data from 20171114-ORNL-Ar_H_NY_Subt18_08-07-10-143.txt Node
Date: Tue Nov 14 08:07:10 EST 2017
User: Ender
Spectrometer: HR+D1039
Trigger mode: 0
Integration Time (sec): 2.730000E-2
Scans to average: 10
Electric dark correction enabled: true
Nonlinearity correction enabled: false
Boxcar width: 0
XAxis mode: Wavelengths
Number of Pixels in Spectrum: 2048
>>>>>Begin Spectral Data<<<<<
187.836	-5.14
188.309	-5.14
188.782	-5.14
189.255	4.16
189.728	-2.04
190.201	5.56
190.674	3.26
191.147	1.06
191.619	-5.04
192.092	1.86
192.565	2.26
193.038	-1.44
193.511	3.06
193.984	-4.04
194.456	-0.04
194.929	-1.64
195.402	-3.44
195.874	1.56
196.347	0.06
196.82	-5.34
197.292	1.46
197.765	-4.34
198.237	-5.14
198.71	0.96
199.182	5.06
199.655	4.96
200.127	5.36
200.6	-2.24
201.072	0.66
201.544	-4.94
202.017	-5.34
202.489	-1.14
202.961	-4.14
203.433	-5.14
203.906	-5.14
204.378	-5.84
204.85	-7.14
205.322	-9.04
205.794	6.06
206.266	-2.24
206.739	-5.24
207.211	4.46
207.683	-15.94
208.155	-3.54
208.627	-6.24
209.099	-3.34
209.57	-7.04
210.042	-2.34
210.514	-3.54
210.986	-1.84
211.458	-2.94
211.93	-0.54
212.402	4.16
212.873	-0.24
213.345	-4.94
213.817	-6.94
214.288	-1.84
214.76	-10.54
215.232	-2.84
215.703	-0.84
216.175	-6.64
216.646	-3.94
217.118	-5.54
217.589	-3.14
218.061	-0.64
218.532	-8.44
219.004	-8.44
219.475	-4.54
219.946	-5.04
220.418	-3.44
220.889	3.16
221.36	-3.44
221.832	-5.64
222.303	1.86
222.774	-1.34
223.245	-6.14
223.717	-8.34
224.188	-4.54
224.659	-6.44
225.13	-5.14
225.601	-4.94
226.072	-0.24
226.543	-2.64
227.014	-2.84
227.485	-1.84
227.956	-3.14
228.427	-3.94
228.898	-0.24
229.369	6.86
229.839	-6.84
230.31	-11.74
230.781	0.46
231.252	-6.14
231.722	-1.64
232.193	-6.84
232.664	-1.24
233.135	-4.24
233.605	-2.34
234.076	-9.44
234.546	-4.54
235.017	5.36
235.487	-2.04
235.958	-0.84
236.428	-3.44
236.899	-3.04
237.369	-0.54
237.84	-8.94
238.31	-1.04
238.78	-5.24
239.251	-3.14
239.721	-5.04
240.191	-4.14
240.662	-5.04
241.132	-2.84
241.602	0.06
242.072	-1.44
242.542	2.06
243.013	-1.54
243.483	-0.34
243.953	3.26
244.423	-0.14
244.893	-13.64
245.363	-0.04
245.833	0.56
246.303	-7.54
246.773	0.86
247.243	-3.64
247.712	0.86
248.182	2.86
248.652	0.16
249.122	-8.34
249.592	-2.04
250.061	3.86
250.531	9.76
251.001	-3.14
251.471	3.46
251.94	3.06
252.41	1.06
252.879	-3.64
253.349	11.76
253.818	-2.24
254.288	-0.14
254.757	-0.04
255.227	1.46
255.696	2.96
256.166	0.66
256.635	0.26
257.105	-0.14
257.574	-5.64
258.043	0.56
258.513	-5.94
258.982	0.86
259.451	-3.04
259.92	1.86
260.389	0.36
260.859	6.96
261.328	3.86
261.797	3.56
262.266	-2.84
262.735	4.16
263.204	2.96
263.673	1.96
264.142	4.36
264.611	-2.84
265.08	-4.54
265.549	0.06
266.018	6.66
266.487	-5.74
266.955	3.66
267.424	-1.54
267.893	1.96
268.362	1.66
268.83	1.46
269.299	3.86
269.768	4.56
270.236	1.86
270.705	2.86
271.174	-2.14
271.642	2.86
272.111	0.76
272.579	-0.94
273.048	-1.24
273.516	0.96
273.985	2.26
274.453	0.66
274.922	16.86
275.39	4.86
275.858	-0.64
276.327	8.56
276.795	10.46
277.263	-1.74
277.731	15.06
278.2	3.36
278.668	5.06
279.136	11.06
279.604	-1.44
280.072	6.86
280.54	8.16
281.008	4.36
281.477	7.86
281.945	11.56
282.413	9.16
282.881	16.86
283.348	8.06
283.816	3.46
284.284	11.26
284.752	12.66
285.22	9.96
285.688	9.46
286.156	6.96
286.623	16.36
287.091	8.36
287.559	7.26
288.026	13.16
288.494	11.06
288.962	1.96
289.429	3.96
289.897	10.86
290.364	8.86
290.832	10.16
291.3	11.06
291.767	12.56
292.234	14.66
292.702	10.36
293.169	9.16
293.637	12.96
294.104	12.76
294.571	8.46
295.039	9.16
295.506	10.76
295.973	11.46
296.44	6.86
296.908	12.66
297.375	11.96
297.842	12.26
298.309	14.06
298.776	9.36
299.243	17.96
299.71	4.56
300.177	10.86
300.644	18.26
301.111	15.26
301.578	12.36
302.045	15.46
302.512	15.66
302.979	27.36
303.446	19.36
303.913	17.06
304.379	13.46
304.846	23.76
305.313	17.36
305.78	17.66
306.246	16.46
306.713	18.06
307.18	18.86
307.646	22.16
308.113	26.96
308.579	14.36
309.046	19.56
309.512	18.76
309.979	14.76
310.445	24.26
310.912	21.16
311.378	29.66
311.845	22.46
312.311	25.36
312.777	24.56
313.244	27.06
313.71	30.66
314.176	27.06
314.642	21.66
315.109	23.16
315.575	27.96
316.041	34.46
316.507	22.56
316.973	32.16
317.439	24.66
317.905	32.26
318.371	31.06
318.837	29.56
319.303	26.56
319.769	28.66
320.235	22.56
320.701	25.06
321.167	33.96
321.633	27.66
322.099	31.66
322.564	33.76
323.03	30.36
323.496	28.26
323.962	30.06
324.427	26.96
324.893	36.06
325.359	29.56
325.824	29.56
326.29	32.76
326.755	32.56
327.221	35.76
327.686	31.86
328.152	39.26
328.617	35.96
329.083	41.66
329.548	43.66
330.014	44.36
330.479	34.46
330.944	38.86
331.41	36.86
331.875	39.76
332.34	41.16
332.805	32.56
333.271	38.96
333.736	29.76
334.201	45.66
334.666	43.96
335.131	43.06
335.596	38.76
336.061	39.46
336.526	32.86
336.991	47.76
337.456	49.66
337.921	38.76
338.386	37.76
338.851	42.06
339.316	42.16
339.781	39.76
340.246	40.96
340.711	40.16
341.175	38.36
341.64	38.76
342.105	45.26
342.569	51.36
343.034	47.06
343.499	47.86
343.963	49.16
344.428	52.36
344.893	52.96
345.357	51.26
345.822	59.06
346.286	57.56
346.751	64.26
347.215	58.36
347.679	64.06
348.144	78.96
348.608	68.56
349.073	65.66
349.537	68.36
350.001	70.36
350.465	76.36
350.93	72.66
351.394	74.36
351.858	66.96
352.322	77.36
352.786	72.86
353.25	85.76
353.715	89.76
354.179	83.86
354.643	98.76
355.107	106.16
355.571	87.76
356.035	88.56
356.498	99.16
356.962	92.36
357.426	106.46
357.89	98.96
358.354	79.36
358.818	70.96
359.281	69.96
359.745	69.26
360.209	65.96
360.673	66.16
361.136	74.26
361.6	79.06
362.064	75.56
362.527	74.96
362.991	79.86
363.454	75.06
363.918	68.86
364.381	73.56
364.845	80.16
365.308	80.86
365.772	88.36
366.235	87.56
366.698	78.86
367.162	77.66
367.625	82.16
368.088	83.86
368.552	75.86
369.015	81.26
369.478	86.36
369.941	90.76
370.404	83.06
370.867	88.56
371.331	97.06
371.794	103.96
372.257	86.76
372.72	96.36
373.183	96.06
373.646	91.36
374.109	92.96
374.572	94.46
375.035	92.86
375.497	100.56
375.96	96.96
376.423	102.86
376.886	101.46
377.349	102.76
377.811	93.16
378.274	93.46
378.737	96.76
379.199	99.56
379.662	98.26
380.125	105.56
380.587	104.26
381.05	102.36
381.512	102.36
381.975	122.16
382.437	118.96
382.9	110.66
383.362	118.56
383.825	115.66
384.287	119.26
384.75	112.36
385.212	122.86
385.674	125.76
386.136	122.76
386.599	114.96
387.061	122.76
387.523	117.66
387.985	115.66
388.447	129.96
388.91	121.16
389.372	124.76
389.834	123.36
390.296	121.36
390.758	129.36
391.22	132.96
391.682	145.86
392.144	144.66
392.606	138.86
393.068	137.86
393.529	150.76
393.991	132.66
394.453	127.86
394.915	128.96
395.377	128.66
395.838	128.26
396.3	130.26
396.762	145.46
397.224	134.46
397.685	123.76
398.147	131.56
398.608	134.26
399.07	133.86
399.531	139.16
399.993	140.56
400.454	148.66
400.916	140.06
401.377	141.66
401.839	150.66
402.3	155.96
402.762	165.06
403.223	175.96
403.684	168.06
404.145	160.86
404.607	159.76
405.068	155.46
405.529	166.66
405.99	179.86
406.451	168.76
406.913	171.06
407.374	168.16
407.835	162.66
408.296	166.56
408.757	166.26
409.218	176.06
409.679	177.16
410.14	179.06
410.601	182.26
411.062	183.56
411.522	178.36
411.983	180.76
412.444	179.36
412.905	180.86
413.366	188.26
413.826	205.36
414.287	224.36
414.748	262.26
415.208	256.76
415.669	221.66
416.13	210.46
416.59	207.46
417.051	224.96
417.511	221.06
417.972	243.06
418.432	258.36
418.893	298.96
419.353	255.86
419.814	207.36
420.274	188.46
420.734	191.06
421.195	199.86
421.655	192.56
422.115	206.96
422.576	198.56
423.036	208.96
423.496	215.06
423.956	220.46
424.416	240.06
424.876	278.06
425.336	265.66
425.797	266.06
426.257	265.66
426.717	241.36
427.177	232.46
427.637	223.76
428.097	237.16
428.556	249.46
429.016	267.06
429.476	263.26
429.936	276.36
430.396	281.76
430.856	294.16
431.315	307.46
431.775	346.96
432.235	375.46
432.694	352.86
433.154	361.26
433.614	382.46
434.073	329.36
434.533	285.56
434.993	274.36
435.452	287.46
435.912	294.36
436.371	284.86
436.83	280.56
437.29	266.86
437.749	251.56
438.209	249.36
438.668	283.46
439.127	286.26
439.587	269.96
440.046	254.96
440.505	269.46
440.964	279.56
441.424	322.06
441.883	315.56
442.342	267.16
442.801	236.76
443.26	238.26
443.719	233.36
444.178	231.66
444.637	222.86
445.096	230.66
445.555	236.16
446.014	242.16
446.473	235.26
446.932	247.66
447.391	240.16
447.849	244.06
448.308	233.96
448.767	243.46
449.226	250.96
449.685	252.96
450.143	267.36
450.602	247.56
451.061	244.76
451.519	244.36
451.978	247.76
452.436	245.36
452.895	248.56
453.353	267.96
453.812	247.46
454.27	258.06
454.729	256.26
455.187	252.36
455.646	255.86
456.104	260.86
456.562	273.16
457.021	279.76
457.479	269.56
457.937	281.46
458.395	275.46
458.854	262.96
459.312	268.96
459.77	291.46
460.228	266.86
460.686	262.56
461.144	268.56
461.602	263.46
462.06	258.76
462.518	272.06
462.976	271.46
463.434	276.36
463.892	283.06
464.35	296.16
464.808	306.56
465.266	288.46
465.724	281.96
466.181	291.66
466.639	292.66
467.097	310.16
467.555	312.26
468.012	317.16
468.47	320.56
468.928	350.76
469.385	357.66
469.843	359.26
470.3	370.66
470.758	387.46
471.215	402.86
471.673	429.06
472.13	430.06
472.588	438.16
473.045	404.76
473.503	408.16
473.96	414.36
474.417	429.46
474.875	462.76
475.332	501.06
475.789	480.16
476.246	487.16
476.704	504.56
477.161	534.16
477.618	549.46
478.075	579.36
478.532	630.36
478.989	702.66
479.446	810.46
479.903	773.26
480.36	817.06
480.817	865.46
481.274	952.46
481.731	1038.96
482.188	1129.86
482.645	1256.96
483.102	1335.86
483.558	1457.06
484.015	1487.66
484.472	1467.76
484.929	1425.56
485.385	1386.06
485.842	1358.46
486.299	1315.66
486.755	1273.16
487.212	1089.26
487.668	930.66
488.125	860.76
488.582	798.66
489.038	765.26
489.494	726.36
489.951	702.86
490.407	690.46
490.864	671.76
491.32	678.26
491.776	668.46
492.233	678.36
492.689	642.36
493.145	633.96
493.602	628.26
494.058	645.46
494.514	638.96
494.97	657.76
495.426	675.76
495.882	649.76
496.338	644.96
496.794	646.86
497.251	647.26
497.707	660.36
498.163	659.56
498.618	665.46
499.074	674.56
499.53	694.96
499.986	699.56
500.442	673.16
500.898	662.56
501.354	649.16
501.809	654.66
502.265	655.76
502.721	660.56
503.177	670.36
503.632	673.76
504.088	668.26
504.543	701.46
504.999	722.06
505.455	692.46
505.91	675.06
506.366	684.86
506.821	665.86
507.277	663.66
507.732	669.46
508.187	668.76
508.643	682.06
509.098	673.06
509.553	692.56
510.009	714.76
510.464	707.96
510.919	724.46
511.375	728.36
511.83	746.96
512.285	768.36
512.74	794.36
513.195	817.26
513.65	813.66
514.105	803.86
514.56	811.26
515.015	830.36
515.47	832.06
515.925	819.56
516.38	823.46
516.835	824.16
517.29	817.66
517.745	817.46
518.2	803.96
518.655	790.26
519.109	785.66
519.564	773.96
520.019	759.46
520.474	763.26
520.928	762.06
521.383	756.16
521.838	749.96
522.292	753.56
522.747	752.96
523.201	743.26
523.656	737.06
524.11	725.46
524.565	735.06
525.019	736.26
525.474	739.06
525.928	726.16
526.382	732.56
526.837	737.76
527.291	746.16
527.745	739.66
528.2	734.46
528.654	721.66
529.108	730.46
529.562	730.06
530.016	726.26
530.47	722.86
530.925	727.26
531.379	729.56
531.833	746.16
532.287	738.76
532.741	735.06
533.195	733.16
533.649	742.66
534.103	750.16
534.556	738.36
535.01	745.06
535.464	739.96
535.918	751.86
536.372	752.36
536.826	754.46
537.279	741.46
537.733	753.46
538.187	746.96
538.64	742.56
539.094	759.96
539.548	761.16
540.001	766.46
540.455	763.76
540.908	770.56
541.362	770.76
541.815	789.76
542.269	801.36
542.722	798.26
543.175	810.96
543.629	813.76
544.082	830.16
544.536	827.76
544.989	831.86
545.442	838.86
545.895	832.66
546.349	834.56
546.802	852.06
547.255	844.26
547.708	848.76
548.161	862.16
548.614	871.26
549.067	873.86
549.52	862.66
549.973	866.46
550.426	845.86
550.879	839.26
551.332	837.06
551.785	853.26
552.238	852.66
552.691	858.06
553.144	873.86
553.596	894.36
554.049	913.56
554.502	940.66
554.955	955.26
555.407	952.96
555.86	943.46
556.313	935.26
556.765	938.96
557.218	926.06
557.67	923.36
558.123	911.16
558.576	915.86
559.028	922.66
559.48	934.16
559.933	919.46
560.385	883.96
560.838	858.16
561.29	818.76
561.742	826.96
562.195	815.66
562.647	812.66
563.099	815.86
563.551	816.76
564.004	824.56
564.456	808.06
564.908	797.76
565.36	776.96
565.812	761.56
566.264	760.46
566.716	762.66
567.168	737.36
567.62	744.46
568.072	725.76
568.524	729.46
568.976	724.46
569.428	711.96
569.88	722.56
570.332	723.56
570.784	720.86
571.235	718.36
571.687	726.16
572.139	746.16
572.59	749.06
573.042	746.96
573.494	736.46
573.945	746.96
574.397	718.76
574.849	720.66
575.3	716.86
575.752	714.76
576.203	712.46
576.655	721.96
577.106	712.16
577.557	691.76
578.009	709.76
578.46	701.16
578.912	688.46
579.363	699.56
579.814	703.26
580.265	695.86
580.717	708.66
581.168	699.76
581.619	710.46
582.07	712.86
582.521	710.26
582.972	693.66
583.423	704.86
583.875	703.56
584.326	705.46
584.777	731.56
585.227	742.66
585.678	756.96
586.129	771.56
586.58	783.86
587.031	809.36
587.482	837.36
587.933	851.46
588.384	837.66
588.834	813.36
589.285	813.36
589.736	804.96
590.186	808.46
590.637	806.56
591.088	784.16
591.538	772.46
591.989	765.86
592.439	749.16
592.89	751.16
593.34	743.06
593.791	732.46
594.241	721.06
594.692	724.46
595.142	729.46
595.593	719.76
596.043	733.76
596.493	737.16
596.943	733.86
597.394	746.46
597.844	750.06
598.294	763.96
598.744	790.16
599.195	826.06
599.645	853.56
600.095	900.96
600.545	962.46
600.995	1013.86
601.445	1076.86
601.895	1138.76
602.345	1184.06
602.795	1165.66
603.245	1123.56
603.695	1053.26
604.145	1007.96
604.594	959.76
605.044	900.26
605.494	841.96
605.944	787.56
606.393	773.26
606.843	762.06
607.293	755.56
607.743	764.26
608.192	773.26
608.642	778.26
609.091	793.06
609.541	789.06
609.99	783.46
610.44	789.06
610.889	748.26
611.339	720.66
611.788	702.16
612.238	714.66
612.687	730.76
613.136	723.26
613.586	735.06
614.035	723.26
614.484	738.56
614.933	747.66
615.383	731.96
615.832	733.66
616.281	728.56
616.73	695.66
617.179	685.76
617.628	665.86
618.077	656.76
618.526	641.96
618.975	642.26
619.424	639.56
619.873	636.96
620.322	645.86
620.771	625.16
621.22	627.36
621.669	610.96
622.118	598.66
622.567	600.06
623.015	599.16
623.464	582.56
623.913	589.76
624.361	570.46
624.81	573.86
625.259	570.46
625.707	581.56
626.156	586.16
626.604	590.26
627.053	580.56
627.501	584.36
627.95	592.66
628.398	602.26
628.847	600.16
629.295	592.36
629.744	597.66
630.192	586.36
630.64	577.26
631.089	570.16
631.537	556.96
631.985	542.36
632.433	543.56
632.881	548.16
633.33	545.46
633.778	542.36
634.226	537.16
634.674	554.86
635.122	559.16
635.57	569.26
636.018	573.86
636.466	583.06
636.914	574.56
637.362	592.86
637.81	595.46
638.258	606.46
638.705	608.76
639.153	632.06
639.601	644.76
640.049	654.46
640.497	697.16
640.944	720.06
641.392	669.66
641.84	638.96
642.287	610.16
642.735	589.86
643.182	585.96
643.63	583.06
644.078	582.16
644.525	587.16
644.973	594.16
645.42	601.86
645.867	627.76
646.315	647.26
646.762	668.26
647.21	693.26
647.657	721.16
648.104	758.06
648.551	777.06
648.999	830.96
649.446	908.76
649.893	994.56
650.34	1139.16
650.787	1350.36
651.234	1651.06
651.682	2117.46
652.129	2891.46
652.576	4081.96
653.023	5963.06
653.47	8057.76
653.917	10004.16
654.363	11506.46
654.81	12736.06
655.257	12026.36
655.704	8013.16
656.151	4813.86
656.598	3161.66
657.044	2274.16
657.491	1764.16
657.938	1423.46
658.385	1207.86
658.831	1049.76
659.278	939.46
659.724	849.96
660.171	777.56
660.618	716.56
661.064	681.66
661.511	664.16
661.957	656.06
662.404	650.06
662.85	654.56
663.296	628.66
663.743	565.46
664.189	551.66
664.635	551.86
665.082	539.56
665.528	539.36
665.974	531.86
666.42	518.86
666.867	522.26
667.313	497.06
667.759	480.46
668.205	467.86
668.651	471.36
669.097	460.96
669.543	454.86
669.989	458.96
670.435	460.96
670.881	458.36
671.327	462.66
671.773	483.86
672.219	510.26
672.665	569.66
673.11	618.86
673.556	662.66
674.002	693.56
674.448	678.26
674.893	574.26
675.339	497.26
675.785	453.66
676.23	433.36
676.676	410.56
677.122	390.66
677.567	388.06
678.013	382.36
678.458	379.56
678.904	379.16
679.349	365.96
679.794	367.76
680.24	367.86
680.685	365.66
681.131	362.56
681.576	366.06
682.021	367.16
682.466	356.26
682.912	368.76
683.357	370.46
683.802	396.56
684.247	424.36
684.692	482.16
685.137	511.26
685.583	551.46
686.028	589.66
686.473	544.66
686.918	467.36
687.363	430.86
687.807	413.46
688.252	383.66
688.697	374.36
689.142	355.16
689.587	343.06
690.032	344.36
690.477	365.46
690.921	365.36
691.366	394.66
691.811	413.96
692.255	446.66
692.7	476.16
693.145	527.46
693.589	728.26
694.034	1188.46
694.478	1618.06
694.923	1816.06
695.367	2354.46
695.812	1250.86
696.256	512.86
696.701	390.56
697.145	363.26
697.59	340.96
698.034	328.76
698.478	342.36
698.922	332.36
699.367	331.56
699.811	349.26
700.255	364.26
700.699	393.46
701.143	437.56
701.588	486.46
702.032	535.06
702.476	534.36
702.92	519.16
703.364	516.56
703.808	664.86
704.252	1085.36
704.696	1525.76
705.14	1766.06
705.584	2229.06
706.027	1114.26
706.471	540.06
706.915	411.26
707.359	372.36
707.803	332.86
708.246	319.46
708.69	326.06
709.134	326.26
709.577	315.86
710.021	328.86
710.465	321.16
710.908	313.36
711.352	314.56
711.795	329.86
712.239	367.46
712.682	407.66
713.126	426.26
713.569	472.96
714.012	370.16
714.456	309.26
714.899	300.76
715.342	287.06
715.786	269.76
716.229	267.06
716.672	269.86
717.115	255.86
717.558	258.06
718.002	262.56
718.445	274.46
718.888	292.96
719.331	297.96
719.774	312.76
720.217	320.96
720.66	298.36
721.103	285.96
721.546	261.56
721.989	266.36
722.432	245.16
722.874	246.06
723.317	233.86
723.76	242.06
724.203	264.86
724.645	325.86
725.088	471.46
725.531	592.66
725.974	665.56
726.416	575.56
726.859	321.96
727.301	258.66
727.744	251.46
728.187	244.06
728.629	253.96
729.071	249.26
729.514	268.46
729.956	286.66
730.399	291.16
730.841	297.06
731.283	284.56
731.726	276.26
732.168	268.46
732.61	281.56
733.053	299.86
733.495	322.36
733.937	363.16
734.379	420.46
734.821	448.56
735.263	579.96
735.705	883.56
736.148	1665.76
736.59	2734.26
737.032	3191.26
737.474	2601.46
737.916	849.46
738.357	447.66
738.799	340.86
739.241	314.96
739.683	300.76
740.125	304.26
740.567	316.06
741.008	329.66
741.45	335.06
741.892	330.86
742.334	363.66
742.775	380.26
743.217	357.76
743.658	283.26
744.1	271.36
744.542	271.46
744.983	327.26
745.425	369.16
745.866	356.36
746.307	288.66
746.749	289.16
747.19	340.86
747.632	480.06
748.073	940.66
748.514	1983.16
748.956	2986.56
749.397	3751.46
749.838	3138.96
750.279	3109.06
750.72	1570.76
751.162	575.86
751.603	344.36
752.044	262.46
752.485	229.56
752.926	221.66
753.367	212.56
753.808	202.96
754.249	199.26
754.69	195.66
755.131	198.36
755.572	188.66
756.013	190.26
756.453	190.46
756.894	192.66
757.335	196.96
757.776	204.86
758.216	206.26
758.657	209.46
759.098	208.66
759.538	230.96
759.979	274.56
760.42	396.46
760.86	743.76
761.301	1947.66
761.741	4705.66
762.182	6743.06
762.622	4769.76
763.063	1377.96
763.503	566.66
763.943	347.16
764.384	276.36
764.824	249.26
765.264	232.46
765.705	212.36
766.145	189.86
766.585	177.56
767.025	175.26
767.465	161.26
767.906	180.76
768.346	190.56
768.786	208.36
769.226	221.96
769.666	325.86
770.106	655.66
770.546	1648.66
770.986	2776.66
771.426	2482.96
771.866	820.96
772.306	351.66
772.745	212.76
773.185	180.96
773.625	169.96
774.065	156.06
774.505	167.66
774.944	218.06
775.384	380.36
775.824	608.96
776.263	586.66
776.703	282.26
777.142	161.16
777.582	136.46
778.021	124.66
778.461	128.56
778.9	130.76
779.34	132.26
779.779	120.46
780.219	109.36
780.658	113.26
781.097	117.16
781.537	116.36
781.976	107.46
782.415	110.46
782.855	111.86
783.294	113.16
783.733	112.76
784.172	109.66
784.611	107.56
785.05	110.16
785.489	114.06
785.928	124.36
786.367	127.36
786.806	118.46
787.245	130.26
787.684	145.06
788.123	148.46
788.562	141.76
789.001	131.46
789.44	127.56
789.879	124.16
790.317	125.16
790.756	128.06
791.195	127.76
791.634	152.66
792.072	210.26
792.511	386.06
792.95	1054.16
793.388	2220.76
793.827	1996.36
794.265	706.16
794.704	291.26
795.142	191.36
795.581	167.16
796.019	144.86
796.458	131.16
796.896	130.86
797.334	140.16
797.773	159.76
798.211	234.66
798.649	464.56
799.087	1082.36
799.526	1673.56
799.964	2117.06
800.402	2104.16
800.84	793.16
801.278	322.96
801.716	204.86
802.154	158.06
802.592	155.26
803.03	146.06
803.468	143.16
803.906	146.06
804.344	151.76
804.782	141.36
805.22	142.26
805.658	136.56
806.096	152.26
806.533	156.96
806.971	182.96
807.409	228.06
807.847	337.06
808.284	709.86
808.722	1961.76
809.16	3471.26
809.597	3336.66
810.035	5735.46
810.472	6046.26
810.91	2202.46
811.347	840.86
811.785	427.66
812.222	276.06
812.66	204.66
813.097	173.96
813.535	152.76
813.972	134.06
814.409	120.56
814.846	114.56
815.284	109.76
815.721	104.16
816.158	110.16
816.595	115.46
817.032	160.06
817.47	198.06
817.907	147.36
818.344	105.66
818.781	105.06
819.218	100.76
819.655	130.46
820.092	200.46
820.529	227.06
820.966	180.36
821.403	134.46
821.839	108.06
822.276	103.46
822.713	127.76
823.15	142.16
823.587	127.76
824.023	158.96
824.46	327.16
824.897	950.26
825.333	1417.16
825.77	610.76
826.206	242.86
826.643	142.46
827.08	110.16
827.516	92.76
827.953	79.86
828.389	88.56
828.825	72.46
829.262	70.66
829.698	63.76
830.135	64.06
830.571	64.26
831.007	66.46
831.443	67.06
831.88	64.06
832.316	63.36
832.752	64.36
833.188	68.76
833.624	67.46
834.06	71.56
834.497	68.76
834.933	73.76
835.369	78.96
835.805	72.26
836.241	80.96
836.677	82.66
837.112	96.26
837.548	110.26
837.984	141.16
838.42	214.06
838.856	530.76
839.292	1599.06
839.727	2403.96
840.163	1137.26
840.599	990.66
841.034	2147.56
841.47	2217.06
841.906	821.66
842.341	351.96
842.777	204.36
843.212	207.16
843.648	196.66
844.083	117.56
844.519	92.46
844.954	74.16
845.39	59.16
845.825	62.36
846.261	61.36
846.696	54.06
847.131	57.36
847.566	64.46
848.002	58.16
848.437	58.56
848.872	64.66
849.307	71.76
849.742	90.46
850.177	188.76
850.613	595.86
851.048	928.16
851.483	400.06
851.918	159.56
852.353	90.96
852.788	58.06
853.223	57.46
853.657	57.76
854.092	47.66
854.527	47.86
854.962	47.86
855.397	50.66
855.832	52.76
856.266	45.46
856.701	42.06
857.136	37.56
857.57	40.76
858.005	59.06
858.44	66.46
858.874	46.36
859.309	53.16
859.743	41.46
860.178	53.36
860.612	46.26
861.047	55.26
861.481	77.96
861.915	82.16
862.35	51.96
862.784	33.36
863.218	45.06
863.653	33.66
864.087	50.96
864.521	57.76
864.955	71.16
865.39	160.56
865.824	181.76
866.258	125.06
866.692	180.66
867.126	194.26
867.56	111.66
867.994	58.26
868.428	38.86
868.862	48.46
869.296	62.16
869.73	64.56
870.164	57.66
870.598	55.06
871.031	46.86
871.465	41.06
871.899	31.96
872.333	25.26
872.766	32.86
873.2	18.26
873.634	26.06
874.067	23.66
874.501	26.56
874.935	38.36
875.368	26.26
875.802	28.36
876.235	30.16
876.669	29.86
877.102	23.46
877.535	23.76
877.969	21.66
878.402	18.36
878.836	20.56
879.269	22.96
879.702	29.86
880.135	20.56
880.569	22.76
881.002	21.56
881.435	23.46
881.868	20.66
882.301	23.46
882.734	14.16
883.167	24.56
883.601	21.26
884.034	28.06
884.467	16.96
884.899	20.76
885.332	22.26
885.765	16.26
886.198	20.96
886.631	19.16
887.064	15.46
887.497	18.56
887.929	25.06
888.362	17.36
888.795	10.66
889.228	15.46
889.66	24.36
890.093	15.26
890.526	14.76
890.958	18.96
891.391	14.46
891.823	16.76
892.256	14.16
892.688	9.76
893.121	17.26
893.553	15.26
893.985	20.26
894.418	15.86
894.85	12.36
895.282	17.66
895.715	17.56
896.147	22.16
896.579	11.56
897.011	13.16
897.444	20.86
897.876	18.56
898.308	23.16
898.74	12.06
899.172	12.66
899.604	21.96
900.036	18.26
900.468	18.06
900.9	14.56
901.332	22.76
901.764	20.36
902.196	21.56
902.628	20.16
903.06	14.16
903.491	27.06
903.923	27.56
904.355	20.76
904.787	25.56
905.218	28.36
905.65	22.06
906.082	16.36
906.513	18.66
906.945	19.36
907.376	14.96
907.808	24.46
908.239	21.76
908.671	25.56
909.102	21.96
909.534	20.36
909.965	54.06
910.397	92.06
910.828	328.46
911.259	492.46
911.691	226.86
912.122	118.26
912.553	60.66
912.984	36.76
913.415	26.06
913.847	29.46
914.278	16.46
914.709	11.86
915.14	18.36
915.571	16.86
916.002	10.76
916.433	17.76
916.864	22.26
917.295	12.16
917.726	22.46
918.157	20.16
918.587	32.16
919.018	27.76
919.449	25.26
919.88	28.36
920.311	30.26
920.741	52.96
921.172	178.86
921.603	152.36
922.033	73.36
922.464	46.56
922.895	19.96
923.325	15.66
923.756	13.66
924.186	12.46
924.617	20.76
925.047	23.96
925.478	23.26
925.908	20.66
926.338	12.06
926.769	10.76
927.199	16.36
927.629	4.96
928.06	14.76
928.49	15.36
928.92	15.56
929.35	14.36
929.78	12.16
930.21	11.06
930.641	5.46
931.071	7.96
931.501	3.76
931.931	11.86
932.361	6.96
932.791	9.06
933.221	3.66
933.651	3.26
934.08	15.16
934.51	28.56
934.94	9.16
935.37	10.86
935.8	11.76
936.229	6.86
936.659	6.66
937.089	4.96
937.519	19.36
937.948	23.26
938.378	17.66
938.807	9.76
939.237	3.66
939.666	10.16
940.096	-2.84
940.525	-3.44
940.955	-0.34
941.384	2.96
941.814	-4.64
942.243	-4.34
942.672	-0.54
943.102	0.66
943.531	-6.34
943.96	6.26
944.39	3.86
944.819	6.06
945.248	4.86
945.677	-0.74
946.106	9.96
946.535	9.26
946.964	-3.24
947.393	1.46
947.822	-2.44
948.251	-7.34
948.68	4.66
949.109	5.36
949.538	6.26
949.967	0.96
950.396	4.96
950.825	3.46
951.254	-2.14
951.682	-7.54
952.111	1.36
952.54	7.36
952.969	-4.14
953.397	-0.04
953.826	7.16
954.254	-3.94
954.683	5.66
955.112	-1.04
955.54	5.46
955.969	1.56
956.397	2.36
956.826	-6.84
957.254	3.96
957.682	3.26
958.111	3.46
958.539	-4.24
958.967	0.16
959.396	-1.14
959.824	1.66
960.252	8.66
960.68	-5.64
961.109	-1.84
961.537	-2.74
961.965	1.66
962.393	0.56
962.821	-2.64
963.249	4.56
963.677	4.46
964.105	8.46
964.533	45.56
964.961	41.46
965.389	26.86
965.817	10.46
966.245	2.16
966.672	-2.14
967.1	-9.94
967.528	-0.84
967.956	-3.34
968.383	2.86
968.811	-5.44
969.239	0.36
969.666	-2.64
970.094	2.26
970.522	1.36
970.949	1.36
971.377	-5.44
971.804	-2.14
972.232	0.16
972.659	1.36
973.087	-10.34
973.514	-4.74
973.941	-5.74
974.369	-1.34
974.796	2.66
975.223	-0.34
975.651	1.06
976.078	6.36
976.505	-1.04
976.932	3.26
977.359	15.26
977.786	21.26
978.214	6.26
978.641	-6.94
979.068	-1.54
979.495	0.86
979.922	-1.14
980.349	1.26
980.776	-4.14
981.202	-4.74
981.629	7.16
982.056	7.56
982.483	3.06
982.91	8.66
983.337	-4.34
983.763	4.56
984.19	-4.24
984.617	-5.44
985.043	-5.14
985.47	2.86
985.897	-10.44
986.323	-10.94
986.75	3.26
987.176	4.86
987.603	-0.04
988.029	-2.74
988.456	-2.04
988.882	4.56
989.308	0.16
989.735	-1.24
990.161	0.26
990.587	-2.94
991.014	-0.44
991.44	4.76
991.866	0.56
992.292	-11.04
992.719	4.66
993.145	6.06
993.571	-9.84
993.997	-4.04
994.423	-4.44
994.849	-5.04
995.275	6.66
995.701	4.56
996.127	-0.54
996.553	1.16
996.979	-0.44
997.405	-0.04
997.83	-6.04
998.256	-1.74
998.682	-7.44
999.108	-6.74
999.534	-2.64
999.959	-2.54
1000.385	1.76
1000.811	-4.04
1001.236	-7.34
1001.662	-2.24
1002.087	-6.34
1002.513	-0.24
1002.938	-1.04
1003.364	-3.04
1003.789	-0.24
1004.215	0.76
1004.64	0.16
1005.066	6.06
1005.491	-3.84
1005.916	-0.84
1006.342	-0.44
1006.767	-5.14
1007.192	7.96
1007.617	-2.34
1008.042	-1.14
1008.468	-3.24
1008.893	1.96
1009.318	1.76
1009.743	-2.94
1010.168	9.86
1010.593	4.46
1011.018	-10.34
1011.443	-0.74
1011.868	3.76
1012.293	-0.44
1012.718	-3.64
1013.143	1.96
1013.567	0.46
1013.992	-1.94
1014.417	-10.14
1014.842	-0.54
1015.267	-2.74
1015.691	-0.64
1016.116	2.76
1016.541	3.66
1016.965	5.16
1017.39	3.36
1017.814	0.06
1018.239	-4.34
1018.663	-6.24
1019.088	-12.64
1019.512	-0.14
1019.937	2.86
1020.361	-1.04
1020.785	-10.14
1021.21	-5.94
1021.634	-4.84
1022.058	2.06
1022.483	-1.34
1022.907	-1.84
1023.331	-5.74
1023.755	-2.84
1024.179	-4.84
1024.604	-9.84
1025.028	-9.44
1025.452	-6.54
1025.876	-4.64
1026.3	-2.64
1026.724	-12.24
1027.148	-3.74
1027.572	-6.54
1027.996	-2.64
1028.42	-0.54
1028.843	-4.54
1029.267	-8.54
1029.691	-2.34
1030.115	-1.04
1030.539	-9.64
1030.962	-6.34
1031.386	-7.94
1031.81	1.36
1032.233	1.06
1032.657	-7.54
1033.08	5.46
1033.504	0.76
1033.927	-9.24
1034.351	1.46
1034.774	-0.04
1035.198	-3.34
1035.621	-6.64
1036.045	-8.44
1036.468	0.76
1036.891	-8.14
1037.315	-11.14
1037.738	-10.44
1038.161	6.16
1038.584	-5.14
1039.008	-5.24
1039.431	3.86
1039.854	-0.94
1040.277	-5.94
1040.7	-6.44
1041.123	1.46
1041.546	-3.74
1041.969	-3.84
1042.392	-5.34
1042.815	-2.44
1043.238	-3.24
1043.661	-2.04
1044.084	-2.64
1044.507	-3.54
1044.93	-6.34
1045.352	-6.14
1045.775	-1.74
1046.198	-0.64
1046.621	-0.44
1047.043	1.26
1047.466	7.46
1047.889	-6.94
1048.311	-6.84
1048.734	-4.64
1049.156	-2.94
1049.579	-6.54
1050.001	-2.24
1050.424	-5.04
1050.846	-2.94
1051.269	-2.34
1051.691	-7.64
1052.113	-4.84
1052.536	-3.94
1052.958	-2.54
1053.38	-3.44
1053.802	-8.64
1054.225	4.26
1054.647	-12.64
1055.069	-5.94
1055.491	2.46
1055.913	-9.84
1056.335	-2.44
1056.757	-5.04
1057.179	-9.04
1057.601	-5.24
1058.023	-2.54
1058.445	-6.74
1058.867	-5.64
1059.289	-1.34
1059.711	-8.84
1060.133	-5.84
1060.555	-7.54
1060.976	-4.14
1061.398	-2.54
1061.82	-3.44
1062.241	-1.04
1062.663	-11.64
1063.085	-3.64
1063.506	0.56
1063.928	-2.24
1064.35	-0.24
1064.771	-9.74
1065.193	-3.84
1065.614	-14.14
1066.035	-2.64
1066.457	-2.74
1066.878	-0.74
1067.3	-9.74
1067.721	-7.24
1068.142	-6.64
1068.564	-1.94
1068.985	-6.84
1069.406	-2.44
1069.827	-7.54
1070.248	1.16
1070.67	-3.54
1071.091	-10.14
1071.512	-6.14
1071.933	-8.84
1072.354	-4.54
1072.775	-5.54
1073.196	-7.54
1073.617	-1.84
1074.038	-3.04
1074.459	-1.54
1074.88	-8.34
1075.3	2.96
1075.721	-6.14
1076.142	4.66
1076.563	-3.54
1076.983	-7.74
1077.404	-5.64
1077.825	-9.94
1078.246	-4.44
1078.666	-10.64
1079.087	-6.54
1079.507	-10.34
1079.928	0.46
1080.348	0.46
1080.769	1.16
1081.189	-0.74
1081.61	2.46
1082.03	-2.84
1082.451	-6.84
1082.871	-2.44
1083.291	-2.64
1083.711	-7.34
1084.132	-7.84
1084.552	-5.74
1084.972	0.46
1085.392	-11.04
1085.813	-3.64
1086.233	-8.04
1086.653	-5.44
1087.073	0.36
1087.493	-5.84
1087.913	-8.64
1088.333	-7.84
1088.753	-4.14
1089.173	-1.84
1089.593	-2.84
1090.013	-0.44
1090.433	-1.94
1090.852	-2.14
1091.272	-7.24
1091.692	-4.54
1092.112	-1.64
1092.531	-5.74
1092.951	-14.64
1093.371	-1.44
1093.79	-2.64
1094.21	-8.64
1094.63	-6.04
1095.049	-8.24
1095.469	-2.64
1095.888	-2.64
1096.308	-6.54
1096.727	-0.84
1097.146	-5.44
1097.566	-4.44
1097.985	-0.54
1098.405	2.46
1098.824	-10.64
1099.243	-1.04
1099.662	-5.54
1100.082	-4.34
1100.501	-2.54
1100.92	-4.94
1101.339	-2.54
1101.758	-3.44
