Data from 20171114-ORNL-Ar_H_NY_Subt18_08-08-38-314.txt Node
Date: Tue Nov 14 08:08:38 EST 2017
User: Ender
Spectrometer: HR+D1039
Trigger mode: 0
Integration Time (sec): 2.730000E-2
Scans to average: 10
Electric dark correction enabled: true
Nonlinearity correction enabled: false
Boxcar width: 0
XAxis mode: Wavelengths
Number of Pixels in Spectrum: 2048
>>>>>Begin Spectral Data<<<<<
187.836	-4.02
188.309	-4.02
188.782	-4.02
189.255	-1.32
189.728	-0.12
190.201	3.88
190.674	1.28
191.147	2.68
191.619	-8.92
192.092	0.18
192.565	2.98
193.038	-3.02
193.511	1.58
193.984	3.38
194.456	1.28
194.929	-0.72
195.402	-0.52
195.874	1.38
196.347	0.88
196.82	-8.62
197.292	4.18
197.765	2.58
198.237	-7.92
198.71	3.28
199.182	-2.92
199.655	0.18
200.127	2.58
200.6	-1.52
201.072	-1.52
201.544	-8.22
202.017	-0.12
202.489	6.68
202.961	-2.72
203.433	-2.12
203.906	-5.62
204.378	-6.62
204.85	-8.02
205.322	-5.52
205.794	-1.42
206.266	-0.72
206.739	-3.02
207.211	0.58
207.683	-4.62
208.155	-7.32
208.627	-2.92
209.099	-7.72
209.57	-7.52
210.042	-5.72
210.514	-4.72
210.986	0.78
211.458	-10.02
211.93	-0.72
212.402	5.78
212.873	-3.82
213.345	-11.12
213.817	-8.42
214.288	-5.92
214.76	-11.52
215.232	-2.92
215.703	0.58
216.175	-4.92
216.646	-9.82
217.118	-1.72
217.589	-6.92
218.061	0.28
218.532	-9.32
219.004	1.08
219.475	-6.12
219.946	-5.72
220.418	-5.62
220.889	1.28
221.36	-0.12
221.832	-3.82
222.303	3.68
222.774	5.48
223.245	-8.82
223.717	-4.52
224.188	-7.32
224.659	-15.62
225.13	-4.12
225.601	-2.12
226.072	2.58
226.543	-5.62
227.014	-1.62
227.485	0.18
227.956	-10.82
228.427	-0.42
228.898	2.98
229.369	3.08
229.839	-0.32
230.31	-6.22
230.781	0.68
231.252	-1.32
231.722	-6.62
232.193	-1.42
232.664	-6.12
233.135	-1.92
233.605	-3.02
234.076	-3.22
234.546	-5.72
235.017	4.18
235.487	-6.22
235.958	-1.72
236.428	-4.52
236.899	0.48
237.369	4.58
237.84	-6.82
238.31	3.08
238.78	-1.72
239.251	1.08
239.721	-0.92
240.191	-4.32
240.662	-7.12
241.132	-6.92
241.602	-5.12
242.072	-1.82
242.542	8.48
243.013	-2.82
243.483	2.98
243.953	2.78
244.423	-2.52
244.893	-4.32
245.363	7.98
245.833	2.58
246.303	1.18
246.773	8.88
247.243	-4.02
247.712	9.28
248.182	10.28
248.652	-1.02
249.122	-8.02
249.592	2.48
250.061	3.98
250.531	11.78
251.001	-0.12
251.471	0.98
251.94	4.58
252.41	1.28
252.879	-7.02
253.349	6.88
253.818	6.48
254.288	0.68
254.757	-2.12
255.227	-2.02
255.696	-1.42
256.166	1.78
256.635	3.28
257.105	1.88
257.574	3.48
258.043	0.58
258.513	-0.82
258.982	2.08
259.451	2.28
259.92	0.18
260.389	0.18
260.859	11.48
261.328	-1.22
261.797	3.18
262.266	2.98
262.735	9.88
263.204	6.58
263.673	0.38
264.142	1.78
264.611	-3.32
265.08	-2.92
265.549	5.48
266.018	-1.52
266.487	-5.62
266.955	-7.92
267.424	-4.92
267.893	0.98
268.362	1.68
268.83	3.68
269.299	6.78
269.768	8.18
270.236	2.48
270.705	2.58
271.174	3.08
271.642	0.38
272.111	5.08
272.579	9.58
273.048	5.48
273.516	9.08
273.985	4.48
274.453	9.38
274.922	8.38
275.39	7.38
275.858	-5.52
276.327	11.08
276.795	11.58
277.263	4.58
277.731	11.28
278.2	14.98
278.668	8.38
279.136	14.28
279.604	4.58
280.072	7.98
280.54	9.68
281.008	8.58
281.477	17.08
281.945	7.38
282.413	9.48
282.881	15.68
283.348	7.78
283.816	11.68
284.284	9.08
284.752	14.58
285.22	15.68
285.688	13.68
286.156	4.08
286.623	13.38
287.091	10.78
287.559	12.28
288.026	13.88
288.494	10.78
288.962	-1.72
289.429	12.28
289.897	14.78
290.364	12.88
290.832	16.08
291.3	7.88
291.767	13.78
292.234	10.28
292.702	10.28
293.169	12.18
293.637	20.18
294.104	16.58
294.571	8.98
295.039	11.68
295.506	10.48
295.973	18.28
296.44	8.88
296.908	13.98
297.375	7.98
297.842	14.78
298.309	14.48
298.776	3.78
299.243	12.88
299.71	7.28
300.177	18.38
300.644	15.18
301.111	20.48
301.578	25.28
302.045	17.18
302.512	21.08
302.979	19.58
303.446	20.68
303.913	17.48
304.379	21.38
304.846	25.98
305.313	24.98
305.78	17.38
306.246	18.08
306.713	23.58
307.18	15.58
307.646	20.28
308.113	19.88
308.579	19.88
309.046	25.18
309.512	21.08
309.979	19.88
310.445	23.88
310.912	25.48
311.378	26.08
311.845	29.18
312.311	28.78
312.777	23.08
313.244	29.88
313.71	27.08
314.176	25.88
314.642	25.58
315.109	18.08
315.575	27.68
316.041	35.88
316.507	21.78
316.973	29.98
317.439	26.58
317.905	30.88
318.371	29.58
318.837	30.58
319.303	35.88
319.769	29.48
320.235	30.18
320.701	25.08
321.167	28.78
321.633	28.68
322.099	27.18
322.564	32.78
323.03	37.08
323.496	35.18
323.962	42.38
324.427	32.58
324.893	37.28
325.359	32.38
325.824	32.28
326.29	31.88
326.755	33.38
327.221	38.78
327.686	31.28
328.152	44.38
328.617	35.58
329.083	41.78
329.548	42.38
330.014	41.68
330.479	37.18
330.944	41.98
331.41	40.88
331.875	38.78
332.34	33.88
332.805	35.58
333.271	40.78
333.736	39.48
334.201	46.98
334.666	48.48
335.131	52.18
335.596	46.88
336.061	42.98
336.526	30.88
336.991	46.18
337.456	52.28
337.921	47.18
338.386	40.18
338.851	49.68
339.316	40.48
339.781	41.38
340.246	53.18
340.711	43.68
341.175	49.28
341.64	39.38
342.105	46.98
342.569	47.88
343.034	56.38
343.499	48.48
343.963	48.48
344.428	54.08
344.893	54.78
345.357	54.78
345.822	55.98
346.286	61.18
346.751	65.88
347.215	64.98
347.679	71.08
348.144	88.38
348.608	78.48
349.073	59.38
349.537	67.38
350.001	69.08
350.465	81.28
350.93	78.98
351.394	72.38
351.858	71.08
352.322	74.48
352.786	79.18
353.25	94.78
353.715	104.08
354.179	87.58
354.643	113.28
355.107	114.48
355.571	96.88
356.035	86.98
356.498	107.18
356.962	110.38
357.426	113.18
357.89	109.58
358.354	83.08
358.818	80.08
359.281	74.98
359.745	73.08
360.209	70.78
360.673	71.38
361.136	71.08
361.6	80.88
362.064	77.38
362.527	79.58
362.991	88.98
363.454	69.98
363.918	65.98
364.381	74.98
364.845	74.98
365.308	86.58
365.772	77.58
366.235	81.68
366.698	79.38
367.162	78.48
367.625	84.58
368.088	77.48
368.552	89.38
369.015	83.18
369.478	84.18
369.941	91.28
370.404	89.78
370.867	96.98
371.331	101.58
371.794	103.98
372.257	96.68
372.72	99.18
373.183	101.68
373.646	92.28
374.109	88.78
374.572	107.08
375.035	96.38
375.497	105.88
375.96	106.08
376.423	102.58
376.886	111.08
377.349	107.38
377.811	95.68
378.274	102.28
378.737	99.18
379.199	100.98
379.662	104.58
380.125	105.68
380.587	102.48
381.05	104.58
381.512	114.38
381.975	127.08
382.437	122.08
382.9	116.78
383.362	121.08
383.825	128.28
384.287	123.08
384.75	119.08
385.212	114.98
385.674	129.98
386.136	124.68
386.599	120.48
387.061	121.08
387.523	116.38
387.985	122.58
388.447	137.88
388.91	127.98
389.372	133.18
389.834	134.28
390.296	127.58
390.758	135.08
391.22	136.18
391.682	146.78
392.144	164.58
392.606	155.38
393.068	140.18
393.529	152.48
393.991	137.68
394.453	135.88
394.915	137.78
395.377	140.78
395.838	146.78
396.3	142.18
396.762	140.78
397.224	136.58
397.685	136.98
398.147	135.58
398.608	130.98
399.07	132.58
399.531	133.58
399.993	142.58
400.454	152.28
400.916	146.28
401.377	147.08
401.839	148.58
402.3	149.08
402.762	162.18
403.223	181.98
403.684	167.68
404.145	164.08
404.607	167.28
405.068	162.48
405.529	174.88
405.99	187.78
406.451	171.68
406.913	173.18
407.374	162.08
407.835	165.98
408.296	168.08
408.757	174.48
409.218	182.38
409.679	181.18
410.14	169.88
410.601	175.98
411.062	181.38
411.522	182.18
411.983	177.78
412.444	176.88
412.905	184.18
413.366	184.98
413.826	198.88
414.287	221.28
414.748	263.48
415.208	257.18
415.669	219.58
416.13	213.58
416.59	206.78
417.051	223.78
417.511	233.08
417.972	245.88
418.432	256.68
418.893	298.38
419.353	258.18
419.814	208.28
420.274	191.78
420.734	182.98
421.195	194.08
421.655	200.48
422.115	199.88
422.576	197.28
423.036	207.98
423.496	219.98
423.956	217.48
424.416	236.68
424.876	274.88
425.336	272.18
425.797	264.08
426.257	257.78
426.717	249.68
427.177	235.58
427.637	226.88
428.097	236.38
428.556	243.78
429.016	272.78
429.476	269.98
429.936	272.78
430.396	282.48
430.856	296.18
431.315	310.38
431.775	343.58
432.235	387.18
432.694	346.98
433.154	358.88
433.614	388.58
434.073	343.38
434.533	287.88
434.993	266.28
435.452	283.18
435.912	296.38
436.371	285.38
436.83	291.18
437.29	275.98
437.749	258.78
438.209	251.38
438.668	284.08
439.127	289.48
439.587	269.18
440.046	253.28
440.505	269.18
440.964	277.78
441.424	336.28
441.883	316.08
442.342	258.78
442.801	231.58
443.26	227.08
443.719	238.78
444.178	228.58
444.637	214.08
445.096	222.88
445.555	240.08
446.014	238.58
446.473	228.98
446.932	243.18
447.391	237.38
447.849	241.18
448.308	230.58
448.767	230.78
449.226	240.98
449.685	247.38
450.143	259.98
450.602	250.48
451.061	245.28
451.519	245.88
451.978	244.28
452.436	240.38
452.895	250.58
453.353	262.48
453.812	252.98
454.27	255.28
454.729	251.88
455.187	248.58
455.646	256.28
456.104	269.18
456.562	273.18
457.021	272.98
457.479	272.68
457.937	289.48
458.395	273.38
458.854	253.68
459.312	269.58
459.77	293.98
460.228	265.58
460.686	257.78
461.144	264.68
461.602	256.18
462.06	261.28
462.518	271.38
462.976	269.98
463.434	272.88
463.892	274.98
464.35	288.88
464.808	300.68
465.266	280.78
465.724	280.68
466.181	289.28
466.639	276.88
467.097	302.08
467.555	313.58
468.012	314.58
468.47	324.28
468.928	342.78
469.385	348.18
469.843	364.38
470.3	365.98
470.758	386.68
471.215	396.98
471.673	426.28
472.13	418.88
472.588	441.68
473.045	393.78
473.503	391.88
473.96	416.38
474.417	425.48
474.875	450.08
475.332	495.78
475.789	475.58
476.246	479.88
476.704	499.98
477.161	519.68
477.618	540.98
478.075	585.18
478.532	622.78
478.989	697.48
479.446	814.98
479.903	764.48
480.36	806.48
480.817	854.88
481.274	942.88
481.731	1030.88
482.188	1134.08
482.645	1252.48
483.102	1327.48
483.558	1448.78
484.015	1488.88
484.472	1463.38
484.929	1431.28
485.385	1378.88
485.842	1350.48
486.299	1305.48
486.755	1264.88
487.212	1061.98
487.668	922.48
488.125	844.28
488.582	782.68
489.038	758.08
489.494	719.98
489.951	696.98
490.407	676.78
490.864	669.08
491.32	661.58
491.776	662.98
492.233	657.58
492.689	625.58
493.145	620.88
493.602	625.38
494.058	653.58
494.514	638.88
494.97	652.58
495.426	674.58
495.882	646.58
496.338	627.18
496.794	646.88
497.251	641.78
497.707	652.08
498.163	664.68
498.618	663.58
499.074	656.68
499.53	687.68
499.986	697.28
500.442	669.28
500.898	640.68
501.354	639.78
501.809	646.28
502.265	648.08
502.721	663.98
503.177	666.28
503.632	657.48
504.088	670.68
504.543	694.18
504.999	717.18
505.455	679.18
505.91	667.18
506.366	659.48
506.821	656.28
507.277	652.48
507.732	658.88
508.187	662.38
508.643	664.58
509.098	674.78
509.553	677.38
510.009	687.68
510.464	703.38
510.919	711.58
511.375	715.38
511.83	739.88
512.285	755.58
512.74	791.18
513.195	806.08
513.65	808.78
514.105	791.38
514.56	790.78
515.015	812.78
515.47	823.38
515.925	805.68
516.38	809.38
516.835	817.18
517.29	805.88
517.745	803.98
518.2	782.88
518.655	766.98
519.109	765.78
519.564	768.98
520.019	751.68
520.474	744.68
520.928	749.28
521.383	736.08
521.838	738.38
522.292	740.08
522.747	746.98
523.201	738.28
523.656	718.88
524.11	726.08
524.565	716.78
525.019	710.98
525.474	731.88
525.928	720.18
526.382	723.58
526.837	716.98
527.291	731.88
527.745	719.38
528.2	724.38
528.654	718.28
529.108	711.78
529.562	717.08
530.016	718.98
530.47	713.08
530.925	719.18
531.379	722.18
531.833	729.18
532.287	724.08
532.741	725.78
533.195	723.98
533.649	739.48
534.103	743.58
534.556	731.98
535.01	730.68
535.464	730.38
535.918	742.78
536.372	747.18
536.826	736.58
537.279	737.98
537.733	737.58
538.187	741.08
538.64	738.48
539.094	750.48
539.548	751.78
540.001	748.38
540.455	750.68
540.908	764.68
541.362	773.88
541.815	772.48
542.269	794.28
542.722	790.78
543.175	805.38
543.629	801.18
544.082	824.18
544.536	818.18
544.989	821.68
545.442	829.68
545.895	819.88
546.349	827.08
546.802	825.98
547.255	838.18
547.708	843.78
548.161	849.38
548.614	857.18
549.067	859.78
549.52	858.08
549.973	841.88
550.426	851.38
550.879	824.38
551.332	829.48
551.785	839.28
552.238	839.68
552.691	851.28
553.144	870.28
553.596	882.88
554.049	908.88
554.502	933.48
554.955	943.78
555.407	948.68
555.86	934.98
556.313	937.88
556.765	916.58
557.218	913.58
557.67	911.18
558.123	912.68
558.576	915.08
559.028	922.48
559.48	924.38
559.933	903.48
560.385	881.38
560.838	850.18
561.29	825.38
561.742	830.58
562.195	800.18
562.647	796.08
563.099	812.28
563.551	804.28
564.004	820.28
564.456	803.78
564.908	788.98
565.36	781.08
565.812	761.98
566.264	745.78
566.716	750.68
567.168	741.78
567.62	745.88
568.072	718.58
568.524	728.68
568.976	715.58
569.428	708.58
569.88	704.18
570.332	715.58
570.784	713.58
571.235	722.88
571.687	712.98
572.139	735.88
572.59	736.28
573.042	742.88
573.494	740.38
573.945	733.48
574.397	718.88
574.849	720.78
575.3	712.88
575.752	723.98
576.203	701.98
576.655	714.78
577.106	703.78
577.557	695.18
578.009	696.38
578.46	698.08
578.912	695.38
579.363	696.48
579.814	709.68
580.265	702.38
580.717	694.08
581.168	705.78
581.619	712.98
582.07	715.78
582.521	708.28
582.972	690.88
583.423	707.58
583.875	703.48
584.326	719.18
584.777	731.48
585.227	756.68
585.678	778.08
586.129	802.28
586.58	832.28
587.031	860.98
587.482	909.48
587.933	957.68
588.384	905.48
588.834	840.28
589.285	808.98
589.736	810.28
590.186	815.48
590.637	804.28
591.088	779.08
591.538	769.68
591.989	761.38
592.439	758.18
592.89	753.78
593.34	737.18
593.791	734.38
594.241	729.28
594.692	726.18
595.142	719.28
595.593	726.08
596.043	728.28
596.493	745.18
596.943	737.68
597.394	752.48
597.844	756.08
598.294	770.08
598.744	806.88
599.195	816.08
599.645	861.88
600.095	895.88
600.545	959.48
600.995	1009.48
601.445	1072.98
601.895	1134.78
602.345	1177.28
602.795	1173.48
603.245	1120.68
603.695	1067.28
604.145	989.78
604.594	942.58
605.044	902.48
605.494	834.98
605.944	792.68
606.393	783.78
606.843	759.78
607.293	766.58
607.743	755.68
608.192	772.98
608.642	781.58
609.091	787.68
609.541	802.48
609.99	799.88
610.44	789.18
610.889	748.68
611.339	727.38
611.788	711.98
612.238	722.28
612.687	729.68
613.136	732.28
613.586	745.28
614.035	737.28
614.484	745.18
614.933	749.18
615.383	735.58
615.832	732.88
616.281	731.48
616.73	702.78
617.179	684.88
617.628	674.88
618.077	650.48
618.526	647.18
618.975	644.58
619.424	643.58
619.873	642.28
620.322	635.68
620.771	629.08
621.22	634.38
621.669	625.18
622.118	612.78
622.567	599.18
623.015	598.68
623.464	591.18
623.913	581.68
624.361	581.18
624.81	579.18
625.259	585.68
625.707	580.88
626.156	584.78
626.604	579.28
627.053	584.38
627.501	594.98
627.95	593.88
628.398	605.18
628.847	590.18
629.295	601.98
629.744	604.28
630.192	592.18
630.64	588.58
631.089	569.58
631.537	569.48
631.985	563.48
632.433	562.58
632.881	549.58
633.33	570.28
633.778	562.28
634.226	560.58
634.674	562.88
635.122	567.88
635.57	581.88
636.018	595.68
636.466	583.18
636.914	580.38
637.362	601.68
637.81	600.88
638.258	612.48
638.705	610.28
639.153	641.88
639.601	647.78
640.049	676.18
640.497	712.88
640.944	721.78
641.392	688.48
641.84	644.48
642.287	614.48
642.735	587.98
643.182	593.28
643.63	585.28
644.078	586.98
644.525	596.58
644.973	606.48
645.42	620.08
645.867	638.58
646.315	661.18
646.762	692.18
647.21	711.68
647.657	730.38
648.104	760.18
648.551	776.88
648.999	859.58
649.446	930.78
649.893	1010.38
650.34	1158.28
650.787	1386.68
651.234	1708.28
651.682	2184.28
652.129	2981.78
652.576	4251.18
653.023	6184.58
653.47	8358.98
653.917	10299.58
654.363	11839.38
654.81	12930.68
655.257	12273.48
655.704	8162.48
656.151	4920.68
656.598	3242.98
657.044	2318.18
657.491	1791.28
657.938	1454.08
658.385	1232.18
658.831	1070.28
659.278	961.48
659.724	862.58
660.171	799.48
660.618	734.28
661.064	707.68
661.511	697.78
661.957	664.38
662.404	657.38
662.85	661.08
663.296	639.28
663.743	585.48
664.189	560.28
664.635	551.78
665.082	544.48
665.528	549.88
665.974	541.18
666.42	528.98
666.867	525.78
667.313	508.68
667.759	496.28
668.205	478.08
668.651	480.78
669.097	469.78
669.543	471.48
669.989	460.98
670.435	468.18
670.881	473.58
671.327	474.48
671.773	489.38
672.219	515.08
672.665	581.78
673.11	621.98
673.556	663.98
674.002	704.28
674.448	686.78
674.893	581.28
675.339	511.48
675.785	460.08
676.23	438.38
676.676	418.58
677.122	403.88
677.567	400.08
678.013	385.18
678.458	377.78
678.904	381.48
679.349	372.28
679.794	369.48
680.24	373.08
680.685	363.88
681.131	366.98
681.576	376.78
682.021	374.38
682.466	376.68
682.912	368.58
683.357	377.38
683.802	406.68
684.247	435.78
684.692	478.18
685.137	524.18
685.583	568.68
686.028	602.28
686.473	553.78
686.918	470.98
687.363	441.98
687.807	418.68
688.252	397.68
688.697	383.18
689.142	355.28
689.587	357.08
690.032	360.38
690.477	361.28
690.921	373.58
691.366	398.88
691.811	422.08
692.255	451.88
692.7	485.58
693.145	546.88
693.589	765.18
694.034	1234.88
694.478	1651.78
694.923	1831.78
695.367	2368.38
695.812	1278.98
696.256	531.48
696.701	398.28
697.145	364.58
697.59	353.98
698.034	340.38
698.478	341.28
698.922	338.28
699.367	344.68
699.811	359.48
700.255	368.78
700.699	405.48
701.143	452.78
701.588	503.38
702.032	540.18
702.476	541.98
702.92	522.48
703.364	530.28
703.808	692.88
704.252	1138.68
704.696	1565.98
705.14	1765.48
705.584	2235.38
706.027	1127.78
706.471	559.48
706.915	421.08
707.359	373.58
707.803	333.98
708.246	326.28
708.69	327.58
709.134	333.58
709.577	324.68
710.021	328.58
710.465	322.98
710.908	317.58
711.352	320.58
711.795	328.28
712.239	386.38
712.682	412.18
713.126	439.28
713.569	484.18
714.012	382.78
714.456	325.18
714.899	309.68
715.342	292.48
715.786	276.48
716.229	279.38
716.672	259.78
717.115	267.38
717.558	262.78
718.002	262.38
718.445	277.18
718.888	293.68
719.331	314.98
719.774	334.08
720.217	326.28
720.66	304.78
721.103	278.08
721.546	271.58
721.989	269.18
722.432	250.98
722.874	250.58
723.317	246.08
723.76	249.28
724.203	275.78
724.645	342.08
725.088	475.18
725.531	612.98
725.974	675.28
726.416	583.08
726.859	325.48
727.301	259.88
727.744	252.88
728.187	250.68
728.629	250.38
729.071	258.98
729.514	278.08
729.956	280.78
730.399	303.28
730.841	306.08
731.283	291.68
731.726	286.18
732.168	274.48
732.61	287.08
733.053	311.28
733.495	339.08
733.937	378.68
734.379	426.38
734.821	459.38
735.263	592.28
735.705	919.58
736.148	1759.98
736.59	2795.98
737.032	3193.28
737.474	2635.48
737.916	874.18
738.357	461.08
738.799	351.88
739.241	318.98
739.683	299.48
740.125	310.78
740.567	311.08
741.008	334.98
741.45	338.28
741.892	344.68
742.334	371.88
742.775	389.08
743.217	368.28
743.658	290.88
744.1	274.78
744.542	287.08
744.983	340.68
745.425	366.78
745.866	359.98
746.307	299.98
746.749	300.08
747.19	353.18
747.632	499.68
748.073	987.28
748.514	2056.38
748.956	3048.48
749.397	3837.68
749.838	3174.68
750.279	3110.98
750.72	1590.98
751.162	586.58
751.603	348.38
752.044	272.58
752.485	226.48
752.926	221.98
753.367	220.78
753.808	201.08
754.249	208.08
754.69	197.68
755.131	199.78
755.572	198.58
756.013	189.28
756.453	194.78
756.894	203.68
757.335	201.28
757.776	215.38
758.216	213.88
758.657	210.48
759.098	207.48
759.538	242.98
759.979	284.18
760.42	412.38
760.86	786.48
761.301	2064.68
761.741	4835.78
762.182	6734.68
762.622	4742.68
763.063	1401.58
763.503	570.58
763.943	354.28
764.384	293.68
764.824	283.88
765.264	268.48
765.705	238.58
766.145	195.78
766.585	191.18
767.025	183.48
767.465	177.18
767.906	202.28
768.346	217.38
768.786	235.08
769.226	241.18
769.666	343.48
770.106	697.08
770.546	1727.08
770.986	2781.68
771.426	2475.08
771.866	846.88
772.306	345.98
772.745	221.78
773.185	175.08
773.625	168.98
774.065	159.08
774.505	168.48
774.944	233.88
775.384	424.68
775.824	678.38
776.263	649.28
776.703	312.48
777.142	176.48
777.582	145.18
778.021	128.58
778.461	129.28
778.9	134.28
779.34	135.58
779.779	122.98
780.219	111.88
780.658	116.08
781.097	119.88
781.537	123.48
781.976	112.08
782.415	117.08
782.855	109.28
783.294	107.88
783.733	112.78
784.172	119.18
784.611	114.88
785.05	118.08
785.489	115.58
785.928	130.08
786.367	126.98
786.806	130.18
787.245	132.58
787.684	145.88
788.123	158.38
788.562	144.68
789.001	136.78
789.44	127.08
789.879	128.38
790.317	125.08
790.756	137.18
791.195	135.98
791.634	159.88
792.072	215.88
792.511	398.98
792.95	1116.48
793.388	2258.48
793.827	1996.98
794.265	710.78
794.704	299.68
795.142	201.38
795.581	163.68
796.019	139.48
796.458	136.98
796.896	127.98
797.334	145.78
797.773	171.18
798.211	233.88
798.649	488.18
799.087	1108.78
799.526	1712.28
799.964	2156.08
800.402	2091.88
800.84	803.58
801.278	328.48
801.716	204.78
802.154	165.78
802.592	160.48
803.03	147.98
803.468	142.88
803.906	151.68
804.344	159.28
804.782	149.58
805.22	141.48
805.658	136.48
806.096	158.28
806.533	170.48
806.971	184.78
807.409	237.48
807.847	346.48
808.284	748.08
808.722	2047.68
809.16	3501.48
809.597	3442.18
810.035	5823.78
810.472	6005.58
810.91	2225.18
811.347	859.68
811.785	438.68
812.222	277.08
812.66	206.98
813.097	174.78
813.535	149.48
813.972	140.78
814.409	127.38
814.846	124.18
815.284	116.38
815.721	110.18
816.158	114.08
816.595	116.58
817.032	169.78
817.47	189.88
817.907	138.38
818.344	111.28
818.781	106.58
819.218	106.58
819.655	134.38
820.092	213.18
820.529	219.58
820.966	179.08
821.403	133.08
821.839	107.08
822.276	109.48
822.713	134.88
823.15	146.08
823.587	130.58
824.023	167.98
824.46	335.18
824.897	976.98
825.333	1423.68
825.77	616.68
826.206	250.08
826.643	143.48
827.08	102.98
827.516	86.38
827.953	80.58
828.389	80.38
828.825	73.08
829.262	77.18
829.698	67.68
830.135	67.88
830.571	68.48
831.007	65.78
831.443	72.58
831.88	61.08
832.316	71.08
832.752	71.78
833.188	63.88
833.624	66.28
834.06	71.28
834.497	71.88
834.933	80.48
835.369	82.58
835.805	76.18
836.241	78.98
836.677	85.38
837.112	92.78
837.548	112.08
837.984	141.48
838.42	224.08
838.856	559.78
839.292	1649.78
839.727	2417.08
840.163	1148.28
840.599	1035.08
841.034	2181.18
841.47	2201.28
841.906	824.68
842.341	357.48
842.777	213.28
843.212	226.38
843.648	204.38
844.083	121.68
844.519	94.48
844.954	70.18
845.39	63.88
845.825	57.78
846.261	63.18
846.696	55.28
847.131	51.68
847.566	61.28
848.002	53.28
848.437	60.78
848.872	67.78
849.307	69.08
849.742	93.88
850.177	200.58
850.613	611.98
851.048	927.88
851.483	396.98
851.918	167.08
852.353	94.58
852.788	60.28
853.223	63.18
853.657	56.48
854.092	47.78
854.527	41.88
854.962	43.88
855.397	50.68
855.832	52.98
856.266	45.48
856.701	40.68
857.136	38.28
857.57	41.78
858.005	58.48
858.44	59.78
858.874	48.68
859.309	60.38
859.743	42.08
860.178	53.18
860.612	43.38
861.047	57.18
861.481	76.78
861.915	77.18
862.35	54.08
862.784	44.08
863.218	42.98
863.653	38.38
864.087	58.38
864.521	58.18
864.955	78.68
865.39	163.78
865.824	184.08
866.258	127.58
866.692	182.58
867.126	188.88
867.56	111.18
867.994	62.78
868.428	41.58
868.862	54.58
869.296	60.38
869.73	63.28
870.164	60.78
870.598	55.68
871.031	44.08
871.465	34.38
871.899	38.08
872.333	24.08
872.766	31.98
873.2	21.98
873.634	34.38
874.067	27.78
874.501	34.78
874.935	39.78
875.368	32.28
875.802	32.38
876.235	21.78
876.669	26.08
877.102	24.08
877.535	28.28
877.969	23.08
878.402	30.58
878.836	13.48
879.269	22.78
879.702	24.08
880.135	19.38
880.569	31.88
881.002	26.38
881.435	30.08
881.868	20.88
882.301	24.98
882.734	15.78
883.167	26.18
883.601	21.78
884.034	28.48
884.467	18.58
884.899	21.78
885.332	24.58
885.765	15.68
886.198	17.18
886.631	14.48
887.064	20.88
887.497	21.98
887.929	26.88
888.362	17.38
888.795	15.48
889.228	23.78
889.66	22.68
890.093	18.28
890.526	18.08
890.958	21.68
891.391	19.18
891.823	25.98
892.256	20.98
892.688	16.28
893.121	22.18
893.553	20.88
893.985	21.98
894.418	19.08
894.85	16.18
895.282	18.38
895.715	15.28
896.147	17.18
896.579	19.48
897.011	23.48
897.444	21.28
897.876	14.98
898.308	15.88
898.74	16.88
899.172	12.78
899.604	24.68
900.036	23.88
900.468	19.08
900.9	21.28
901.332	22.78
901.764	12.38
902.196	17.78
902.628	22.38
903.06	20.38
903.491	34.38
903.923	21.28
904.355	19.08
904.787	29.88
905.218	22.98
905.65	25.18
906.082	14.98
906.513	15.88
906.945	15.88
907.376	24.68
907.808	26.18
908.239	18.98
908.671	21.68
909.102	25.18
909.534	27.98
909.965	50.88
910.397	100.68
910.828	345.58
911.259	499.08
911.691	232.28
912.122	118.78
912.553	62.28
912.984	36.68
913.415	29.28
913.847	29.48
914.278	21.08
914.709	13.18
915.14	18.98
915.571	24.98
916.002	8.38
916.433	21.18
916.864	17.58
917.295	7.18
917.726	22.88
918.157	16.08
918.587	29.38
919.018	25.58
919.449	34.38
919.88	29.08
920.311	35.58
920.741	57.18
921.172	182.88
921.603	159.78
922.033	74.08
922.464	50.38
922.895	26.98
923.325	20.38
923.756	13.28
924.186	11.18
924.617	16.98
925.047	26.58
925.478	24.78
925.908	24.88
926.338	21.68
926.769	12.98
927.199	18.88
927.629	13.08
928.06	21.38
928.49	16.38
928.92	14.38
929.35	13.48
929.78	16.48
930.21	13.28
930.641	9.38
931.071	15.58
931.501	3.18
931.931	10.28
932.361	9.68
932.791	6.28
933.221	5.88
933.651	9.98
934.08	15.18
934.51	28.08
934.94	11.38
935.37	13.18
935.8	10.08
936.229	13.78
936.659	13.98
937.089	2.38
937.519	14.78
937.948	24.68
938.378	19.28
938.807	7.18
939.237	0.98
939.666	5.58
940.096	-1.32
940.525	1.68
940.955	6.28
941.384	-0.32
941.814	-4.92
942.243	2.48
942.672	4.18
943.102	0.88
943.531	5.28
943.96	2.98
944.39	5.98
944.819	2.78
945.248	9.58
945.677	2.88
946.106	11.68
946.535	6.08
946.964	3.48
947.393	6.78
947.822	-3.62
948.251	-2.92
948.68	7.68
949.109	8.68
949.538	7.58
949.967	-0.42
950.396	-1.42
950.825	-2.62
951.254	-0.52
951.682	-2.52
952.111	4.68
952.54	2.68
952.969	-2.62
953.397	-3.72
953.826	0.28
954.254	-4.52
954.683	7.58
955.112	-0.32
955.54	4.28
955.969	0.18
956.397	-1.42
956.826	-0.82
957.254	2.78
957.682	0.88
958.111	10.08
958.539	3.78
958.967	2.28
959.396	2.88
959.824	1.18
960.252	3.28
960.68	-4.32
961.109	2.58
961.537	-1.92
961.965	5.28
962.393	-0.12
962.821	-1.92
963.249	-2.62
963.677	8.28
964.105	-0.02
964.533	49.18
964.961	43.68
965.389	26.78
965.817	11.98
966.245	6.28
966.672	-3.02
967.1	-8.12
967.528	0.88
967.956	-1.52
968.383	2.08
968.811	-6.12
969.239	-4.02
969.666	-2.92
970.094	1.08
970.522	4.08
970.949	-0.52
971.377	-3.82
971.804	-5.82
972.232	-0.52
972.659	-4.22
973.087	-5.22
973.514	1.08
973.941	-4.32
974.369	2.98
974.796	1.78
975.223	-3.02
975.651	0.48
976.078	-2.12
976.505	-0.92
976.932	2.78
977.359	17.98
977.786	13.58
978.214	-4.62
978.641	-2.82
979.068	-0.92
979.495	-2.42
979.922	-2.12
980.349	-0.12
980.776	3.58
981.202	-1.32
981.629	2.18
982.056	6.48
982.483	-0.22
982.91	2.38
983.337	-3.92
983.763	3.28
984.19	-2.62
984.617	-1.02
985.043	-8.82
985.47	-1.92
985.897	-3.62
986.323	-8.82
986.75	4.38
987.176	-4.52
987.603	5.38
988.029	-3.82
988.456	1.08
988.882	8.18
989.308	-6.32
989.735	-7.22
990.161	-0.02
990.587	-1.22
991.014	-2.82
991.44	6.98
991.866	-0.32
992.292	-5.42
992.719	-4.32
993.145	-0.02
993.571	-7.62
993.997	-1.42
994.423	-0.12
994.849	-6.62
995.275	-0.32
995.701	-1.42
996.127	-6.22
996.553	-2.72
996.979	-0.52
997.405	3.18
997.83	-13.22
998.256	-7.82
998.682	-2.52
999.108	-7.32
999.534	1.38
999.959	2.88
1000.385	-1.42
1000.811	-0.82
1001.236	-4.82
1001.662	-9.22
1002.087	-6.42
1002.513	-1.12
1002.938	6.98
1003.364	-3.42
1003.789	-3.12
1004.215	0.78
1004.64	-3.22
1005.066	-0.22
1005.491	3.58
1005.916	3.28
1006.342	-5.52
1006.767	-6.12
1007.192	6.18
1007.617	-3.22
1008.042	-4.32
1008.468	-7.52
1008.893	-1.92
1009.318	-5.52
1009.743	-1.92
1010.168	4.58
1010.593	-1.72
1011.018	-8.12
1011.443	-7.82
1011.868	-0.82
1012.293	-5.62
1012.718	-1.32
1013.143	5.48
1013.567	0.18
1013.992	-6.92
1014.417	-13.12
1014.842	-0.02
1015.267	-1.22
1015.691	-9.82
1016.116	7.68
1016.541	-5.02
1016.965	4.78
1017.39	0.78
1017.814	4.58
1018.239	-1.82
1018.663	-9.62
1019.088	-12.22
1019.512	0.48
1019.937	-2.52
1020.361	-6.92
1020.785	-12.32
1021.21	-2.52
1021.634	-3.62
1022.058	-4.12
1022.483	7.48
1022.907	4.28
1023.331	-6.12
1023.755	-3.02
1024.179	-5.52
1024.604	-7.82
1025.028	-7.02
1025.452	-6.22
1025.876	-6.92
1026.3	-1.42
1026.724	-8.32
1027.148	-2.82
1027.572	-10.82
1027.996	-2.52
1028.42	-4.32
1028.843	1.78
1029.267	-1.62
1029.691	-2.12
1030.115	-5.22
1030.539	-8.12
1030.962	-3.42
1031.386	-9.82
1031.81	-1.22
1032.233	-1.52
1032.657	-1.72
1033.08	-8.22
1033.504	1.48
1033.927	-2.72
1034.351	-0.22
1034.774	-7.82
1035.198	-5.52
1035.621	-7.62
1036.045	-2.42
1036.468	-2.22
1036.891	-7.22
1037.315	-4.82
1037.738	-3.12
1038.161	-2.72
1038.584	-6.92
1039.008	-7.52
1039.431	-5.02
1039.854	-0.32
1040.277	-8.12
1040.7	-12.72
1041.123	5.08
1041.546	-7.42
1041.969	-4.72
1042.392	-4.22
1042.815	0.38
1043.238	-1.52
1043.661	1.38
1044.084	-6.82
1044.507	-4.32
1044.93	-1.92
1045.352	-4.12
1045.775	1.58
1046.198	-1.42
1046.621	4.08
1047.043	-3.52
1047.466	0.28
1047.889	-5.82
1048.311	-9.62
1048.734	-3.52
1049.156	-5.72
1049.579	-3.12
1050.001	-3.52
1050.424	3.28
1050.846	-9.92
1051.269	-2.42
1051.691	-7.22
1052.113	-8.72
1052.536	-0.72
1052.958	2.58
1053.38	-2.22
1053.802	-7.52
1054.225	-0.92
1054.647	-1.62
1055.069	-2.82
1055.491	-2.22
1055.913	-5.42
1056.335	5.98
1056.757	-1.02
1057.179	-4.82
1057.601	-1.82
1058.023	-4.42
1058.445	-7.02
1058.867	-2.22
1059.289	-1.52
1059.711	-11.52
1060.133	1.58
1060.555	-4.42
1060.976	-8.52
1061.398	-8.32
1061.82	-4.82
1062.241	-7.32
1062.663	-8.12
1063.085	-5.22
1063.506	0.68
1063.928	-2.62
1064.35	-4.42
1064.771	-10.62
1065.193	-4.22
1065.614	-7.52
1066.035	2.38
1066.457	-3.32
1066.878	2.48
1067.3	-7.82
1067.721	-3.02
1068.142	-5.82
1068.564	2.38
1068.985	-6.02
1069.406	-1.42
1069.827	-1.52
1070.248	-1.72
1070.67	-8.32
1071.091	-9.72
1071.512	-6.12
1071.933	-4.82
1072.354	-5.22
1072.775	-7.82
1073.196	-8.72
1073.617	-4.42
1074.038	-7.82
1074.459	-7.52
1074.88	-7.32
1075.3	3.98
1075.721	-11.72
1076.142	-4.12
1076.563	-3.02
1076.983	-8.92
1077.404	-9.22
1077.825	-3.62
1078.246	-2.32
1078.666	-12.22
1079.087	-4.12
1079.507	-8.22
1079.928	-3.12
1080.348	-5.92
1080.769	-9.42
1081.189	-0.02
1081.61	-3.52
1082.03	-6.82
1082.451	-6.22
1082.871	-10.82
1083.291	-8.32
1083.711	-5.62
1084.132	-6.22
1084.552	-2.32
1084.972	-0.62
1085.392	-9.02
1085.813	-7.92
1086.233	-7.52
1086.653	-2.72
1087.073	3.48
1087.493	-7.62
1087.913	-12.22
1088.333	-6.62
1088.753	-1.52
1089.173	2.18
1089.593	-3.32
1090.013	-1.72
1090.433	-0.02
1090.852	-2.52
1091.272	3.18
1091.692	1.78
1092.112	-5.32
1092.531	-9.92
1092.951	-8.42
1093.371	-5.92
1093.79	-0.72
1094.21	-7.22
1094.63	-11.92
1095.049	-0.82
1095.469	-1.22
1095.888	-2.32
1096.308	-0.82
1096.727	-1.72
1097.146	-7.52
1097.566	0.28
1097.985	-1.52
1098.405	-3.52
1098.824	-7.02
1099.243	-9.82
1099.662	-6.92
1100.082	-1.62
1100.501	-0.32
1100.92	-7.92
1101.339	-7.62
1101.758	-6.72
