Data from 20171114-ORNL-Ar_H_NY_Subt18_08-07-09-597.txt Node
Date: Tue Nov 14 08:07:09 EST 2017
User: Ender
Spectrometer: HR+D1039
Trigger mode: 0
Integration Time (sec): 2.730000E-2
Scans to average: 10
Electric dark correction enabled: true
Nonlinearity correction enabled: false
Boxcar width: 0
XAxis mode: Wavelengths
Number of Pixels in Spectrum: 2048
>>>>>Begin Spectral Data<<<<<
187.836	-1.58
188.309	-1.58
188.782	-1.58
189.255	-0.08
189.728	-1.38
190.201	1.12
190.674	-3.98
191.147	-4.18
191.619	-4.38
192.092	1.33
192.565	3.02
193.038	5.12
193.511	3.02
193.984	6.23
194.456	0.52
194.929	-4.77
195.402	0.32
195.874	-0.38
196.347	-4.48
196.82	-7.68
197.292	3.32
197.765	-1.07
198.237	-6.58
198.71	3.92
199.182	-1.18
199.655	5.72
200.127	1.42
200.6	-2.68
201.072	-1.08
201.544	-11.17
202.017	-1.58
202.489	1.52
202.961	-2.48
203.433	-5.58
203.906	-8.38
204.378	-5.17
204.85	-10.48
205.322	-7.48
205.794	0.72
206.266	3.52
206.739	-7.48
207.211	-2.27
207.683	-10.38
208.155	-4.68
208.627	-5.08
209.099	-8.27
209.57	-6.27
210.042	-2.88
210.514	-2.17
210.986	-2.67
211.458	-13.98
211.93	-2.28
212.402	2.02
212.873	-11.48
213.345	-8.27
213.817	-10.98
214.288	-7.58
214.76	-12.98
215.232	-7.88
215.703	-4.77
216.175	-5.88
216.646	-5.48
217.118	-8.68
217.589	-8.98
218.061	-3.58
218.532	-5.67
219.004	2.82
219.475	-4.27
219.946	-1.48
220.418	-5.27
220.889	4.32
221.36	0.43
221.832	-3.48
222.303	-10.38
222.774	-2.88
223.245	-13.27
223.717	-11.78
224.188	-2.77
224.659	-4.48
225.13	-5.98
225.601	-5.48
226.072	-4.88
226.543	-1.28
227.014	-2.38
227.485	-2.88
227.956	-4.88
228.427	-4.48
228.898	-0.98
229.369	-2.48
229.839	-2.27
230.31	-3.58
230.781	-0.88
231.252	-3.68
231.722	-4.08
232.193	-2.67
232.664	-1.27
233.135	-5.78
233.605	-7.38
234.076	-12.98
234.546	-5.28
235.017	3.23
235.487	-2.88
235.958	-8.77
236.428	-8.48
236.899	-2.17
237.369	2.02
237.84	-5.98
238.31	-3.48
238.78	-2.98
239.251	-6.67
239.721	-5.17
240.191	2.02
240.662	-5.38
241.132	0.52
241.602	-5.18
242.072	-2.27
242.542	4.62
243.013	-8.98
243.483	0.73
243.953	-1.38
244.423	0.12
244.893	-8.08
245.363	6.52
245.833	0.02
246.303	-0.27
246.773	3.73
247.243	1.72
247.712	-3.48
248.182	-0.78
248.652	-0.18
249.122	-10.28
249.592	-3.88
250.061	5.42
250.531	2.12
251.001	-2.57
251.471	8.73
251.94	4.02
252.41	0.02
252.879	-9.67
253.349	-1.48
253.818	0.23
254.288	-5.67
254.757	0.02
255.227	-3.27
255.696	-0.98
256.166	1.93
256.635	-0.38
257.105	1.52
257.574	-0.38
258.043	-2.67
258.513	-3.38
258.982	2.02
259.451	-3.18
259.92	3.52
260.389	-3.27
260.859	6.52
261.328	-0.27
261.797	-3.38
262.266	-1.77
262.735	4.43
263.204	-3.08
263.673	-4.88
264.142	5.73
264.611	-8.18
265.08	-6.08
265.549	-1.17
266.018	0.62
266.487	-6.08
266.955	-0.27
267.424	0.62
267.893	1.23
268.362	-3.98
268.83	-1.08
269.299	0.12
269.768	-3.08
270.236	3.62
270.705	0.82
271.174	2.02
271.642	8.82
272.111	-2.27
272.579	1.32
273.048	3.92
273.516	-1.17
273.985	2.52
274.453	2.73
274.922	11.12
275.39	2.92
275.858	2.52
276.327	7.32
276.795	16.73
277.263	0.32
277.731	14.02
278.2	1.92
278.668	6.12
279.136	4.82
279.604	2.33
280.072	6.83
280.54	2.73
281.008	4.62
281.477	6.22
281.945	4.32
282.413	13.52
282.881	8.73
283.348	4.43
283.816	4.52
284.284	5.72
284.752	8.92
285.22	6.23
285.688	9.02
286.156	9.33
286.623	12.02
287.091	4.62
287.559	12.82
288.026	3.73
288.494	10.92
288.962	0.62
289.429	1.72
289.897	9.33
290.364	5.92
290.832	10.33
291.3	2.73
291.767	8.02
292.234	11.52
292.702	7.52
293.169	7.23
293.637	12.33
294.104	7.02
294.571	0.82
295.039	7.72
295.506	12.42
295.973	15.92
296.44	7.12
296.908	7.12
297.375	13.23
297.842	10.23
298.309	9.73
298.776	8.02
299.243	18.42
299.71	7.32
300.177	18.23
300.644	11.42
301.111	13.52
301.578	13.22
302.045	13.62
302.512	16.42
302.979	20.42
303.446	19.02
303.913	6.93
304.379	7.82
304.846	19.12
305.313	18.32
305.78	9.42
306.246	24.02
306.713	16.62
307.18	17.23
307.646	21.62
308.113	20.42
308.579	14.42
309.046	16.12
309.512	22.52
309.979	4.62
310.445	21.72
310.912	19.22
311.378	25.82
311.845	26.23
312.311	22.52
312.777	26.22
313.244	25.73
313.71	31.42
314.176	23.02
314.642	18.62
315.109	20.73
315.575	22.23
316.041	30.73
316.507	25.72
316.973	35.62
317.439	22.23
317.905	24.83
318.371	28.12
318.837	32.33
319.303	22.92
319.769	28.73
320.235	26.52
320.701	26.12
321.167	35.22
321.633	21.43
322.099	32.22
322.564	30.82
323.03	31.72
323.496	26.83
323.962	32.52
324.427	22.82
324.893	30.42
325.359	29.92
325.824	32.22
326.29	30.72
326.755	30.32
327.221	36.62
327.686	33.32
328.152	36.43
328.617	33.23
329.083	39.42
329.548	43.62
330.014	43.33
330.479	31.12
330.944	28.12
331.41	33.62
331.875	34.83
332.34	35.62
332.805	39.02
333.271	29.23
333.736	28.23
334.201	38.62
334.666	41.22
335.131	39.52
335.596	46.42
336.061	36.62
336.526	35.72
336.991	38.43
337.456	51.62
337.921	46.62
338.386	37.32
338.851	38.32
339.316	38.82
339.781	43.23
340.246	44.12
340.711	40.92
341.175	42.62
341.64	43.92
342.105	42.62
342.569	51.32
343.034	48.12
343.499	47.42
343.963	42.62
344.428	57.33
344.893	55.82
345.357	50.52
345.822	53.92
346.286	56.23
346.751	66.12
347.215	68.23
347.679	56.62
348.144	78.62
348.608	65.62
349.073	68.73
349.537	68.42
350.001	69.52
350.465	75.33
350.93	67.52
351.394	74.12
351.858	59.83
352.322	80.12
352.786	67.62
353.25	79.22
353.715	86.52
354.179	87.62
354.643	101.73
355.107	100.82
355.571	93.92
356.035	80.32
356.498	100.52
356.962	90.12
357.426	104.22
357.89	88.12
358.354	74.92
358.818	78.92
359.281	67.62
359.745	71.12
360.209	65.12
360.673	62.73
361.136	70.02
361.6	78.02
362.064	69.43
362.527	76.92
362.991	75.92
363.454	72.42
363.918	66.62
364.381	69.22
364.845	71.62
365.308	76.72
365.772	81.72
366.235	77.73
366.698	73.82
367.162	76.32
367.625	76.62
368.088	78.82
368.552	79.42
369.015	83.92
369.478	83.23
369.941	89.42
370.404	76.92
370.867	87.82
371.331	95.02
371.794	102.12
372.257	87.52
372.72	91.42
373.183	89.12
373.646	86.82
374.109	92.43
374.572	94.22
375.035	84.52
375.497	102.92
375.96	97.12
376.423	96.62
376.886	102.73
377.349	106.02
377.811	92.83
378.274	95.52
378.737	96.32
379.199	102.73
379.662	97.23
380.125	101.52
380.587	98.12
381.05	101.93
381.512	108.92
381.975	113.12
382.437	113.42
382.9	104.22
383.362	121.02
383.825	122.83
384.287	122.32
384.75	105.22
385.212	113.92
385.674	123.02
386.136	119.23
386.599	107.32
387.061	113.12
387.523	118.82
387.985	115.52
388.447	122.12
388.91	122.83
389.372	126.43
389.834	113.22
390.296	121.22
390.758	126.82
391.22	125.92
391.682	133.12
392.144	142.83
392.606	131.02
393.068	132.02
393.529	140.82
393.991	136.52
394.453	123.82
394.915	134.52
395.377	134.33
395.838	127.12
396.3	128.82
396.762	145.93
397.224	136.32
397.685	134.02
398.147	134.12
398.608	132.52
399.07	130.02
399.531	136.62
399.993	140.93
400.454	150.12
400.916	144.02
401.377	140.52
401.839	151.12
402.3	146.72
402.762	167.42
403.223	176.72
403.684	166.12
404.145	162.32
404.607	164.02
405.068	161.52
405.529	165.12
405.99	182.02
406.451	171.52
406.913	170.62
407.374	166.12
407.835	159.92
408.296	168.12
408.757	162.62
409.218	185.22
409.679	172.52
410.14	177.23
410.601	167.92
411.062	182.33
411.522	178.12
411.983	170.22
412.444	174.62
412.905	182.12
413.366	185.42
413.826	201.32
414.287	221.03
414.748	268.33
415.208	257.12
415.669	220.92
416.13	211.92
416.59	207.82
417.051	218.43
417.511	225.92
417.972	246.02
418.432	256.53
418.893	303.42
419.353	263.23
419.814	205.92
420.274	191.52
420.734	189.22
421.195	197.42
421.655	196.02
422.115	199.62
422.576	198.23
423.036	208.73
423.496	221.52
423.956	228.52
424.416	233.73
424.876	274.93
425.336	266.42
425.797	269.73
426.257	259.32
426.717	240.63
427.177	237.12
427.637	226.43
428.097	241.52
428.556	245.62
429.016	266.12
429.476	261.62
429.936	277.43
430.396	275.22
430.856	285.02
431.315	311.02
431.775	343.62
432.235	371.42
432.694	349.32
433.154	357.92
433.614	382.23
434.073	330.93
434.533	282.82
434.993	272.62
435.452	282.12
435.912	292.52
436.371	286.73
436.83	288.23
437.29	266.52
437.749	245.53
438.209	250.12
438.668	273.42
439.127	284.22
439.587	269.63
440.046	253.22
440.505	267.32
440.964	282.82
441.424	324.12
441.883	307.93
442.342	266.13
442.801	234.33
443.26	235.42
443.719	228.42
444.178	232.33
444.637	226.52
445.096	232.02
445.555	235.02
446.014	231.02
446.473	241.33
446.932	238.43
447.391	242.52
447.849	242.02
448.308	230.72
448.767	233.93
449.226	245.23
449.685	248.22
450.143	261.72
450.602	250.62
451.061	240.52
451.519	248.73
451.978	241.02
452.436	241.62
452.895	250.23
453.353	262.82
453.812	241.52
454.27	255.52
454.729	259.52
455.187	253.62
455.646	255.93
456.104	252.33
456.562	273.52
457.021	277.02
457.479	276.52
457.937	283.73
458.395	279.52
458.854	259.83
459.312	271.83
459.77	295.33
460.228	264.02
460.686	252.52
461.144	264.33
461.602	260.02
462.06	258.32
462.518	269.43
462.976	267.52
463.434	271.22
463.892	280.72
464.35	289.82
464.808	298.72
465.266	290.53
465.724	295.82
466.181	289.03
466.639	288.42
467.097	309.12
467.555	322.62
468.012	320.42
468.47	316.33
468.928	345.62
469.385	360.82
469.843	374.22
470.3	370.13
470.758	377.33
471.215	396.22
471.673	420.62
472.13	430.93
472.588	434.22
473.045	401.32
473.503	396.63
473.96	417.62
474.417	422.33
474.875	449.12
475.332	492.72
475.789	479.32
476.246	487.52
476.704	494.82
477.161	523.83
477.618	543.42
478.075	574.73
478.532	636.12
478.989	703.62
479.446	813.43
479.903	779.52
480.36	818.33
480.817	862.23
481.274	953.83
481.731	1039.93
482.188	1115.62
482.645	1237.83
483.102	1331.12
483.558	1461.53
484.015	1494.23
484.472	1473.33
484.929	1423.03
485.385	1389.63
485.842	1363.72
486.299	1313.23
486.755	1266.63
487.212	1082.22
487.668	917.02
488.125	859.12
488.582	790.52
489.038	755.62
489.494	727.82
489.951	696.62
490.407	689.23
490.864	672.52
491.32	669.92
491.776	666.33
492.233	676.73
492.689	632.53
493.145	629.02
493.602	631.62
494.058	643.83
494.514	642.13
494.97	667.02
495.426	680.53
495.882	650.22
496.338	656.92
496.794	656.12
497.251	637.33
497.707	655.23
498.163	659.72
498.618	668.73
499.074	669.83
499.53	692.93
499.986	696.82
500.442	667.02
500.898	656.12
501.354	643.02
501.809	653.52
502.265	650.03
502.721	661.73
503.177	664.73
503.632	668.42
504.088	669.32
504.543	694.82
504.999	723.92
505.455	688.62
505.91	664.62
506.366	665.62
506.821	667.32
507.277	661.12
507.732	662.62
508.187	664.92
508.643	687.22
509.098	675.62
509.553	696.32
510.009	701.23
510.464	712.02
510.919	730.33
511.375	731.32
511.83	741.92
512.285	759.12
512.74	793.72
513.195	820.92
513.65	803.82
514.105	808.12
514.56	816.73
515.015	831.23
515.47	844.53
515.925	823.32
516.38	825.52
516.835	826.62
517.29	820.63
517.745	817.43
518.2	806.32
518.655	793.12
519.109	775.32
519.564	779.93
520.019	765.83
520.474	769.23
520.928	765.32
521.383	752.62
521.838	744.62
522.292	745.03
522.747	740.03
523.201	742.02
523.656	730.53
524.11	728.63
524.565	736.42
525.019	734.93
525.474	740.22
525.928	732.63
526.382	732.02
526.837	731.62
527.291	730.92
527.745	740.82
528.2	741.43
528.654	730.03
529.108	726.42
529.562	725.83
530.016	724.43
530.47	729.42
530.925	716.42
531.379	727.72
531.833	739.23
532.287	744.82
532.741	734.63
533.195	737.12
533.649	748.02
534.103	756.72
534.556	741.73
535.01	751.93
535.464	745.33
535.918	757.32
536.372	750.12
536.826	754.32
537.279	731.23
537.733	736.83
538.187	750.83
538.64	749.23
539.094	756.12
539.548	769.32
540.001	758.73
540.455	754.02
540.908	773.02
541.362	775.12
541.815	786.92
542.269	798.92
542.722	803.22
543.175	804.92
543.629	814.42
544.082	826.83
544.536	825.12
544.989	832.82
545.442	835.22
545.895	834.42
546.349	842.43
546.802	851.73
547.255	845.22
547.708	851.92
548.161	857.23
548.614	857.02
549.067	874.22
549.52	877.12
549.973	855.72
550.426	863.52
550.879	855.52
551.332	845.73
551.785	850.02
552.238	848.62
552.691	863.73
553.144	879.23
553.596	894.43
554.049	906.52
554.502	932.22
554.955	964.52
555.407	959.22
555.86	941.83
556.313	938.13
556.765	928.62
557.218	928.23
557.67	936.52
558.123	921.02
558.576	925.12
559.028	936.83
559.48	938.12
559.933	923.12
560.385	884.92
560.838	854.62
561.29	833.72
561.742	826.82
562.195	816.33
562.647	807.52
563.099	818.12
563.551	803.72
564.004	825.73
564.456	805.02
564.908	798.12
565.36	773.02
565.812	771.12
566.264	765.32
566.716	753.93
567.168	734.42
567.62	748.32
568.072	734.92
568.524	727.13
568.976	722.92
569.428	714.92
569.88	712.62
570.332	724.32
570.784	717.12
571.235	724.93
571.687	725.83
572.139	737.73
572.59	755.52
573.042	761.12
573.494	745.32
573.945	744.02
574.397	727.12
574.849	727.33
575.3	725.22
575.752	724.02
576.203	724.73
576.655	726.92
577.106	711.92
577.557	714.13
578.009	704.82
578.46	704.02
578.912	704.82
579.363	702.83
579.814	700.32
580.265	702.93
580.717	697.52
581.168	709.12
581.619	711.23
582.07	717.63
582.521	714.92
582.972	707.23
583.423	700.02
583.875	700.92
584.326	714.02
584.777	733.02
585.227	748.72
585.678	757.12
586.129	759.32
586.58	775.52
587.031	793.83
587.482	834.23
587.933	845.72
588.384	828.82
588.834	810.42
589.285	802.62
589.736	806.42
590.186	810.73
590.637	803.42
591.088	781.73
591.538	778.92
591.989	762.12
592.439	755.73
592.89	747.52
593.34	734.02
593.791	733.82
594.241	734.32
594.692	741.53
595.142	723.83
595.593	725.92
596.043	736.93
596.493	740.12
596.943	735.93
597.394	742.22
597.844	753.72
598.294	759.13
598.744	802.72
599.195	827.62
599.645	864.53
600.095	899.62
600.545	964.43
600.995	1020.22
601.445	1066.33
601.895	1140.13
602.345	1187.12
602.795	1158.33
603.245	1129.32
603.695	1063.12
604.145	1005.82
604.594	954.92
605.044	907.72
605.494	846.23
605.944	792.92
606.393	764.23
606.843	760.83
607.293	766.23
607.743	758.62
608.192	779.62
608.642	783.42
609.091	783.43
609.541	797.42
609.99	789.63
610.44	789.73
610.889	741.23
611.339	724.42
611.788	712.82
612.238	722.73
612.687	728.42
613.136	717.42
613.586	736.23
614.035	728.63
614.484	738.92
614.933	737.83
615.383	731.22
615.832	731.43
616.281	735.93
616.73	695.22
617.179	680.43
617.628	659.52
618.077	653.83
618.526	649.42
618.975	636.23
619.424	644.92
619.873	633.73
620.322	638.02
620.771	628.33
621.22	628.62
621.669	608.32
622.118	614.32
622.567	598.52
623.015	587.92
623.464	593.02
623.913	583.52
624.361	571.42
624.81	572.83
625.259	574.82
625.707	578.82
626.156	584.22
626.604	593.32
627.053	589.62
627.501	583.92
627.95	592.32
628.398	601.62
628.847	593.52
629.295	588.22
629.744	594.23
630.192	579.12
630.64	582.62
631.089	567.42
631.537	553.62
631.985	554.53
632.433	549.42
632.881	548.93
633.33	545.82
633.778	543.33
634.226	537.82
634.674	549.93
635.122	560.82
635.57	572.82
636.018	573.52
636.466	583.72
636.914	579.22
637.362	596.02
637.81	598.82
638.258	594.63
638.705	607.42
639.153	626.12
639.601	645.72
640.049	663.92
640.497	708.12
640.944	720.93
641.392	669.62
641.84	628.73
642.287	606.12
642.735	575.82
643.182	578.93
643.63	581.72
644.078	580.02
644.525	596.42
644.973	600.22
645.42	614.62
645.867	629.03
646.315	649.02
646.762	684.02
647.21	698.02
647.657	720.42
648.104	761.52
648.551	773.12
648.999	829.33
649.446	904.62
649.893	1002.43
650.34	1143.12
650.787	1344.53
651.234	1660.73
651.682	2122.32
652.129	2890.72
652.576	4102.32
653.023	5977.62
653.47	8098.12
653.917	10079.12
654.363	11576.42
654.81	12759.42
655.257	12138.92
655.704	8005.83
656.151	4812.93
656.598	3163.43
657.044	2269.12
657.491	1768.53
657.938	1421.33
658.385	1201.73
658.831	1061.02
659.278	960.93
659.724	852.43
660.171	777.82
660.618	719.33
661.064	694.73
661.511	675.72
661.957	662.23
662.404	650.42
662.85	659.73
663.296	628.72
663.743	571.82
664.189	546.42
664.635	545.72
665.082	541.52
665.528	547.12
665.974	532.22
666.42	522.73
666.867	516.02
667.313	497.42
667.759	489.62
668.205	462.73
668.651	472.93
669.097	465.92
669.543	458.42
669.989	461.92
670.435	463.93
670.881	462.73
671.327	465.42
671.773	495.02
672.219	507.42
672.665	566.93
673.11	601.92
673.556	653.92
674.002	704.83
674.448	686.62
674.893	573.22
675.339	492.43
675.785	456.72
676.23	431.12
676.676	406.53
677.122	393.82
677.567	382.62
678.013	383.83
678.458	373.53
678.904	377.02
679.349	360.42
679.794	369.92
680.24	366.12
680.685	369.92
681.131	362.62
681.576	367.02
682.021	368.03
682.466	373.93
682.912	362.12
683.357	361.42
683.802	397.13
684.247	431.12
684.692	475.43
685.137	530.52
685.583	563.12
686.028	581.32
686.473	537.23
686.918	461.02
687.363	436.52
687.807	412.23
688.252	378.62
688.697	373.12
689.142	354.72
689.587	355.32
690.032	342.73
690.477	362.82
690.921	376.12
691.366	403.33
691.811	423.23
692.255	440.53
692.7	475.33
693.145	526.82
693.589	737.02
694.034	1193.12
694.478	1628.92
694.923	1822.62
695.367	2384.53
695.812	1257.93
696.256	519.42
696.701	393.52
697.145	354.22
697.59	342.92
698.034	330.02
698.478	338.93
698.922	336.52
699.367	335.72
699.811	344.42
700.255	359.23
700.699	403.03
701.143	441.43
701.588	496.02
702.032	533.62
702.476	534.13
702.92	507.13
703.364	523.52
703.808	674.42
704.252	1101.03
704.696	1533.03
705.14	1744.22
705.584	2246.03
706.027	1111.92
706.471	548.42
706.915	416.62
707.359	371.02
707.803	331.02
708.246	323.02
708.69	330.12
709.134	324.72
709.577	320.33
710.021	327.73
710.465	318.02
710.908	303.33
711.352	309.83
711.795	332.62
712.239	368.22
712.682	395.12
713.126	429.52
713.569	471.02
714.012	364.72
714.456	315.32
714.899	300.92
715.342	291.73
715.786	271.22
716.229	277.43
716.672	267.42
717.115	256.72
717.558	260.43
718.002	262.73
718.445	270.33
718.888	295.23
719.331	315.52
719.774	322.72
720.217	316.33
720.66	295.52
721.103	280.32
721.546	267.63
721.989	260.82
722.432	249.12
722.874	246.12
723.317	245.62
723.76	253.12
724.203	268.62
724.645	336.22
725.088	470.42
725.531	600.12
725.974	674.23
726.416	577.52
726.859	320.62
727.301	255.03
727.744	247.73
728.187	243.32
728.629	255.62
729.071	255.33
729.514	271.83
729.956	279.93
730.399	292.72
730.841	297.02
731.283	278.82
731.726	274.93
732.168	271.33
732.61	280.12
733.053	297.13
733.495	330.63
733.937	368.23
734.379	417.82
734.821	472.62
735.263	579.32
735.705	882.83
736.148	1683.53
736.59	2739.12
737.032	3214.32
737.474	2626.82
737.916	861.53
738.357	454.02
738.799	349.83
739.241	318.22
739.683	296.42
740.125	300.52
740.567	314.52
741.008	336.12
741.45	332.83
741.892	335.72
742.334	364.52
742.775	377.12
743.217	365.12
743.658	290.02
744.1	270.52
744.542	270.72
744.983	327.22
745.425	356.93
745.866	350.02
746.307	291.33
746.749	293.92
747.19	343.52
747.632	486.13
748.073	930.82
748.514	1981.33
748.956	3015.43
749.397	3779.83
749.838	3150.23
750.279	3116.72
750.72	1581.63
751.162	577.42
751.603	346.43
752.044	274.43
752.485	228.53
752.926	219.23
753.367	206.92
753.808	200.92
754.249	198.93
754.69	196.72
755.131	187.92
755.572	193.23
756.013	188.32
756.453	197.42
756.894	202.73
757.335	197.43
757.776	200.62
758.216	202.12
758.657	208.82
759.098	209.83
759.538	239.62
759.979	283.02
760.42	397.42
760.86	761.22
761.301	1956.72
761.741	4722.62
762.182	6747.42
762.622	4802.82
763.063	1393.93
763.503	567.52
763.943	346.73
764.384	278.32
764.824	250.93
765.264	227.72
765.705	207.02
766.145	185.12
766.585	187.82
767.025	174.62
767.465	168.22
767.906	180.02
768.346	195.23
768.786	198.02
769.226	220.12
769.666	310.73
770.106	656.02
770.546	1663.83
770.986	2791.03
771.426	2485.93
771.866	834.02
772.306	352.72
772.745	217.02
773.185	173.52
773.625	168.52
774.065	163.02
774.505	171.12
774.944	213.02
775.384	365.43
775.824	594.82
776.263	566.03
776.703	287.23
777.142	168.02
777.582	139.02
778.021	130.12
778.461	126.83
778.9	132.82
779.34	123.73
779.779	120.52
780.219	112.23
780.658	103.12
781.097	110.52
781.537	118.82
781.976	114.72
782.415	111.32
782.855	108.52
783.294	106.43
783.733	104.02
784.172	111.22
784.611	108.22
785.05	109.02
785.489	114.73
785.928	114.82
786.367	118.02
786.806	118.72
787.245	133.42
787.684	138.92
788.123	150.42
788.562	141.62
789.001	135.93
789.44	129.12
789.879	119.52
790.317	117.62
790.756	135.73
791.195	136.52
791.634	150.02
792.072	212.13
792.511	387.13
792.95	1062.62
793.388	2229.62
793.827	2008.33
794.265	704.83
794.704	296.83
795.142	191.52
795.581	158.72
796.019	145.02
796.458	134.52
796.896	128.23
797.334	142.73
797.773	166.12
798.211	232.92
798.649	476.02
799.087	1079.83
799.526	1696.62
799.964	2128.03
800.402	2110.53
800.84	798.62
801.278	329.42
801.716	195.73
802.154	158.62
802.592	157.12
803.03	153.02
803.468	138.43
803.906	155.73
804.344	156.12
804.782	150.92
805.22	145.92
805.658	133.22
806.096	146.93
806.533	165.82
806.971	177.32
807.409	237.02
807.847	337.62
808.284	710.12
808.722	1979.33
809.16	3489.93
809.597	3342.03
810.035	5781.32
810.472	6115.62
810.91	2209.73
811.347	847.43
811.785	424.82
812.222	274.52
812.66	207.63
813.097	179.72
813.535	150.32
813.972	134.12
814.409	120.73
814.846	110.02
815.284	110.73
815.721	103.82
816.158	109.02
816.595	116.43
817.032	157.82
817.47	188.52
817.907	151.92
818.344	105.02
818.781	97.83
819.218	101.83
819.655	123.83
820.092	202.02
820.529	221.92
820.966	183.02
821.403	132.02
821.839	103.02
822.276	99.73
822.713	122.32
823.15	144.12
823.587	125.42
824.023	164.12
824.46	320.52
824.897	956.32
825.333	1424.93
825.77	611.92
826.206	244.52
826.643	140.92
827.08	106.73
827.516	81.12
827.953	83.52
828.389	83.12
828.825	77.82
829.262	75.82
829.698	67.42
830.135	68.52
830.571	67.62
831.007	65.02
831.443	61.92
831.88	68.62
832.316	59.62
832.752	64.62
833.188	61.12
833.624	66.43
834.06	66.62
834.497	70.62
834.933	74.93
835.369	78.42
835.805	73.12
836.241	78.02
836.677	85.23
837.112	94.12
837.548	107.12
837.984	148.73
838.42	214.32
838.856	531.22
839.292	1602.22
839.727	2426.23
840.163	1144.03
840.599	981.32
841.034	2151.03
841.47	2234.03
841.906	814.73
842.341	347.52
842.777	201.32
843.212	203.23
843.648	190.82
844.083	115.02
844.519	90.12
844.954	74.43
845.39	64.12
845.825	55.42
846.261	59.62
846.696	54.52
847.131	55.33
847.566	58.72
848.002	54.92
848.437	60.23
848.872	63.33
849.307	62.62
849.742	84.62
850.177	192.33
850.613	591.63
851.048	918.43
851.483	399.12
851.918	166.92
852.353	90.32
852.788	54.32
853.223	52.12
853.657	53.92
854.092	52.83
854.527	39.12
854.962	39.92
855.397	41.73
855.832	48.42
856.266	42.23
856.701	41.73
857.136	39.33
857.57	43.23
858.005	56.62
858.44	59.23
858.874	46.43
859.309	54.23
859.743	47.52
860.178	50.82
860.612	42.42
861.047	58.82
861.481	76.32
861.915	80.93
862.35	50.23
862.784	36.52
863.218	42.52
863.653	29.72
864.087	45.52
864.521	57.33
864.955	67.12
865.39	164.32
865.824	182.12
866.258	118.02
866.692	178.83
867.126	194.42
867.56	115.02
867.994	54.32
868.428	45.92
868.862	46.23
869.296	53.62
869.73	56.32
870.164	53.52
870.598	46.83
871.031	37.72
871.465	38.62
871.899	35.83
872.333	24.23
872.766	31.42
873.2	28.32
873.634	33.83
874.067	28.73
874.501	33.22
874.935	36.22
875.368	30.72
875.802	30.12
876.235	31.62
876.669	25.83
877.102	24.33
877.535	32.12
877.969	26.33
878.402	26.52
878.836	23.42
879.269	22.23
879.702	26.62
880.135	18.12
880.569	19.02
881.002	26.73
881.435	22.32
881.868	17.23
882.301	20.12
882.734	22.42
883.167	20.52
883.601	18.23
884.034	24.02
884.467	15.33
884.899	20.82
885.332	23.62
885.765	21.83
886.198	16.62
886.631	18.12
887.064	16.73
887.497	22.72
887.929	29.42
888.362	21.32
888.795	15.52
889.228	24.42
889.66	18.82
890.093	21.72
890.526	17.72
890.958	14.23
891.391	17.83
891.823	16.62
892.256	16.73
892.688	10.82
893.121	22.33
893.553	14.72
893.985	19.12
894.418	18.12
894.85	15.23
895.282	18.32
895.715	15.32
896.147	16.83
896.579	22.72
897.011	15.33
897.444	14.92
897.876	17.33
898.308	19.32
898.74	14.12
899.172	15.73
899.604	25.43
900.036	27.02
900.468	16.62
900.9	19.52
901.332	21.62
901.764	17.82
902.196	22.83
902.628	20.23
903.06	17.02
903.491	26.73
903.923	25.02
904.355	16.33
904.787	24.22
905.218	18.43
905.65	19.22
906.082	15.52
906.513	15.72
906.945	11.82
907.376	16.82
907.808	20.32
908.239	20.52
908.671	22.62
909.102	21.33
909.534	26.83
909.965	42.33
910.397	97.32
910.828	329.42
911.259	493.73
911.691	226.02
912.122	111.73
912.553	56.82
912.984	41.93
913.415	28.93
913.847	21.62
914.278	14.52
914.709	19.02
915.14	15.43
915.571	23.23
916.002	14.52
916.433	23.73
916.864	15.72
917.295	16.62
917.726	20.23
918.157	12.32
918.587	30.62
919.018	18.62
919.449	26.33
919.88	20.12
920.311	36.42
920.741	53.32
921.172	180.33
921.603	161.32
922.033	71.32
922.464	50.23
922.895	22.52
923.325	14.83
923.756	14.22
924.186	12.93
924.617	19.83
925.047	21.23
925.478	21.42
925.908	21.73
926.338	11.73
926.769	12.12
927.199	19.83
927.629	8.23
928.06	16.02
928.49	14.52
928.92	15.02
929.35	11.12
929.78	10.92
930.21	2.22
930.641	10.23
931.071	8.73
931.501	3.42
931.931	9.43
932.361	3.73
932.791	-1.27
933.221	12.92
933.651	7.23
934.08	17.72
934.51	39.32
934.94	17.73
935.37	6.73
935.8	9.92
936.229	4.92
936.659	9.62
937.089	2.73
937.519	13.62
937.948	20.42
938.378	19.42
938.807	5.72
939.237	6.93
939.666	7.73
940.096	-3.98
940.525	4.02
940.955	2.33
941.384	6.83
941.814	-6.98
942.243	-5.08
942.672	6.02
943.102	-1.38
943.531	0.92
943.96	3.62
944.39	7.72
944.819	0.22
945.248	2.73
945.677	3.73
946.106	0.92
946.535	8.22
946.964	0.73
947.393	1.82
947.822	3.02
948.251	-8.48
948.68	3.43
949.109	3.12
949.538	4.02
949.967	2.32
950.396	1.12
950.825	-5.08
951.254	2.02
951.682	-3.08
952.111	4.73
952.54	6.92
952.969	3.92
953.397	-2.48
953.826	5.22
954.254	-6.77
954.683	-4.18
955.112	-4.58
955.54	3.23
955.969	0.92
956.397	-0.77
956.826	-1.98
957.254	-0.27
957.682	0.32
958.111	5.32
958.539	-0.17
958.967	0.23
959.396	-2.18
959.824	9.93
960.252	12.12
960.68	-3.98
961.109	-1.78
961.537	-4.38
961.965	-2.08
962.393	-3.17
962.821	-5.88
963.249	3.12
963.677	6.23
964.105	4.22
964.533	51.73
964.961	43.12
965.389	23.43
965.817	14.42
966.245	0.02
966.672	3.12
967.1	-10.38
967.528	-0.48
967.956	1.43
968.383	3.02
968.811	-4.27
969.239	-1.08
969.666	-4.58
970.094	3.73
970.522	5.32
970.949	-0.38
971.377	0.83
971.804	-6.77
972.232	-4.88
972.659	-3.48
973.087	3.42
973.514	3.12
973.941	-6.48
974.369	2.02
974.796	-0.27
975.223	-0.78
975.651	-0.67
976.078	5.23
976.505	0.32
976.932	7.23
977.359	16.52
977.786	15.92
978.214	5.52
978.641	-4.08
979.068	1.42
979.495	-5.68
979.922	-2.18
980.349	-4.58
980.776	5.22
981.202	2.22
981.629	6.62
982.056	6.32
982.483	0.33
982.91	-2.38
983.337	-6.38
983.763	4.22
984.19	-4.18
984.617	-7.98
985.043	-6.18
985.47	1.62
985.897	-9.17
986.323	-6.68
986.75	3.33
987.176	0.72
987.603	0.22
988.029	-2.58
988.456	-1.58
988.882	5.43
989.308	-1.48
989.735	-7.38
990.161	-0.58
990.587	-6.88
991.014	2.73
991.44	2.42
991.866	1.73
992.292	-5.27
992.719	-3.68
993.145	10.23
993.571	-9.77
993.997	-1.38
994.423	1.62
994.849	-11.98
995.275	-3.17
995.701	-3.78
996.127	-1.88
996.553	-2.17
996.979	-6.98
997.405	-1.27
997.83	-1.98
998.256	-3.18
998.682	-6.27
999.108	-8.28
999.534	-2.28
999.959	-0.48
1000.385	-4.58
1000.811	-1.68
1001.236	-12.98
1001.662	-11.38
1002.087	-3.67
1002.513	-0.08
1002.938	3.52
1003.364	-0.67
1003.789	0.92
1004.215	-1.77
1004.64	-2.88
1005.066	4.33
1005.491	2.73
1005.916	3.72
1006.342	-7.48
1006.767	-5.38
1007.192	1.23
1007.617	-2.38
1008.042	-6.67
1008.468	-11.68
1008.893	-3.67
1009.318	0.82
1009.743	-1.38
1010.168	2.62
1010.593	2.42
1011.018	-6.88
1011.443	-5.18
1011.868	-0.38
1012.293	-2.98
1012.718	-7.57
1013.143	7.12
1013.567	2.12
1013.992	-3.08
1014.417	-6.18
1014.842	-0.18
1015.267	-4.08
1015.691	-4.17
1016.116	3.02
1016.541	-0.98
1016.965	2.52
1017.39	7.62
1017.814	1.93
1018.239	2.02
1018.663	-9.18
1019.088	-10.08
1019.512	-7.68
1019.937	1.12
1020.361	-9.68
1020.785	-9.88
1021.21	-8.77
1021.634	0.42
1022.058	-3.18
1022.483	3.12
1022.907	-2.38
1023.331	-4.48
1023.755	-7.58
1024.179	-4.48
1024.604	-4.38
1025.028	-6.78
1025.452	-7.08
1025.876	-0.48
1026.3	-7.28
1026.724	-11.18
1027.148	-2.38
1027.572	-2.58
1027.996	-5.38
1028.42	1.72
1028.843	-5.98
1029.267	-2.48
1029.691	-0.18
1030.115	-5.98
1030.539	-8.48
1030.962	-11.38
1031.386	-14.17
1031.81	-3.38
1032.233	-0.38
1032.657	-1.67
1033.08	-5.68
1033.504	-4.48
1033.927	-4.17
1034.351	1.12
1034.774	-7.38
1035.198	-6.58
1035.621	-6.98
1036.045	-6.68
1036.468	-1.98
1036.891	-10.58
1037.315	-3.58
1037.738	-3.77
1038.161	-0.08
1038.584	-11.38
1039.008	-3.58
1039.431	-0.38
1039.854	-5.68
1040.277	-9.38
1040.7	-12.27
1041.123	0.42
1041.546	-7.38
1041.969	-6.98
1042.392	-2.98
1042.815	-3.28
1043.238	1.32
1043.661	-1.68
1044.084	-4.98
1044.507	-11.08
1044.93	-7.08
1045.352	-4.38
1045.775	-8.48
1046.198	-5.88
1046.621	-0.38
1047.043	3.12
1047.466	3.23
1047.889	-6.88
1048.311	-7.77
1048.734	-2.58
1049.156	0.62
1049.579	-3.78
1050.001	-6.67
1050.424	-0.68
1050.846	-6.28
1051.269	-2.77
1051.691	-10.98
1052.113	-7.78
1052.536	-1.58
1052.958	-5.48
1053.38	-9.88
1053.802	-9.58
1054.225	-0.48
1054.647	-7.88
1055.069	-0.68
1055.491	1.12
1055.913	-5.78
1056.335	-1.98
1056.757	-3.17
1057.179	-5.58
1057.601	-9.27
1058.023	-4.38
1058.445	-2.98
1058.867	-3.48
1059.289	-8.28
1059.711	-4.98
1060.133	-3.58
1060.555	-9.78
1060.976	-9.58
1061.398	-6.27
1061.82	-3.08
1062.241	-11.08
1062.663	-8.98
1063.085	-6.08
1063.506	-2.57
1063.928	-8.28
1064.35	-1.77
1064.771	-8.68
1065.193	-0.78
1065.614	-6.27
1066.035	1.52
1066.457	-2.48
1066.878	2.52
1067.3	-8.38
1067.721	-6.28
1068.142	-4.68
1068.564	-9.28
1068.985	-10.08
1069.406	-6.27
1069.827	-3.58
1070.248	1.62
1070.67	-7.18
1071.091	-9.38
1071.512	-4.28
1071.933	-1.98
1072.354	-7.27
1072.775	-8.27
1073.196	-13.48
1073.617	-6.68
1074.038	-7.17
1074.459	0.12
1074.88	-7.08
1075.3	-3.68
1075.721	-1.68
1076.142	0.02
1076.563	-4.88
1076.983	-9.77
1077.404	-8.27
1077.825	-9.38
1078.246	-8.48
1078.666	-9.68
1079.087	-2.27
1079.507	-8.38
1079.928	-3.48
1080.348	-0.17
1080.769	-5.88
1081.189	-2.88
1081.61	-8.38
1082.03	-9.18
1082.451	-2.27
1082.871	5.43
1083.291	-6.88
1083.711	-10.77
1084.132	-4.88
1084.552	-5.88
1084.972	-7.98
1085.392	-12.08
1085.813	-12.18
1086.233	-9.38
1086.653	-7.58
1087.073	-0.67
1087.493	-4.58
1087.913	-11.48
1088.333	-7.58
1088.753	-9.28
1089.173	-6.48
1089.593	-7.07
1090.013	4.52
1090.433	-4.38
1090.852	-8.68
1091.272	-4.78
1091.692	-2.88
1092.112	0.32
1092.531	-11.28
1092.951	-14.98
1093.371	-3.18
1093.79	2.62
1094.21	-7.08
1094.63	-0.27
1095.049	-3.98
1095.469	-4.58
1095.888	-4.68
1096.308	-1.28
1096.727	0.73
1097.146	-10.27
1097.566	-0.98
1097.985	-6.58
1098.405	-2.67
1098.824	-3.68
1099.243	-6.27
1099.662	-8.28
1100.082	-5.67
1100.501	1.52
1100.92	-12.18
1101.339	-4.78
1101.758	-7.88
