Data from 20171114-ORNL-Ar_H_NY_Subt18_08-06-05-174.txt Node
Date: Tue Nov 14 08:06:05 EST 2017
User: Ender
Spectrometer: HR+D1039
Trigger mode: 0
Integration Time (sec): 2.730000E-2
Scans to average: 10
Electric dark correction enabled: true
Nonlinearity correction enabled: false
Boxcar width: 0
XAxis mode: Wavelengths
Number of Pixels in Spectrum: 2048
>>>>>Begin Spectral Data<<<<<
187.836	-0.02
188.309	-0.02
188.782	-0.02
189.255	4.38
189.728	-2.22
190.201	3.58
190.674	1.48
191.147	6.58
191.619	-3.62
192.092	-0.72
192.565	2.58
193.038	-1.42
193.511	1.38
193.984	-2.42
194.456	-4.42
194.929	-1.82
195.402	-3.32
195.874	-0.02
196.347	-5.72
196.82	-2.32
197.292	9.68
197.765	1.28
198.237	-6.42
198.71	2.48
199.182	-3.22
199.655	5.68
200.127	6.08
200.6	-2.32
201.072	-4.42
201.544	-4.12
202.017	-1.52
202.489	5.38
202.961	-3.22
203.433	0.08
203.906	-9.12
204.378	-8.42
204.85	0.48
205.322	-8.02
205.794	-0.82
206.266	-1.32
206.739	-12.32
207.211	2.68
207.683	-7.42
208.155	-3.42
208.627	-1.62
209.099	0.28
209.57	-11.82
210.042	-2.32
210.514	4.08
210.986	-1.32
211.458	-1.62
211.93	-7.72
212.402	-1.22
212.873	-8.42
213.345	-0.72
213.817	-13.42
214.288	-3.32
214.76	-11.02
215.232	-1.92
215.703	-3.52
216.175	-7.62
216.646	-2.92
217.118	-4.02
217.589	-5.12
218.061	-0.22
218.532	2.68
219.004	-1.92
219.475	-4.42
219.946	-9.92
220.418	-7.02
220.889	5.38
221.36	0.48
221.832	0.58
222.303	-7.02
222.774	-3.52
223.245	-10.92
223.717	-11.32
224.188	2.58
224.659	-4.82
225.13	-3.82
225.601	-0.02
226.072	2.68
226.543	-0.72
227.014	4.18
227.485	-3.72
227.956	-4.12
228.427	-2.12
228.898	2.18
229.369	5.58
229.839	-3.12
230.31	-7.92
230.781	4.18
231.252	-2.12
231.722	0.48
232.193	-2.32
232.664	-0.12
233.135	-1.42
233.605	3.78
234.076	-6.32
234.546	3.28
235.017	7.88
235.487	0.68
235.958	-3.32
236.428	-2.82
236.899	3.78
237.369	2.68
237.84	0.18
238.31	9.68
238.78	-0.22
239.251	1.68
239.721	4.28
240.191	8.58
240.662	-2.02
241.132	5.58
241.602	-4.92
242.072	2.88
242.542	-2.42
243.013	0.68
243.483	4.38
243.953	7.98
244.423	0.58
244.893	-0.02
245.363	7.58
245.833	3.38
246.303	-2.82
246.773	5.08
247.243	5.18
247.712	0.98
248.182	7.58
248.652	2.18
249.122	-3.32
249.592	12.88
250.061	21.38
250.531	35.98
251.001	14.48
251.471	27.58
251.94	17.98
252.41	10.88
252.879	4.98
253.349	13.18
253.818	9.88
254.288	-2.52
254.757	6.58
255.227	-2.92
255.696	4.18
256.166	5.88
256.635	12.08
257.105	8.58
257.574	2.08
258.043	9.68
258.513	18.68
258.982	25.98
259.451	4.08
259.92	13.38
260.389	7.88
260.859	16.28
261.328	13.78
261.797	18.28
262.266	14.18
262.735	14.78
263.204	10.78
263.673	5.38
264.142	4.28
264.611	1.48
265.08	3.68
265.549	1.48
266.018	8.18
266.487	-6.32
266.955	4.48
267.424	7.38
267.893	12.38
268.362	3.28
268.83	8.58
269.299	12.88
269.768	10.38
270.236	12.08
270.705	1.78
271.174	12.68
271.642	13.08
272.111	11.88
272.579	18.28
273.048	24.58
273.516	33.48
273.985	30.48
274.453	25.58
274.922	20.08
275.39	15.28
275.858	9.18
276.327	16.38
276.795	20.08
277.263	7.18
277.731	30.98
278.2	56.38
278.668	62.98
279.136	50.68
279.604	22.58
280.072	19.98
280.54	15.68
281.008	10.88
281.477	13.88
281.945	12.08
282.413	16.78
282.881	15.08
283.348	7.68
283.816	14.88
284.284	13.18
284.752	22.48
285.22	16.48
285.688	18.58
286.156	18.58
286.623	49.48
287.091	57.88
287.559	33.78
288.026	17.78
288.494	16.58
288.962	8.68
289.429	16.98
289.897	17.68
290.364	11.78
290.832	15.28
291.3	15.88
291.767	21.98
292.234	21.58
292.702	17.58
293.169	18.38
293.637	29.38
294.104	22.68
294.571	16.58
295.039	15.18
295.506	14.28
295.973	17.98
296.44	9.18
296.908	22.98
297.375	22.48
297.842	20.58
298.309	19.88
298.776	17.88
299.243	18.68
299.71	16.48
300.177	27.28
300.644	25.98
301.111	22.08
301.578	20.78
302.045	18.78
302.512	31.68
302.979	28.38
303.446	25.38
303.913	23.18
304.379	25.98
304.846	29.58
305.313	30.68
305.78	26.78
306.246	25.78
306.713	30.38
307.18	30.48
307.646	32.48
308.113	30.68
308.579	22.48
309.046	28.28
309.512	25.08
309.979	24.08
310.445	29.68
310.912	32.68
311.378	33.58
311.845	32.48
312.311	36.88
312.777	38.08
313.244	33.18
313.71	39.58
314.176	26.88
314.642	35.08
315.109	34.78
315.575	39.78
316.041	39.18
316.507	35.98
316.973	45.58
317.439	40.58
317.905	39.58
318.371	36.58
318.837	36.38
319.303	32.18
319.769	37.48
320.235	30.38
320.701	35.08
321.167	37.28
321.633	37.88
322.099	34.58
322.564	49.28
323.03	47.78
323.496	43.98
323.962	47.98
324.427	35.48
324.893	41.38
325.359	38.48
325.824	43.18
326.29	36.08
326.755	38.58
327.221	41.08
327.686	38.18
328.152	49.08
328.617	42.78
329.083	49.78
329.548	51.38
330.014	52.58
330.479	44.48
330.944	48.88
331.41	47.88
331.875	45.78
332.34	46.18
332.805	44.78
333.271	48.88
333.736	43.98
334.201	60.78
334.666	58.08
335.131	55.78
335.596	57.68
336.061	55.08
336.526	51.38
336.991	57.18
337.456	59.88
337.921	54.58
338.386	41.98
338.851	45.38
339.316	57.38
339.781	47.68
340.246	54.78
340.711	54.98
341.175	53.88
341.64	43.08
342.105	51.28
342.569	53.68
343.034	63.18
343.499	58.58
343.963	59.98
344.428	68.18
344.893	67.78
345.357	62.58
345.822	63.28
346.286	67.78
346.751	74.28
347.215	66.28
347.679	80.18
348.144	106.78
348.608	88.28
349.073	76.88
349.537	79.38
350.001	85.88
350.465	87.48
350.93	87.18
351.394	84.88
351.858	79.28
352.322	86.08
352.786	84.98
353.25	103.18
353.715	113.68
354.179	102.88
354.643	127.78
355.107	132.78
355.571	114.88
356.035	111.08
356.498	122.28
356.962	126.68
357.426	137.48
357.89	121.28
358.354	91.18
358.818	91.28
359.281	86.18
359.745	75.18
360.209	81.78
360.673	74.88
361.136	86.58
361.6	85.38
362.064	86.28
362.527	88.78
362.991	90.18
363.454	85.58
363.918	80.68
364.381	81.08
364.845	81.28
365.308	88.28
365.772	90.28
366.235	88.68
366.698	80.68
367.162	84.38
367.625	91.28
368.088	90.38
368.552	92.98
369.015	87.08
369.478	100.28
369.941	100.78
370.404	104.08
370.867	106.58
371.331	105.38
371.794	114.88
372.257	115.28
372.72	121.08
373.183	108.38
373.646	102.28
374.109	110.78
374.572	111.88
375.035	114.98
375.497	117.18
375.96	107.68
376.423	110.78
376.886	114.78
377.349	111.98
377.811	110.18
378.274	110.68
378.737	111.58
379.199	112.78
379.662	122.88
380.125	120.88
380.587	120.88
381.05	123.58
381.512	132.98
381.975	137.68
382.437	131.48
382.9	132.58
383.362	137.28
383.825	149.68
384.287	150.18
384.75	143.18
385.212	144.98
385.674	147.78
386.136	142.08
386.599	125.28
387.061	134.88
387.523	133.68
387.985	136.98
388.447	151.58
388.91	149.48
389.372	161.58
389.834	156.08
390.296	150.58
390.758	158.48
391.22	178.18
391.682	215.88
392.144	313.98
392.606	233.28
393.068	172.38
393.529	168.28
393.991	156.28
394.453	146.18
394.915	163.78
395.377	197.98
395.838	222.88
396.3	161.28
396.762	143.18
397.224	136.28
397.685	141.48
398.147	135.38
398.608	135.48
399.07	135.58
399.531	138.78
399.993	137.18
400.454	155.48
400.916	155.48
401.377	144.48
401.839	149.28
402.3	146.78
402.762	175.78
403.223	183.88
403.684	170.08
404.145	160.38
404.607	166.38
405.068	174.18
405.529	177.68
405.99	190.48
406.451	180.48
406.913	175.08
407.374	166.28
407.835	164.78
408.296	174.78
408.757	180.48
409.218	183.18
409.679	185.88
410.14	180.58
410.601	181.28
411.062	189.08
411.522	197.58
411.983	190.28
412.444	184.88
412.905	187.88
413.366	190.78
413.826	203.48
414.287	222.78
414.748	261.18
415.208	254.28
415.669	217.98
416.13	212.28
416.59	209.08
417.051	214.08
417.511	224.18
417.972	248.18
418.432	250.68
418.893	285.68
419.353	256.08
419.814	200.08
420.274	192.88
420.734	182.28
421.195	203.68
421.655	201.68
422.115	196.78
422.576	196.68
423.036	202.68
423.496	204.98
423.956	219.68
424.416	232.88
424.876	269.78
425.336	269.68
425.797	262.18
426.257	262.78
426.717	244.98
427.177	240.28
427.637	229.48
428.097	238.78
428.556	242.98
429.016	278.58
429.476	273.48
429.936	284.98
430.396	291.48
430.856	293.58
431.315	323.68
431.775	360.08
432.235	388.58
432.694	360.98
433.154	375.58
433.614	405.38
434.073	344.78
434.533	289.38
434.993	272.28
435.452	290.48
435.912	303.78
436.371	291.18
436.83	287.68
437.29	277.78
437.749	255.68
438.209	248.88
438.668	275.28
439.127	287.58
439.587	274.48
440.046	254.18
440.505	265.08
440.964	274.98
441.424	330.58
441.883	315.58
442.342	264.38
442.801	229.48
443.26	224.18
443.719	225.38
444.178	221.28
444.637	206.28
445.096	226.18
445.555	231.68
446.014	228.18
446.473	227.18
446.932	234.38
447.391	226.48
447.849	238.38
448.308	225.38
448.767	229.58
449.226	240.38
449.685	244.48
450.143	251.08
450.602	236.18
451.061	228.78
451.519	239.68
451.978	232.98
452.436	236.18
452.895	247.48
453.353	260.68
453.812	246.98
454.27	248.88
454.729	240.88
455.187	240.38
455.646	249.28
456.104	248.38
456.562	266.28
457.021	280.88
457.479	274.38
457.937	272.48
458.395	269.28
458.854	247.38
459.312	269.68
459.77	279.58
460.228	267.58
460.686	246.08
461.144	247.08
461.602	242.68
462.06	251.98
462.518	257.28
462.976	261.68
463.434	268.28
463.892	265.18
464.35	275.78
464.808	299.48
465.266	269.48
465.724	278.78
466.181	274.28
466.639	276.18
467.097	292.48
467.555	306.18
468.012	303.88
468.47	319.98
468.928	333.48
469.385	341.78
469.843	351.48
470.3	356.38
470.758	372.78
471.215	394.08
471.673	419.08
472.13	417.48
472.588	420.68
473.045	378.38
473.503	381.58
473.96	405.38
474.417	417.18
474.875	442.48
475.332	480.58
475.789	469.48
476.246	475.78
476.704	492.38
477.161	519.18
477.618	531.88
478.075	571.28
478.532	626.38
478.989	703.18
479.446	824.28
479.903	792.08
480.36	838.08
480.817	890.38
481.274	993.48
481.731	1118.38
482.188	1205.98
482.645	1336.08
483.102	1451.88
483.558	1588.48
484.015	1648.48
484.472	1614.18
484.929	1561.58
485.385	1526.28
485.842	1472.38
486.299	1402.78
486.755	1339.58
487.212	1126.38
487.668	940.48
488.125	873.18
488.582	791.68
489.038	770.78
489.494	723.38
489.951	693.38
490.407	678.88
490.864	657.18
491.32	657.18
491.776	652.98
492.233	657.68
492.689	623.38
493.145	618.08
493.602	601.28
494.058	626.08
494.514	619.48
494.97	645.58
495.426	660.28
495.882	642.38
496.338	623.18
496.794	638.38
497.251	637.78
497.707	645.78
498.163	649.98
498.618	658.58
499.074	662.28
499.53	695.98
499.986	694.48
500.442	663.68
500.898	642.88
501.354	629.68
501.809	643.18
502.265	661.18
502.721	663.58
503.177	679.48
503.632	682.68
504.088	681.38
504.543	732.18
504.999	721.48
505.455	668.28
505.91	640.28
506.366	649.28
506.821	637.68
507.277	635.38
507.732	632.28
508.187	635.48
508.643	636.58
509.098	643.78
509.553	664.68
510.009	675.28
510.464	691.88
510.919	702.38
511.375	707.58
511.83	712.68
512.285	732.08
512.74	761.78
513.195	796.48
513.65	771.58
514.105	783.58
514.56	790.18
515.015	800.58
515.47	820.78
515.925	804.78
516.38	805.38
516.835	796.78
517.29	793.58
517.745	794.58
518.2	774.68
518.655	759.28
519.109	753.28
519.564	752.48
520.019	738.38
520.474	733.08
520.928	742.68
521.383	736.48
521.838	723.58
522.292	720.68
522.747	724.08
523.201	710.58
523.656	704.48
524.11	709.28
524.565	708.48
525.019	696.38
525.474	713.08
525.928	719.38
526.382	697.88
526.837	709.98
527.291	714.68
527.745	713.18
528.2	708.98
528.654	715.98
529.108	702.08
529.562	709.08
530.016	704.78
530.47	697.58
530.925	694.88
531.379	703.28
531.833	714.08
532.287	712.28
532.741	724.98
533.195	723.68
533.649	736.38
534.103	730.38
534.556	714.58
535.01	723.88
535.464	719.18
535.918	725.28
536.372	724.48
536.826	736.88
537.279	720.58
537.733	727.18
538.187	722.68
538.64	728.88
539.094	729.98
539.548	744.08
540.001	731.48
540.455	733.68
540.908	734.38
541.362	746.88
541.815	752.78
542.269	756.08
542.722	769.08
543.175	779.38
543.629	773.08
544.082	788.58
544.536	791.88
544.989	795.38
545.442	805.28
545.895	800.68
546.349	809.08
546.802	806.08
547.255	798.58
547.708	814.78
548.161	836.28
548.614	827.48
549.067	840.78
549.52	813.68
549.973	818.98
550.426	810.38
550.879	811.28
551.332	808.68
551.785	807.78
552.238	811.68
552.691	828.78
553.144	846.18
553.596	853.68
554.049	878.18
554.502	902.48
554.955	923.08
555.407	918.98
555.86	911.88
556.313	918.08
556.765	893.68
557.218	899.28
557.67	884.98
558.123	882.98
558.576	889.68
559.028	896.88
559.48	892.38
559.933	883.08
560.385	849.38
560.838	808.88
561.29	798.38
561.742	785.48
562.195	770.68
562.647	774.08
563.099	781.88
563.551	778.28
564.004	798.28
564.456	786.58
564.908	771.98
565.36	749.58
565.812	743.78
566.264	728.88
566.716	727.48
567.168	722.68
567.62	730.78
568.072	709.08
568.524	703.68
568.976	691.68
569.428	681.78
569.88	684.78
570.332	681.08
570.784	690.98
571.235	688.28
571.687	701.28
572.139	706.48
572.59	718.78
573.042	717.48
573.494	713.98
573.945	709.58
574.397	699.78
574.849	703.48
575.3	700.18
575.752	682.58
576.203	681.38
576.655	682.08
577.106	670.98
577.557	667.28
578.009	679.38
578.46	670.08
578.912	668.88
579.363	668.98
579.814	675.18
580.265	658.48
580.717	666.28
581.168	675.58
581.619	682.78
582.07	694.88
582.521	684.78
582.972	684.58
583.423	672.38
583.875	686.38
584.326	709.38
584.777	755.88
585.227	830.38
585.678	932.18
586.129	1017.48
586.58	1092.28
587.031	1183.88
587.482	1351.88
587.933	1531.98
588.384	1323.98
588.834	992.88
589.285	818.98
589.736	781.48
590.186	783.98
590.637	764.78
591.088	739.68
591.538	746.08
591.989	738.28
592.439	725.28
592.89	729.68
593.34	718.38
593.791	710.38
594.241	710.18
594.692	719.28
595.142	701.28
595.593	692.18
596.043	715.88
596.493	730.08
596.943	721.18
597.394	724.78
597.844	710.98
598.294	732.88
598.744	751.78
599.195	781.78
599.645	816.58
600.095	850.28
600.545	909.18
600.995	974.08
601.445	1022.38
601.895	1079.48
602.345	1133.68
602.795	1114.88
603.245	1070.38
603.695	1021.38
604.145	958.78
604.594	896.28
605.044	857.98
605.494	803.88
605.944	761.78
606.393	739.78
606.843	735.98
607.293	733.78
607.743	731.08
608.192	752.88
608.642	752.18
609.091	775.88
609.541	772.98
609.99	765.28
610.44	771.28
610.889	727.98
611.339	701.08
611.788	688.38
612.238	695.88
612.687	719.08
613.136	732.68
613.586	737.08
614.035	744.08
614.484	753.28
614.933	766.68
615.383	757.08
615.832	752.58
616.281	729.78
616.73	693.28
617.179	666.88
617.628	652.78
618.077	643.58
618.526	620.88
618.975	621.38
619.424	614.78
619.873	614.08
620.322	620.98
620.771	604.08
621.22	604.28
621.669	594.68
622.118	591.78
622.567	580.38
623.015	570.78
623.464	565.38
623.913	554.38
624.361	562.58
624.81	545.38
625.259	548.68
625.707	551.68
626.156	555.98
626.604	566.78
627.053	563.58
627.501	550.78
627.95	577.48
628.398	582.78
628.847	567.78
629.295	564.78
629.744	565.08
630.192	565.88
630.64	560.88
631.089	561.38
631.537	581.88
631.985	584.98
632.433	606.28
632.881	603.68
633.33	658.78
633.778	636.18
634.226	567.38
634.674	579.98
635.122	573.98
635.57	586.98
636.018	636.48
636.466	583.18
636.914	553.28
637.362	568.78
637.81	567.58
638.258	578.68
638.705	573.38
639.153	605.58
639.601	616.98
640.049	631.08
640.497	660.58
640.944	687.78
641.392	639.78
641.84	604.08
642.287	587.48
642.735	567.68
643.182	572.08
643.63	568.08
644.078	572.88
644.525	586.38
644.973	598.38
645.42	603.88
645.867	623.78
646.315	637.98
646.762	661.88
647.21	689.88
647.657	719.08
648.104	757.18
648.551	772.48
648.999	841.38
649.446	914.08
649.893	1009.48
650.34	1167.88
650.787	1405.28
651.234	1728.98
651.682	2244.28
652.129	3115.08
652.576	4495.78
653.023	6587.28
653.47	9123.88
653.917	11453.28
654.363	13198.88
654.81	14648.68
655.257	13907.98
655.704	9118.58
656.151	5366.08
656.598	3450.28
657.044	2434.68
657.491	1884.58
657.938	1498.78
658.385	1246.98
658.831	1083.98
659.278	961.48
659.724	851.18
660.171	788.38
660.618	713.88
661.064	688.68
661.511	668.78
661.957	651.88
662.404	645.48
662.85	653.78
663.296	620.48
663.743	559.88
664.189	540.08
664.635	522.88
665.082	525.18
665.528	532.58
665.974	523.18
666.42	513.48
666.867	505.48
667.313	491.98
667.759	483.78
668.205	473.28
668.651	480.98
669.097	486.78
669.543	497.58
669.989	463.58
670.435	444.28
670.881	447.08
671.327	443.48
671.773	459.78
672.219	481.08
672.665	543.68
673.11	571.78
673.556	620.58
674.002	662.68
674.448	641.78
674.893	542.68
675.339	467.18
675.785	437.28
676.23	412.58
676.676	380.08
677.122	375.48
677.567	371.68
678.013	354.88
678.458	349.18
678.904	362.48
679.349	342.68
679.794	352.08
680.24	345.98
680.685	346.98
681.131	342.18
681.576	351.08
682.021	361.88
682.466	345.88
682.912	339.08
683.357	345.28
683.802	370.28
684.247	398.88
684.692	448.48
685.137	491.38
685.583	518.48
686.028	550.48
686.473	507.98
686.918	450.88
687.363	413.08
687.807	391.98
688.252	361.38
688.697	352.08
689.142	333.88
689.587	329.88
690.032	321.98
690.477	328.88
690.921	338.38
691.366	382.08
691.811	400.88
692.255	425.58
692.7	457.88
693.145	488.78
693.589	681.78
694.034	1105.08
694.478	1501.28
694.923	1700.38
695.367	2236.88
695.812	1167.08
696.256	489.48
696.701	368.88
697.145	340.18
697.59	327.18
698.034	316.48
698.478	330.28
698.922	328.38
699.367	322.88
699.811	334.78
700.255	359.38
700.699	377.58
701.143	425.78
701.588	467.18
702.032	504.48
702.476	506.88
702.92	484.38
703.364	485.78
703.808	617.68
704.252	1001.68
704.696	1412.68
705.14	1643.88
705.584	2096.58
706.027	1042.48
706.471	499.68
706.915	387.28
707.359	349.18
707.803	315.58
708.246	299.88
708.69	311.88
709.134	311.28
709.577	309.18
710.021	313.28
710.465	298.38
710.908	292.68
711.352	300.18
711.795	304.68
712.239	343.68
712.682	387.08
713.126	404.78
713.569	459.38
714.012	368.38
714.456	319.38
714.899	295.08
715.342	279.48
715.786	261.88
716.229	260.48
716.672	253.18
717.115	245.68
717.558	247.28
718.002	248.38
718.445	255.88
718.888	281.78
719.331	291.08
719.774	303.98
720.217	303.28
720.66	283.08
721.103	263.38
721.546	245.28
721.989	239.78
722.432	230.68
722.874	233.88
723.317	229.08
723.76	234.08
724.203	248.58
724.645	312.58
725.088	436.48
725.531	561.68
725.974	642.68
726.416	537.58
726.859	309.28
727.301	246.48
727.744	223.48
728.187	228.28
728.629	240.88
729.071	241.58
729.514	253.18
729.956	271.58
730.399	278.68
730.841	284.38
731.283	269.18
731.726	259.58
732.168	256.98
732.61	256.38
733.053	277.98
733.495	312.48
733.937	341.18
734.379	382.58
734.821	422.68
735.263	527.88
735.705	798.78
736.148	1530.88
736.59	2510.78
737.032	3009.68
737.474	2438.08
737.916	789.68
738.357	423.58
738.799	323.48
739.241	289.68
739.683	282.38
740.125	284.28
740.567	288.38
741.008	308.38
741.45	310.48
741.892	308.48
742.334	332.08
742.775	349.98
743.217	326.68
743.658	267.78
744.1	250.68
744.542	253.68
744.983	295.78
745.425	341.08
745.866	329.08
746.307	275.88
746.749	287.48
747.19	316.48
747.632	444.68
748.073	851.48
748.514	1804.38
748.956	2777.88
749.397	3479.78
749.838	2881.78
750.279	2916.48
750.72	1458.88
751.162	533.88
751.603	309.88
752.044	242.98
752.485	217.18
752.926	206.28
753.367	200.08
753.808	190.98
754.249	182.78
754.69	180.88
755.131	179.08
755.572	181.78
756.013	169.28
756.453	185.98
756.894	180.98
757.335	189.28
757.776	191.78
758.216	190.48
758.657	194.48
759.098	194.58
759.538	216.68
759.979	252.08
760.42	363.38
760.86	679.18
761.301	1730.88
761.741	4276.28
762.182	6291.48
762.622	4421.88
763.063	1278.08
763.503	524.98
763.943	341.38
764.384	336.88
764.824	406.88
765.264	436.18
765.705	301.28
766.145	206.18
766.585	185.78
767.025	181.18
767.465	180.68
767.906	236.48
768.346	312.98
768.786	334.98
769.226	254.78
769.666	312.98
770.106	601.48
770.546	1495.48
770.986	2584.38
771.426	2309.98
771.866	772.38
772.306	319.78
772.745	206.38
773.185	174.58
773.625	163.18
774.065	170.68
774.505	202.08
774.944	301.18
775.384	686.08
775.824	1265.98
776.263	1237.58
776.703	522.08
777.142	227.98
777.582	160.48
778.021	137.78
778.461	145.38
778.9	140.68
779.34	129.28
779.779	122.08
780.219	108.58
780.658	107.48
781.097	115.18
781.537	112.48
781.976	109.18
782.415	106.18
782.855	96.98
783.294	101.28
783.733	97.08
784.172	106.98
784.611	107.28
785.05	114.18
785.489	110.28
785.928	121.98
786.367	120.78
786.806	117.28
787.245	130.58
787.684	134.88
788.123	142.18
788.562	134.38
789.001	126.78
789.44	119.38
789.879	115.88
790.317	115.88
790.756	119.58
791.195	126.58
791.634	138.08
792.072	196.78
792.511	352.18
792.95	966.38
793.388	2087.98
793.827	1891.08
794.265	661.18
794.704	278.58
795.142	178.18
795.581	144.28
796.019	132.88
796.458	122.48
796.896	126.38
797.334	127.38
797.773	154.38
798.211	212.78
798.649	423.98
799.087	996.68
799.526	1556.08
799.964	1959.58
800.402	1963.78
800.84	735.78
801.278	289.58
801.716	184.78
802.154	149.18
802.592	142.88
803.03	132.28
803.468	130.98
803.906	139.38
804.344	141.48
804.782	141.98
805.22	132.18
805.658	126.98
806.096	152.18
806.533	156.78
806.971	170.18
807.409	206.78
807.847	307.48
808.284	637.68
808.722	1794.18
809.16	3213.28
809.597	3001.18
810.035	5228.78
810.472	5661.88
810.91	2035.78
811.347	771.18
811.785	400.58
812.222	254.58
812.66	190.88
813.097	159.98
813.535	136.68
813.972	125.18
814.409	115.28
814.846	105.48
815.284	103.28
815.721	95.78
816.158	106.08
816.595	118.98
817.032	173.48
817.47	196.38
817.907	170.68
818.344	156.68
818.781	124.68
819.218	102.68
819.655	121.18
820.092	180.98
820.529	203.98
820.966	175.78
821.403	139.28
821.839	107.28
822.276	105.38
822.713	123.88
823.15	134.98
823.587	114.68
824.023	148.18
824.46	288.28
824.897	862.38
825.333	1322.48
825.77	563.88
826.206	223.38
826.643	126.08
827.08	95.18
827.516	82.48
827.953	78.88
828.389	83.98
828.825	64.28
829.262	63.28
829.698	62.18
830.135	65.58
830.571	62.28
831.007	61.38
831.443	62.18
831.88	63.58
832.316	59.98
832.752	69.08
833.188	61.08
833.624	63.38
834.06	65.38
834.497	66.88
834.933	70.68
835.369	72.68
835.805	59.98
836.241	72.28
836.677	78.58
837.112	83.68
837.548	101.28
837.984	126.98
838.42	184.28
838.856	469.98
839.292	1473.88
839.727	2247.38
840.163	1039.68
840.599	881.38
841.034	1956.98
841.47	2080.48
841.906	762.58
842.341	328.48
842.777	228.68
843.212	321.18
843.648	315.68
844.083	157.08
844.519	96.68
844.954	76.48
845.39	52.88
845.825	61.18
846.261	50.68
846.696	55.18
847.131	53.98
847.566	57.38
848.002	50.98
848.437	53.18
848.872	67.08
849.307	61.48
849.742	84.18
850.177	174.08
850.613	537.98
851.048	850.38
851.483	369.28
851.918	149.58
852.353	78.78
852.788	65.28
853.223	55.88
853.657	53.88
854.092	41.38
854.527	44.68
854.962	45.98
855.397	47.58
855.832	49.08
856.266	42.38
856.701	44.38
857.136	40.38
857.57	43.78
858.005	41.88
858.44	55.98
858.874	45.08
859.309	59.38
859.743	41.68
860.178	46.48
860.612	36.48
861.047	52.98
861.481	68.38
861.915	71.48
862.35	46.78
862.784	32.28
863.218	39.08
863.653	39.88
864.087	48.48
864.521	52.08
864.955	65.88
865.39	148.28
865.824	164.18
866.258	111.48
866.692	152.98
867.126	167.98
867.56	96.98
867.994	54.88
868.428	39.28
868.862	46.48
869.296	50.28
869.73	51.18
870.164	52.28
870.598	46.18
871.031	38.68
871.465	36.38
871.899	32.08
872.333	26.18
872.766	20.38
873.2	23.68
873.634	26.48
874.067	24.68
874.501	18.98
874.935	36.78
875.368	34.68
875.802	29.28
876.235	27.78
876.669	28.48
877.102	20.98
877.535	22.38
877.969	21.38
878.402	24.38
878.836	23.48
879.269	21.28
879.702	26.18
880.135	23.88
880.569	20.08
881.002	27.98
881.435	20.98
881.868	19.78
882.301	25.88
882.734	16.78
883.167	23.58
883.601	23.18
884.034	22.38
884.467	12.48
884.899	20.28
885.332	14.98
885.765	19.68
886.198	17.68
886.631	18.68
887.064	15.98
887.497	22.38
887.929	25.48
888.362	14.68
888.795	10.88
889.228	23.68
889.66	22.88
890.093	18.58
890.526	15.78
890.958	15.78
891.391	19.28
891.823	17.38
892.256	13.18
892.688	11.18
893.121	16.38
893.553	18.88
893.985	19.68
894.418	21.68
894.85	11.38
895.282	20.08
895.715	13.18
896.147	19.48
896.579	20.08
897.011	11.48
897.444	17.58
897.876	17.78
898.308	19.68
898.74	15.38
899.172	12.08
899.604	20.18
900.036	26.08
900.468	17.48
900.9	7.88
901.332	13.58
901.764	13.38
902.196	19.78
902.628	23.98
903.06	19.88
903.491	34.38
903.923	20.78
904.355	19.48
904.787	27.58
905.218	25.48
905.65	24.08
906.082	10.78
906.513	14.98
906.945	16.18
907.376	13.58
907.808	24.18
908.239	19.18
908.671	20.58
909.102	21.08
909.534	25.78
909.965	42.18
910.397	88.18
910.828	299.58
911.259	463.68
911.691	210.68
912.122	109.98
912.553	54.18
912.984	39.88
913.415	32.08
913.847	24.38
914.278	15.48
914.709	12.88
915.14	16.38
915.571	17.88
916.002	9.68
916.433	18.28
916.864	22.38
917.295	12.88
917.726	19.98
918.157	9.08
918.587	28.78
919.018	18.58
919.449	26.78
919.88	26.88
920.311	33.98
920.741	49.48
921.172	163.98
921.603	152.38
922.033	64.18
922.464	46.78
922.895	16.98
923.325	25.88
923.756	20.18
924.186	22.68
924.617	27.28
925.047	45.08
925.478	58.88
925.908	45.88
926.338	27.28
926.769	25.28
927.199	21.38
927.629	8.08
928.06	13.18
928.49	15.38
928.92	15.18
929.35	6.58
929.78	15.18
930.21	12.48
930.641	5.18
931.071	10.38
931.501	4.58
931.931	5.98
932.361	8.98
932.791	-3.92
933.221	7.58
933.651	7.78
934.08	21.18
934.51	31.68
934.94	13.58
935.37	14.48
935.8	10.58
936.229	10.48
936.659	10.58
937.089	2.88
937.519	13.88
937.948	22.98
938.378	10.28
938.807	11.18
939.237	3.78
939.666	18.08
940.096	-3.12
940.525	2.98
940.955	0.48
941.384	9.08
941.814	-2.62
942.243	1.78
942.672	-0.42
943.102	-5.52
943.531	-0.42
943.96	0.68
944.39	1.18
944.819	1.48
945.248	2.78
945.677	10.48
946.106	6.58
946.535	5.28
946.964	1.08
947.393	8.08
947.822	1.78
948.251	-3.22
948.68	9.38
949.109	4.18
949.538	4.88
949.967	1.68
950.396	3.48
950.825	-1.92
951.254	1.38
951.682	-2.62
952.111	0.78
952.54	-0.62
952.969	4.28
953.397	-4.92
953.826	4.18
954.254	-6.22
954.683	5.68
955.112	0.38
955.54	-0.02
955.969	3.38
956.397	1.78
956.826	-2.32
957.254	1.18
957.682	3.68
958.111	2.28
958.539	-0.92
958.967	9.38
959.396	2.68
959.824	-2.22
960.252	2.38
960.68	-2.32
961.109	-1.92
961.537	-0.02
961.965	5.18
962.393	1.88
962.821	-4.52
963.249	4.58
963.677	4.68
964.105	3.98
964.533	48.68
964.961	43.48
965.389	22.68
965.817	11.38
966.245	2.88
966.672	1.48
967.1	-7.72
967.528	1.08
967.956	-2.12
968.383	6.38
968.811	-2.62
969.239	-9.42
969.666	-5.32
970.094	-0.72
970.522	1.08
970.949	2.28
971.377	0.48
971.804	-5.22
972.232	-3.52
972.659	-1.52
973.087	0.18
973.514	-7.62
973.941	-4.92
974.369	9.98
974.796	-1.32
975.223	2.88
975.651	-4.02
976.078	6.38
976.505	-4.62
976.932	-1.62
977.359	13.28
977.786	15.28
978.214	2.08
978.641	-2.92
979.068	-4.02
979.495	-0.52
979.922	2.28
980.349	-3.92
980.776	4.08
981.202	-5.92
981.629	5.88
982.056	5.98
982.483	-0.52
982.91	-0.82
983.337	-4.32
983.763	5.08
984.19	-1.52
984.617	-4.82
985.043	-0.02
985.47	3.28
985.897	3.18
986.323	-6.52
986.75	8.68
987.176	3.88
987.603	1.38
988.029	-2.22
988.456	-4.32
988.882	1.88
989.308	-8.12
989.735	-7.52
990.161	4.88
990.587	-0.92
991.014	5.58
991.44	10.78
991.866	-1.62
992.292	-10.92
992.719	-4.32
993.145	4.48
993.571	-6.32
993.997	-6.32
994.423	-2.22
994.849	-4.82
995.275	3.88
995.701	-0.02
996.127	1.68
996.553	4.18
996.979	0.68
997.405	1.78
997.83	-0.02
998.256	-5.22
998.682	-5.62
999.108	-3.02
999.534	-3.12
999.959	0.68
1000.385	-1.72
1000.811	0.58
1001.236	-9.22
1001.662	-5.62
1002.087	-9.02
1002.513	-3.92
1002.938	3.68
1003.364	-3.62
1003.789	-0.02
1004.215	3.18
1004.64	1.58
1005.066	0.58
1005.491	-1.82
1005.916	-8.22
1006.342	-9.12
1006.767	-8.32
1007.192	7.88
1007.617	-6.12
1008.042	-1.32
1008.468	-4.62
1008.893	-2.32
1009.318	1.18
1009.743	2.58
1010.168	3.28
1010.593	4.18
1011.018	-6.52
1011.443	-3.82
1011.868	3.88
1012.293	1.98
1012.718	1.68
1013.143	1.58
1013.567	2.08
1013.992	-6.22
1014.417	-18.62
1014.842	1.38
1015.267	-1.82
1015.691	-1.72
1016.116	5.38
1016.541	-1.02
1016.965	4.08
1017.39	3.08
1017.814	-0.62
1018.239	-6.02
1018.663	-5.72
1019.088	-9.02
1019.512	-4.92
1019.937	0.48
1020.361	-0.62
1020.785	-13.02
1021.21	-5.32
1021.634	-3.62
1022.058	4.38
1022.483	1.08
1022.907	-2.82
1023.331	1.78
1023.755	-2.42
1024.179	-1.52
1024.604	-7.92
1025.028	-4.82
1025.452	-1.22
1025.876	-4.72
1026.3	0.48
1026.724	-11.92
1027.148	-0.22
1027.572	-5.32
1027.996	0.38
1028.42	-0.42
1028.843	-7.12
1029.267	-8.62
1029.691	-2.62
1030.115	-12.02
1030.539	-5.02
1030.962	-4.92
1031.386	-5.82
1031.81	-2.52
1032.233	-4.22
1032.657	-0.92
1033.08	-2.32
1033.504	-3.02
1033.927	-10.52
1034.351	6.38
1034.774	-3.42
1035.198	0.18
1035.621	-5.52
1036.045	-5.62
1036.468	3.58
1036.891	-12.42
1037.315	-8.82
1037.738	-8.02
1038.161	-6.32
1038.584	-4.82
1039.008	-2.32
1039.431	-4.12
1039.854	-2.52
1040.277	-12.92
1040.7	-9.82
1041.123	-0.12
1041.546	-6.52
1041.969	-1.72
1042.392	-0.52
1042.815	-2.02
1043.238	-0.02
1043.661	4.18
1044.084	-7.32
1044.507	0.08
1044.93	-6.22
1045.352	-4.82
1045.775	2.48
1046.198	-3.82
1046.621	-2.22
1047.043	-3.72
1047.466	7.38
1047.889	0.98
1048.311	-4.42
1048.734	2.58
1049.156	-2.62
1049.579	-2.12
1050.001	0.08
1050.424	2.88
1050.846	-4.12
1051.269	1.08
1051.691	-7.42
1052.113	-2.22
1052.536	-7.02
1052.958	-1.82
1053.38	2.88
1053.802	-10.92
1054.225	3.08
1054.647	-7.72
1055.069	-2.62
1055.491	0.08
1055.913	-8.92
1056.335	0.08
1056.757	-2.42
1057.179	-4.22
1057.601	-3.92
1058.023	5.58
1058.445	-5.12
1058.867	-2.92
1059.289	-3.92
1059.711	-0.02
1060.133	1.08
1060.555	-2.92
1060.976	-6.92
1061.398	-6.92
1061.82	-6.22
1062.241	-6.72
1062.663	-7.72
1063.085	-8.42
1063.506	4.18
1063.928	-1.92
1064.35	3.48
1064.771	-15.12
1065.193	-6.32
1065.614	-8.82
1066.035	1.28
1066.457	1.18
1066.878	4.18
1067.3	-6.02
1067.721	-1.52
1068.142	0.88
1068.564	-2.02
1068.985	-8.82
1069.406	-6.52
1069.827	-4.62
1070.248	-1.32
1070.67	-9.22
1071.091	-5.12
1071.512	-7.42
1071.933	-4.22
1072.354	-3.62
1072.775	-3.72
1073.196	-5.02
1073.617	-6.62
1074.038	-3.32
1074.459	-4.12
1074.88	-7.72
1075.3	-1.52
1075.721	-6.62
1076.142	0.58
1076.563	-0.52
1076.983	-7.52
1077.404	-7.72
1077.825	-11.02
1078.246	-4.12
1078.666	-8.52
1079.087	-4.02
1079.507	-4.72
1079.928	4.78
1080.348	-0.72
1080.769	-8.22
1081.189	-0.62
1081.61	1.28
1082.03	-1.92
1082.451	-6.12
1082.871	-7.02
1083.291	-5.62
1083.711	-7.72
1084.132	-2.42
1084.552	-3.12
1084.972	0.18
1085.392	-7.52
1085.813	-8.32
1086.233	-4.22
1086.653	-3.82
1087.073	-3.82
1087.493	-6.92
1087.913	-10.22
1088.333	-3.52
1088.753	-7.02
1089.173	0.78
1089.593	-0.92
1090.013	3.38
1090.433	2.18
1090.852	1.38
1091.272	-3.02
1091.692	-2.12
1092.112	-2.42
1092.531	-6.92
1092.951	-10.62
1093.371	2.28
1093.79	2.58
1094.21	-6.32
1094.63	-4.92
1095.049	-6.92
1095.469	1.58
1095.888	-1.12
1096.308	1.48
1096.727	4.18
1097.146	-5.72
1097.566	2.48
1097.985	-5.92
1098.405	-0.72
1098.824	-0.92
1099.243	-5.02
1099.662	-7.62
1100.082	-2.92
1100.501	0.08
1100.92	-8.42
1101.339	0.48
1101.758	-4.82
