Data from 20171114-ORNL-Ar_H_NY_Subt18_08-07-28-432.txt Node
Date: Tue Nov 14 08:07:28 EST 2017
User: Ender
Spectrometer: HR+D1039
Trigger mode: 0
Integration Time (sec): 2.730000E-2
Scans to average: 10
Electric dark correction enabled: true
Nonlinearity correction enabled: false
Boxcar width: 0
XAxis mode: Wavelengths
Number of Pixels in Spectrum: 2048
>>>>>Begin Spectral Data<<<<<
187.836	-6.31
188.309	-6.31
188.782	-6.31
189.255	0.49
189.728	1.59
190.201	8.69
190.674	2.79
191.147	-0.61
191.619	-1.61
192.092	3.69
192.565	0.89
193.038	-1.51
193.511	-2.21
193.984	-1.01
194.456	-0.41
194.929	2.09
195.402	-2.91
195.874	-3.71
196.347	-4.11
196.82	-7.51
197.292	3.59
197.765	-2.21
198.237	-3.21
198.71	-0.01
199.182	-1.41
199.655	2.89
200.127	2.89
200.6	7.19
201.072	-1.91
201.544	2.09
202.017	2.89
202.489	3.99
202.961	-4.21
203.433	-3.31
203.906	-9.81
204.378	-2.01
204.85	0.39
205.322	-11.81
205.794	3.09
206.266	-2.61
206.739	-10.31
207.211	2.49
207.683	-4.91
208.155	-5.21
208.627	-11.41
209.099	1.09
209.57	-6.41
210.042	-9.21
210.514	-6.31
210.986	-3.21
211.458	-1.21
211.93	-2.21
212.402	-1.91
212.873	-0.31
213.345	-5.61
213.817	-7.01
214.288	-9.81
214.76	-9.71
215.232	-0.01
215.703	-4.31
216.175	-2.41
216.646	-7.81
217.118	-2.71
217.589	0.59
218.061	1.39
218.532	0.09
219.004	-5.61
219.475	-7.51
219.946	-3.41
220.418	-7.91
220.889	3.99
221.36	-4.51
221.832	-6.21
222.303	-7.81
222.774	-0.51
223.245	-9.51
223.717	-5.41
224.188	-4.11
224.659	-4.71
225.13	-5.21
225.601	-3.31
226.072	4.09
226.543	1.99
227.014	-3.11
227.485	-6.01
227.956	-9.71
228.427	-7.91
228.898	3.49
229.369	-2.01
229.839	1.59
230.31	-8.61
230.781	1.59
231.252	-9.51
231.722	-3.71
232.193	-0.61
232.664	-5.31
233.135	-2.71
233.605	3.79
234.076	-3.51
234.546	3.09
235.017	8.79
235.487	-2.01
235.958	1.79
236.428	-5.31
236.899	-2.31
237.369	0.39
237.84	-5.31
238.31	0.39
238.78	2.89
239.251	-3.01
239.721	-2.61
240.191	-3.01
240.662	-0.11
241.132	3.39
241.602	-2.81
242.072	-0.61
242.542	7.09
243.013	0.79
243.483	7.09
243.953	1.39
244.423	-5.11
244.893	-3.31
245.363	-2.51
245.833	-2.11
246.303	-1.81
246.773	6.79
247.243	0.89
247.712	6.99
248.182	5.09
248.652	5.99
249.122	-8.31
249.592	3.49
250.061	15.79
250.531	25.69
251.001	13.79
251.471	15.99
251.94	16.59
252.41	2.99
252.879	-4.51
253.349	10.29
253.818	5.29
254.288	4.29
254.757	0.89
255.227	-0.21
255.696	-1.91
256.166	7.09
256.635	4.39
257.105	6.89
257.574	2.99
258.043	6.59
258.513	-0.31
258.982	9.79
259.451	2.29
259.92	4.49
260.389	4.29
260.859	18.49
261.328	1.39
261.797	9.29
262.266	8.89
262.735	9.09
263.204	2.59
263.673	1.69
264.142	-1.51
264.611	-3.51
265.08	-1.71
265.549	0.39
266.018	6.19
266.487	-2.11
266.955	-2.31
267.424	-3.81
267.893	3.99
268.362	-0.51
268.83	-0.11
269.299	10.79
269.768	6.09
270.236	4.79
270.705	1.49
271.174	-0.41
271.642	0.19
272.111	4.39
272.579	9.69
273.048	15.69
273.516	20.09
273.985	20.79
274.453	14.99
274.922	15.29
275.39	6.09
275.858	-0.81
276.327	7.79
276.795	13.49
277.263	-1.71
277.731	22.09
278.2	38.09
278.668	43.79
279.136	33.89
279.604	17.09
280.072	12.79
280.54	10.39
281.008	2.69
281.477	15.79
281.945	7.99
282.413	5.69
282.881	7.59
283.348	1.89
283.816	9.79
284.284	2.39
284.752	10.19
285.22	5.79
285.688	12.29
286.156	16.79
286.623	35.69
287.091	30.29
287.559	24.29
288.026	14.49
288.494	13.49
288.962	3.69
289.429	3.09
289.897	11.89
290.364	5.69
290.832	12.49
291.3	11.39
291.767	13.39
292.234	14.89
292.702	0.89
293.169	9.69
293.637	14.09
294.104	15.59
294.571	6.49
295.039	5.69
295.506	6.49
295.973	15.39
296.44	9.89
296.908	15.89
297.375	13.59
297.842	9.79
298.309	8.59
298.776	3.09
299.243	16.69
299.71	3.59
300.177	16.69
300.644	18.49
301.111	14.09
301.578	12.49
302.045	11.69
302.512	18.49
302.979	18.09
303.446	12.09
303.913	8.29
304.379	8.99
304.846	18.29
305.313	19.09
305.78	12.79
306.246	21.89
306.713	22.09
307.18	13.69
307.646	19.49
308.113	17.69
308.579	9.99
309.046	23.39
309.512	12.89
309.979	14.19
310.445	20.59
310.912	18.49
311.378	30.99
311.845	19.79
312.311	21.19
312.777	23.49
313.244	18.49
313.71	29.29
314.176	24.19
314.642	29.99
315.109	19.59
315.575	28.19
316.041	28.29
316.507	18.19
316.973	35.19
317.439	23.99
317.905	23.29
318.371	20.69
318.837	24.19
319.303	22.39
319.769	20.19
320.235	23.39
320.701	24.49
321.167	26.99
321.633	26.69
322.099	29.89
322.564	36.59
323.03	25.19
323.496	29.79
323.962	31.49
324.427	27.39
324.893	36.29
325.359	28.19
325.824	26.09
326.29	22.59
326.755	27.29
327.221	31.69
327.686	30.59
328.152	35.19
328.617	33.09
329.083	38.09
329.548	38.79
330.014	35.89
330.479	27.29
330.944	30.19
331.41	29.49
331.875	29.99
332.34	31.29
332.805	32.79
333.271	37.09
333.736	32.49
334.201	42.79
334.666	40.89
335.131	42.99
335.596	37.29
336.061	40.99
336.526	29.59
336.991	35.69
337.456	41.49
337.921	39.29
338.386	33.39
338.851	30.19
339.316	38.89
339.781	35.49
340.246	41.39
340.711	30.69
341.175	49.99
341.64	33.69
342.105	39.89
342.569	47.19
343.034	45.29
343.499	41.19
343.963	41.69
344.428	45.09
344.893	46.49
345.357	50.69
345.822	47.59
346.286	57.99
346.751	59.29
347.215	54.19
347.679	52.09
348.144	69.19
348.608	63.49
349.073	56.69
349.537	58.99
350.001	57.79
350.465	72.59
350.93	59.19
351.394	67.39
351.858	54.29
352.322	67.89
352.786	63.19
353.25	73.99
353.715	83.19
354.179	80.79
354.643	94.49
355.107	98.49
355.571	80.89
356.035	79.59
356.498	87.29
356.962	93.79
357.426	98.89
357.89	90.39
358.354	68.39
358.818	66.99
359.281	64.49
359.745	64.89
360.209	60.99
360.673	60.49
361.136	70.09
361.6	67.59
362.064	72.89
362.527	75.59
362.991	76.39
363.454	64.49
363.918	61.19
364.381	62.59
364.845	70.99
365.308	70.69
365.772	71.89
366.235	68.79
366.698	65.99
367.162	75.59
367.625	65.99
368.088	66.09
368.552	73.79
369.015	71.29
369.478	84.49
369.941	84.19
370.404	80.49
370.867	86.69
371.331	95.09
371.794	95.39
372.257	96.89
372.72	102.69
373.183	90.09
373.646	89.39
374.109	85.19
374.572	90.79
375.035	84.59
375.497	87.59
375.96	94.09
376.423	80.29
376.886	93.49
377.349	90.99
377.811	92.89
378.274	90.79
378.737	90.99
379.199	92.39
379.662	94.89
380.125	99.49
380.587	97.99
381.05	97.59
381.512	107.19
381.975	104.99
382.437	107.89
382.9	105.89
383.362	105.19
383.825	117.89
384.287	118.59
384.75	118.69
385.212	115.79
385.674	118.99
386.136	114.59
386.599	110.49
387.061	111.79
387.523	110.39
387.985	115.79
388.447	125.19
388.91	128.49
389.372	139.19
389.834	127.19
390.296	131.99
390.758	131.79
391.22	143.99
391.682	179.79
392.144	262.49
392.606	204.49
393.068	148.99
393.529	150.19
393.991	133.69
394.453	127.19
394.915	132.69
395.377	170.69
395.838	184.99
396.3	129.69
396.762	116.29
397.224	120.69
397.685	111.19
398.147	112.89
398.608	109.99
399.07	113.59
399.531	120.19
399.993	126.49
400.454	127.99
400.916	131.09
401.377	125.69
401.839	131.39
402.3	130.69
402.762	145.19
403.223	155.09
403.684	147.99
404.145	141.39
404.607	144.19
405.068	142.79
405.529	152.29
405.99	164.69
406.451	161.39
406.913	150.29
407.374	150.49
407.835	140.89
408.296	142.99
408.757	156.09
409.218	165.29
409.679	160.59
410.14	155.19
410.601	152.59
411.062	159.19
411.522	169.39
411.983	160.99
412.444	160.29
412.905	156.49
413.366	160.59
413.826	174.59
414.287	187.69
414.748	230.39
415.208	220.89
415.669	182.79
416.13	184.19
416.59	179.39
417.051	191.69
417.511	191.69
417.972	211.69
418.432	219.09
418.893	258.19
419.353	221.69
419.814	176.99
420.274	159.59
420.734	159.49
421.195	178.69
421.655	172.89
422.115	175.69
422.576	172.69
423.036	175.39
423.496	189.89
423.956	192.29
424.416	209.79
424.876	236.79
425.336	233.89
425.797	237.39
426.257	229.09
426.717	217.79
427.177	215.09
427.637	200.69
428.097	211.59
428.556	227.29
429.016	250.49
429.476	239.09
429.936	247.69
430.396	259.69
430.856	259.39
431.315	282.19
431.775	312.29
432.235	348.09
432.694	322.19
433.154	328.49
433.614	353.59
434.073	295.29
434.533	260.49
434.993	247.89
435.452	263.09
435.912	268.09
436.371	258.99
436.83	254.59
437.29	243.79
437.749	224.49
438.209	220.49
438.668	247.69
439.127	259.69
439.587	239.09
440.046	225.99
440.505	236.19
440.964	252.09
441.424	292.19
441.883	268.89
442.342	237.79
442.801	204.19
443.26	204.99
443.719	207.29
444.178	202.19
444.637	191.19
445.096	200.19
445.555	209.89
446.014	200.89
446.473	208.59
446.932	212.49
447.391	208.29
447.849	207.79
448.308	202.99
448.767	202.29
449.226	216.69
449.685	209.59
450.143	229.89
450.602	219.69
451.061	208.69
451.519	214.69
451.978	215.09
452.436	217.39
452.895	218.09
453.353	233.39
453.812	217.49
454.27	217.59
454.729	216.59
455.187	220.49
455.646	224.29
456.104	230.09
456.562	234.79
457.021	244.69
457.479	233.09
457.937	246.49
458.395	239.99
458.854	224.29
459.312	237.09
459.77	245.19
460.228	239.79
460.686	226.39
461.144	232.49
461.602	218.09
462.06	228.99
462.518	240.79
462.976	239.29
463.434	241.79
463.892	247.79
464.35	251.69
464.808	265.69
465.266	250.09
465.724	255.39
466.181	256.39
466.639	252.29
467.097	271.99
467.555	272.59
468.012	273.69
468.47	288.19
468.928	297.39
469.385	309.19
469.843	317.59
470.3	316.39
470.758	333.29
471.215	353.39
471.673	382.79
472.13	376.79
472.588	391.49
473.045	337.79
473.503	352.29
473.96	366.39
474.417	362.69
474.875	395.79
475.332	433.19
475.789	419.79
476.246	439.19
476.704	447.19
477.161	465.69
477.618	481.39
478.075	515.39
478.532	579.09
478.989	633.69
479.446	735.19
479.903	715.89
480.36	753.69
480.817	803.29
481.274	915.39
481.731	1005.89
482.188	1087.89
482.645	1217.59
483.102	1320.29
483.558	1446.59
484.015	1498.49
484.472	1476.09
484.929	1426.19
485.385	1372.89
485.842	1349.89
486.299	1254.39
486.755	1211.49
487.212	1011.29
487.668	857.49
488.125	785.79
488.582	723.29
489.038	691.49
489.494	662.39
489.951	632.89
490.407	622.99
490.864	595.49
491.32	597.59
491.776	592.59
492.233	600.19
492.689	575.39
493.145	567.99
493.602	557.89
494.058	578.09
494.514	573.69
494.97	588.29
495.426	596.99
495.882	583.69
496.338	566.79
496.794	581.49
497.251	574.69
497.707	579.79
498.163	583.39
498.618	602.19
499.074	606.09
499.53	628.89
499.986	631.19
500.442	601.59
500.898	590.09
501.354	582.79
501.809	589.79
502.265	603.59
502.721	617.39
503.177	613.39
503.632	618.59
504.088	621.39
504.543	658.79
504.999	662.69
505.455	612.99
505.91	592.89
506.366	598.79
506.821	582.49
507.277	584.79
507.732	582.29
508.187	586.29
508.643	595.59
509.098	611.79
509.553	619.49
510.009	622.49
510.464	625.69
510.919	640.79
511.375	654.49
511.83	656.99
512.285	679.79
512.74	713.39
513.195	740.99
513.65	732.49
514.105	720.19
514.56	722.99
515.015	744.39
515.47	760.09
515.925	740.59
516.38	742.59
516.835	750.69
517.29	735.19
517.745	736.99
518.2	716.99
518.655	706.29
519.109	689.39
519.564	701.09
520.019	695.69
520.474	681.39
520.928	685.49
521.383	683.29
521.838	670.89
522.292	668.49
522.747	671.09
523.201	669.79
523.656	652.69
524.11	652.99
524.565	652.89
525.019	656.79
525.474	654.49
525.928	655.09
526.382	652.29
526.837	652.59
527.291	659.59
527.745	653.89
528.2	659.59
528.654	653.09
529.108	649.49
529.562	654.69
530.016	645.59
530.47	653.39
530.925	655.29
531.379	661.79
531.833	671.19
532.287	671.79
532.741	663.59
533.195	664.39
533.649	669.09
534.103	671.19
534.556	667.19
535.01	674.79
535.464	672.39
535.918	677.89
536.372	669.59
536.826	677.19
537.279	673.29
537.733	670.09
538.187	660.09
538.64	677.59
539.094	673.69
539.548	687.39
540.001	686.09
540.455	687.59
540.908	686.79
541.362	696.09
541.815	706.79
542.269	728.79
542.722	717.69
543.175	726.59
543.629	730.39
544.082	740.49
544.536	738.29
544.989	727.59
545.442	746.99
545.895	746.19
546.349	744.59
546.802	755.49
547.255	753.29
547.708	763.59
548.161	772.49
548.614	785.69
549.067	788.59
549.52	781.69
549.973	773.29
550.426	764.29
550.879	754.79
551.332	755.39
551.785	771.09
552.238	778.39
552.691	774.29
553.144	794.39
553.596	799.59
554.049	816.29
554.502	861.99
554.955	865.69
555.407	857.89
555.86	854.09
556.313	845.89
556.765	831.39
557.218	842.59
557.67	833.29
558.123	835.19
558.576	819.49
559.028	836.89
559.48	845.69
559.933	826.99
560.385	797.59
560.838	759.79
561.29	743.99
561.742	744.29
562.195	736.39
562.647	725.19
563.099	743.79
563.551	739.59
564.004	733.99
564.456	730.69
564.908	727.09
565.36	707.09
565.812	697.59
566.264	681.79
566.716	690.19
567.168	681.99
567.62	678.49
568.072	674.49
568.524	680.59
568.976	661.99
569.428	643.69
569.88	647.49
570.332	652.79
570.784	651.59
571.235	657.29
571.687	661.59
572.139	673.09
572.59	676.69
573.042	680.99
573.494	671.99
573.945	669.79
574.397	656.19
574.849	649.19
575.3	654.29
575.752	653.49
576.203	646.79
576.655	659.79
577.106	642.39
577.557	640.59
578.009	634.79
578.46	628.69
578.912	627.49
579.363	638.19
579.814	635.19
580.265	626.39
580.717	639.19
581.168	637.69
581.619	649.49
582.07	644.59
582.521	643.79
582.972	647.19
583.423	641.89
583.875	650.89
584.326	671.89
584.777	714.69
585.227	779.39
585.678	869.39
586.129	945.79
586.58	1015.29
587.031	1076.79
587.482	1215.59
587.933	1375.19
588.384	1211.19
588.834	904.29
589.285	770.89
589.736	751.79
590.186	738.49
590.637	732.99
591.088	710.39
591.538	707.19
591.989	688.59
592.439	690.49
592.89	686.89
593.34	673.89
593.791	675.19
594.241	678.69
594.692	685.19
595.142	669.19
595.593	669.39
596.043	672.99
596.493	683.39
596.943	682.09
597.394	694.79
597.844	685.09
598.294	699.49
598.744	718.39
599.195	740.99
599.645	774.29
600.095	827.99
600.545	876.79
600.995	932.69
601.445	985.29
601.895	1047.19
602.345	1091.89
602.795	1061.49
603.245	1023.59
603.695	967.29
604.145	916.69
604.594	871.19
605.044	816.99
605.494	758.49
605.944	712.49
606.393	701.59
606.843	699.29
607.293	699.49
607.743	695.49
608.192	710.29
608.642	729.49
609.091	733.99
609.541	738.09
609.99	742.29
610.44	734.19
610.889	692.39
611.339	672.39
611.788	656.49
612.238	679.09
612.687	687.19
613.136	688.59
613.586	709.59
614.035	706.19
614.484	719.69
614.933	732.09
615.383	712.29
615.832	713.19
616.281	701.99
616.73	654.29
617.179	647.29
617.628	630.89
618.077	599.69
618.526	590.59
618.975	600.99
619.424	593.09
619.873	584.99
620.322	589.49
620.771	581.79
621.22	580.59
621.669	570.59
622.118	559.39
622.567	548.49
623.015	546.19
623.464	538.49
623.913	535.19
624.361	528.29
624.81	527.09
625.259	530.49
625.707	533.79
626.156	529.69
626.604	543.09
627.053	536.29
627.501	538.99
627.95	548.99
628.398	553.79
628.847	543.49
629.295	541.19
629.744	548.49
630.192	537.79
630.64	543.89
631.089	537.69
631.537	548.49
631.985	548.49
632.433	565.09
632.881	567.79
633.33	609.39
633.778	600.69
634.226	539.39
634.674	541.39
635.122	544.49
635.57	565.59
636.018	595.09
636.466	557.99
636.914	532.79
637.362	543.39
637.81	555.99
638.258	556.99
638.705	554.99
639.153	585.89
639.601	594.59
640.049	604.89
640.497	644.19
640.944	660.69
641.392	608.69
641.84	585.89
642.287	552.29
642.735	551.79
643.182	547.99
643.63	543.19
644.078	554.59
644.525	566.49
644.973	577.19
645.42	569.39
645.867	598.29
646.315	611.29
646.762	637.29
647.21	672.59
647.657	676.29
648.104	727.49
648.551	736.79
648.999	802.89
649.446	870.79
649.893	974.39
650.34	1117.39
650.787	1338.09
651.234	1669.39
651.682	2179.39
652.129	2999.59
652.576	4311.79
653.023	6408.69
653.47	8785.69
653.917	10956.39
654.363	12585.69
654.81	13931.49
655.257	13245.99
655.704	8595.19
656.151	5052.09
656.598	3252.59
657.044	2298.19
657.491	1766.49
657.938	1417.49
658.385	1190.39
658.831	1038.39
659.278	912.79
659.724	816.99
660.171	764.39
660.618	693.19
661.064	665.19
661.511	644.09
661.957	632.39
662.404	618.49
662.85	623.99
663.296	603.09
663.743	541.49
664.189	522.99
664.635	513.09
665.082	506.99
665.528	502.99
665.974	497.09
666.42	493.39
666.867	488.49
667.313	472.99
667.759	458.69
668.205	463.79
668.651	463.09
669.097	469.09
669.543	473.69
669.989	456.59
670.435	433.59
670.881	425.69
671.327	436.69
671.773	447.39
672.219	467.89
672.665	522.29
673.11	567.09
673.556	599.09
674.002	643.99
674.448	621.59
674.893	533.39
675.339	446.19
675.785	418.69
676.23	395.29
676.676	363.89
677.122	365.39
677.567	352.19
678.013	353.59
678.458	337.49
678.904	342.29
679.349	332.39
679.794	339.19
680.24	335.29
680.685	336.89
681.131	333.79
681.576	333.79
682.021	338.39
682.466	337.09
682.912	335.89
683.357	345.49
683.802	369.29
684.247	397.89
684.692	437.39
685.137	476.29
685.583	518.59
686.028	536.89
686.473	497.09
686.918	418.49
687.363	404.19
687.807	374.29
688.252	351.79
688.697	339.99
689.142	319.59
689.587	311.39
690.032	315.89
690.477	326.69
690.921	333.79
691.366	367.59
691.811	379.69
692.255	414.79
692.7	440.29
693.145	489.39
693.589	677.19
694.034	1091.99
694.478	1473.69
694.923	1681.19
695.367	2161.79
695.812	1144.79
696.256	473.89
696.701	355.79
697.145	333.19
697.59	312.49
698.034	307.79
698.478	321.79
698.922	309.59
699.367	312.69
699.811	333.09
700.255	342.89
700.699	373.79
701.143	420.39
701.588	459.89
702.032	494.09
702.476	490.59
702.92	471.39
703.364	479.49
703.808	630.19
704.252	1011.49
704.696	1417.29
705.14	1613.99
705.584	2058.69
706.027	1026.09
706.471	492.09
706.915	373.89
707.359	347.49
707.803	302.39
708.246	301.39
708.69	302.19
709.134	306.49
709.577	302.59
710.021	309.29
710.465	292.09
710.908	284.39
711.352	289.99
711.795	297.39
712.239	343.59
712.682	372.59
713.126	392.09
713.569	450.09
714.012	355.49
714.456	298.79
714.899	284.79
715.342	258.09
715.786	248.89
716.229	245.29
716.672	242.09
717.115	237.89
717.558	236.19
718.002	241.29
718.445	255.79
718.888	273.99
719.331	279.59
719.774	295.89
720.217	287.99
720.66	274.29
721.103	256.19
721.546	245.79
721.989	237.79
722.432	224.59
722.874	227.99
723.317	228.09
723.76	226.49
724.203	251.79
724.645	308.39
725.088	436.39
725.531	557.29
725.974	620.89
726.416	526.09
726.859	295.69
727.301	232.69
727.744	231.09
728.187	219.29
728.629	227.19
729.071	232.69
729.514	256.69
729.956	255.99
730.399	269.89
730.841	287.09
731.283	260.59
731.726	250.99
732.168	249.29
732.61	252.59
733.053	268.19
733.495	301.69
733.937	344.09
734.379	389.99
734.821	418.49
735.263	534.69
735.705	817.09
736.148	1563.49
736.59	2508.89
737.032	2923.19
737.474	2381.69
737.916	773.39
738.357	405.39
738.799	316.99
739.241	280.09
739.683	270.29
740.125	276.49
740.567	282.39
741.008	297.49
741.45	302.19
741.892	308.29
742.334	332.29
742.775	342.29
743.217	321.89
743.658	254.79
744.1	242.79
744.542	258.49
744.983	305.29
745.425	322.19
745.866	325.69
746.307	262.09
746.749	270.39
747.19	306.99
747.632	449.99
748.073	861.69
748.514	1831.89
748.956	2753.99
749.397	3469.39
749.838	2875.39
750.279	2855.49
750.72	1443.19
751.162	531.99
751.603	320.39
752.044	246.39
752.485	213.89
752.926	206.69
753.367	196.19
753.808	182.19
754.249	180.29
754.69	176.09
755.131	179.89
755.572	170.99
756.013	171.89
756.453	176.39
756.894	179.89
757.335	182.19
757.776	190.49
758.216	181.09
758.657	190.69
759.098	193.19
759.538	217.89
759.979	256.19
760.42	370.99
760.86	700.69
761.301	1814.99
761.741	4344.79
762.182	6218.49
762.622	4329.99
763.063	1258.29
763.503	514.49
763.943	325.99
764.384	316.09
764.824	377.29
765.264	397.99
765.705	280.69
766.145	197.69
766.585	184.09
767.025	169.89
767.465	177.19
767.906	231.79
768.346	299.79
768.786	309.79
769.226	246.49
769.666	318.49
770.106	622.19
770.546	1532.39
770.986	2553.69
771.426	2257.79
771.866	748.69
772.306	318.19
772.745	200.39
773.185	163.09
773.625	161.39
774.065	163.49
774.505	193.49
774.944	299.39
775.384	657.09
775.824	1174.09
776.263	1123.99
776.703	483.09
777.142	207.19
777.582	142.89
778.021	133.39
778.461	135.39
778.9	129.29
779.34	127.49
779.779	113.29
780.219	110.09
780.658	100.49
781.097	106.59
781.537	104.39
781.976	107.49
782.415	107.79
782.855	102.59
783.294	100.59
783.733	104.29
784.172	109.99
784.611	100.69
785.05	105.49
785.489	100.59
785.928	117.39
786.367	117.49
786.806	109.19
787.245	127.69
787.684	138.59
788.123	145.69
788.562	125.99
789.001	120.59
789.44	112.99
789.879	115.39
790.317	114.89
790.756	126.49
791.195	129.59
791.634	146.39
792.072	193.29
792.511	357.39
792.95	993.49
793.388	2079.79
793.827	1846.09
794.265	650.89
794.704	270.59
795.142	179.09
795.581	146.59
796.019	136.59
796.458	120.19
796.896	118.09
797.334	126.49
797.773	149.49
798.211	215.69
798.649	432.89
799.087	997.19
799.526	1550.29
799.964	1958.69
800.402	1943.89
800.84	729.59
801.278	286.69
801.716	177.69
802.154	147.39
802.592	139.79
803.03	141.99
803.468	128.39
803.906	145.29
804.344	147.19
804.782	136.09
805.22	127.69
805.658	123.19
806.096	138.89
806.533	143.09
806.971	159.69
807.409	215.99
807.847	307.99
808.284	653.49
808.722	1838.59
809.16	3180.29
809.597	3076.79
810.035	5317.59
810.472	5548.09
810.91	1993.19
811.347	764.09
811.785	386.09
812.222	242.69
812.66	191.59
813.097	157.19
813.535	137.99
813.972	125.19
814.409	112.59
814.846	106.29
815.284	107.19
815.721	100.69
816.158	103.39
816.595	118.39
817.032	166.49
817.47	185.99
817.907	156.59
818.344	140.19
818.781	108.39
819.218	94.99
819.655	116.29
820.092	177.89
820.529	206.99
820.966	167.19
821.403	128.39
821.839	105.79
822.276	103.39
822.713	116.49
823.15	128.89
823.587	115.29
824.023	151.59
824.46	300.89
824.897	879.79
825.333	1298.89
825.77	560.49
826.206	223.19
826.643	131.09
827.08	92.79
827.516	80.59
827.953	72.79
828.389	76.59
828.825	67.59
829.262	68.29
829.698	60.79
830.135	69.49
830.571	64.39
831.007	61.09
831.443	61.29
831.88	60.69
832.316	65.19
832.752	59.79
833.188	63.09
833.624	59.89
834.06	65.19
834.497	68.29
834.933	63.19
835.369	71.29
835.805	64.99
836.241	70.69
836.677	77.39
837.112	90.69
837.548	103.69
837.984	130.69
838.42	199.69
838.856	492.99
839.292	1484.59
839.727	2230.39
840.163	1033.49
840.599	910.89
841.034	1990.29
841.47	2037.49
841.906	753.39
842.341	322.49
842.777	224.99
843.212	308.79
843.648	296.59
844.083	145.09
844.519	92.09
844.954	71.09
845.39	60.39
845.825	58.69
846.261	59.79
846.696	50.59
847.131	50.89
847.566	61.09
848.002	52.89
848.437	51.39
848.872	57.09
849.307	51.69
849.742	86.59
850.177	183.79
850.613	550.59
851.048	845.09
851.483	363.09
851.918	151.59
852.353	83.59
852.788	58.59
853.223	54.59
853.657	56.09
854.092	42.09
854.527	38.69
854.962	40.79
855.397	40.99
855.832	48.69
856.266	45.49
856.701	33.99
857.136	38.19
857.57	41.09
858.005	46.99
858.44	50.89
858.874	40.79
859.309	55.49
859.743	42.99
860.178	42.09
860.612	39.99
861.047	47.39
861.481	66.49
861.915	62.49
862.35	51.39
862.784	34.49
863.218	38.39
863.653	33.19
864.087	44.49
864.521	54.69
864.955	66.19
865.39	151.59
865.824	166.79
866.258	110.29
866.692	155.69
867.126	166.79
867.56	102.89
867.994	49.29
868.428	42.29
868.862	45.89
869.296	50.59
869.73	52.29
870.164	43.39
870.598	46.79
871.031	34.09
871.465	31.79
871.899	30.19
872.333	27.99
872.766	22.69
873.2	24.59
873.634	24.59
874.067	24.59
874.501	22.89
874.935	29.99
875.368	31.79
875.802	31.89
876.235	23.39
876.669	22.19
877.102	24.39
877.535	22.49
877.969	21.99
878.402	28.79
878.836	17.29
879.269	22.29
879.702	22.59
880.135	16.89
880.569	19.79
881.002	30.89
881.435	15.69
881.868	19.49
882.301	21.09
882.734	15.69
883.167	20.79
883.601	18.09
884.034	22.29
884.467	16.89
884.899	17.29
885.332	14.59
885.765	14.99
886.198	17.99
886.631	25.09
887.064	21.79
887.497	19.19
887.929	23.29
888.362	11.99
888.795	13.99
889.228	17.29
889.66	22.39
890.093	16.09
890.526	19.39
890.958	19.29
891.391	20.89
891.823	18.99
892.256	17.99
892.688	18.69
893.121	11.89
893.553	20.49
893.985	25.19
894.418	18.29
894.85	10.19
895.282	17.69
895.715	17.59
896.147	17.49
896.579	19.39
897.011	14.19
897.444	22.49
897.876	15.29
898.308	23.69
898.74	15.19
899.172	15.79
899.604	22.59
900.036	18.59
900.468	6.29
900.9	12.09
901.332	18.69
901.764	13.09
902.196	19.59
902.628	17.89
903.06	18.69
903.491	28.39
903.923	23.09
904.355	23.69
904.787	25.89
905.218	23.79
905.65	21.19
906.082	12.89
906.513	13.09
906.945	19.69
907.376	14.19
907.808	18.49
908.239	17.19
908.671	22.29
909.102	20.09
909.534	24.39
909.965	44.99
910.397	85.29
910.828	307.99
911.259	463.99
911.691	210.49
912.122	102.39
912.553	53.19
912.984	36.09
913.415	28.99
913.847	27.09
914.278	19.29
914.709	14.09
915.14	19.19
915.571	12.49
916.002	9.09
916.433	16.69
916.864	14.49
917.295	9.19
917.726	22.79
918.157	15.19
918.587	30.19
919.018	23.59
919.449	24.79
919.88	28.19
920.311	27.79
920.741	41.69
921.172	167.79
921.603	147.59
922.033	71.49
922.464	44.59
922.895	22.19
923.325	24.69
923.756	21.69
924.186	23.29
924.617	29.79
925.047	45.79
925.478	51.49
925.908	43.09
926.338	21.49
926.769	15.09
927.199	15.39
927.629	11.59
928.06	15.99
928.49	10.99
928.92	12.79
929.35	11.29
929.78	6.39
930.21	7.89
930.641	9.89
931.071	9.99
931.501	3.99
931.931	8.79
932.361	6.79
932.791	2.69
933.221	5.19
933.651	4.69
934.08	16.19
934.51	30.09
934.94	15.69
935.37	13.09
935.8	7.29
936.229	10.89
936.659	4.79
937.089	8.89
937.519	11.99
937.948	23.79
938.378	18.09
938.807	3.69
939.237	4.29
939.666	3.69
940.096	-1.21
940.525	-3.21
940.955	4.99
941.384	5.19
941.814	-5.51
942.243	-0.61
942.672	4.99
943.102	0.99
943.531	2.69
943.96	4.19
944.39	-0.11
944.819	3.29
945.248	4.89
945.677	6.39
946.106	12.29
946.535	2.59
946.964	5.49
947.393	-0.11
947.822	3.09
948.251	-3.11
948.68	5.29
949.109	7.59
949.538	8.39
949.967	0.19
950.396	6.19
950.825	7.49
951.254	2.89
951.682	-0.71
952.111	2.79
952.54	4.49
952.969	2.89
953.397	-7.31
953.826	6.79
954.254	-4.71
954.683	8.99
955.112	1.19
955.54	-1.61
955.969	-2.11
956.397	-3.01
956.826	-4.01
957.254	6.99
957.682	2.69
958.111	9.59
958.539	-0.51
958.967	2.89
959.396	3.29
959.824	2.39
960.252	5.79
960.68	-3.21
961.109	-1.31
961.537	-3.41
961.965	-0.61
962.393	5.19
962.821	-1.21
963.249	-0.51
963.677	4.49
964.105	4.39
964.533	43.19
964.961	38.39
965.389	25.59
965.817	10.59
966.245	4.79
966.672	-1.71
967.1	-2.41
967.528	-5.41
967.956	-1.71
968.383	-1.31
968.811	0.99
969.239	-4.41
969.666	-4.21
970.094	-0.51
970.522	1.39
970.949	-3.31
971.377	-6.01
971.804	-0.01
972.232	-3.11
972.659	-0.41
973.087	-5.11
973.514	-1.71
973.941	-3.81
974.369	2.39
974.796	1.49
975.223	-2.21
975.651	3.69
976.078	2.89
976.505	-0.11
976.932	2.59
977.359	15.89
977.786	10.29
978.214	1.09
978.641	-0.31
979.068	-2.41
979.495	-2.21
979.922	-5.21
980.349	2.29
980.776	2.19
981.202	0.09
981.629	1.89
982.056	0.49
982.483	-1.91
982.91	-0.11
983.337	-4.91
983.763	4.99
984.19	-1.51
984.617	-5.31
985.043	-5.51
985.47	-6.11
985.897	-3.91
986.323	-1.01
986.75	7.69
987.176	-0.91
987.603	-0.61
988.029	6.19
988.456	-2.01
988.882	-2.41
989.308	-9.61
989.735	-2.51
990.161	0.29
990.587	-4.61
991.014	-5.51
991.44	9.49
991.866	-6.01
992.292	-7.21
992.719	-2.51
993.145	5.49
993.571	-3.71
993.997	-1.21
994.423	-2.11
994.849	-2.21
995.275	2.09
995.701	0.79
996.127	-5.51
996.553	-1.91
996.979	-1.71
997.405	-0.31
997.83	-7.81
998.256	-6.01
998.682	-7.91
999.108	-4.61
999.534	-5.11
999.959	-1.61
1000.385	-0.61
1000.811	0.39
1001.236	-4.51
1001.662	-2.31
1002.087	-8.11
1002.513	-2.61
1002.938	-2.21
1003.364	-4.11
1003.789	-1.71
1004.215	2.39
1004.64	-5.41
1005.066	0.99
1005.491	0.69
1005.916	-1.31
1006.342	-7.51
1006.767	-9.81
1007.192	10.09
1007.617	-9.01
1008.042	-1.01
1008.468	-6.71
1008.893	-7.11
1009.318	-2.71
1009.743	1.99
1010.168	1.89
1010.593	5.69
1011.018	-11.31
1011.443	-2.21
1011.868	2.09
1012.293	-3.41
1012.718	-3.41
1013.143	3.79
1013.567	6.39
1013.992	3.39
1014.417	-15.21
1014.842	4.19
1015.267	-0.31
1015.691	-4.51
1016.116	0.19
1016.541	3.39
1016.965	3.09
1017.39	3.49
1017.814	-2.81
1018.239	-5.61
1018.663	-8.61
1019.088	-7.51
1019.512	-2.11
1019.937	-0.81
1020.361	-3.61
1020.785	-8.61
1021.21	-1.31
1021.634	0.19
1022.058	3.29
1022.483	7.49
1022.907	1.09
1023.331	-0.61
1023.755	2.49
1024.179	-2.41
1024.604	-5.01
1025.028	3.19
1025.452	-3.31
1025.876	-1.91
1026.3	-1.51
1026.724	-9.91
1027.148	-3.71
1027.572	-7.91
1027.996	-5.31
1028.42	-1.81
1028.843	-2.81
1029.267	-6.11
1029.691	-4.91
1030.115	-1.01
1030.539	-6.71
1030.962	-6.41
1031.386	-8.31
1031.81	-1.01
1032.233	1.69
1032.657	-1.51
1033.08	-2.11
1033.504	-3.01
1033.927	-6.81
1034.351	-7.51
1034.774	-4.21
1035.198	-4.01
1035.621	-5.31
1036.045	-0.61
1036.468	1.19
1036.891	-7.31
1037.315	-10.11
1037.738	-7.81
1038.161	-4.61
1038.584	-3.51
1039.008	1.89
1039.431	-2.61
1039.854	-3.51
1040.277	-8.21
1040.7	-7.21
1041.123	3.19
1041.546	-6.91
1041.969	-3.41
1042.392	-5.91
1042.815	1.69
1043.238	4.29
1043.661	3.29
1044.084	-0.51
1044.507	-0.21
1044.93	-4.01
1045.352	-4.81
1045.775	3.49
1046.198	3.29
1046.621	-1.71
1047.043	-1.51
1047.466	6.69
1047.889	-3.01
1048.311	-7.01
1048.734	-1.11
1049.156	-0.51
1049.579	-1.61
1050.001	-3.61
1050.424	0.89
1050.846	-3.91
1051.269	-10.41
1051.691	-2.91
1052.113	-4.91
1052.536	-4.31
1052.958	-1.51
1053.38	-1.91
1053.802	-6.31
1054.225	-1.11
1054.647	-7.31
1055.069	-2.11
1055.491	6.79
1055.913	-4.61
1056.335	5.69
1056.757	-3.31
1057.179	-6.01
1057.601	1.39
1058.023	-5.31
1058.445	-0.71
1058.867	-2.31
1059.289	-3.91
1059.711	-4.51
1060.133	-2.31
1060.555	-5.11
1060.976	-6.41
1061.398	-3.11
1061.82	-5.61
1062.241	-12.41
1062.663	-7.71
1063.085	-2.41
1063.506	-2.51
1063.928	-3.11
1064.35	1.39
1064.771	-8.31
1065.193	2.89
1065.614	-6.61
1066.035	-5.01
1066.457	-1.91
1066.878	1.69
1067.3	-5.01
1067.721	0.49
1068.142	-5.51
1068.564	-6.21
1068.985	1.39
1069.406	-9.41
1069.827	-3.91
1070.248	-6.21
1070.67	0.49
1071.091	-5.21
1071.512	-0.31
1071.933	-0.31
1072.354	-13.31
1072.775	-8.11
1073.196	-5.71
1073.617	-2.01
1074.038	-12.51
1074.459	-0.01
1074.88	-9.11
1075.3	-0.71
1075.721	-7.01
1076.142	-1.11
1076.563	-0.51
1076.983	-6.51
1077.404	-3.21
1077.825	-9.81
1078.246	-3.31
1078.666	-10.81
1079.087	2.69
1079.507	-5.21
1079.928	-4.11
1080.348	-4.41
1080.769	-7.41
1081.189	0.49
1081.61	-8.91
1082.03	-4.61
1082.451	-8.81
1082.871	-0.61
1083.291	-5.41
1083.711	-7.41
1084.132	-4.51
1084.552	-0.01
1084.972	-4.31
1085.392	-9.11
1085.813	-2.81
1086.233	-5.81
1086.653	-6.11
1087.073	-2.61
1087.493	-9.11
1087.913	-8.81
1088.333	-8.81
1088.753	-6.71
1089.173	0.29
1089.593	-2.31
1090.013	4.19
1090.433	-0.51
1090.852	-1.61
1091.272	-0.11
1091.692	-4.21
1092.112	-2.11
1092.531	-13.61
1092.951	-14.21
1093.371	-7.51
1093.79	0.19
1094.21	-2.31
1094.63	-8.61
1095.049	-2.81
1095.469	-2.01
1095.888	-5.01
1096.308	1.39
1096.727	0.89
1097.146	-3.71
1097.566	-2.61
1097.985	-6.91
1098.405	-5.31
1098.824	-5.61
1099.243	-6.41
1099.662	-4.61
1100.082	0.59
1100.501	0.49
1100.92	-5.21
1101.339	-8.11
1101.758	-9.41
