Data from 20171114-ORNL-Ar_H_NY_Subt18_08-05-12-217.txt Node
Date: Tue Nov 14 08:05:12 EST 2017
User: Ender
Spectrometer: HR+D1039
Trigger mode: 0
Integration Time (sec): 2.730000E-2
Scans to average: 10
Electric dark correction enabled: true
Nonlinearity correction enabled: false
Boxcar width: 0
XAxis mode: Wavelengths
Number of Pixels in Spectrum: 2048
>>>>>Begin Spectral Data<<<<<
187.836	-0.99
188.309	-0.99
188.782	-0.99
189.255	1.21
189.728	-0.99
190.201	6.11
190.674	1.81
191.147	0.51
191.619	-7.49
192.092	2.81
192.565	8.71
193.038	-2.79
193.511	-4.89
193.984	-0.89
194.456	-1.59
194.929	0.01
195.402	-0.29
195.874	-1.19
196.347	-4.09
196.82	0.31
197.292	7.91
197.765	3.91
198.237	-4.09
198.71	2.21
199.182	-2.19
199.655	7.21
200.127	5.11
200.6	-0.39
201.072	0.81
201.544	-2.99
202.017	-4.09
202.489	2.61
202.961	2.31
203.433	-0.99
203.906	-8.99
204.378	-4.09
204.85	-2.89
205.322	-11.19
205.794	-5.79
206.266	-6.59
206.739	-6.79
207.211	5.51
207.683	-4.39
208.155	0.71
208.627	-3.39
209.099	-0.39
209.57	-2.59
210.042	1.41
210.514	-5.99
210.986	0.11
211.458	-6.29
211.93	-3.89
212.402	-1.19
212.873	-4.69
213.345	-4.49
213.817	-12.39
214.288	3.21
214.76	-10.59
215.232	0.11
215.703	-3.79
216.175	-4.69
216.646	1.61
217.118	-2.99
217.589	-1.29
218.061	0.31
218.532	-2.99
219.004	6.01
219.475	1.61
219.946	-1.39
220.418	-2.79
220.889	12.81
221.36	0.51
221.832	-0.89
222.303	-2.89
222.774	2.91
223.245	-6.89
223.717	-8.79
224.188	-1.79
224.659	-7.29
225.13	-1.29
225.601	-5.09
226.072	2.11
226.543	1.11
227.014	2.01
227.485	-1.79
227.956	1.01
228.427	-0.29
228.898	3.01
229.369	6.41
229.839	-6.29
230.31	-6.69
230.781	5.41
231.252	-0.99
231.722	-4.19
232.193	2.01
232.664	2.91
233.135	9.51
233.605	1.71
234.076	-6.69
234.546	-0.59
235.017	4.91
235.487	3.01
235.958	2.71
236.428	-1.69
236.899	7.71
237.369	6.91
237.84	-3.19
238.31	11.71
238.78	5.11
239.251	3.41
239.721	2.61
240.191	7.81
240.662	1.41
241.132	4.91
241.602	-4.29
242.072	5.01
242.542	6.81
243.013	1.51
243.483	-0.99
243.953	6.41
244.423	2.31
244.893	-0.29
245.363	9.41
245.833	6.71
246.303	4.31
246.773	9.31
247.243	3.21
247.712	9.71
248.182	7.21
248.652	6.31
249.122	-1.89
249.592	12.01
250.061	24.11
250.531	32.71
251.001	21.81
251.471	22.21
251.94	22.11
252.41	8.41
252.879	2.71
253.349	11.61
253.818	9.31
254.288	8.21
254.757	4.31
255.227	1.21
255.696	5.11
256.166	10.11
256.635	8.61
257.105	5.71
257.574	7.91
258.043	10.51
258.513	10.91
258.982	20.51
259.451	11.11
259.92	17.61
260.389	15.11
260.859	16.61
261.328	11.71
261.797	18.31
262.266	13.51
262.735	12.91
263.204	6.11
263.673	6.31
264.142	8.31
264.611	3.91
265.08	1.41
265.549	5.91
266.018	8.61
266.487	3.11
266.955	-0.19
267.424	3.81
267.893	13.61
268.362	4.01
268.83	7.01
269.299	12.91
269.768	10.11
270.236	12.21
270.705	7.91
271.174	13.91
271.642	10.81
272.111	8.61
272.579	25.41
273.048	28.81
273.516	35.41
273.985	27.11
274.453	26.51
274.922	23.81
275.39	18.31
275.858	15.11
276.327	13.71
276.795	20.51
277.263	16.01
277.731	25.21
278.2	63.51
278.668	66.01
279.136	52.21
279.604	24.41
280.072	18.41
280.54	9.41
281.008	18.51
281.477	16.71
281.945	16.51
282.413	19.61
282.881	19.71
283.348	7.81
283.816	21.91
284.284	17.21
284.752	25.21
285.22	17.61
285.688	19.31
286.156	27.21
286.623	48.81
287.091	57.91
287.559	32.21
288.026	23.91
288.494	17.01
288.962	9.31
289.429	6.61
289.897	25.21
290.364	17.81
290.832	21.41
291.3	18.01
291.767	20.91
292.234	18.31
292.702	19.71
293.169	24.51
293.637	27.31
294.104	27.51
294.571	13.21
295.039	13.51
295.506	21.81
295.973	23.91
296.44	21.51
296.908	21.61
297.375	24.41
297.842	21.81
298.309	20.31
298.776	16.51
299.243	24.91
299.71	19.51
300.177	26.91
300.644	21.51
301.111	25.21
301.578	31.31
302.045	18.51
302.512	26.71
302.979	26.41
303.446	30.81
303.913	20.81
304.379	21.61
304.846	30.81
305.313	32.11
305.78	27.11
306.246	35.31
306.713	35.11
307.18	27.91
307.646	29.41
308.113	36.11
308.579	26.81
309.046	30.91
309.512	24.51
309.979	21.41
310.445	24.91
310.912	29.11
311.378	30.91
311.845	30.81
312.311	30.61
312.777	35.51
313.244	38.71
313.71	40.41
314.176	38.21
314.642	34.21
315.109	31.11
315.575	40.91
316.041	42.91
316.507	32.91
316.973	41.71
317.439	41.51
317.905	38.11
318.371	39.41
318.837	38.91
319.303	40.01
319.769	39.81
320.235	39.61
320.701	42.71
321.167	44.71
321.633	43.31
322.099	40.41
322.564	49.41
323.03	44.11
323.496	44.51
323.962	47.11
324.427	42.11
324.893	48.61
325.359	40.71
325.824	43.21
326.29	41.91
326.755	41.91
327.221	41.11
327.686	46.21
328.152	44.41
328.617	44.01
329.083	55.81
329.548	59.51
330.014	48.71
330.479	46.91
330.944	43.61
331.41	48.91
331.875	49.01
332.34	50.61
332.805	47.01
333.271	48.91
333.736	46.71
334.201	50.61
334.666	56.01
335.131	57.51
335.596	52.51
336.061	59.11
336.526	49.51
336.991	48.51
337.456	61.51
337.921	55.31
338.386	42.81
338.851	45.61
339.316	50.01
339.781	53.41
340.246	55.81
340.711	55.31
341.175	56.31
341.64	47.91
342.105	54.91
342.569	53.11
343.034	62.61
343.499	57.91
343.963	49.91
344.428	61.81
344.893	65.41
345.357	66.51
345.822	64.91
346.286	64.91
346.751	82.41
347.215	73.61
347.679	76.71
348.144	109.11
348.608	90.81
349.073	76.01
349.537	80.01
350.001	81.61
350.465	90.51
350.93	86.91
351.394	99.11
351.858	75.61
352.322	88.71
352.786	91.11
353.25	105.71
353.715	118.41
354.179	96.71
354.643	126.11
355.107	129.91
355.571	106.61
356.035	105.01
356.498	124.01
356.962	123.31
357.426	139.61
357.89	127.51
358.354	95.31
358.818	92.11
359.281	88.81
359.745	80.01
360.209	77.11
360.673	80.41
361.136	83.31
361.6	91.61
362.064	91.31
362.527	86.01
362.991	101.21
363.454	83.01
363.918	80.71
364.381	85.01
364.845	85.11
365.308	92.11
365.772	87.81
366.235	94.21
366.698	81.91
367.162	89.81
367.625	90.11
368.088	94.21
368.552	94.41
369.015	90.21
369.478	104.01
369.941	103.31
370.404	100.51
370.867	108.61
371.331	107.61
371.794	117.61
372.257	114.81
372.72	117.01
373.183	114.71
373.646	105.71
374.109	103.41
374.572	111.81
375.035	109.81
375.497	116.11
375.96	107.81
376.423	110.01
376.886	114.31
377.349	114.11
377.811	102.61
378.274	109.11
378.737	110.21
379.199	112.11
379.662	113.01
380.125	122.01
380.587	116.71
381.05	128.31
381.512	130.61
381.975	132.01
382.437	132.11
382.9	127.21
383.362	134.61
383.825	140.51
384.287	147.21
384.75	141.61
385.212	133.41
385.674	138.31
386.136	138.61
386.599	126.61
387.061	128.11
387.523	125.41
387.985	132.51
388.447	144.41
388.91	143.81
389.372	159.51
389.834	151.31
390.296	152.81
390.758	151.01
391.22	168.31
391.682	214.11
392.144	296.71
392.606	227.11
393.068	169.51
393.529	167.01
393.991	153.21
394.453	148.11
394.915	159.91
395.377	191.51
395.838	215.71
396.3	151.31
396.762	142.11
397.224	143.21
397.685	130.21
398.147	135.81
398.608	128.81
399.07	130.21
399.531	133.21
399.993	143.41
400.454	150.01
400.916	154.11
401.377	150.01
401.839	152.41
402.3	148.51
402.762	164.71
403.223	181.41
403.684	171.11
404.145	158.41
404.607	162.21
405.068	165.41
405.529	168.91
405.99	187.51
406.451	178.71
406.913	176.11
407.374	163.11
407.835	166.61
408.296	166.91
408.757	166.61
409.218	188.61
409.679	181.71
410.14	171.11
410.601	181.51
411.062	186.81
411.522	189.41
411.983	183.61
412.444	176.21
412.905	180.81
413.366	179.51
413.826	190.31
414.287	211.51
414.748	256.31
415.208	241.01
415.669	205.51
416.13	201.01
416.59	194.71
417.051	206.91
417.511	217.61
417.972	236.21
418.432	242.51
418.893	281.51
419.353	247.91
419.814	194.91
420.274	181.11
420.734	183.11
421.195	203.01
421.655	193.31
422.115	193.41
422.576	193.61
423.036	197.61
423.496	199.51
423.956	213.61
424.416	221.01
424.876	270.31
425.336	255.71
425.797	268.01
426.257	256.31
426.717	244.01
427.177	233.11
427.637	228.71
428.097	237.21
428.556	251.01
429.016	267.61
429.476	265.41
429.936	269.61
430.396	277.81
430.856	286.21
431.315	315.61
431.775	349.01
432.235	380.31
432.694	348.11
433.154	369.51
433.614	388.51
434.073	327.41
434.533	280.91
434.993	261.51
435.452	275.51
435.912	289.61
436.371	285.51
436.83	282.51
437.29	267.61
437.749	241.51
438.209	242.71
438.668	271.71
439.127	284.31
439.587	261.01
440.046	249.11
440.505	262.61
440.964	277.71
441.424	326.51
441.883	308.11
442.342	257.91
442.801	227.01
443.26	217.61
443.719	223.01
444.178	216.51
444.637	212.01
445.096	219.01
445.555	225.51
446.014	223.01
446.473	221.91
446.932	228.71
447.391	231.11
447.849	228.01
448.308	211.71
448.767	221.31
449.226	226.21
449.685	236.51
450.143	245.81
450.602	234.01
451.061	230.31
451.519	235.11
451.978	233.51
452.436	227.61
452.895	241.81
453.353	248.71
453.812	236.51
454.27	234.71
454.729	236.91
455.187	236.31
455.646	239.21
456.104	239.01
456.562	257.01
457.021	267.01
457.479	255.31
457.937	265.51
458.395	254.71
458.854	248.61
459.312	258.51
459.77	277.81
460.228	249.91
460.686	245.51
461.144	246.21
461.602	240.81
462.06	245.11
462.518	249.61
462.976	253.81
463.434	252.91
463.892	258.11
464.35	272.81
464.808	285.41
465.266	259.11
465.724	270.11
466.181	266.51
466.639	276.41
467.097	289.71
467.555	306.21
468.012	303.91
468.47	306.41
468.928	319.91
469.385	342.61
469.843	343.51
470.3	343.11
470.758	351.31
471.215	383.11
471.673	405.51
472.13	398.11
472.588	414.51
473.045	367.71
473.503	369.81
473.96	387.31
474.417	400.11
474.875	428.41
475.332	470.11
475.789	454.11
476.246	471.91
476.704	480.91
477.161	503.71
477.618	512.21
478.075	551.81
478.532	609.31
478.989	684.91
479.446	797.61
479.903	772.31
480.36	809.11
480.817	860.71
481.274	953.71
481.731	1060.21
482.188	1162.81
482.645	1299.81
483.102	1408.81
483.558	1534.81
484.015	1594.01
484.472	1565.91
484.929	1510.51
485.385	1458.91
485.842	1429.61
486.299	1372.11
486.755	1300.11
487.212	1090.11
487.668	907.41
488.125	835.81
488.582	772.51
489.038	749.81
489.494	709.51
489.951	679.21
490.407	661.71
490.864	645.51
491.32	636.91
491.776	632.61
492.233	642.71
492.689	599.31
493.145	597.41
493.602	586.51
494.058	609.11
494.514	607.01
494.97	630.91
495.426	644.21
495.882	625.91
496.338	612.71
496.794	626.41
497.251	620.91
497.707	630.21
498.163	630.11
498.618	632.61
499.074	640.31
499.53	664.71
499.986	672.51
500.442	645.91
500.898	624.61
501.354	620.41
501.809	632.21
502.265	637.61
502.721	647.11
503.177	668.01
503.632	656.51
504.088	666.81
504.543	698.91
504.999	702.51
505.455	647.61
505.91	621.81
506.366	618.91
506.821	613.21
507.277	620.81
507.732	610.11
508.187	618.91
508.643	617.01
509.098	624.21
509.553	647.71
510.009	649.31
510.464	669.61
510.919	681.71
511.375	681.11
511.83	691.31
512.285	712.61
512.74	753.11
513.195	763.21
513.65	765.51
514.105	750.41
514.56	759.31
515.015	787.51
515.47	795.71
515.925	787.31
516.38	781.91
516.835	783.61
517.29	763.51
517.745	765.41
518.2	740.21
518.655	741.71
519.109	736.01
519.564	730.21
520.019	717.61
520.474	718.41
520.928	703.51
521.383	710.91
521.838	702.31
522.292	692.91
522.747	696.61
523.201	687.91
523.656	683.71
524.11	681.91
524.565	684.71
525.019	679.11
525.474	678.01
525.928	687.81
526.382	674.71
526.837	683.21
527.291	687.21
527.745	687.31
528.2	696.71
528.654	681.61
529.108	673.11
529.562	675.71
530.016	674.21
530.47	672.01
530.925	678.71
531.379	680.21
531.833	687.81
532.287	689.91
532.741	689.91
533.195	692.51
533.649	703.01
534.103	706.31
534.556	697.71
535.01	695.41
535.464	698.21
535.918	704.71
536.372	710.71
536.826	708.71
537.279	692.71
537.733	696.21
538.187	694.61
538.64	710.21
539.094	705.41
539.548	709.61
540.001	708.01
540.455	706.41
540.908	723.21
541.362	720.21
541.815	727.71
542.269	737.81
542.722	737.71
543.175	750.01
543.629	753.11
544.082	771.41
544.536	770.11
544.989	761.21
545.442	774.21
545.895	773.91
546.349	769.01
546.802	770.71
547.255	777.11
547.708	784.31
548.161	795.11
548.614	795.21
549.067	809.31
549.52	795.31
549.973	792.01
550.426	787.71
550.879	783.11
551.332	771.91
551.785	789.71
552.238	783.81
552.691	796.21
553.144	811.71
553.596	828.91
554.049	849.81
554.502	862.81
554.955	886.21
555.407	878.51
555.86	864.21
556.313	865.21
556.765	855.71
557.218	860.91
557.67	856.51
558.123	851.71
558.576	842.21
559.028	854.11
559.48	861.31
559.933	847.11
560.385	812.81
560.838	784.91
561.29	775.01
561.742	766.21
562.195	743.31
562.647	735.71
563.099	749.91
563.551	746.81
564.004	763.91
564.456	746.81
564.908	734.51
565.36	718.61
565.812	709.71
566.264	707.21
566.716	708.21
567.168	695.31
567.62	695.11
568.072	679.21
568.524	681.71
568.976	674.81
569.428	656.31
569.88	651.31
570.332	653.01
570.784	663.81
571.235	662.51
571.687	673.11
572.139	680.01
572.59	684.31
573.042	691.61
573.494	693.41
573.945	678.11
574.397	662.01
574.849	657.91
575.3	662.11
575.752	666.01
576.203	660.51
576.655	662.01
577.106	649.91
577.557	637.51
578.009	641.51
578.46	633.01
578.912	641.41
579.363	636.31
579.814	642.01
580.265	645.71
580.717	648.11
581.168	646.31
581.619	649.81
582.07	653.41
582.521	647.21
582.972	646.91
583.423	643.21
583.875	649.81
584.326	671.51
584.777	715.21
585.227	795.41
585.678	881.21
586.129	966.11
586.58	1031.81
587.031	1116.01
587.482	1270.11
587.933	1454.21
588.384	1251.41
588.834	928.11
589.285	774.51
589.736	749.31
590.186	737.41
590.637	738.51
591.088	710.31
591.538	703.11
591.989	692.71
592.439	689.21
592.89	684.11
593.34	679.61
593.791	688.91
594.241	671.51
594.692	675.31
595.142	661.71
595.593	661.51
596.043	671.31
596.493	678.21
596.943	674.81
597.394	683.41
597.844	677.81
598.294	691.51
598.744	724.91
599.195	730.71
599.645	778.41
600.095	803.51
600.545	863.71
600.995	911.01
601.445	967.51
601.895	1033.31
602.345	1069.31
602.795	1054.81
603.245	1027.01
603.695	965.21
604.145	913.61
604.594	871.21
605.044	810.41
605.494	756.81
605.944	721.91
606.393	704.71
606.843	694.01
607.293	690.41
607.743	686.91
608.192	700.31
608.642	716.71
609.091	724.21
609.541	737.81
609.99	732.41
610.44	728.11
610.889	690.71
611.339	661.41
611.788	654.91
612.238	662.91
612.687	679.21
613.136	683.91
613.586	699.91
614.035	697.11
614.484	712.81
614.933	712.71
615.383	706.91
615.832	691.21
616.281	687.91
616.73	642.31
617.179	620.61
617.628	615.21
618.077	591.91
618.526	580.71
618.975	571.91
619.424	585.41
619.873	582.71
620.322	583.01
620.771	570.71
621.22	572.91
621.669	553.71
622.118	553.81
622.567	550.31
623.015	535.21
623.464	535.91
623.913	521.81
624.361	520.11
624.81	511.01
625.259	516.41
625.707	521.81
626.156	523.31
626.604	536.41
627.053	524.11
627.501	524.61
627.95	536.11
628.398	540.91
628.847	533.21
629.295	528.31
629.744	534.21
630.192	536.01
630.64	537.11
631.089	525.61
631.537	544.21
631.985	550.51
632.433	566.71
632.881	568.01
633.33	611.41
633.778	595.41
634.226	523.51
634.674	531.11
635.122	542.11
635.57	553.71
636.018	592.61
636.466	544.61
636.914	523.51
637.362	533.31
637.81	542.81
638.258	544.21
638.705	540.71
639.153	564.41
639.601	573.01
640.049	590.61
640.497	629.21
640.944	645.81
641.392	598.01
641.84	565.01
642.287	532.81
642.735	537.61
643.182	532.71
643.63	530.11
644.078	540.81
644.525	556.01
644.973	558.81
645.42	554.11
645.867	582.91
646.315	597.71
646.762	616.31
647.21	651.81
647.657	663.31
648.104	697.31
648.551	720.61
648.999	778.01
649.446	850.11
649.893	933.01
650.34	1075.21
650.787	1283.21
651.234	1602.31
651.682	2085.11
652.129	2867.71
652.576	4089.71
653.023	6075.61
653.47	8374.21
653.917	10517.51
654.363	12242.41
654.81	13648.11
655.257	12963.81
655.704	8478.11
656.151	5003.41
656.598	3232.01
657.044	2296.31
657.491	1754.61
657.938	1399.71
658.385	1169.61
658.831	1016.61
659.278	904.61
659.724	801.01
660.171	733.71
660.618	671.81
661.064	635.41
661.511	620.01
661.957	613.01
662.404	597.51
662.85	605.51
663.296	577.91
663.743	528.71
664.189	504.91
664.635	494.41
665.082	488.71
665.528	495.41
665.974	487.01
666.42	478.11
666.867	467.61
667.313	457.11
667.759	452.21
668.205	437.71
668.651	446.01
669.097	448.01
669.543	465.51
669.989	433.91
670.435	411.91
670.881	415.91
671.327	415.11
671.773	423.21
672.219	446.41
672.665	497.61
673.11	530.01
673.556	579.21
674.002	616.31
674.448	609.71
674.893	502.81
675.339	437.91
675.785	406.11
676.23	388.01
676.676	353.41
677.122	355.81
677.567	341.71
678.013	334.91
678.458	330.21
678.904	332.11
679.349	321.91
679.794	324.91
680.24	324.41
680.685	313.91
681.131	326.91
681.576	322.51
682.021	330.41
682.466	323.51
682.912	318.51
683.357	316.31
683.802	349.71
684.247	378.51
684.692	421.51
685.137	445.21
685.583	487.21
686.028	518.71
686.473	476.61
686.918	414.71
687.363	387.81
687.807	364.81
688.252	338.41
688.697	329.51
689.142	304.51
689.587	309.61
690.032	296.71
690.477	320.51
690.921	328.41
691.366	351.91
691.811	370.01
692.255	394.91
692.7	430.01
693.145	454.71
693.589	626.91
694.034	995.01
694.478	1393.41
694.923	1606.61
695.367	2092.91
695.812	1111.71
696.256	464.31
696.701	345.51
697.145	314.41
697.59	305.01
698.034	294.31
698.478	300.71
698.922	299.01
699.367	306.61
699.811	302.81
700.255	325.21
700.699	356.81
701.143	396.61
701.588	431.51
702.032	468.41
702.476	471.31
702.92	452.61
703.364	445.31
703.808	568.11
704.252	928.21
704.696	1312.81
705.14	1534.91
705.584	1952.91
706.027	981.11
706.471	482.21
706.915	361.31
707.359	320.91
707.803	290.41
708.246	280.51
708.69	287.11
709.134	286.01
709.577	287.51
710.021	288.81
710.465	280.51
710.908	272.01
711.352	275.91
711.795	284.01
712.239	312.71
712.682	345.71
713.126	375.81
713.569	428.01
714.012	340.81
714.456	294.21
714.899	278.31
715.342	255.71
715.786	235.91
716.229	232.81
716.672	227.11
717.115	235.21
717.558	229.91
718.002	228.51
718.445	242.41
718.888	257.71
719.331	267.91
719.774	275.61
720.217	285.11
720.66	262.71
721.103	239.91
721.546	235.41
721.989	223.91
722.432	209.41
722.874	219.71
723.317	211.11
723.76	215.31
724.203	234.21
724.645	287.81
725.088	404.61
725.531	521.41
725.974	593.21
726.416	501.51
726.859	281.21
727.301	228.71
727.744	216.81
728.187	207.11
728.629	217.21
729.071	222.91
729.514	232.21
729.956	249.41
730.399	257.51
730.841	263.51
731.283	254.61
731.726	243.91
732.168	244.51
732.61	243.71
733.053	258.51
733.495	283.71
733.937	323.61
734.379	359.71
734.821	390.31
735.263	480.91
735.705	740.61
736.148	1396.41
736.59	2310.21
737.032	2811.71
737.474	2282.81
737.916	733.21
738.357	387.01
738.799	305.01
739.241	269.81
739.683	258.41
740.125	263.41
740.567	276.41
741.008	281.81
741.45	282.51
741.892	288.61
742.334	322.81
742.775	325.11
743.217	309.51
743.658	241.71
744.1	227.61
744.542	232.11
744.983	283.71
745.425	314.11
745.866	313.81
746.307	262.01
746.749	255.41
747.19	290.01
747.632	403.21
748.073	767.21
748.514	1642.31
748.956	2575.01
749.397	3226.71
749.838	2671.71
750.279	2722.01
750.72	1375.61
751.162	489.61
751.603	292.61
752.044	234.01
752.485	198.81
752.926	186.91
753.367	191.61
753.808	175.51
754.249	172.01
754.69	168.21
755.131	167.71
755.572	171.71
756.013	160.01
756.453	166.91
756.894	180.61
757.335	170.01
757.776	180.61
758.216	179.21
758.657	177.41
759.098	191.31
759.538	208.51
759.979	240.41
760.42	334.31
760.86	620.61
761.301	1582.81
761.741	3933.91
762.182	5928.81
762.622	4202.01
763.063	1200.61
763.503	493.91
763.943	315.41
764.384	307.81
764.824	372.51
765.264	407.41
765.705	283.81
766.145	193.71
766.585	178.41
767.025	162.31
767.465	173.61
767.906	218.11
768.346	283.41
768.786	320.61
769.226	240.91
769.666	281.41
770.106	538.61
770.546	1371.91
770.986	2406.31
771.426	2194.01
771.866	719.41
772.306	301.11
772.745	192.91
773.185	164.11
773.625	157.21
774.065	151.21
774.505	175.61
774.944	278.41
775.384	610.81
775.824	1145.71
776.263	1136.91
776.703	470.41
777.142	202.71
777.582	144.21
778.021	128.71
778.461	124.91
778.9	124.81
779.34	130.91
779.779	111.71
780.219	95.61
780.658	99.01
781.097	102.11
781.537	100.11
781.976	96.01
782.415	93.01
782.855	91.61
783.294	99.01
783.733	92.81
784.172	99.41
784.611	94.11
785.05	99.01
785.489	102.51
785.928	108.11
786.367	111.81
786.806	112.61
787.245	122.81
787.684	123.31
788.123	136.71
788.562	129.41
789.001	113.21
789.44	113.71
789.879	116.61
790.317	111.51
790.756	114.51
791.195	117.51
791.634	131.41
792.072	181.51
792.511	324.61
792.95	881.21
793.388	1949.01
793.827	1792.01
794.265	621.21
794.704	254.01
795.142	162.01
795.581	139.41
796.019	119.01
796.458	119.81
796.896	106.61
797.334	118.01
797.773	138.21
798.211	195.41
798.649	387.71
799.087	915.91
799.526	1436.41
799.964	1797.11
800.402	1855.71
800.84	696.21
801.278	274.61
801.716	168.41
802.154	141.01
802.592	134.41
803.03	130.11
803.468	121.71
803.906	136.21
804.344	132.81
804.782	125.11
805.22	123.51
805.658	119.71
806.096	136.21
806.533	142.81
806.971	156.71
807.409	199.81
807.847	274.51
808.284	576.91
808.722	1651.91
809.16	2974.01
809.597	2795.31
810.035	4873.21
810.472	5387.51
810.91	1916.71
811.347	728.41
811.785	376.61
812.222	237.71
812.66	181.91
813.097	154.81
813.535	128.61
813.972	115.61
814.409	107.41
814.846	100.41
815.284	99.31
815.721	92.71
816.158	94.61
816.595	113.01
817.032	164.01
817.47	182.31
817.907	145.51
818.344	142.61
818.781	112.71
819.218	91.61
819.655	113.11
820.092	171.71
820.529	194.71
820.966	165.41
821.403	130.61
821.839	103.41
822.276	94.11
822.713	107.91
823.15	125.21
823.587	107.01
824.023	132.51
824.46	257.41
824.897	794.61
825.333	1252.71
825.77	534.61
826.206	205.51
826.643	125.41
827.08	96.41
827.516	81.01
827.953	71.61
828.389	64.11
828.825	63.01
829.262	57.51
829.698	53.21
830.135	62.41
830.571	58.71
831.007	60.41
831.443	57.51
831.88	53.11
832.316	51.61
832.752	60.31
833.188	58.71
833.624	63.31
834.06	57.61
834.497	56.71
834.933	66.11
835.369	69.31
835.805	65.61
836.241	71.11
836.677	73.71
837.112	84.41
837.548	92.11
837.984	120.01
838.42	176.11
838.856	436.41
839.292	1339.31
839.727	2115.41
840.163	980.61
840.599	807.61
841.034	1812.21
841.47	1961.31
841.906	711.31
842.341	304.41
842.777	210.11
843.212	279.31
843.648	293.51
844.083	141.61
844.519	92.21
844.954	73.11
845.39	59.91
845.825	58.61
846.261	47.81
846.696	54.81
847.131	51.01
847.566	55.41
848.002	50.11
848.437	45.31
848.872	60.61
849.307	60.61
849.742	74.21
850.177	156.11
850.613	486.41
851.048	801.41
851.483	347.41
851.918	135.51
852.353	74.51
852.788	55.51
853.223	59.21
853.657	49.41
854.092	50.31
854.527	36.81
854.962	37.91
855.397	35.71
855.832	43.81
856.266	40.21
856.701	45.21
857.136	38.61
857.57	32.31
858.005	46.11
858.44	53.41
858.874	38.91
859.309	48.31
859.743	37.41
860.178	35.11
860.612	36.41
861.047	41.11
861.481	61.81
861.915	65.21
862.35	47.91
862.784	31.61
863.218	33.31
863.653	32.01
864.087	40.81
864.521	47.11
864.955	64.01
865.39	137.71
865.824	158.81
866.258	98.91
866.692	150.31
867.126	161.71
867.56	100.11
867.994	47.01
868.428	33.31
868.862	43.61
869.296	56.21
869.73	54.41
870.164	48.21
870.598	41.51
871.031	30.11
871.465	30.31
871.899	30.01
872.333	25.91
872.766	26.41
873.2	21.21
873.634	29.31
874.067	28.41
874.501	27.31
874.935	32.91
875.368	27.31
875.802	26.01
876.235	27.91
876.669	25.81
877.102	22.21
877.535	26.71
877.969	27.01
878.402	27.61
878.836	21.11
879.269	19.71
879.702	22.51
880.135	22.81
880.569	21.81
881.002	27.91
881.435	21.81
881.868	14.41
882.301	23.71
882.734	15.21
883.167	21.21
883.601	15.11
884.034	18.71
884.467	11.01
884.899	22.11
885.332	15.51
885.765	14.41
886.198	15.91
886.631	18.91
887.064	20.51
887.497	21.81
887.929	25.81
888.362	11.41
888.795	14.91
889.228	22.01
889.66	18.41
890.093	16.41
890.526	15.91
890.958	15.31
891.391	21.31
891.823	21.71
892.256	9.01
892.688	12.61
893.121	18.91
893.553	18.01
893.985	23.61
894.418	16.51
894.85	12.81
895.282	15.81
895.715	12.11
896.147	15.01
896.579	17.91
897.011	14.91
897.444	14.51
897.876	11.41
898.308	17.41
898.74	15.21
899.172	17.81
899.604	23.21
900.036	17.81
900.468	14.31
900.9	15.91
901.332	18.61
901.764	13.81
902.196	16.51
902.628	23.61
903.06	18.01
903.491	28.91
903.923	20.31
904.355	23.21
904.787	22.41
905.218	25.31
905.65	19.51
906.082	9.21
906.513	10.01
906.945	18.21
907.376	14.21
907.808	21.91
908.239	24.81
908.671	16.91
909.102	17.51
909.534	25.21
909.965	37.31
910.397	79.91
910.828	279.31
911.259	436.41
911.691	198.31
912.122	100.31
912.553	39.61
912.984	27.61
913.415	24.61
913.847	21.81
914.278	16.41
914.709	17.31
915.14	16.61
915.571	20.91
916.002	7.61
916.433	18.01
916.864	20.01
917.295	13.51
917.726	19.81
918.157	16.31
918.587	24.71
919.018	22.41
919.449	20.71
919.88	24.21
920.311	27.31
920.741	45.21
921.172	151.61
921.603	140.51
922.033	63.81
922.464	43.71
922.895	22.11
923.325	16.41
923.756	12.01
924.186	13.91
924.617	21.41
925.047	34.91
925.478	52.21
925.908	44.71
926.338	22.81
926.769	19.41
927.199	22.91
927.629	16.51
928.06	17.41
928.49	8.91
928.92	15.31
929.35	10.01
929.78	16.41
930.21	6.21
930.641	11.01
931.071	10.51
931.501	3.21
931.931	5.21
932.361	3.71
932.791	3.61
933.221	9.71
933.651	5.21
934.08	19.31
934.51	32.91
934.94	11.31
935.37	8.31
935.8	8.41
936.229	5.01
936.659	10.51
937.089	3.61
937.519	9.31
937.948	22.81
938.378	26.91
938.807	1.01
939.237	5.01
939.666	9.21
940.096	-1.29
940.525	6.91
940.955	7.01
941.384	4.91
941.814	-7.19
942.243	5.51
942.672	1.41
943.102	-0.39
943.531	6.61
943.96	5.51
944.39	2.21
944.819	-1.39
945.248	6.01
945.677	0.91
946.106	6.41
946.535	9.61
946.964	3.31
947.393	2.51
947.822	1.51
948.251	-5.29
948.68	8.61
949.109	8.61
949.538	7.51
949.967	7.61
950.396	-2.89
950.825	0.61
951.254	2.81
951.682	-1.19
952.111	3.61
952.54	2.01
952.969	-3.49
953.397	-4.19
953.826	5.91
954.254	-3.29
954.683	6.11
955.112	0.01
955.54	-0.59
955.969	1.11
956.397	4.51
956.826	0.61
957.254	2.31
957.682	-0.49
958.111	4.21
958.539	-3.39
958.967	5.61
959.396	0.31
959.824	2.41
960.252	3.91
960.68	-0.59
961.109	1.01
961.537	-1.09
961.965	-3.59
962.393	-1.59
962.821	-2.49
963.249	0.91
963.677	7.81
964.105	6.81
964.533	43.81
964.961	42.01
965.389	18.11
965.817	5.31
966.245	6.01
966.672	-1.09
967.1	-5.49
967.528	5.11
967.956	-0.69
968.383	4.71
968.811	0.41
969.239	-4.19
969.666	-8.29
970.094	2.21
970.522	3.61
970.949	2.61
971.377	-8.19
971.804	1.11
972.232	4.01
972.659	2.81
973.087	-1.19
973.514	-3.19
973.941	-1.79
974.369	0.81
974.796	-0.19
975.223	0.81
975.651	0.71
976.078	6.31
976.505	-3.19
976.932	1.01
977.359	15.41
977.786	15.01
978.214	-1.69
978.641	1.11
979.068	-3.09
979.495	-5.89
979.922	-2.69
980.349	1.91
980.776	7.61
981.202	4.71
981.629	8.11
982.056	1.91
982.483	0.41
982.91	2.01
983.337	-7.89
983.763	2.71
984.19	-2.99
984.617	-2.39
985.043	-6.19
985.47	1.61
985.897	-2.49
986.323	-5.79
986.75	2.01
987.176	-0.19
987.603	1.11
988.029	3.51
988.456	-7.09
988.882	-0.59
989.308	-1.39
989.735	-3.69
990.161	-2.39
990.587	-1.79
991.014	2.21
991.44	8.41
991.866	-4.19
992.292	-0.39
992.719	2.61
993.145	7.81
993.571	-7.79
993.997	2.91
994.423	-0.79
994.849	-0.89
995.275	4.61
995.701	-1.89
996.127	-4.79
996.553	-1.19
996.979	1.61
997.405	4.01
997.83	-4.09
998.256	-4.39
998.682	-5.49
999.108	-17.29
999.534	-3.39
999.959	-2.99
1000.385	-6.69
1000.811	1.91
1001.236	-9.59
1001.662	-3.99
1002.087	-6.49
1002.513	-2.69
1002.938	4.31
1003.364	0.51
1003.789	1.11
1004.215	2.21
1004.64	2.81
1005.066	0.21
1005.491	3.91
1005.916	-2.09
1006.342	-5.99
1006.767	-8.09
1007.192	6.71
1007.617	0.11
1008.042	-4.09
1008.468	-3.09
1008.893	-8.39
1009.318	-2.29
1009.743	-3.29
1010.168	6.41
1010.593	-0.29
1011.018	-7.99
1011.443	3.71
1011.868	3.11
1012.293	-4.29
1012.718	-4.69
1013.143	1.11
1013.567	4.01
1013.992	0.61
1014.417	-12.49
1014.842	-0.69
1015.267	-0.59
1015.691	-2.19
1016.116	8.71
1016.541	-0.89
1016.965	8.21
1017.39	4.21
1017.814	3.31
1018.239	1.71
1018.663	-8.19
1019.088	-10.09
1019.512	-4.39
1019.937	1.01
1020.361	-1.89
1020.785	-7.29
1021.21	1.21
1021.634	-0.49
1022.058	-0.19
1022.483	1.21
1022.907	-1.59
1023.331	2.01
1023.755	1.31
1024.179	-3.99
1024.604	-8.69
1025.028	-5.59
1025.452	-4.19
1025.876	1.41
1026.3	-0.39
1026.724	-8.59
1027.148	-0.09
1027.572	-5.49
1027.996	-0.59
1028.42	2.71
1028.843	-9.99
1029.267	-0.29
1029.691	-3.49
1030.115	-3.29
1030.539	-0.39
1030.962	-2.69
1031.386	-6.39
1031.81	-3.49
1032.233	1.11
1032.657	0.51
1033.08	0.71
1033.504	-5.69
1033.927	-5.99
1034.351	-1.69
1034.774	-0.79
1035.198	-1.89
1035.621	-0.19
1036.045	-6.09
1036.468	1.91
1036.891	-7.79
1037.315	-5.19
1037.738	-3.79
1038.161	1.31
1038.584	-2.69
1039.008	-5.39
1039.431	-4.59
1039.854	-1.69
1040.277	-6.39
1040.7	-12.29
1041.123	1.11
1041.546	-3.49
1041.969	-5.39
1042.392	-4.29
1042.815	4.11
1043.238	3.21
1043.661	6.51
1044.084	-5.39
1044.507	-3.39
1044.93	-4.29
1045.352	-3.39
1045.775	-0.59
1046.198	2.71
1046.621	0.41
1047.043	2.21
1047.466	0.11
1047.889	-2.79
1048.311	-1.49
1048.734	-4.79
1049.156	2.71
1049.579	2.01
1050.001	-3.49
1050.424	-1.79
1050.846	-1.89
1051.269	-1.59
1051.691	-3.19
1052.113	-10.09
1052.536	-0.09
1052.958	-3.69
1053.38	-2.29
1053.802	-8.49
1054.225	2.91
1054.647	-5.39
1055.069	-2.09
1055.491	1.41
1055.913	-2.99
1056.335	0.81
1056.757	-1.69
1057.179	-2.89
1057.601	-2.09
1058.023	-4.09
1058.445	-2.39
1058.867	-4.59
1059.289	-2.79
1059.711	-6.29
1060.133	-2.69
1060.555	-6.59
1060.976	-5.69
1061.398	-3.09
1061.82	-4.29
1062.241	-2.59
1062.663	-6.49
1063.085	-3.99
1063.506	3.71
1063.928	3.31
1064.35	3.81
1064.771	-14.29
1065.193	-4.69
1065.614	-7.39
1066.035	1.51
1066.457	-0.09
1066.878	-0.59
1067.3	-7.79
1067.721	-8.49
1068.142	-9.79
1068.564	-6.59
1068.985	-5.09
1069.406	-7.69
1069.827	-3.99
1070.248	-1.79
1070.67	-1.99
1071.091	-4.09
1071.512	5.41
1071.933	-0.89
1072.354	-4.19
1072.775	-3.49
1073.196	-7.99
1073.617	2.11
1074.038	-3.19
1074.459	-2.89
1074.88	-3.49
1075.3	3.81
1075.721	0.01
1076.142	-2.69
1076.563	2.61
1076.983	-5.59
1077.404	-2.19
1077.825	-13.39
1078.246	-0.39
1078.666	-9.49
1079.087	-4.99
1079.507	-3.79
1079.928	1.31
1080.348	-1.19
1080.769	-6.99
1081.189	-2.89
1081.61	3.81
1082.03	-1.49
1082.451	-4.89
1082.871	-2.99
1083.291	-5.69
1083.711	-4.29
1084.132	-3.19
1084.552	-3.09
1084.972	0.91
1085.392	-4.79
1085.813	-6.49
1086.233	-2.59
1086.653	-5.79
1087.073	-1.09
1087.493	-6.09
1087.913	-6.79
1088.333	-10.19
1088.753	-4.29
1089.173	3.01
1089.593	0.81
1090.013	0.01
1090.433	0.61
1090.852	-2.79
1091.272	-3.99
1091.692	-7.79
1092.112	-6.19
1092.531	-6.59
1092.951	-17.39
1093.371	-2.29
1093.79	-0.49
1094.21	-6.09
1094.63	-2.79
1095.049	-5.99
1095.469	-5.29
1095.888	1.51
1096.308	4.41
1096.727	-2.79
1097.146	-11.89
1097.566	-0.69
1097.985	-2.99
1098.405	1.01
1098.824	-3.99
1099.243	-6.99
1099.662	-10.69
1100.082	-5.89
1100.501	-3.19
1100.92	-0.29
1101.339	-1.29
1101.758	-1.59
