Data from 20171114-ORNL-Ar_H_NY_Subt18_08-08-25-484.txt Node
Date: Tue Nov 14 08:08:25 EST 2017
User: Ender
Spectrometer: HR+D1039
Trigger mode: 0
Integration Time (sec): 2.730000E-2
Scans to average: 10
Electric dark correction enabled: true
Nonlinearity correction enabled: false
Boxcar width: 0
XAxis mode: Wavelengths
Number of Pixels in Spectrum: 2048
>>>>>Begin Spectral Data<<<<<
187.836	-9.24
188.309	-9.24
188.782	-9.24
189.255	0.66
189.728	-1.44
190.201	8.96
190.674	-0.24
191.147	0.66
191.619	-8.14
192.092	3.96
192.565	6.16
193.038	-4.24
193.511	2.66
193.984	-2.64
194.456	-5.64
194.929	3.46
195.402	3.86
195.874	1.26
196.347	-4.14
196.82	-7.24
197.292	4.86
197.765	-1.04
198.237	-0.14
198.71	6.56
199.182	1.76
199.655	1.56
200.127	1.26
200.6	-1.44
201.072	1.26
201.544	-5.54
202.017	-1.94
202.489	2.76
202.961	-4.14
203.433	-0.44
203.906	-8.14
204.378	-4.24
204.85	-5.64
205.322	-10.14
205.794	-2.44
206.266	-4.34
206.739	-4.34
207.211	-1.04
207.683	-2.94
208.155	-5.84
208.627	-4.04
209.099	-5.84
209.57	-6.14
210.042	-0.64
210.514	-3.24
210.986	0.36
211.458	-7.44
211.93	-5.04
212.402	-1.04
212.873	-4.24
213.345	-8.84
213.817	-12.44
214.288	-1.84
214.76	-8.64
215.232	0.26
215.703	1.16
216.175	-3.04
216.646	-3.24
217.118	-6.14
217.589	-4.24
218.061	-7.14
218.532	-0.84
219.004	-2.64
219.475	1.26
219.946	-1.14
220.418	-2.74
220.889	-0.34
221.36	6.56
221.832	-6.54
222.303	-6.54
222.774	1.36
223.245	-7.64
223.717	-3.54
224.188	-7.44
224.659	-5.44
225.13	-5.74
225.601	0.96
226.072	-3.84
226.543	1.66
227.014	1.06
227.485	0.26
227.956	-2.44
228.427	0.16
228.898	4.86
229.369	3.06
229.839	2.36
230.31	-6.54
230.781	6.66
231.252	0.86
231.722	-3.04
232.193	0.76
232.664	2.56
233.135	7.56
233.605	-4.54
234.076	-5.74
234.546	-4.04
235.017	4.56
235.487	0.66
235.958	-0.94
236.428	-1.74
236.899	-2.04
237.369	-3.24
237.84	-2.54
238.31	-4.14
238.78	-2.84
239.251	-3.24
239.721	1.06
240.191	1.26
240.662	-2.44
241.132	-1.14
241.602	-5.64
242.072	-4.84
242.542	4.56
243.013	0.96
243.483	1.56
243.953	1.66
244.423	0.36
244.893	-10.94
245.363	3.66
245.833	6.66
246.303	-5.24
246.773	1.16
247.243	0.86
247.712	-0.84
248.182	2.26
248.652	5.46
249.122	-5.04
249.592	3.76
250.061	5.06
250.531	13.06
251.001	5.06
251.471	8.46
251.94	8.76
252.41	-3.64
252.879	-2.24
253.349	8.06
253.818	5.56
254.288	6.76
254.757	0.86
255.227	4.06
255.696	-0.24
256.166	4.76
256.635	2.56
257.105	3.46
257.574	1.16
258.043	4.96
258.513	-2.44
258.982	3.76
259.451	1.46
259.92	3.46
260.389	5.36
260.859	11.26
261.328	1.26
261.797	7.16
262.266	0.16
262.735	6.36
263.204	6.46
263.673	-2.04
264.142	11.66
264.611	-5.24
265.08	-5.74
265.549	3.76
266.018	4.46
266.487	2.06
266.955	-0.44
267.424	1.26
267.893	9.36
268.362	0.86
268.83	9.66
269.299	10.66
269.768	7.36
270.236	3.86
270.705	3.66
271.174	0.46
271.642	1.16
272.111	7.46
272.579	4.06
273.048	8.06
273.516	2.06
273.985	11.36
274.453	8.46
274.922	6.06
275.39	9.66
275.858	4.56
276.327	11.16
276.795	15.16
277.263	8.66
277.731	12.86
278.2	16.96
278.668	19.16
279.136	20.06
279.604	10.16
280.072	9.36
280.54	9.66
281.008	7.76
281.477	12.46
281.945	8.26
282.413	17.06
282.881	16.46
283.348	5.56
283.816	12.76
284.284	15.06
284.752	23.06
285.22	9.46
285.688	14.06
286.156	19.46
286.623	19.26
287.091	10.76
287.559	16.46
288.026	12.66
288.494	14.46
288.962	5.96
289.429	10.76
289.897	21.26
290.364	18.16
290.832	20.36
291.3	16.66
291.767	19.46
292.234	17.26
292.702	13.96
293.169	15.86
293.637	21.66
294.104	16.86
294.571	4.16
295.039	15.56
295.506	10.36
295.973	15.56
296.44	8.46
296.908	16.76
297.375	15.06
297.842	20.56
298.309	16.06
298.776	15.56
299.243	23.16
299.71	15.16
300.177	23.56
300.644	19.96
301.111	20.46
301.578	22.56
302.045	17.16
302.512	21.46
302.979	23.16
303.446	20.36
303.913	15.86
304.379	21.76
304.846	23.06
305.313	25.66
305.78	23.76
306.246	25.76
306.713	29.06
307.18	20.96
307.646	24.66
308.113	30.36
308.579	27.16
309.046	28.76
309.512	26.66
309.979	21.26
310.445	31.46
310.912	22.96
311.378	26.96
311.845	28.96
312.311	29.66
312.777	28.76
313.244	31.86
313.71	33.16
314.176	30.56
314.642	29.66
315.109	29.26
315.575	30.86
316.041	38.56
316.507	26.96
316.973	29.56
317.439	32.66
317.905	27.56
318.371	36.96
318.837	37.16
319.303	35.76
319.769	36.06
320.235	37.66
320.701	28.76
321.167	34.46
321.633	28.56
322.099	26.86
322.564	39.46
323.03	39.06
323.496	37.96
323.962	38.46
324.427	39.86
324.893	39.46
325.359	37.76
325.824	38.46
326.29	38.76
326.755	40.76
327.221	39.36
327.686	35.46
328.152	50.06
328.617	43.16
329.083	50.26
329.548	54.36
330.014	44.56
330.479	41.76
330.944	43.66
331.41	44.36
331.875	47.86
332.34	36.36
332.805	41.86
333.271	45.66
333.736	35.46
334.201	48.56
334.666	52.86
335.131	44.06
335.596	50.26
336.061	49.06
336.526	39.56
336.991	46.56
337.456	53.76
337.921	53.56
338.386	45.66
338.851	42.96
339.316	51.26
339.781	45.66
340.246	59.56
340.711	45.96
341.175	50.76
341.64	41.66
342.105	54.36
342.569	53.16
343.034	57.36
343.499	59.96
343.963	51.86
344.428	61.66
344.893	64.36
345.357	61.56
345.822	59.66
346.286	58.36
346.751	71.56
347.215	70.86
347.679	73.26
348.144	95.36
348.608	84.56
349.073	72.96
349.537	75.86
350.001	80.36
350.465	91.66
350.93	77.86
351.394	81.06
351.858	77.56
352.322	91.06
352.786	90.16
353.25	101.06
353.715	115.46
354.179	103.86
354.643	132.76
355.107	123.46
355.571	103.86
356.035	101.86
356.498	125.46
356.962	127.26
357.426	127.66
357.89	118.86
358.354	94.26
358.818	79.86
359.281	82.06
359.745	79.66
360.209	73.76
360.673	72.26
361.136	80.36
361.6	85.46
362.064	85.56
362.527	81.26
362.991	96.26
363.454	76.46
363.918	80.06
364.381	81.36
364.845	88.06
365.308	90.16
365.772	81.86
366.235	84.96
366.698	84.86
367.162	86.76
367.625	85.76
368.088	85.46
368.552	87.36
369.015	89.26
369.478	98.66
369.941	96.56
370.404	102.96
370.867	97.56
371.331	107.76
371.794	113.46
372.257	102.86
372.72	109.06
373.183	98.86
373.646	92.76
374.109	101.06
374.572	96.86
375.035	101.66
375.497	118.56
375.96	106.86
376.423	111.36
376.886	111.36
377.349	110.46
377.811	99.96
378.274	106.16
378.737	114.76
379.199	111.26
379.662	111.66
380.125	111.46
380.587	109.66
381.05	112.86
381.512	124.76
381.975	133.16
382.437	122.26
382.9	117.56
383.362	125.66
383.825	137.76
384.287	130.26
384.75	126.86
385.212	123.96
385.674	140.26
386.136	134.06
386.599	122.26
387.061	128.46
387.523	124.86
387.985	133.86
388.447	134.46
388.91	126.96
389.372	133.16
389.834	138.46
390.296	132.26
390.758	134.96
391.22	141.36
391.682	162.26
392.144	174.56
392.606	154.56
393.068	142.26
393.529	145.76
393.991	143.16
394.453	142.56
394.915	146.96
395.377	142.26
395.838	151.26
396.3	145.96
396.762	137.46
397.224	145.06
397.685	138.36
398.147	137.96
398.608	139.76
399.07	138.86
399.531	137.46
399.993	148.86
400.454	158.46
400.916	150.56
401.377	159.26
401.839	158.36
402.3	154.16
402.762	166.96
403.223	177.96
403.684	170.66
404.145	163.86
404.607	166.56
405.068	168.06
405.529	169.06
405.99	189.56
406.451	178.46
406.913	182.26
407.374	165.16
407.835	170.16
408.296	177.46
408.757	181.46
409.218	189.26
409.679	186.66
410.14	184.46
410.601	180.06
411.062	188.56
411.522	189.36
411.983	177.76
412.444	176.46
412.905	186.36
413.366	194.76
413.826	210.16
414.287	229.56
414.748	280.76
415.208	254.16
415.669	221.76
416.13	218.16
416.59	219.36
417.051	224.46
417.511	230.16
417.972	249.66
418.432	258.56
418.893	300.96
419.353	261.06
419.814	213.46
420.274	198.56
420.734	198.46
421.195	208.56
421.655	198.06
422.115	201.56
422.576	198.86
423.036	210.96
423.496	215.36
423.956	227.46
424.416	250.96
424.876	276.76
425.336	275.06
425.797	273.66
426.257	261.86
426.717	253.06
427.177	248.36
427.637	228.16
428.097	246.36
428.556	252.26
429.016	271.26
429.476	270.16
429.936	283.46
430.396	283.26
430.856	292.76
431.315	325.36
431.775	360.16
432.235	391.76
432.694	363.56
433.154	374.56
433.614	413.76
434.073	346.16
434.533	289.86
434.993	279.46
435.452	292.36
435.912	302.46
436.371	302.56
436.83	293.76
437.29	277.76
437.749	260.36
438.209	255.16
438.668	290.06
439.127	306.86
439.587	283.46
440.046	270.16
440.505	277.56
440.964	293.46
441.424	339.26
441.883	326.56
442.342	281.06
442.801	242.66
443.26	238.36
443.719	241.16
444.178	229.96
444.637	225.16
445.096	231.26
445.555	237.56
446.014	240.36
446.473	246.46
446.932	250.56
447.391	249.16
447.849	243.56
448.308	229.86
448.767	240.26
449.226	247.36
449.685	249.86
450.143	268.86
450.602	251.76
451.061	252.46
451.519	251.56
451.978	247.36
452.436	251.96
452.895	252.46
453.353	268.56
453.812	259.96
454.27	260.96
454.729	256.76
455.187	257.26
455.646	264.46
456.104	266.96
456.562	276.36
457.021	295.66
457.479	274.56
457.937	290.66
458.395	284.86
458.854	260.16
459.312	275.36
459.77	294.26
460.228	272.46
460.686	256.56
461.144	264.26
461.602	260.26
462.06	265.36
462.518	262.06
462.976	267.36
463.434	271.76
463.892	273.16
464.35	298.26
464.808	298.96
465.266	286.46
465.724	297.06
466.181	289.46
466.639	286.56
467.097	300.36
467.555	311.06
468.012	321.96
468.47	328.56
468.928	348.36
469.385	365.46
469.843	368.06
470.3	372.76
470.758	380.06
471.215	406.46
471.673	428.96
472.13	430.96
472.588	448.86
473.045	401.66
473.503	411.86
473.96	420.26
474.417	431.86
474.875	453.56
475.332	497.76
475.789	486.96
476.246	481.86
476.704	513.66
477.161	534.36
477.618	546.46
478.075	579.66
478.532	640.36
478.989	718.66
479.446	830.66
479.903	789.66
480.36	819.46
480.817	876.76
481.274	950.96
481.731	1046.56
482.188	1126.06
482.645	1247.76
483.102	1338.36
483.558	1469.36
484.015	1502.36
484.472	1468.76
484.929	1424.76
485.385	1395.96
485.842	1359.76
486.299	1321.56
486.755	1268.66
487.212	1087.16
487.668	931.06
488.125	854.86
488.582	792.36
489.038	761.56
489.494	730.46
489.951	701.66
490.407	684.36
490.864	675.66
491.32	664.96
491.776	664.76
492.233	671.36
492.689	641.76
493.145	633.96
493.602	626.96
494.058	637.36
494.514	645.46
494.97	668.16
495.426	678.46
495.882	647.86
496.338	640.96
496.794	649.26
497.251	642.66
497.707	665.26
498.163	661.66
498.618	667.36
499.074	678.46
499.53	699.96
499.986	694.46
500.442	671.26
500.898	646.96
501.354	640.66
501.809	648.76
502.265	644.36
502.721	660.66
503.177	672.56
503.632	661.96
504.088	673.66
504.543	705.46
504.999	732.16
505.455	694.86
505.91	662.96
506.366	660.96
506.821	663.26
507.277	658.46
507.732	675.26
508.187	666.56
508.643	680.06
509.098	671.36
509.553	692.86
510.009	701.56
510.464	713.96
510.919	731.76
511.375	729.56
511.83	743.56
512.285	758.66
512.74	787.26
513.195	813.66
513.65	809.06
514.105	790.66
514.56	791.66
515.015	820.46
515.47	834.76
515.925	808.76
516.38	823.76
516.835	816.56
517.29	812.76
517.745	810.76
518.2	793.26
518.655	787.26
519.109	777.76
519.564	775.86
520.019	763.16
520.474	763.16
520.928	751.36
521.383	733.06
521.838	733.36
522.292	749.16
522.747	744.46
523.201	740.96
523.656	729.16
524.11	731.96
524.565	730.66
525.019	715.26
525.474	725.16
525.928	733.96
526.382	723.76
526.837	736.36
527.291	735.56
527.745	727.26
528.2	726.76
528.654	725.76
529.108	720.76
529.562	717.86
530.016	719.56
530.47	714.96
530.925	720.06
531.379	722.06
531.833	733.66
532.287	732.06
532.741	725.46
533.195	738.86
533.649	731.96
534.103	748.36
534.556	733.46
535.01	747.76
535.464	735.76
535.918	751.16
536.372	740.96
536.826	748.46
537.279	735.06
537.733	743.66
538.187	737.06
538.64	751.76
539.094	744.26
539.548	763.26
540.001	755.56
540.455	763.26
540.908	765.26
541.362	782.46
541.815	787.76
542.269	788.76
542.722	790.36
543.175	803.16
543.629	805.86
544.082	820.56
544.536	833.46
544.989	826.06
545.442	833.06
545.895	828.16
546.349	828.86
546.802	834.26
547.255	839.66
547.708	844.16
548.161	853.16
548.614	854.36
549.067	876.26
549.52	853.56
549.973	854.16
550.426	857.86
550.879	833.26
551.332	836.96
551.785	847.66
552.238	841.56
552.691	859.56
553.144	884.06
553.596	894.46
554.049	908.36
554.502	929.76
554.955	947.06
555.407	949.86
555.86	945.36
556.313	929.36
556.765	915.76
557.218	919.76
557.67	922.66
558.123	921.26
558.576	906.46
559.028	929.66
559.48	917.96
559.933	909.76
560.385	876.96
560.838	854.26
561.29	826.26
561.742	828.86
562.195	809.56
562.647	804.36
563.099	811.96
563.551	811.66
564.004	818.26
564.456	822.66
564.908	793.16
565.36	789.96
565.812	764.36
566.264	757.06
566.716	750.06
567.168	744.46
567.62	735.06
568.072	740.86
568.524	736.76
568.976	731.66
569.428	709.16
569.88	711.36
570.332	722.76
570.784	725.86
571.235	723.36
571.687	736.56
572.139	739.46
572.59	744.16
573.042	747.06
573.494	744.46
573.945	743.76
574.397	726.76
574.849	732.06
575.3	732.26
575.752	723.26
576.203	719.16
576.655	727.86
577.106	702.16
577.557	705.06
578.009	693.36
578.46	696.56
578.912	698.26
579.363	702.76
579.814	705.16
580.265	699.06
580.717	694.76
581.168	699.16
581.619	711.06
582.07	709.36
582.521	712.56
582.972	711.16
583.423	722.56
583.875	709.16
584.326	706.66
584.777	747.96
585.227	764.96
585.678	791.86
586.129	809.46
586.58	835.16
587.031	858.76
587.482	907.16
587.933	953.36
588.384	916.76
588.834	832.06
589.285	815.36
589.736	809.06
590.186	809.86
590.637	790.86
591.088	776.86
591.538	765.06
591.989	761.26
592.439	751.96
592.89	746.86
593.34	744.46
593.791	747.06
594.241	735.76
594.692	734.76
595.142	737.16
595.593	734.56
596.043	745.36
596.493	737.66
596.943	735.86
597.394	754.16
597.844	753.06
598.294	766.16
598.744	794.06
599.195	812.76
599.645	864.76
600.095	907.26
600.545	958.56
600.995	1009.86
601.445	1080.26
601.895	1135.56
602.345	1178.96
602.795	1166.56
603.245	1122.96
603.695	1062.86
604.145	1003.46
604.594	966.86
605.044	905.96
605.494	842.66
605.944	796.16
606.393	777.96
606.843	766.96
607.293	765.66
607.743	764.36
608.192	774.16
608.642	790.36
609.091	794.96
609.541	796.56
609.99	798.46
610.44	801.46
610.889	748.66
611.339	738.26
611.788	712.76
612.238	729.96
612.687	732.36
613.136	734.76
613.586	741.86
614.035	737.66
614.484	744.26
614.933	746.76
615.383	742.06
615.832	744.76
616.281	743.06
616.73	706.76
617.179	690.06
617.628	676.96
618.077	661.66
618.526	664.46
618.975	648.56
619.424	635.26
619.873	639.36
620.322	646.56
620.771	638.56
621.22	634.76
621.669	621.56
622.118	615.36
622.567	610.56
623.015	598.86
623.464	595.56
623.913	584.16
624.361	578.96
624.81	582.06
625.259	587.26
625.707	579.36
626.156	583.56
626.604	597.66
627.053	591.36
627.501	595.16
627.95	612.06
628.398	618.96
628.847	604.36
629.295	597.96
629.744	608.36
630.192	596.76
630.64	581.46
631.089	576.46
631.537	552.86
631.985	556.66
632.433	558.56
632.881	555.96
633.33	568.06
633.778	560.66
634.226	549.06
634.674	568.76
635.122	567.66
635.57	578.16
636.018	598.46
636.466	580.96
636.914	584.56
637.362	598.86
637.81	604.76
638.258	599.36
638.705	607.26
639.153	643.56
639.601	643.56
640.049	674.56
640.497	693.16
640.944	725.76
641.392	669.26
641.84	643.06
642.287	613.76
642.735	587.56
643.182	598.06
643.63	586.16
644.078	587.36
644.525	598.76
644.973	610.76
645.42	616.16
645.867	643.56
646.315	660.46
646.762	675.16
647.21	713.16
647.657	726.46
648.104	765.96
648.551	792.56
648.999	845.26
649.446	927.36
649.893	1002.66
650.34	1148.66
650.787	1381.16
651.234	1692.96
651.682	2195.76
652.129	2972.16
652.576	4206.36
653.023	6141.76
653.47	8277.56
653.917	10253.86
654.363	11729.66
654.81	12870.86
655.257	12202.86
655.704	8102.06
656.151	4915.96
656.598	3231.26
657.044	2318.46
657.491	1799.56
657.938	1448.66
658.385	1227.96
658.831	1067.46
659.278	959.66
659.724	860.26
660.171	804.46
660.618	733.56
661.064	704.06
661.511	689.86
661.957	670.36
662.404	667.06
662.85	684.66
663.296	661.66
663.743	582.96
664.189	555.06
664.635	554.56
665.082	549.76
665.528	554.16
665.974	544.36
666.42	538.16
666.867	522.46
667.313	510.36
667.759	485.86
668.205	472.86
668.651	472.36
669.097	470.86
669.543	461.46
669.989	466.56
670.435	473.56
670.881	471.66
671.327	477.76
671.773	489.66
672.219	518.76
672.665	576.06
673.11	612.96
673.556	669.76
674.002	700.56
674.448	690.36
674.893	582.16
675.339	509.96
675.785	465.56
676.23	447.46
676.676	420.16
677.122	399.56
677.567	394.46
678.013	389.46
678.458	388.16
678.904	380.16
679.349	370.36
679.794	373.46
680.24	372.16
680.685	375.56
681.131	365.76
681.576	364.96
682.021	380.56
682.466	367.36
682.912	370.46
683.357	374.76
683.802	405.76
684.247	436.76
684.692	481.76
685.137	528.96
685.583	563.36
686.028	596.66
686.473	552.66
686.918	474.66
687.363	442.36
687.807	426.26
688.252	381.46
688.697	372.36
689.142	357.16
689.587	349.66
690.032	350.46
690.477	367.36
690.921	376.46
691.366	408.36
691.811	425.76
692.255	455.56
692.7	485.96
693.145	546.46
693.589	751.76
694.034	1230.06
694.478	1651.16
694.923	1838.86
695.367	2371.46
695.812	1276.36
696.256	538.36
696.701	398.76
697.145	360.76
697.59	348.96
698.034	337.76
698.478	353.56
698.922	337.36
699.367	343.46
699.811	356.36
700.255	373.76
700.699	393.26
701.143	451.16
701.588	509.16
702.032	544.76
702.476	554.46
702.92	518.56
703.364	522.16
703.808	690.46
704.252	1122.86
704.696	1555.76
705.14	1772.36
705.584	2236.86
706.027	1130.96
706.471	559.56
706.915	423.36
707.359	370.96
707.803	339.96
708.246	330.46
708.69	325.76
709.134	334.06
709.577	322.26
710.021	329.96
710.465	327.66
710.908	320.66
711.352	312.36
711.795	337.56
712.239	375.36
712.682	414.86
713.126	438.66
713.569	478.76
714.012	377.96
714.456	315.96
714.899	308.86
715.342	292.96
715.786	277.56
716.229	283.36
716.672	267.66
717.115	261.76
717.558	268.46
718.002	265.36
718.445	284.36
718.888	306.56
719.331	315.16
719.774	325.26
720.217	319.76
720.66	298.96
721.103	288.46
721.546	267.46
721.989	261.56
722.432	241.36
722.874	253.46
723.317	247.36
723.76	248.96
724.203	268.46
724.645	345.36
725.088	481.26
725.531	601.16
725.974	679.86
726.416	583.26
726.859	326.86
727.301	262.76
727.744	245.56
728.187	247.96
728.629	251.76
729.071	263.36
729.514	282.36
729.956	287.66
730.399	305.26
730.841	312.56
731.283	298.96
731.726	279.26
732.168	282.46
732.61	285.56
733.053	309.66
733.495	337.86
733.937	375.16
734.379	424.36
734.821	475.36
735.263	582.86
735.705	910.96
736.148	1724.16
736.59	2770.96
737.032	3195.66
737.474	2618.86
737.916	875.16
738.357	458.66
738.799	349.76
739.241	316.16
739.683	311.26
740.125	315.86
740.567	317.46
741.008	332.46
741.45	336.26
741.892	343.76
742.334	378.76
742.775	391.26
743.217	365.06
743.658	291.96
744.1	274.06
744.542	287.66
744.983	331.66
745.425	368.76
745.866	366.26
746.307	303.86
746.749	292.86
747.19	347.86
747.632	491.96
748.073	967.76
748.514	2035.56
748.956	3029.16
749.397	3825.16
749.838	3157.96
750.279	3111.96
750.72	1600.76
751.162	592.86
751.603	344.96
752.044	268.06
752.485	231.86
752.926	224.06
753.367	212.36
753.808	218.46
754.249	199.06
754.69	198.66
755.131	199.46
755.572	202.66
756.013	200.16
756.453	188.56
756.894	198.96
757.335	198.56
757.776	211.96
758.216	208.76
758.657	211.46
759.098	214.66
759.538	242.16
759.979	286.96
760.42	414.16
760.86	786.46
761.301	2012.06
761.741	4778.06
762.182	6672.36
762.622	4767.86
763.063	1413.96
763.503	571.96
763.943	347.46
764.384	304.46
764.824	291.86
765.264	281.56
765.705	234.76
766.145	198.16
766.585	190.46
767.025	180.06
767.465	180.56
767.906	208.96
768.346	227.86
768.786	238.46
769.226	239.46
769.666	338.46
770.106	692.66
770.546	1706.06
770.986	2780.66
771.426	2474.76
771.866	848.06
772.306	347.56
772.745	210.86
773.185	174.96
773.625	173.36
774.065	160.86
774.505	174.46
774.944	221.86
775.384	398.96
775.824	646.26
776.263	613.46
776.703	299.56
777.142	173.56
777.582	146.06
778.021	128.86
778.461	129.56
778.9	132.66
779.34	137.46
779.779	120.96
780.219	121.46
780.658	111.96
781.097	119.36
781.537	123.96
781.976	111.56
782.415	113.26
782.855	109.46
783.294	112.16
783.733	105.46
784.172	111.76
784.611	113.66
785.05	111.86
785.489	116.16
785.928	124.26
786.367	127.06
786.806	121.46
787.245	137.96
787.684	139.26
788.123	159.86
788.562	146.86
789.001	139.06
789.44	130.36
789.879	121.16
790.317	130.66
790.756	132.26
791.195	144.66
791.634	156.06
792.072	219.36
792.511	397.56
792.95	1090.46
793.388	2236.76
793.827	1982.16
794.265	706.66
794.704	294.26
795.142	195.06
795.581	161.06
796.019	145.66
796.458	136.36
796.896	131.86
797.334	140.16
797.773	162.46
798.211	238.26
798.649	488.16
799.087	1103.06
799.526	1715.16
799.964	2151.56
800.402	2095.56
800.84	800.56
801.278	334.76
801.716	195.76
802.154	164.36
802.592	155.66
803.03	151.56
803.468	138.56
803.906	154.06
804.344	150.36
804.782	149.46
805.22	144.76
805.658	138.76
806.096	155.46
806.533	171.36
806.971	186.26
807.409	235.06
807.847	353.06
808.284	733.26
808.722	2029.76
809.16	3473.56
809.597	3393.56
810.035	5774.16
810.472	5974.56
810.91	2207.36
811.347	857.86
811.785	440.16
812.222	269.56
812.66	208.06
813.097	177.86
813.535	146.06
813.972	137.66
814.409	123.26
814.846	112.46
815.284	112.76
815.721	110.36
816.158	112.86
816.595	118.96
817.032	160.76
817.47	185.36
817.907	137.26
818.344	111.16
818.781	104.36
819.218	102.06
819.655	134.36
820.092	208.16
820.529	222.86
820.966	183.66
821.403	132.16
821.839	113.36
822.276	105.06
822.713	128.26
823.15	148.46
823.587	131.46
824.023	161.96
824.46	332.16
824.897	968.86
825.333	1426.56
825.77	622.16
826.206	244.06
826.643	148.86
827.08	107.06
827.516	90.06
827.953	82.96
828.389	83.46
828.825	74.36
829.262	70.36
829.698	65.76
830.135	66.56
830.571	67.16
831.007	66.16
831.443	67.86
831.88	65.16
832.316	62.76
832.752	74.06
833.188	66.36
833.624	68.06
834.06	67.66
834.497	74.66
834.933	74.36
835.369	75.26
835.805	66.96
836.241	81.56
836.677	86.56
837.112	97.56
837.548	114.86
837.984	146.86
838.42	220.26
838.856	539.86
839.292	1621.66
839.727	2384.06
840.163	1139.76
840.599	1016.86
841.034	2161.26
841.47	2203.66
841.906	814.16
842.341	354.96
842.777	216.66
843.212	223.06
843.648	207.36
844.083	119.16
844.519	87.36
844.954	79.56
845.39	62.26
845.825	56.26
846.261	67.16
846.696	60.16
847.131	60.16
847.566	64.06
848.002	56.06
848.437	56.56
848.872	64.16
849.307	67.66
849.742	86.76
850.177	200.76
850.613	604.56
851.048	919.26
851.483	398.26
851.918	169.56
852.353	99.26
852.788	58.96
853.223	59.66
853.657	58.26
854.092	46.86
854.527	49.66
854.962	43.86
855.397	51.16
855.832	53.26
856.266	44.86
856.701	41.26
857.136	38.86
857.57	46.96
858.005	58.76
858.44	61.56
858.874	52.26
859.309	53.26
859.743	45.56
860.178	49.46
860.612	44.96
861.047	60.06
861.481	76.46
861.915	80.56
862.35	50.86
862.784	37.46
863.218	42.46
863.653	36.76
864.087	49.56
864.521	57.76
864.955	72.06
865.39	166.36
865.824	192.26
866.258	126.96
866.692	188.86
867.126	193.16
867.56	108.76
867.994	63.76
868.428	37.56
868.862	53.66
869.296	61.96
869.73	68.66
870.164	63.46
870.598	52.86
871.031	40.36
871.465	34.36
871.899	27.96
872.333	26.76
872.766	23.66
873.2	22.46
873.634	33.36
874.067	22.96
874.501	30.06
874.935	35.76
875.368	32.66
875.802	30.56
876.235	27.76
876.669	28.06
877.102	21.56
877.535	26.66
877.969	17.86
878.402	29.86
878.836	26.36
879.269	22.36
879.702	30.66
880.135	29.16
880.569	26.26
881.002	30.26
881.435	24.36
881.868	21.66
882.301	32.86
882.734	11.76
883.167	27.56
883.601	22.06
884.034	25.86
884.467	23.56
884.899	21.56
885.332	21.76
885.765	17.06
886.198	18.36
886.631	20.76
887.064	26.06
887.497	21.96
887.929	29.46
888.362	17.86
888.795	14.96
889.228	25.66
889.66	24.56
890.093	21.26
890.526	10.16
890.958	21.76
891.391	25.46
891.823	25.96
892.256	14.26
892.688	13.96
893.121	18.16
893.553	10.76
893.985	24.26
894.418	18.16
894.85	19.56
895.282	18.46
895.715	17.16
896.147	16.36
896.579	21.36
897.011	16.66
897.444	14.96
897.876	20.26
898.308	19.46
898.74	17.36
899.172	19.16
899.604	24.56
900.036	24.66
900.468	16.46
900.9	15.86
901.332	21.66
901.764	15.86
902.196	21.66
902.628	23.56
903.06	18.16
903.491	31.66
903.923	26.06
904.355	21.66
904.787	29.46
905.218	20.56
905.65	23.06
906.082	13.26
906.513	12.66
906.945	21.26
907.376	12.96
907.808	20.36
908.239	19.86
908.671	23.66
909.102	26.06
909.534	37.06
909.965	52.96
910.397	101.66
910.828	340.56
911.259	491.66
911.691	231.66
912.122	116.16
912.553	55.66
912.984	35.66
913.415	27.46
913.847	26.96
914.278	15.56
914.709	17.16
915.14	15.06
915.571	17.56
916.002	14.26
916.433	22.96
916.864	18.06
917.295	12.86
917.726	21.06
918.157	21.76
918.587	30.66
919.018	26.96
919.449	22.76
919.88	25.26
920.311	31.16
920.741	54.66
921.172	175.26
921.603	162.66
922.033	74.36
922.464	56.36
922.895	23.16
923.325	25.96
923.756	10.56
924.186	12.56
924.617	16.26
925.047	26.56
925.478	24.36
925.908	28.06
926.338	11.26
926.769	14.36
927.199	18.36
927.629	9.16
928.06	8.66
928.49	19.06
928.92	16.26
929.35	11.26
929.78	16.96
930.21	9.26
930.641	7.36
931.071	15.96
931.501	4.86
931.931	10.06
932.361	8.96
932.791	8.46
933.221	4.46
933.651	5.06
934.08	16.96
934.51	30.26
934.94	11.86
935.37	5.86
935.8	11.16
936.229	3.76
936.659	15.86
937.089	0.26
937.519	11.86
937.948	23.06
938.378	19.46
938.807	5.76
939.237	3.46
939.666	10.16
940.096	-1.24
940.525	7.96
940.955	3.66
941.384	2.06
941.814	0.26
942.243	-3.64
942.672	-2.74
943.102	-2.64
943.531	-3.84
943.96	4.36
944.39	3.66
944.819	2.36
945.248	7.26
945.677	2.36
946.106	8.96
946.535	4.26
946.964	2.56
947.393	8.06
947.822	6.06
948.251	-0.44
948.68	-2.84
949.109	4.46
949.538	0.96
949.967	1.36
950.396	5.56
950.825	-1.54
951.254	-5.44
951.682	-9.24
952.111	6.66
952.54	7.26
952.969	0.16
953.397	-4.14
953.826	3.76
954.254	-4.34
954.683	1.26
955.112	-1.64
955.54	-0.54
955.969	3.66
956.397	-5.54
956.826	2.36
957.254	5.86
957.682	10.56
958.111	4.86
958.539	-0.94
958.967	1.66
959.396	3.46
959.824	2.36
960.252	-3.04
960.68	-2.64
961.109	1.46
961.537	-2.94
961.965	2.96
962.393	3.16
962.821	3.66
963.249	2.36
963.677	7.06
964.105	8.96
964.533	48.86
964.961	42.36
965.389	21.96
965.817	9.26
966.245	-0.64
966.672	7.66
967.1	-3.74
967.528	2.16
967.956	-4.44
968.383	-1.74
968.811	-3.24
969.239	-2.04
969.666	-4.64
970.094	-0.54
970.522	-2.44
970.949	6.36
971.377	-3.94
971.804	3.96
972.232	1.66
972.659	0.46
973.087	2.56
973.514	-2.94
973.941	-4.24
974.369	0.16
974.796	0.16
975.223	-4.24
975.651	-2.04
976.078	7.56
976.505	2.16
976.932	1.36
977.359	14.46
977.786	18.46
978.214	-3.14
978.641	-1.74
979.068	1.86
979.495	-7.84
979.922	1.26
980.349	-3.44
980.776	8.66
981.202	2.26
981.629	4.76
982.056	2.16
982.483	-3.84
982.91	3.36
983.337	-7.54
983.763	0.06
984.19	-3.54
984.617	1.76
985.043	-4.04
985.47	3.26
985.897	-1.34
986.323	-5.54
986.75	-0.44
987.176	-8.64
987.603	-1.74
988.029	-1.24
988.456	-0.94
988.882	-0.64
989.308	-2.24
989.735	-2.74
990.161	-1.04
990.587	-7.84
991.014	4.66
991.44	4.86
991.866	-2.64
992.292	-3.94
992.719	-0.94
993.145	2.66
993.571	-9.04
993.997	-3.64
994.423	-0.64
994.849	-2.84
995.275	0.16
995.701	-0.44
996.127	-0.34
996.553	5.66
996.979	-4.84
997.405	-2.14
997.83	-9.94
998.256	-8.14
998.682	-4.94
999.108	-3.64
999.534	-2.34
999.959	-2.14
1000.385	-5.84
1000.811	5.26
1001.236	-7.24
1001.662	-4.84
1002.087	-6.24
1002.513	0.36
1002.938	3.36
1003.364	-3.64
1003.789	-1.54
1004.215	-0.64
1004.64	0.46
1005.066	1.46
1005.491	5.76
1005.916	-3.24
1006.342	0.06
1006.767	-9.64
1007.192	5.96
1007.617	-8.54
1008.042	-6.94
1008.468	-4.94
1008.893	0.06
1009.318	-3.94
1009.743	-1.14
1010.168	4.56
1010.593	5.96
1011.018	-10.04
1011.443	-3.24
1011.868	-2.64
1012.293	-4.34
1012.718	-7.24
1013.143	1.86
1013.567	-0.04
1013.992	-3.04
1014.417	-10.04
1014.842	3.56
1015.267	-0.54
1015.691	-7.64
1016.116	10.66
1016.541	0.06
1016.965	6.86
1017.39	8.06
1017.814	1.76
1018.239	3.46
1018.663	-4.04
1019.088	-9.84
1019.512	-4.44
1019.937	0.26
1020.361	-4.84
1020.785	-3.04
1021.21	-4.84
1021.634	4.56
1022.058	6.46
1022.483	1.66
1022.907	-8.54
1023.331	-6.54
1023.755	0.26
1024.179	-3.64
1024.604	-6.24
1025.028	-5.74
1025.452	0.86
1025.876	-0.34
1026.3	3.66
1026.724	-10.34
1027.148	-7.94
1027.572	-8.24
1027.996	-4.54
1028.42	-3.94
1028.843	-2.04
1029.267	-3.54
1029.691	-3.04
1030.115	-4.74
1030.539	-8.54
1030.962	-9.14
1031.386	-10.14
1031.81	0.76
1032.233	2.26
1032.657	-3.94
1033.08	5.26
1033.504	-3.94
1033.927	-5.34
1034.351	-2.64
1034.774	-8.94
1035.198	-1.14
1035.621	-5.84
1036.045	-4.74
1036.468	0.86
1036.891	-13.84
1037.315	-10.24
1037.738	-11.44
1038.161	1.66
1038.584	-7.74
1039.008	-4.04
1039.431	-6.34
1039.854	1.56
1040.277	-5.44
1040.7	-10.04
1041.123	0.16
1041.546	-9.64
1041.969	-2.84
1042.392	-11.14
1042.815	-5.34
1043.238	-5.14
1043.661	-0.44
1044.084	-5.34
1044.507	-4.94
1044.93	-7.04
1045.352	-5.74
1045.775	0.86
1046.198	-1.94
1046.621	2.16
1047.043	-0.54
1047.466	5.96
1047.889	-2.84
1048.311	-5.24
1048.734	-0.74
1049.156	-4.54
1049.579	2.46
1050.001	-5.04
1050.424	2.96
1050.846	-3.84
1051.269	-1.14
1051.691	-3.64
1052.113	-1.04
1052.536	-1.24
1052.958	-3.84
1053.38	-3.54
1053.802	-11.14
1054.225	7.06
1054.647	-7.54
1055.069	-0.14
1055.491	5.96
1055.913	-6.34
1056.335	4.96
1056.757	-3.94
1057.179	-6.74
1057.601	-4.74
1058.023	-4.14
1058.445	-5.74
1058.867	-0.04
1059.289	-4.54
1059.711	-10.44
1060.133	2.66
1060.555	-0.84
1060.976	-6.44
1061.398	-5.54
1061.82	-2.94
1062.241	-6.14
1062.663	-5.94
1063.085	-8.04
1063.506	-2.14
1063.928	-4.84
1064.35	4.16
1064.771	-9.24
1065.193	-7.84
1065.614	-6.24
1066.035	-7.04
1066.457	-4.54
1066.878	-0.04
1067.3	-1.04
1067.721	-2.74
1068.142	-8.04
1068.564	-3.34
1068.985	-1.54
1069.406	-1.54
1069.827	-5.24
1070.248	2.56
1070.67	-6.64
1071.091	-0.74
1071.512	-3.64
1071.933	-7.84
1072.354	-6.04
1072.775	-11.24
1073.196	-8.44
1073.617	0.86
1074.038	-4.64
1074.459	-2.14
1074.88	-7.54
1075.3	-0.74
1075.721	-9.24
1076.142	-2.24
1076.563	-1.54
1076.983	-6.94
1077.404	-6.84
1077.825	-10.14
1078.246	-5.24
1078.666	-11.24
1079.087	-6.74
1079.507	-0.94
1079.928	0.46
1080.348	3.76
1080.769	-8.44
1081.189	-4.44
1081.61	0.76
1082.03	-4.74
1082.451	-2.34
1082.871	-5.84
1083.291	-11.04
1083.711	-13.14
1084.132	-6.44
1084.552	-2.14
1084.972	-3.04
1085.392	-8.04
1085.813	-11.04
1086.233	-6.04
1086.653	-5.74
1087.073	-3.24
1087.493	-11.34
1087.913	-11.14
1088.333	-10.24
1088.753	-4.54
1089.173	5.36
1089.593	-4.24
1090.013	5.96
1090.433	1.76
1090.852	-4.74
1091.272	-2.74
1091.692	1.46
1092.112	-0.34
1092.531	-3.24
1092.951	-7.04
1093.371	-7.74
1093.79	5.06
1094.21	-5.54
1094.63	-2.34
1095.049	-6.24
1095.469	-4.44
1095.888	-1.74
1096.308	-0.34
1096.727	11.56
1097.146	-5.64
1097.566	-1.24
1097.985	-7.84
1098.405	-0.24
1098.824	-5.84
1099.243	-6.44
1099.662	-7.54
1100.082	-0.94
1100.501	-0.14
1100.92	-9.84
1101.339	-2.74
1101.758	-11.04
