Data from 20171114-ORNL-Ar_H_NY_Subt18_08-06-15-274.txt Node
Date: Tue Nov 14 08:06:15 EST 2017
User: Ender
Spectrometer: HR+D1039
Trigger mode: 0
Integration Time (sec): 2.730000E-2
Scans to average: 10
Electric dark correction enabled: true
Nonlinearity correction enabled: false
Boxcar width: 0
XAxis mode: Wavelengths
Number of Pixels in Spectrum: 2048
>>>>>Begin Spectral Data<<<<<
187.836	-1.73
188.309	-1.73
188.782	-1.73
189.255	-0.53
189.728	-4.93
190.201	6.57
190.674	2.77
191.147	5.77
191.619	-11.93
192.092	-0.93
192.565	3.37
193.038	-1.33
193.511	1.57
193.984	-0.63
194.456	-1.33
194.929	1.97
195.402	-2.33
195.874	3.57
196.347	2.37
196.82	-3.93
197.292	4.47
197.765	-1.53
198.237	-4.63
198.71	2.37
199.182	0.17
199.655	6.37
200.127	-3.73
200.6	3.27
201.072	-3.93
201.544	-5.13
202.017	2.47
202.489	5.47
202.961	-0.43
203.433	-3.83
203.906	-5.83
204.378	-4.93
204.85	-3.63
205.322	-13.33
205.794	0.97
206.266	-5.63
206.739	-8.43
207.211	-0.83
207.683	-6.93
208.155	-4.53
208.627	-0.73
209.099	-3.23
209.57	-6.73
210.042	-9.33
210.514	-3.83
210.986	-6.23
211.458	-5.93
211.93	-0.43
212.402	0.37
212.873	-3.83
213.345	-7.03
213.817	-14.83
214.288	-3.03
214.76	-9.73
215.232	-3.63
215.703	-3.93
216.175	-7.43
216.646	-5.73
217.118	-4.23
217.589	-8.83
218.061	-5.43
218.532	-9.83
219.004	-5.03
219.475	-4.43
219.946	-1.73
220.418	-5.83
220.889	0.57
221.36	2.37
221.832	-10.83
222.303	-5.53
222.774	4.07
223.245	-6.23
223.717	-7.93
224.188	-4.83
224.659	1.77
225.13	-5.23
225.601	-1.03
226.072	2.77
226.543	-2.93
227.014	-1.03
227.485	-2.23
227.956	-8.33
228.427	0.47
228.898	0.67
229.369	4.07
229.839	-6.03
230.31	-0.43
230.781	4.27
231.252	-1.73
231.722	0.57
232.193	-1.73
232.664	3.47
233.135	3.27
233.605	-2.63
234.076	-9.03
234.546	1.47
235.017	-1.93
235.487	-0.03
235.958	-4.93
236.428	-1.63
236.899	-3.53
237.369	-0.73
237.84	-4.03
238.31	5.97
238.78	0.57
239.251	3.87
239.721	4.47
240.191	1.67
240.662	-2.73
241.132	-4.93
241.602	0.67
242.072	3.17
242.542	5.77
243.013	-1.03
243.483	4.17
243.953	0.27
244.423	0.17
244.893	-0.43
245.363	2.57
245.833	2.47
246.303	6.37
246.773	6.37
247.243	4.67
247.712	-1.63
248.182	9.57
248.652	1.37
249.122	-2.93
249.592	13.47
250.061	20.17
250.531	31.87
251.001	21.37
251.471	22.27
251.94	25.27
252.41	3.97
252.879	0.67
253.349	10.77
253.818	12.57
254.288	7.27
254.757	2.47
255.227	3.87
255.696	5.27
256.166	3.67
256.635	14.37
257.105	13.07
257.574	7.37
258.043	10.47
258.513	14.57
258.982	15.97
259.451	9.17
259.92	10.57
260.389	10.37
260.859	15.87
261.328	8.27
261.797	17.27
262.266	9.77
262.735	11.37
263.204	5.67
263.673	1.87
264.142	6.97
264.611	-2.93
265.08	-0.33
265.549	0.67
266.018	7.27
266.487	-2.13
266.955	1.97
267.424	0.47
267.893	16.57
268.362	6.27
268.83	9.17
269.299	11.77
269.768	6.17
270.236	9.37
270.705	7.57
271.174	7.17
271.642	4.37
272.111	12.97
272.579	15.27
273.048	25.67
273.516	23.47
273.985	27.07
274.453	29.27
274.922	17.77
275.39	13.27
275.858	6.37
276.327	15.37
276.795	15.57
277.263	12.57
277.731	31.17
278.2	60.17
278.668	53.97
279.136	47.57
279.604	24.67
280.072	17.17
280.54	14.87
281.008	12.27
281.477	12.17
281.945	11.27
282.413	15.67
282.881	23.77
283.348	9.97
283.816	17.57
284.284	14.27
284.752	27.97
285.22	14.47
285.688	18.67
286.156	20.47
286.623	46.77
287.091	58.27
287.559	31.47
288.026	14.97
288.494	13.97
288.962	9.17
289.429	12.47
289.897	19.27
290.364	14.87
290.832	15.27
291.3	13.97
291.767	25.57
292.234	22.87
292.702	13.27
293.169	24.87
293.637	28.27
294.104	20.37
294.571	12.97
295.039	11.87
295.506	12.97
295.973	16.87
296.44	14.47
296.908	14.27
297.375	19.37
297.842	19.07
298.309	17.67
298.776	13.97
299.243	25.17
299.71	9.97
300.177	24.67
300.644	25.27
301.111	21.17
301.578	25.07
302.045	18.17
302.512	25.57
302.979	22.37
303.446	21.17
303.913	19.97
304.379	18.47
304.846	33.67
305.313	25.37
305.78	17.27
306.246	23.87
306.713	29.17
307.18	30.27
307.646	29.17
308.113	26.27
308.579	26.37
309.046	26.27
309.512	24.07
309.979	18.27
310.445	22.07
310.912	29.07
311.378	37.97
311.845	33.27
312.311	31.37
312.777	37.07
313.244	27.17
313.71	44.17
314.176	33.97
314.642	30.67
315.109	33.37
315.575	38.27
316.041	38.17
316.507	38.57
316.973	40.87
317.439	37.27
317.905	32.77
318.371	34.67
318.837	35.57
319.303	37.47
319.769	33.47
320.235	37.57
320.701	32.57
321.167	37.07
321.633	36.37
322.099	43.67
322.564	42.07
323.03	38.67
323.496	38.37
323.962	36.17
324.427	29.77
324.893	44.57
325.359	37.67
325.824	36.57
326.29	39.87
326.755	46.67
327.221	38.27
327.686	46.37
328.152	46.37
328.617	42.47
329.083	47.37
329.548	48.97
330.014	49.57
330.479	47.27
330.944	45.97
331.41	42.67
331.875	46.77
332.34	39.17
332.805	46.27
333.271	47.77
333.736	49.87
334.201	50.57
334.666	52.97
335.131	54.87
335.596	46.67
336.061	51.27
336.526	35.47
336.991	46.07
337.456	55.57
337.921	52.37
338.386	44.17
338.851	44.57
339.316	49.97
339.781	44.17
340.246	56.47
340.711	49.87
341.175	46.67
341.64	46.57
342.105	56.67
342.569	56.27
343.034	63.77
343.499	59.77
343.963	52.97
344.428	66.87
344.893	65.97
345.357	65.97
345.822	63.97
346.286	63.17
346.751	71.47
347.215	68.17
347.679	76.47
348.144	100.77
348.608	84.27
349.073	69.27
349.537	79.47
350.001	82.67
350.465	89.67
350.93	84.47
351.394	84.17
351.858	71.57
352.322	89.67
352.786	86.17
353.25	104.17
353.715	108.77
354.179	100.77
354.643	128.07
355.107	132.77
355.571	107.67
356.035	105.87
356.498	120.37
356.962	124.47
357.426	137.97
357.89	122.37
358.354	93.67
358.818	82.77
359.281	81.27
359.745	78.77
360.209	76.97
360.673	80.77
361.136	81.87
361.6	88.47
362.064	83.97
362.527	88.87
362.991	91.77
363.454	83.87
363.918	76.67
364.381	72.67
364.845	83.17
365.308	87.37
365.772	87.17
366.235	88.37
366.698	85.77
367.162	84.27
367.625	89.17
368.088	93.47
368.552	89.97
369.015	92.57
369.478	103.87
369.941	104.47
370.404	102.77
370.867	103.37
371.331	108.07
371.794	119.97
372.257	118.37
372.72	112.67
373.183	113.07
373.646	103.87
374.109	103.47
374.572	109.57
375.035	108.17
375.497	114.37
375.96	109.67
376.423	106.17
376.886	115.97
377.349	112.87
377.811	108.57
378.274	110.47
378.737	106.07
379.199	118.17
379.662	118.57
380.125	115.47
380.587	129.17
381.05	126.67
381.512	125.97
381.975	138.37
382.437	130.27
382.9	129.87
383.362	134.87
383.825	143.27
384.287	152.87
384.75	146.07
385.212	140.57
385.674	147.77
386.136	136.57
386.599	130.37
387.061	128.17
387.523	130.17
387.985	139.77
388.447	144.97
388.91	149.47
389.372	164.37
389.834	155.67
390.296	143.77
390.758	158.17
391.22	174.97
391.682	215.67
392.144	306.17
392.606	231.87
393.068	175.47
393.529	166.57
393.991	162.07
394.453	150.87
394.915	155.77
395.377	203.57
395.838	214.47
396.3	164.47
396.762	140.17
397.224	141.47
397.685	132.97
398.147	133.07
398.608	134.97
399.07	126.17
399.531	134.27
399.993	146.97
400.454	159.57
400.916	146.97
401.377	145.87
401.839	154.07
402.3	158.27
402.762	172.47
403.223	191.37
403.684	172.37
404.145	168.27
404.607	163.67
405.068	164.47
405.529	170.97
405.99	190.27
406.451	180.27
406.913	178.97
407.374	170.57
407.835	174.57
408.296	171.47
408.757	174.97
409.218	195.07
409.679	189.37
410.14	179.97
410.601	179.67
411.062	191.77
411.522	197.37
411.983	190.87
412.444	180.97
412.905	185.87
413.366	182.67
413.826	196.87
414.287	220.57
414.748	262.87
415.208	245.27
415.669	215.07
416.13	210.17
416.59	199.37
417.051	218.27
417.511	224.67
417.972	240.07
418.432	250.07
418.893	291.57
419.353	254.57
419.814	204.67
420.274	186.17
420.734	183.17
421.195	202.47
421.655	200.47
422.115	199.87
422.576	195.57
423.036	203.37
423.496	209.27
423.956	219.57
424.416	238.57
424.876	268.37
425.336	266.97
425.797	263.47
426.257	262.57
426.717	254.67
427.177	241.27
427.637	228.67
428.097	235.77
428.556	260.27
429.016	279.77
429.476	272.97
429.936	288.97
430.396	282.17
430.856	297.57
431.315	324.27
431.775	360.37
432.235	383.57
432.694	362.97
433.154	379.87
433.614	408.47
434.073	350.77
434.533	297.57
434.993	274.27
435.452	291.47
435.912	302.67
436.371	294.67
436.83	290.37
437.29	273.57
437.749	250.77
438.209	255.57
438.668	282.37
439.127	291.77
439.587	273.27
440.046	252.37
440.505	271.77
440.964	285.37
441.424	334.77
441.883	312.57
442.342	266.47
442.801	227.97
443.26	225.57
443.719	228.47
444.178	223.47
444.637	216.47
445.096	221.67
445.555	226.67
446.014	225.47
446.473	232.37
446.932	234.77
447.391	236.97
447.849	233.97
448.308	228.27
448.767	224.37
449.226	244.47
449.685	238.67
450.143	254.47
450.602	242.67
451.061	224.77
451.519	234.57
451.978	236.87
452.436	246.57
452.895	247.57
453.353	251.27
453.812	245.97
454.27	249.17
454.729	234.17
455.187	249.37
455.646	241.57
456.104	257.47
456.562	260.27
457.021	274.67
457.479	263.97
457.937	281.77
458.395	267.97
458.854	250.47
459.312	263.97
459.77	281.07
460.228	258.17
460.686	242.77
461.144	255.17
461.602	246.77
462.06	249.27
462.518	257.07
462.976	258.07
463.434	263.37
463.892	265.07
464.35	281.97
464.808	296.17
465.266	274.47
465.724	280.87
466.181	275.77
466.639	277.37
467.097	294.27
467.555	307.57
468.012	308.87
468.47	310.47
468.928	333.27
469.385	351.17
469.843	355.27
470.3	353.87
470.758	367.87
471.215	388.97
471.673	420.07
472.13	415.37
472.588	422.27
473.045	377.87
473.503	384.37
473.96	395.47
474.417	415.17
474.875	439.47
475.332	487.37
475.789	476.27
476.246	484.07
476.704	498.87
477.161	518.67
477.618	535.17
478.075	573.47
478.532	635.47
478.989	708.37
479.446	833.47
479.903	790.87
480.36	830.97
480.817	895.17
481.274	1002.37
481.731	1100.97
482.188	1203.17
482.645	1336.38
483.102	1451.38
483.558	1594.57
484.015	1637.77
484.472	1630.27
484.929	1572.77
485.385	1506.77
485.842	1475.47
486.299	1420.47
486.755	1348.77
487.212	1131.97
487.668	953.67
488.125	872.87
488.582	797.67
489.038	765.47
489.494	719.27
489.951	699.87
490.407	669.97
490.864	663.47
491.32	657.97
491.776	656.77
492.233	665.77
492.689	616.67
493.145	621.67
493.602	619.37
494.058	631.87
494.514	626.77
494.97	649.67
495.426	670.57
495.882	644.17
496.338	624.77
496.794	639.97
497.251	635.47
497.707	660.07
498.163	642.67
498.618	654.47
499.074	663.17
499.53	690.07
499.986	704.47
500.442	666.37
500.898	650.37
501.354	636.37
501.809	651.97
502.265	664.17
502.721	672.47
503.177	685.17
503.632	676.57
504.088	697.57
504.543	721.87
504.999	729.67
505.455	678.07
505.91	640.37
506.366	647.27
506.821	642.87
507.277	636.97
507.732	631.17
508.187	643.57
508.643	635.27
509.098	647.77
509.553	657.27
510.009	675.77
510.464	687.17
510.919	700.77
511.375	700.67
511.83	723.17
512.285	733.07
512.74	780.37
513.195	810.57
513.65	790.37
514.105	777.97
514.56	803.37
515.015	812.47
515.47	818.97
515.925	810.47
516.38	800.07
516.835	799.17
517.29	805.37
517.745	793.57
518.2	775.37
518.655	772.27
519.109	752.27
519.564	756.57
520.019	749.37
520.474	728.27
520.928	735.27
521.383	727.67
521.838	719.27
522.292	732.87
522.747	720.67
523.201	711.27
523.656	708.17
524.11	703.77
524.565	706.87
525.019	711.07
525.474	712.17
525.928	713.97
526.382	717.57
526.837	708.47
527.291	715.97
527.745	710.37
528.2	708.97
528.654	702.67
529.108	703.67
529.562	710.97
530.016	709.57
530.47	712.97
530.925	709.67
531.379	714.37
531.833	724.97
532.287	714.97
532.741	713.57
533.195	717.67
533.649	728.97
534.103	734.67
534.556	723.37
535.01	719.17
535.464	720.07
535.918	735.47
536.372	721.97
536.826	725.07
537.279	715.57
537.733	722.67
538.187	726.57
538.64	732.17
539.094	735.27
539.548	744.27
540.001	739.97
540.455	740.87
540.908	742.07
541.362	750.67
541.815	761.37
542.269	779.87
542.722	769.97
543.175	788.97
543.629	793.27
544.082	795.17
544.536	801.47
544.989	807.77
545.442	803.67
545.895	808.27
546.349	797.27
546.802	801.77
547.255	808.17
547.708	812.07
548.161	839.27
548.614	833.57
549.067	834.67
549.52	834.17
549.973	821.57
550.426	826.37
550.879	804.47
551.332	802.87
551.785	821.77
552.238	815.37
552.691	830.97
553.144	850.07
553.596	857.47
554.049	886.37
554.502	913.47
554.955	928.97
555.407	919.67
555.86	929.47
556.313	912.27
556.765	888.37
557.218	899.87
557.67	898.77
558.123	895.37
558.576	889.07
559.028	893.07
559.48	895.17
559.933	894.07
560.385	866.47
560.838	826.37
561.29	795.87
561.742	796.97
562.195	774.57
562.647	779.87
563.099	786.67
563.551	782.47
564.004	798.77
564.456	782.37
564.908	775.57
565.36	758.37
565.812	738.57
566.264	729.57
566.716	742.57
567.168	726.67
567.62	732.17
568.072	723.57
568.524	707.27
568.976	694.97
569.428	678.67
569.88	676.97
570.332	685.97
570.784	692.47
571.235	689.37
571.687	701.77
572.139	710.07
572.59	719.77
573.042	716.17
573.494	716.97
573.945	714.47
574.397	702.17
574.849	695.77
575.3	699.97
575.752	694.47
576.203	681.07
576.655	700.47
577.106	687.77
577.557	683.37
578.009	677.37
578.46	663.37
578.912	669.07
579.363	679.37
579.814	673.07
580.265	666.97
580.717	667.97
581.168	672.17
581.619	689.27
582.07	690.97
582.521	693.07
582.972	682.57
583.423	684.27
583.875	694.07
584.326	709.67
584.777	756.47
585.227	829.67
585.678	930.87
586.129	1027.47
586.58	1093.67
587.031	1183.87
587.482	1339.67
587.933	1523.77
588.384	1328.47
588.834	994.07
589.285	806.87
589.736	795.17
590.186	781.77
590.637	775.47
591.088	749.57
591.538	754.47
591.989	738.07
592.439	739.17
592.89	727.17
593.34	716.17
593.791	718.97
594.241	708.07
594.692	718.27
595.142	707.77
595.593	704.67
596.043	718.17
596.493	726.87
596.943	720.87
597.394	730.27
597.844	716.27
598.294	741.27
598.744	762.87
599.195	780.87
599.645	823.37
600.095	863.17
600.545	926.97
600.995	970.38
601.445	1031.37
601.895	1098.67
602.345	1141.87
602.795	1130.38
603.245	1086.17
603.695	1021.07
604.145	975.87
604.594	922.47
605.044	862.67
605.494	797.87
605.944	759.57
606.393	756.47
606.843	737.57
607.293	726.67
607.743	738.17
608.192	767.67
608.642	756.67
609.091	773.97
609.541	776.47
609.99	767.47
610.44	775.97
610.889	731.47
611.339	708.27
611.788	688.57
612.238	707.27
612.687	728.87
613.136	725.87
613.586	740.67
614.035	747.37
614.484	773.17
614.933	768.77
615.383	755.67
615.832	755.67
616.281	736.87
616.73	695.37
617.179	668.07
617.628	656.17
618.077	635.77
618.526	622.47
618.975	623.57
619.424	618.57
619.873	611.57
620.322	625.57
620.771	617.17
621.22	613.67
621.669	604.67
622.118	592.47
622.567	581.17
623.015	566.37
623.464	572.87
623.913	567.97
624.361	555.17
624.81	560.07
625.259	561.37
625.707	561.77
626.156	553.87
626.604	575.07
627.053	567.17
627.501	568.27
627.95	579.07
628.398	579.97
628.847	583.97
629.295	580.87
629.744	594.97
630.192	570.67
630.64	571.17
631.089	564.97
631.537	577.77
631.985	592.67
632.433	607.07
632.881	610.57
633.33	666.67
633.778	646.77
634.226	567.37
634.674	577.17
635.122	575.97
635.57	598.17
636.018	633.27
636.466	589.87
636.914	560.67
637.362	573.17
637.81	574.17
638.258	585.97
638.705	579.67
639.153	617.57
639.601	612.87
640.049	645.87
640.497	676.47
640.944	695.37
641.392	646.27
641.84	616.07
642.287	587.27
642.735	574.97
643.182	585.97
643.63	584.67
644.078	574.07
644.525	607.57
644.973	604.97
645.42	605.57
645.867	630.77
646.315	638.67
646.762	670.77
647.21	698.67
647.657	719.67
648.104	763.87
648.551	783.57
648.999	851.97
649.446	925.77
649.893	1009.88
650.34	1167.07
650.787	1413.97
651.234	1756.27
651.682	2286.87
652.129	3135.27
652.576	4515.88
653.023	6650.17
653.47	9192.77
653.917	11487.48
654.363	13265.78
654.81	14621.98
655.257	13929.08
655.704	9152.48
656.151	5391.27
656.598	3491.47
657.044	2464.17
657.491	1879.77
657.938	1514.37
658.385	1260.27
658.831	1086.58
659.278	971.87
659.724	865.17
660.171	794.27
660.618	722.77
661.064	697.17
661.511	681.97
661.957	665.77
662.404	648.57
662.85	654.37
663.296	627.17
663.743	561.87
664.189	540.47
664.635	532.47
665.082	519.77
665.528	528.97
665.974	522.17
666.42	508.97
666.867	504.37
667.313	495.27
667.759	481.17
668.205	478.87
668.651	476.87
669.097	486.47
669.543	510.37
669.989	468.47
670.435	451.87
670.881	441.97
671.327	447.17
671.773	467.97
672.219	484.87
672.665	543.07
673.11	579.77
673.556	621.67
674.002	662.47
674.448	659.67
674.893	549.57
675.339	474.27
675.785	433.87
676.23	421.87
676.676	391.37
677.122	379.17
677.567	372.27
678.013	367.57
678.458	361.97
678.904	359.67
679.349	348.57
679.794	354.47
680.24	349.97
680.685	353.67
681.131	335.17
681.576	348.57
682.021	352.77
682.466	337.67
682.912	348.37
683.357	346.47
683.802	382.97
684.247	409.67
684.692	452.47
685.137	495.07
685.583	541.97
686.028	561.27
686.473	505.77
686.918	435.57
687.363	419.47
687.807	395.47
688.252	359.97
688.697	347.87
689.142	337.77
689.587	338.57
690.032	330.27
690.477	339.47
690.921	348.17
691.366	380.57
691.811	399.77
692.255	425.97
692.7	466.77
693.145	498.07
693.589	699.77
694.034	1112.07
694.478	1533.17
694.923	1715.17
695.367	2263.97
695.812	1171.67
696.256	493.17
696.701	371.87
697.145	341.87
697.59	325.57
698.034	321.37
698.478	331.77
698.922	327.57
699.367	326.77
699.811	336.87
700.255	353.27
700.699	388.17
701.143	425.87
701.588	477.87
702.032	506.27
702.476	505.87
702.92	489.37
703.364	486.57
703.808	626.47
704.252	1015.47
704.696	1437.07
705.14	1661.27
705.584	2112.88
706.027	1045.67
706.471	518.07
706.915	400.07
707.359	352.27
707.803	320.87
708.246	303.57
708.69	315.07
709.134	308.97
709.577	303.27
710.021	315.87
710.465	307.67
710.908	297.97
711.352	292.57
711.795	308.67
712.239	353.07
712.682	383.07
713.126	407.07
713.569	464.37
714.012	358.67
714.456	322.87
714.899	299.27
715.342	269.17
715.786	263.67
716.229	255.67
716.672	250.77
717.115	250.77
717.558	256.27
718.002	253.47
718.445	263.57
718.888	287.77
719.331	289.37
719.774	305.87
720.217	299.47
720.66	285.87
721.103	265.47
721.546	256.77
721.989	250.27
722.432	229.77
722.874	236.77
723.317	225.87
723.76	232.27
724.203	255.87
724.645	331.57
725.088	441.67
725.531	567.67
725.974	646.57
726.416	547.17
726.859	305.37
727.301	247.67
727.744	237.87
728.187	231.27
728.629	236.07
729.071	247.37
729.514	253.37
729.956	273.97
730.399	275.17
730.841	282.67
731.283	270.97
731.726	265.37
732.168	257.87
732.61	266.97
733.053	276.87
733.495	304.77
733.937	347.57
734.379	395.87
734.821	435.27
735.263	536.27
735.705	811.77
736.148	1545.67
736.59	2531.17
737.032	3005.88
737.474	2458.77
737.916	792.87
738.357	425.37
738.799	324.77
739.241	294.77
739.683	284.97
740.125	293.47
740.567	299.97
741.008	313.07
741.45	312.67
741.892	315.37
742.334	346.47
742.775	353.27
743.217	335.97
743.658	272.37
744.1	255.27
744.542	259.97
744.983	306.67
745.425	337.97
745.866	336.87
746.307	284.97
746.749	278.57
747.19	322.17
747.632	443.07
748.073	870.57
748.514	1822.07
748.956	2806.37
749.397	3532.17
749.838	2920.38
750.279	2931.37
750.72	1473.17
751.162	537.67
751.603	317.27
752.044	245.87
752.485	212.67
752.926	210.37
753.367	202.17
753.808	186.17
754.249	190.47
754.69	179.27
755.131	184.07
755.572	183.07
756.013	174.67
756.453	183.47
756.894	188.07
757.335	191.67
757.776	193.97
758.216	191.97
758.657	189.07
759.098	196.07
759.538	222.77
759.979	263.87
760.42	370.27
760.86	687.07
761.301	1771.57
761.741	4325.57
762.182	6339.48
762.622	4465.57
763.063	1278.97
763.503	533.67
763.943	345.97
764.384	339.87
764.824	403.27
765.264	445.07
765.705	302.67
766.145	215.97
766.585	186.17
767.025	177.87
767.465	183.27
767.906	240.97
768.346	318.97
768.786	343.67
769.226	260.77
769.666	316.47
770.106	608.67
770.546	1530.67
770.986	2619.47
771.426	2348.07
771.866	783.07
772.306	327.67
772.745	209.27
773.185	170.37
773.625	174.37
774.065	163.87
774.505	191.17
774.944	311.97
775.384	689.97
775.824	1260.97
776.263	1242.57
776.703	520.87
777.142	228.87
777.582	153.37
778.021	139.67
778.461	141.07
778.9	137.07
779.34	139.37
779.779	121.57
780.219	113.97
780.658	104.57
781.097	112.47
781.537	115.47
781.976	113.07
782.415	104.67
782.855	109.17
783.294	104.37
783.733	103.47
784.172	101.97
784.611	109.87
785.05	111.17
785.489	110.07
785.928	123.07
786.367	121.17
786.806	122.67
787.245	128.07
787.684	138.17
788.123	149.97
788.562	135.27
789.001	126.47
789.44	115.47
789.879	124.77
790.317	108.57
790.756	122.57
791.195	119.27
791.634	147.07
792.072	198.17
792.511	357.27
792.95	983.38
793.388	2123.97
793.827	1911.37
794.265	665.67
794.704	283.57
795.142	177.27
795.581	152.47
796.019	138.77
796.458	124.27
796.896	124.57
797.334	126.27
797.773	152.37
798.211	215.37
798.649	432.57
799.087	993.37
799.526	1560.88
799.964	1972.27
800.402	1990.47
800.84	741.07
801.278	302.37
801.716	185.97
802.154	150.07
802.592	145.37
803.03	141.87
803.468	134.47
803.906	142.27
804.344	152.07
804.782	140.07
805.22	127.57
805.658	130.07
806.096	142.07
806.533	151.37
806.971	169.27
807.409	204.17
807.847	311.07
808.284	642.07
808.722	1815.77
809.16	3252.07
809.597	3055.18
810.035	5312.57
810.472	5702.07
810.91	2054.38
811.347	785.27
811.785	403.37
812.222	253.47
812.66	194.97
813.097	160.87
813.535	142.17
813.972	127.97
814.409	119.47
814.846	103.57
815.284	115.77
815.721	97.87
816.158	106.57
816.595	116.17
817.032	178.37
817.47	204.87
817.907	171.97
818.344	153.57
818.781	122.37
819.218	106.57
819.655	120.37
820.092	181.07
820.529	203.17
820.966	169.17
821.403	132.47
821.839	107.77
822.276	99.97
822.713	119.67
823.15	137.37
823.587	117.67
824.023	145.37
824.46	301.07
824.897	875.97
825.333	1336.07
825.77	567.57
826.206	223.77
826.643	131.97
827.08	101.27
827.516	82.47
827.953	77.37
828.389	74.37
828.825	71.67
829.262	61.97
829.698	65.57
830.135	62.17
830.571	61.57
831.007	65.57
831.443	63.47
831.88	56.37
832.316	64.77
832.752	60.27
833.188	67.07
833.624	65.67
834.06	68.67
834.497	68.27
834.933	74.27
835.369	72.67
835.805	69.37
836.241	81.97
836.677	80.67
837.112	90.97
837.548	99.97
837.984	134.67
838.42	194.87
838.856	491.07
839.292	1475.87
839.727	2269.88
840.163	1052.88
840.599	890.97
841.034	1994.37
841.47	2094.27
841.906	761.37
842.341	330.87
842.777	234.37
843.212	324.47
843.648	317.27
844.083	154.87
844.519	98.97
844.954	70.67
845.39	60.17
845.825	55.07
846.261	52.77
846.696	50.77
847.131	45.17
847.566	57.57
848.002	53.57
848.437	55.97
848.872	55.07
849.307	59.07
849.742	80.67
850.177	173.07
850.613	542.67
851.048	873.37
851.483	375.57
851.918	148.27
852.353	83.77
852.788	60.77
853.223	52.47
853.657	62.27
854.092	46.67
854.527	39.67
854.962	45.67
855.397	54.27
855.832	51.77
856.266	43.67
856.701	38.37
857.136	37.97
857.57	41.97
858.005	49.47
858.44	61.97
858.874	49.27
859.309	52.47
859.743	42.57
860.178	55.67
860.612	44.87
861.047	49.07
861.481	66.77
861.915	70.47
862.35	52.57
862.784	36.17
863.218	41.47
863.653	29.37
864.087	44.27
864.521	57.27
864.955	68.77
865.39	157.37
865.824	174.67
866.258	114.87
866.692	161.27
867.126	170.47
867.56	102.57
867.994	52.47
868.428	39.97
868.862	43.57
869.296	48.87
869.73	56.47
870.164	53.07
870.598	48.17
871.031	42.77
871.465	30.87
871.899	36.07
872.333	19.47
872.766	23.57
873.2	27.27
873.634	31.97
874.067	24.77
874.501	25.97
874.935	32.07
875.368	25.47
875.802	31.27
876.235	24.87
876.669	26.17
877.102	23.87
877.535	21.77
877.969	24.77
878.402	22.67
878.836	21.47
879.269	20.67
879.702	28.47
880.135	17.97
880.569	26.27
881.002	26.27
881.435	24.17
881.868	17.17
882.301	16.87
882.734	14.77
883.167	19.27
883.601	16.07
884.034	23.37
884.467	17.47
884.899	14.57
885.332	20.17
885.765	16.07
886.198	15.77
886.631	14.07
887.064	17.77
887.497	16.77
887.929	28.47
888.362	19.87
888.795	9.47
889.228	17.77
889.66	17.87
890.093	15.47
890.526	19.17
890.958	16.87
891.391	23.97
891.823	24.17
892.256	14.37
892.688	16.17
893.121	15.47
893.553	12.57
893.985	25.17
894.418	17.67
894.85	6.67
895.282	20.17
895.715	16.07
896.147	12.17
896.579	13.77
897.011	8.27
897.444	14.97
897.876	11.77
898.308	20.37
898.74	9.47
899.172	17.27
899.604	23.47
900.036	20.77
900.468	13.07
900.9	19.37
901.332	20.97
901.764	10.97
902.196	23.17
902.628	16.07
903.06	14.27
903.491	19.07
903.923	22.37
904.355	21.57
904.787	25.97
905.218	26.17
905.65	21.97
906.082	14.87
906.513	11.67
906.945	15.97
907.376	16.27
907.808	21.97
908.239	19.07
908.671	24.27
909.102	18.97
909.534	23.47
909.965	44.07
910.397	90.57
910.828	312.17
911.259	465.57
911.691	211.97
912.122	99.07
912.553	54.37
912.984	31.87
913.415	20.97
913.847	28.37
914.278	18.07
914.709	20.37
915.14	19.37
915.571	21.17
916.002	8.97
916.433	11.17
916.864	10.67
917.295	10.27
917.726	26.07
918.157	18.67
918.587	30.87
919.018	22.87
919.449	19.87
919.88	21.87
920.311	32.27
920.741	49.27
921.172	163.47
921.603	149.17
922.033	69.07
922.464	43.17
922.895	27.37
923.325	27.67
923.756	16.07
924.186	16.97
924.617	23.47
925.047	44.37
925.478	56.87
925.908	42.67
926.338	28.37
926.769	15.87
927.199	18.27
927.629	9.67
928.06	11.67
928.49	13.27
928.92	12.77
929.35	8.67
929.78	15.77
930.21	11.47
930.641	8.37
931.071	14.57
931.501	1.77
931.931	8.07
932.361	4.87
932.791	-1.83
933.221	5.37
933.651	5.07
934.08	23.17
934.51	26.67
934.94	11.17
935.37	11.37
935.8	8.37
936.229	7.97
936.659	11.37
937.089	5.07
937.519	7.17
937.948	20.87
938.378	12.47
938.807	5.07
939.237	3.37
939.666	8.77
940.096	-1.63
940.525	1.47
940.955	0.67
941.384	2.57
941.814	-2.73
942.243	-3.63
942.672	1.77
943.102	1.47
943.531	0.07
943.96	4.07
944.39	5.27
944.819	-0.43
945.248	0.07
945.677	2.17
946.106	6.47
946.535	2.37
946.964	3.77
947.393	4.07
947.822	1.77
948.251	-10.13
948.68	3.47
949.109	3.87
949.538	8.77
949.967	6.77
950.396	3.27
950.825	-4.63
951.254	1.07
951.682	-4.93
952.111	5.17
952.54	4.97
952.969	-0.93
953.397	-8.73
953.826	0.07
954.254	-4.33
954.683	-3.43
955.112	-6.33
955.54	-6.13
955.969	2.77
956.397	-0.53
956.826	-2.23
957.254	4.87
957.682	-1.33
958.111	2.27
958.539	-2.03
958.967	4.87
959.396	-4.93
959.824	7.97
960.252	6.07
960.68	-6.73
961.109	-6.13
961.537	-8.73
961.965	-2.53
962.393	-0.23
962.821	-6.33
963.249	-3.43
963.677	3.67
964.105	1.37
964.533	43.47
964.961	38.57
965.389	25.47
965.817	8.07
966.245	0.07
966.672	1.17
967.1	-4.43
967.528	1.87
967.956	-6.03
968.383	6.07
968.811	-4.53
969.239	-5.63
969.666	-3.83
970.094	2.37
970.522	4.27
970.949	-0.23
971.377	-4.03
971.804	1.87
972.232	-1.13
972.659	-6.43
973.087	-2.63
973.514	-2.33
973.941	-7.93
974.369	8.07
974.796	2.67
975.223	-3.33
975.651	-6.73
976.078	0.07
976.505	-1.63
976.932	-1.13
977.359	14.67
977.786	12.87
978.214	-2.83
978.641	-1.63
979.068	-1.63
979.495	-8.73
979.922	2.87
980.349	-3.33
980.776	-0.03
981.202	0.07
981.629	0.07
982.056	4.97
982.483	-0.73
982.91	0.87
983.337	-7.83
983.763	-1.53
984.19	-1.93
984.617	-2.13
985.043	-6.33
985.47	-4.43
985.897	-7.53
986.323	-8.13
986.75	7.27
987.176	-1.73
987.603	4.67
988.029	1.67
988.456	0.17
988.882	6.17
989.308	-6.13
989.735	-0.03
990.161	-4.33
990.587	-5.23
991.014	-2.23
991.44	4.77
991.866	0.97
992.292	-4.03
992.719	-1.23
993.145	5.97
993.571	-6.03
993.997	-3.23
994.423	-10.33
994.849	-7.03
995.275	3.77
995.701	-5.23
996.127	0.87
996.553	-0.33
996.979	-7.23
997.405	-2.63
997.83	-2.03
998.256	-6.03
998.682	-4.63
999.108	-1.53
999.534	-6.33
999.959	2.87
1000.385	-5.33
1000.811	-0.23
1001.236	-12.13
1001.662	-3.83
1002.087	-5.83
1002.513	-0.13
1002.938	4.47
1003.364	1.07
1003.789	1.57
1004.215	2.17
1004.64	0.07
1005.066	0.17
1005.491	-4.63
1005.916	-3.13
1006.342	-3.63
1006.767	-8.53
1007.192	-0.63
1007.617	-5.73
1008.042	-6.93
1008.468	-5.83
1008.893	-1.63
1009.318	-1.53
1009.743	-2.03
1010.168	2.27
1010.593	4.47
1011.018	-11.93
1011.443	-2.53
1011.868	1.47
1012.293	-9.43
1012.718	-6.13
1013.143	1.77
1013.567	-1.53
1013.992	-4.03
1014.417	-12.43
1014.842	-2.63
1015.267	-2.03
1015.691	-6.03
1016.116	0.87
1016.541	1.17
1016.965	5.57
1017.39	-0.53
1017.814	-0.93
1018.239	-1.03
1018.663	-11.73
1019.088	-9.43
1019.512	-4.03
1019.937	0.17
1020.361	-7.43
1020.785	-13.63
1021.21	-2.13
1021.634	-4.03
1022.058	2.67
1022.483	3.47
1022.907	-1.33
1023.331	-7.13
1023.755	2.37
1024.179	-4.93
1024.604	-9.73
1025.028	-7.23
1025.452	-0.63
1025.876	-3.33
1026.3	-9.23
1026.724	-14.03
1027.148	-7.03
1027.572	-7.13
1027.996	-0.63
1028.42	2.27
1028.843	-7.23
1029.267	-2.13
1029.691	-4.93
1030.115	-8.93
1030.539	-9.13
1030.962	-12.93
1031.386	-9.23
1031.81	-0.63
1032.233	-2.43
1032.657	-5.93
1033.08	-4.53
1033.504	-12.83
1033.927	-5.73
1034.351	-1.13
1034.774	-3.43
1035.198	-5.03
1035.621	-10.93
1036.045	-11.23
1036.468	-0.03
1036.891	-7.33
1037.315	-7.23
1037.738	-4.33
1038.161	3.67
1038.584	-4.63
1039.008	-0.53
1039.431	-5.03
1039.854	-4.43
1040.277	-6.43
1040.7	-7.83
1041.123	-3.93
1041.546	-3.23
1041.969	-1.43
1042.392	-3.23
1042.815	3.37
1043.238	-2.43
1043.661	3.07
1044.084	-4.73
1044.507	-8.73
1044.93	-6.53
1045.352	-4.33
1045.775	0.37
1046.198	-5.13
1046.621	-2.13
1047.043	-4.63
1047.466	2.87
1047.889	-6.83
1048.311	-6.33
1048.734	-6.23
1049.156	-1.63
1049.579	-2.93
1050.001	-2.13
1050.424	-0.33
1050.846	-6.23
1051.269	-3.73
1051.691	-10.33
1052.113	-1.43
1052.536	-4.53
1052.958	-3.43
1053.38	-5.13
1053.802	-9.43
1054.225	3.47
1054.647	-14.03
1055.069	-1.63
1055.491	1.17
1055.913	-5.43
1056.335	0.07
1056.757	-1.83
1057.179	-2.73
1057.601	-1.83
1058.023	-0.93
1058.445	-3.93
1058.867	-2.13
1059.289	-5.13
1059.711	-3.73
1060.133	-3.83
1060.555	-8.43
1060.976	-5.33
1061.398	-12.93
1061.82	-9.03
1062.241	-3.83
1062.663	-7.43
1063.085	-6.13
1063.506	2.37
1063.928	-0.13
1064.35	-4.83
1064.771	-14.73
1065.193	-3.93
1065.614	-7.73
1066.035	-0.33
1066.457	-4.13
1066.878	-5.73
1067.3	-5.13
1067.721	-6.83
1068.142	-1.23
1068.564	-5.73
1068.985	-4.13
1069.406	-2.73
1069.827	-4.03
1070.248	-5.43
1070.67	-10.03
1071.091	-3.83
1071.512	-5.53
1071.933	-4.73
1072.354	-11.03
1072.775	-8.23
1073.196	-12.33
1073.617	-9.13
1074.038	-3.83
1074.459	-4.63
1074.88	-8.13
1075.3	-4.23
1075.721	-3.03
1076.142	-1.93
1076.563	-0.83
1076.983	-10.13
1077.404	-4.53
1077.825	-15.03
1078.246	-8.63
1078.666	-9.03
1079.087	-11.23
1079.507	-6.73
1079.928	-3.33
1080.348	-8.63
1080.769	-5.73
1081.189	-2.43
1081.61	-2.43
1082.03	-9.63
1082.451	-5.33
1082.871	-7.03
1083.291	-8.33
1083.711	-11.23
1084.132	-8.03
1084.552	-5.43
1084.972	-0.83
1085.392	-6.13
1085.813	-8.73
1086.233	-10.13
1086.653	-7.63
1087.073	0.47
1087.493	-6.73
1087.913	-3.13
1088.333	-12.03
1088.753	-3.03
1089.173	1.97
1089.593	-3.83
1090.013	-4.63
1090.433	-1.13
1090.852	-4.53
1091.272	-2.73
1091.692	-0.73
1092.112	-4.83
1092.531	-4.73
1092.951	-10.63
1093.371	-3.13
1093.79	7.07
1094.21	-8.83
1094.63	-7.03
1095.049	-6.63
1095.469	-2.13
1095.888	0.47
1096.308	2.97
1096.727	4.17
1097.146	-6.83
1097.566	-3.83
1097.985	-9.13
1098.405	-3.33
1098.824	-10.83
1099.243	-8.63
1099.662	-9.73
1100.082	-4.43
1100.501	-4.63
1100.92	-6.83
1101.339	-8.73
1101.758	-3.13
