Data from 20171114-ORNL-Ar_H_NY_Subt18_08-05-34-601.txt Node
Date: Tue Nov 14 08:05:34 EST 2017
User: Ender
Spectrometer: HR+D1039
Trigger mode: 0
Integration Time (sec): 2.730000E-2
Scans to average: 10
Electric dark correction enabled: true
Nonlinearity correction enabled: false
Boxcar width: 0
XAxis mode: Wavelengths
Number of Pixels in Spectrum: 2048
>>>>>Begin Spectral Data<<<<<
187.836	-0.64
188.309	-0.64
188.782	-0.64
189.255	-5.54
189.728	-2.94
190.201	2.36
190.674	2.46
191.147	5.26
191.619	-6.74
192.092	0.46
192.565	4.56
193.038	1.96
193.511	2.96
193.984	-1.34
194.456	-2.54
194.929	-1.64
195.402	-3.24
195.874	4.66
196.347	3.06
196.82	-6.54
197.292	8.06
197.765	4.86
198.237	-8.34
198.71	2.86
199.182	-0.24
199.655	5.46
200.127	3.76
200.6	-1.94
201.072	-1.84
201.544	-1.84
202.017	-6.54
202.489	1.66
202.961	-7.74
203.433	-2.54
203.906	-6.74
204.378	-6.34
204.85	-1.34
205.322	-13.44
205.794	-4.04
206.266	-5.14
206.739	-8.24
207.211	6.06
207.683	-9.84
208.155	-12.24
208.627	-13.34
209.099	-2.94
209.57	-7.34
210.042	-5.14
210.514	-6.24
210.986	-4.54
211.458	-5.74
211.93	-2.54
212.402	3.46
212.873	-8.44
213.345	-6.64
213.817	-13.74
214.288	-7.54
214.76	-13.04
215.232	-3.84
215.703	-6.54
216.175	-0.44
216.646	-3.34
217.118	-3.34
217.589	-4.54
218.061	-7.24
218.532	-7.04
219.004	-1.04
219.475	-1.84
219.946	-1.44
220.418	-1.84
220.889	4.96
221.36	0.76
221.832	-7.24
222.303	-11.64
222.774	2.86
223.245	-8.74
223.717	-10.54
224.188	-2.24
224.659	-4.74
225.13	-7.14
225.601	-9.34
226.072	-6.34
226.543	-2.94
227.014	0.96
227.485	-5.94
227.956	0.66
228.427	-1.24
228.898	-1.24
229.369	3.26
229.839	-3.54
230.31	-6.44
230.781	7.36
231.252	3.06
231.722	-3.14
232.193	-0.64
232.664	-1.34
233.135	2.16
233.605	-0.44
234.076	-11.04
234.546	4.26
235.017	5.96
235.487	5.96
235.958	2.46
236.428	1.86
236.899	10.16
237.369	0.26
237.84	-3.04
238.31	5.16
238.78	3.96
239.251	3.46
239.721	7.36
240.191	2.36
240.662	6.16
241.132	-3.04
241.602	-1.54
242.072	8.06
242.542	6.06
243.013	-0.64
243.483	7.06
243.953	1.56
244.423	-3.04
244.893	-0.74
245.363	5.56
245.833	4.06
246.303	2.16
246.773	6.46
247.243	8.56
247.712	9.16
248.182	8.76
248.652	16.36
249.122	1.36
249.592	11.36
250.061	18.46
250.531	36.96
251.001	22.76
251.471	19.76
251.94	20.86
252.41	16.16
252.879	3.36
253.349	9.86
253.818	13.56
254.288	6.86
254.757	6.06
255.227	1.16
255.696	5.26
256.166	6.66
256.635	7.26
257.105	9.56
257.574	9.26
258.043	13.96
258.513	12.06
258.982	13.36
259.451	12.76
259.92	21.26
260.389	11.96
260.859	9.76
261.328	10.46
261.797	18.36
262.266	10.26
262.735	11.26
263.204	3.46
263.673	1.56
264.142	6.86
264.611	0.16
265.08	1.26
265.549	2.76
266.018	7.36
266.487	5.46
266.955	3.36
267.424	3.36
267.893	11.16
268.362	4.86
268.83	1.26
269.299	16.06
269.768	5.86
270.236	5.96
270.705	-0.04
271.174	9.36
271.642	9.46
272.111	10.86
272.579	11.66
273.048	21.46
273.516	36.26
273.985	34.06
274.453	27.36
274.922	19.26
275.39	9.16
275.858	6.46
276.327	11.96
276.795	20.36
277.263	18.86
277.731	39.06
278.2	62.76
278.668	63.16
279.136	47.56
279.604	21.06
280.072	16.56
280.54	14.36
281.008	10.56
281.477	12.46
281.945	15.16
282.413	16.96
282.881	16.96
283.348	10.86
283.816	19.36
284.284	18.96
284.752	29.16
285.22	15.96
285.688	13.66
286.156	14.66
286.623	44.36
287.091	60.06
287.559	33.26
288.026	22.16
288.494	21.46
288.962	10.56
289.429	11.36
289.897	23.86
290.364	14.46
290.832	20.26
291.3	14.46
291.767	21.36
292.234	20.76
292.702	17.46
293.169	20.66
293.637	24.66
294.104	19.16
294.571	11.66
295.039	13.96
295.506	16.46
295.973	13.66
296.44	16.46
296.908	23.56
297.375	23.86
297.842	15.56
298.309	18.56
298.776	14.76
299.243	25.26
299.71	15.16
300.177	22.76
300.644	28.86
301.111	21.76
301.578	28.06
302.045	21.26
302.512	27.76
302.979	27.66
303.446	22.56
303.913	22.16
304.379	21.16
304.846	32.56
305.313	24.06
305.78	18.76
306.246	28.26
306.713	28.36
307.18	28.06
307.646	29.96
308.113	27.96
308.579	27.46
309.046	27.16
309.512	33.96
309.979	22.46
310.445	27.46
310.912	30.86
311.378	40.36
311.845	34.16
312.311	33.46
312.777	26.86
313.244	34.36
313.71	37.66
314.176	33.86
314.642	33.76
315.109	30.46
315.575	36.16
316.041	38.56
316.507	34.46
316.973	41.46
317.439	37.56
317.905	36.66
318.371	33.26
318.837	32.86
319.303	38.26
319.769	38.76
320.235	36.26
320.701	36.66
321.167	37.16
321.633	32.46
322.099	45.16
322.564	48.96
323.03	43.96
323.496	43.16
323.962	39.76
324.427	41.76
324.893	43.56
325.359	44.46
325.824	39.86
326.29	37.86
326.755	46.46
327.221	37.66
327.686	41.96
328.152	47.86
328.617	41.16
329.083	48.26
329.548	48.86
330.014	54.36
330.479	40.66
330.944	50.56
331.41	47.46
331.875	45.66
332.34	49.26
332.805	44.46
333.271	44.86
333.736	47.46
334.201	51.66
334.666	58.06
335.131	59.16
335.596	52.26
336.061	57.16
336.526	43.16
336.991	49.76
337.456	54.16
337.921	47.76
338.386	39.06
338.851	45.56
339.316	43.06
339.781	45.66
340.246	50.96
340.711	52.56
341.175	53.56
341.64	48.56
342.105	57.96
342.569	57.16
343.034	58.26
343.499	57.16
343.963	56.86
344.428	69.96
344.893	59.06
345.357	60.86
345.822	68.56
346.286	67.86
346.751	77.66
347.215	72.06
347.679	70.36
348.144	102.66
348.608	88.86
349.073	77.36
349.537	76.96
350.001	82.76
350.465	86.96
350.93	88.36
351.394	79.06
351.858	80.96
352.322	89.66
352.786	81.76
353.25	98.76
353.715	107.86
354.179	101.96
354.643	128.96
355.107	132.46
355.571	109.96
356.035	101.76
356.498	122.46
356.962	126.56
357.426	135.36
357.89	121.66
358.354	92.36
358.818	85.46
359.281	77.26
359.745	77.26
360.209	75.06
360.673	74.26
361.136	81.76
361.6	87.66
362.064	86.86
362.527	86.06
362.991	94.26
363.454	82.76
363.918	80.06
364.381	82.56
364.845	89.46
365.308	88.96
365.772	96.06
366.235	86.26
366.698	81.56
367.162	84.16
367.625	87.76
368.088	86.26
368.552	93.86
369.015	90.86
369.478	101.56
369.941	105.76
370.404	106.66
370.867	112.06
371.331	114.66
371.794	113.56
372.257	108.76
372.72	117.86
373.183	110.06
373.646	103.36
374.109	106.36
374.572	108.26
375.035	107.16
375.497	106.86
375.96	107.46
376.423	105.56
376.886	113.66
377.349	112.16
377.811	100.96
378.274	108.56
378.737	107.36
379.199	114.96
379.662	116.86
380.125	119.86
380.587	117.96
381.05	120.16
381.512	131.76
381.975	136.36
382.437	128.36
382.9	120.36
383.362	133.46
383.825	146.06
384.287	143.56
384.75	144.36
385.212	135.36
385.674	137.06
386.136	139.96
386.599	129.56
387.061	126.16
387.523	131.46
387.985	134.96
388.447	146.66
388.91	140.96
389.372	160.26
389.834	153.06
390.296	148.06
390.758	154.96
391.22	168.36
391.682	209.96
392.144	300.46
392.606	229.36
393.068	174.66
393.529	167.06
393.991	162.86
394.453	147.16
394.915	162.66
395.377	203.26
395.838	214.06
396.3	157.46
396.762	142.76
397.224	132.56
397.685	130.66
398.147	135.26
398.608	132.96
399.07	131.46
399.531	135.96
399.993	146.56
400.454	154.36
400.916	151.76
401.377	148.56
401.839	152.26
402.3	149.86
402.762	167.76
403.223	183.76
403.684	164.76
404.145	161.46
404.607	162.26
405.068	166.56
405.529	167.86
405.99	193.26
406.451	175.16
406.913	171.86
407.374	153.26
407.835	156.06
408.296	166.06
408.757	173.96
409.218	184.36
409.679	178.56
410.14	175.86
410.601	173.86
411.062	189.16
411.522	188.96
411.983	185.66
412.444	177.36
412.905	179.96
413.366	188.96
413.826	187.56
414.287	212.96
414.748	256.66
415.208	243.76
415.669	215.86
416.13	203.76
416.59	196.36
417.051	209.36
417.511	217.36
417.972	235.96
418.432	238.66
418.893	290.46
419.353	251.56
419.814	203.06
420.274	184.96
420.734	174.96
421.195	200.66
421.655	194.86
422.115	195.16
422.576	196.36
423.036	193.86
423.496	208.16
423.956	223.26
424.416	223.36
424.876	269.76
425.336	266.06
425.797	256.86
426.257	255.06
426.717	250.36
427.177	237.16
427.637	224.66
428.097	234.26
428.556	245.76
429.016	263.76
429.476	269.46
429.936	270.06
430.396	277.86
430.856	294.16
431.315	318.96
431.775	358.66
432.235	376.56
432.694	359.36
433.154	361.56
433.614	397.36
434.073	339.86
434.533	281.66
434.993	271.76
435.452	283.96
435.912	292.76
436.371	289.06
436.83	284.36
437.29	268.16
437.749	248.26
438.209	249.96
438.668	269.36
439.127	282.56
439.587	272.26
440.046	249.96
440.505	258.16
440.964	280.66
441.424	326.06
441.883	313.36
442.342	265.16
442.801	227.96
443.26	224.96
443.719	223.66
444.178	218.06
444.637	211.36
445.096	221.06
445.555	221.26
446.014	223.86
446.473	234.06
446.932	235.96
447.391	221.56
447.849	223.86
448.308	217.36
448.767	216.56
449.226	234.66
449.685	236.66
450.143	250.16
450.602	236.66
451.061	229.26
451.519	235.36
451.978	229.86
452.436	233.66
452.895	240.26
453.353	254.16
453.812	246.26
454.27	249.66
454.729	235.36
455.187	237.96
455.646	244.56
456.104	250.56
456.562	258.36
457.021	271.76
457.479	257.26
457.937	273.76
458.395	266.16
458.854	247.46
459.312	259.46
459.77	275.36
460.228	250.56
460.686	243.86
461.144	252.66
461.602	248.26
462.06	241.26
462.518	253.06
462.976	255.06
463.434	260.86
463.892	261.66
464.35	281.76
464.808	294.66
465.266	264.36
465.724	269.36
466.181	276.36
466.639	271.36
467.097	290.46
467.555	303.66
468.012	307.06
468.47	305.46
468.928	326.56
469.385	338.36
469.843	351.76
470.3	349.26
470.758	360.76
471.215	385.06
471.673	412.56
472.13	406.26
472.588	416.46
473.045	366.86
473.503	377.96
473.96	387.36
474.417	408.46
474.875	440.06
475.332	472.16
475.789	457.86
476.246	465.66
476.704	484.46
477.161	506.66
477.618	525.66
478.075	557.66
478.532	616.86
478.989	693.96
479.446	807.46
479.903	777.66
480.36	802.86
480.817	873.56
481.274	983.46
481.731	1086.06
482.188	1177.06
482.645	1318.46
483.102	1418.66
483.558	1562.36
484.015	1612.16
484.472	1599.26
484.929	1545.66
485.385	1490.96
485.842	1442.56
486.299	1379.36
486.755	1296.86
487.212	1091.36
487.668	934.16
488.125	854.86
488.582	776.16
489.038	748.56
489.494	716.06
489.951	693.76
490.407	675.66
490.864	652.46
491.32	643.46
491.776	645.46
492.233	647.36
492.689	617.96
493.145	602.36
493.602	591.36
494.058	606.36
494.514	617.26
494.97	648.36
495.426	652.16
495.882	632.66
496.338	620.56
496.794	627.46
497.251	626.06
497.707	635.56
498.163	645.36
498.618	644.36
499.074	651.46
499.53	675.06
499.986	682.06
500.442	657.26
500.898	638.26
501.354	618.26
501.809	631.16
502.265	636.66
502.721	662.56
503.177	665.16
503.632	663.46
504.088	676.36
504.543	707.06
504.999	710.06
505.455	653.76
505.91	634.76
506.366	634.86
506.821	630.86
507.277	625.26
507.732	621.16
508.187	617.06
508.643	636.96
509.098	632.06
509.553	657.56
510.009	656.96
510.464	675.26
510.919	690.56
511.375	688.26
511.83	697.56
512.285	719.76
512.74	754.36
513.195	778.36
513.65	774.46
514.105	777.76
514.56	769.36
515.015	783.86
515.47	811.76
515.925	785.06
516.38	786.16
516.835	795.16
517.29	782.76
517.745	776.36
518.2	763.46
518.655	745.66
519.109	743.86
519.564	748.16
520.019	726.26
520.474	729.46
520.928	726.66
521.383	723.26
521.838	710.66
522.292	716.86
522.747	705.26
523.201	703.16
523.656	697.96
524.11	690.96
524.565	686.96
525.019	684.76
525.474	709.46
525.928	695.86
526.382	688.06
526.837	702.06
527.291	702.56
527.745	693.96
528.2	699.16
528.654	688.46
529.108	690.36
529.562	686.36
530.016	686.56
530.47	686.46
530.925	692.16
531.379	699.36
531.833	704.26
532.287	704.96
532.741	703.86
533.195	710.16
533.649	715.66
534.103	723.86
534.556	712.16
535.01	708.86
535.464	716.86
535.918	723.56
536.372	718.16
536.826	720.66
537.279	702.36
537.733	708.66
538.187	710.06
538.64	711.46
539.094	715.26
539.548	720.46
540.001	715.16
540.455	716.16
540.908	724.06
541.362	725.66
541.815	735.06
542.269	759.56
542.722	757.76
543.175	766.16
543.629	760.66
544.082	781.96
544.536	778.96
544.989	782.56
545.442	786.76
545.895	774.56
546.349	784.06
546.802	783.76
547.255	784.76
547.708	797.36
548.161	818.36
548.614	827.36
549.067	822.76
549.52	803.86
549.973	817.76
550.426	798.86
550.879	788.76
551.332	790.76
551.785	811.96
552.238	800.06
552.691	813.06
553.144	818.96
553.596	846.66
554.049	850.96
554.502	882.36
554.955	913.26
555.407	897.96
555.86	900.86
556.313	890.76
556.765	873.06
557.218	884.96
557.67	882.76
558.123	875.36
558.576	859.76
559.028	870.76
559.48	873.66
559.933	873.16
560.385	826.76
560.838	791.76
561.29	776.86
561.742	778.06
562.195	749.76
562.647	749.46
563.099	765.06
563.551	759.66
564.004	773.16
564.456	770.26
564.908	758.16
565.36	737.96
565.812	736.26
566.264	715.36
566.716	719.26
567.168	708.06
567.62	707.16
568.072	696.16
568.524	683.26
568.976	682.26
569.428	661.46
569.88	669.96
570.332	672.96
570.784	674.16
571.235	672.16
571.687	683.46
572.139	692.66
572.59	703.86
573.042	692.46
573.494	701.56
573.945	700.86
574.397	680.86
574.849	680.36
575.3	685.26
575.752	669.56
576.203	670.16
576.655	671.66
577.106	662.26
577.557	657.96
578.009	652.56
578.46	657.36
578.912	653.36
579.363	659.96
579.814	662.96
580.265	660.16
580.717	658.56
581.168	664.86
581.619	669.16
582.07	673.56
582.521	660.56
582.972	657.96
583.423	666.56
583.875	672.76
584.326	688.16
584.777	727.56
585.227	820.86
585.678	900.66
586.129	986.16
586.58	1061.46
587.031	1162.76
587.482	1328.96
587.933	1504.26
588.384	1299.36
588.834	962.46
589.285	787.06
589.736	770.56
590.186	768.46
590.637	758.66
591.088	733.36
591.538	722.56
591.989	721.96
592.439	722.66
592.89	697.46
593.34	700.76
593.791	703.66
594.241	690.56
594.692	690.86
595.142	689.06
595.593	681.56
596.043	693.26
596.493	696.46
596.943	697.36
597.394	708.76
597.844	697.46
598.294	716.76
598.744	742.76
599.195	756.36
599.645	798.96
600.095	844.36
600.545	899.36
600.995	944.46
601.445	994.06
601.895	1061.56
602.345	1115.86
602.795	1086.06
603.245	1041.06
603.695	988.96
604.145	927.86
604.594	891.86
605.044	835.76
605.494	771.36
605.944	735.76
606.393	729.36
606.843	703.96
607.293	711.06
607.743	717.46
608.192	724.26
608.642	739.86
609.091	754.06
609.541	744.56
609.99	755.16
610.44	747.36
610.889	704.36
611.339	685.36
611.788	662.56
612.238	681.66
612.687	699.66
613.136	704.06
613.586	718.76
614.035	728.56
614.484	744.36
614.933	735.56
615.383	728.26
615.832	721.26
616.281	711.26
616.73	682.76
617.179	653.06
617.628	637.76
618.077	618.06
618.526	612.76
618.975	596.86
619.424	604.06
619.873	596.26
620.322	609.26
620.771	584.26
621.22	581.76
621.669	578.26
622.118	577.36
622.567	555.66
623.015	560.16
623.464	563.66
623.913	547.66
624.361	536.96
624.81	534.36
625.259	529.36
625.707	536.46
626.156	537.36
626.604	549.06
627.053	549.86
627.501	541.46
627.95	547.46
628.398	565.56
628.847	556.86
629.295	555.46
629.744	558.06
630.192	556.86
630.64	545.66
631.089	543.66
631.537	559.56
631.985	573.36
632.433	585.26
632.881	584.76
633.33	639.36
633.778	621.96
634.226	551.26
634.674	550.66
635.122	557.06
635.57	580.06
636.018	605.06
636.466	567.66
636.914	546.26
637.362	555.86
637.81	559.16
638.258	561.46
638.705	549.56
639.153	591.86
639.601	590.86
640.049	606.26
640.497	655.46
640.944	662.16
641.392	618.86
641.84	586.96
642.287	566.46
642.735	542.56
643.182	550.26
643.63	562.76
644.078	555.66
644.525	572.16
644.973	575.66
645.42	575.96
645.867	595.16
646.315	613.16
646.762	636.06
647.21	666.96
647.657	691.86
648.104	727.56
648.551	752.46
648.999	802.26
649.446	887.36
649.893	965.66
650.34	1118.76
650.787	1337.56
651.234	1657.26
651.682	2160.36
652.129	2975.36
652.576	4286.96
653.023	6357.26
653.47	8710.26
653.917	10975.16
654.363	12721.36
654.81	14159.56
655.257	13441.16
655.704	8810.66
656.151	5175.36
656.598	3341.26
657.044	2368.76
657.491	1812.56
657.938	1445.26
658.385	1204.86
658.831	1051.66
659.278	938.56
659.724	827.26
660.171	763.66
660.618	705.76
661.064	664.46
661.511	636.16
661.957	633.86
662.404	624.86
662.85	625.06
663.296	608.56
663.743	546.96
664.189	524.66
664.635	513.76
665.082	507.26
665.528	498.96
665.974	492.66
666.42	486.36
666.867	485.96
667.313	477.96
667.759	462.06
668.205	455.96
668.651	465.56
669.097	464.76
669.543	482.46
669.989	454.56
670.435	435.06
670.881	429.66
671.327	430.96
671.773	447.26
672.219	467.86
672.665	518.06
673.11	554.26
673.556	596.26
674.002	640.56
674.448	628.46
674.893	534.26
675.339	457.56
675.785	427.46
676.23	399.06
676.676	370.06
677.122	369.96
677.567	357.26
678.013	351.36
678.458	343.76
678.904	339.96
679.349	327.86
679.794	335.96
680.24	333.46
680.685	336.26
681.131	331.06
681.576	328.26
682.021	334.16
682.466	326.06
682.912	329.66
683.357	330.06
683.802	357.36
684.247	387.86
684.692	442.76
685.137	478.16
685.583	511.26
686.028	537.16
686.473	489.86
686.918	426.66
687.363	397.76
687.807	385.06
688.252	352.46
688.697	335.56
689.142	326.76
689.587	317.76
690.032	306.46
690.477	320.26
690.921	326.86
691.366	357.66
691.811	386.76
692.255	417.06
692.7	424.66
693.145	466.86
693.589	645.36
694.034	1046.26
694.478	1438.66
694.923	1646.66
695.367	2161.96
695.812	1137.16
696.256	472.06
696.701	349.16
697.145	319.56
697.59	316.56
698.034	305.66
698.478	318.06
698.922	309.26
699.367	307.86
699.811	319.16
700.255	333.86
700.699	363.76
701.143	406.36
701.588	452.16
702.032	491.56
702.476	483.56
702.92	455.66
703.364	457.76
703.808	600.16
704.252	955.56
704.696	1355.76
705.14	1579.86
705.584	2030.16
706.027	1006.56
706.471	496.46
706.915	377.16
707.359	328.26
707.803	303.86
708.246	292.26
708.69	293.06
709.134	299.36
709.577	298.96
710.021	296.56
710.465	295.46
710.908	284.96
711.352	280.96
711.795	299.86
712.239	332.96
712.682	361.16
713.126	393.36
713.569	449.16
714.012	352.26
714.456	303.86
714.899	278.66
715.342	262.16
715.786	247.66
716.229	241.56
716.672	243.46
717.115	228.16
717.558	230.96
718.002	236.36
718.445	248.56
718.888	267.36
719.331	273.36
719.774	292.26
720.217	286.96
720.66	269.06
721.103	255.06
721.546	238.86
721.989	236.36
722.432	215.96
722.874	226.36
723.317	217.16
723.76	218.86
724.203	240.56
724.645	295.16
725.088	418.66
725.531	535.36
725.974	610.06
726.416	517.86
726.859	285.16
727.301	231.56
727.744	222.96
728.187	223.96
728.629	229.66
729.071	224.96
729.514	242.96
729.956	254.46
730.399	272.76
730.841	272.16
731.283	266.46
731.726	255.06
732.168	251.76
732.61	251.16
733.053	271.16
733.495	296.16
733.937	332.46
734.379	370.56
734.821	402.26
735.263	505.66
735.705	769.16
736.148	1456.26
736.59	2406.66
737.032	2899.26
737.474	2365.96
737.916	762.96
738.357	402.96
738.799	303.56
739.241	279.16
739.683	261.76
740.125	271.06
740.567	283.46
741.008	299.06
741.45	294.86
741.892	296.66
742.334	327.36
742.775	334.16
743.217	327.16
743.658	260.06
744.1	245.46
744.542	240.06
744.983	294.06
745.425	328.46
745.866	330.96
746.307	257.86
746.749	266.16
747.19	304.36
747.632	419.16
748.073	810.36
748.514	1722.86
748.956	2678.06
749.397	3350.66
749.838	2787.86
750.279	2801.06
750.72	1418.76
751.162	511.56
751.603	305.06
752.044	239.76
752.485	199.86
752.926	198.96
753.367	188.76
753.808	187.36
754.249	179.76
754.69	179.26
755.131	172.26
755.572	173.86
756.013	170.96
756.453	173.46
756.894	171.16
757.335	180.36
757.776	179.26
758.216	179.66
758.657	182.76
759.098	192.26
759.538	213.06
759.979	249.56
760.42	351.26
760.86	640.76
761.301	1646.46
761.741	4080.26
762.182	6139.96
762.622	4294.66
763.063	1239.16
763.503	504.66
763.943	328.06
764.384	321.76
764.824	392.36
765.264	423.56
765.705	296.36
766.145	200.06
766.585	178.76
767.025	169.06
767.465	178.06
767.906	229.26
768.346	308.06
768.786	323.06
769.226	248.16
769.666	294.86
770.106	567.86
770.546	1428.66
770.986	2498.56
771.426	2269.66
771.866	745.76
772.306	311.86
772.745	197.86
773.185	164.86
773.625	169.26
774.065	156.36
774.505	185.06
774.944	296.16
775.384	646.06
775.824	1202.16
776.263	1186.06
776.703	500.86
777.142	216.56
777.582	150.36
778.021	130.16
778.461	129.26
778.9	132.76
779.34	124.26
779.779	118.66
780.219	106.26
780.658	102.46
781.097	110.16
781.537	107.96
781.976	101.56
782.415	96.86
782.855	100.86
783.294	99.46
783.733	99.56
784.172	102.66
784.611	88.96
785.05	104.26
785.489	109.36
785.928	111.96
786.367	112.56
786.806	114.66
787.245	120.96
787.684	127.46
788.123	135.06
788.562	130.86
789.001	117.06
789.44	113.86
789.879	111.76
790.317	106.76
790.756	117.16
791.195	123.26
791.634	139.46
792.072	191.46
792.511	334.56
792.95	914.56
793.388	2009.76
793.827	1848.26
794.265	642.56
794.704	261.86
795.142	170.96
795.581	144.36
796.019	121.56
796.458	117.46
796.896	114.96
797.334	127.16
797.773	140.96
798.211	200.46
798.649	392.86
799.087	947.36
799.526	1496.26
799.964	1885.06
800.402	1917.06
800.84	716.06
801.278	284.26
801.716	179.66
802.154	144.76
802.592	138.76
803.03	131.56
803.468	125.66
803.906	133.76
804.344	143.16
804.782	126.46
805.22	125.96
805.658	126.36
806.096	139.76
806.533	145.46
806.971	161.06
807.409	202.56
807.847	288.36
808.284	604.86
808.722	1718.56
809.16	3083.96
809.597	2898.16
810.035	5051.46
810.472	5534.56
810.91	1968.66
811.347	745.16
811.785	382.06
812.222	234.66
812.66	182.76
813.097	158.76
813.535	136.76
813.972	121.96
814.409	116.66
814.846	102.86
815.284	108.96
815.721	92.26
816.158	100.96
816.595	114.86
817.032	165.56
817.47	190.46
817.907	166.26
818.344	144.96
818.781	107.56
819.218	98.46
819.655	119.66
820.092	172.06
820.529	205.56
820.966	164.26
821.403	129.96
821.839	107.66
822.276	97.86
822.713	121.86
823.15	127.46
823.587	107.06
824.023	130.06
824.46	267.56
824.897	823.66
825.333	1280.26
825.77	541.16
826.206	214.86
826.643	125.66
827.08	94.06
827.516	77.96
827.953	67.56
828.389	76.86
828.825	69.16
829.262	68.06
829.698	58.86
830.135	61.86
830.571	52.66
831.007	59.26
831.443	66.16
831.88	61.06
832.316	61.86
832.752	61.16
833.188	56.36
833.624	60.06
834.06	68.26
834.497	64.36
834.933	64.46
835.369	74.36
835.805	67.66
836.241	74.76
836.677	76.66
837.112	89.46
837.548	92.86
837.984	115.46
838.42	182.86
838.856	451.56
839.292	1398.36
839.727	2187.06
840.163	1016.36
840.599	861.36
841.034	1886.56
841.47	2033.86
841.906	740.86
842.341	316.36
842.777	216.86
843.212	311.66
843.648	298.36
844.083	140.36
844.519	92.86
844.954	74.86
845.39	55.06
845.825	53.86
846.261	53.76
846.696	51.36
847.131	47.66
847.566	52.16
848.002	45.96
848.437	45.96
848.872	51.46
849.307	58.06
849.742	82.26
850.177	171.96
850.613	508.16
851.048	834.86
851.483	360.56
851.918	146.16
852.353	82.16
852.788	55.76
853.223	50.46
853.657	56.16
854.092	42.66
854.527	41.66
854.962	43.56
855.397	41.76
855.832	40.96
856.266	30.56
856.701	42.06
857.136	35.86
857.57	44.36
858.005	48.36
858.44	60.26
858.874	43.66
859.309	54.96
859.743	40.86
860.178	44.16
860.612	30.46
861.047	52.56
861.481	62.36
861.915	70.96
862.35	51.26
862.784	30.36
863.218	35.76
863.653	31.96
864.087	43.46
864.521	53.86
864.955	64.66
865.39	147.66
865.824	165.76
866.258	105.86
866.692	154.46
867.126	170.46
867.56	102.06
867.994	47.76
868.428	31.86
868.862	47.26
869.296	43.76
869.73	53.96
870.164	54.36
870.598	46.46
871.031	29.96
871.465	25.36
871.899	28.76
872.333	22.76
872.766	25.66
873.2	17.26
873.634	26.36
874.067	22.76
874.501	25.26
874.935	30.76
875.368	32.06
875.802	24.16
876.235	23.36
876.669	21.06
877.102	21.16
877.535	18.96
877.969	23.66
878.402	23.56
878.836	18.36
879.269	21.86
879.702	18.36
880.135	14.86
880.569	23.86
881.002	24.66
881.435	18.66
881.868	21.06
882.301	22.76
882.734	14.96
883.167	19.36
883.601	11.66
884.034	19.96
884.467	23.66
884.899	26.06
885.332	17.76
885.765	12.16
886.198	12.66
886.631	20.46
887.064	19.26
887.497	22.86
887.929	18.66
888.362	12.86
888.795	15.16
889.228	20.06
889.66	18.66
890.093	19.06
890.526	22.16
890.958	17.36
891.391	14.56
891.823	19.56
892.256	17.16
892.688	14.76
893.121	5.96
893.553	15.76
893.985	24.76
894.418	23.36
894.85	10.66
895.282	19.56
895.715	19.56
896.147	20.96
896.579	12.96
897.011	16.06
897.444	18.76
897.876	19.86
898.308	17.26
898.74	16.46
899.172	13.76
899.604	24.76
900.036	14.76
900.468	15.66
900.9	7.66
901.332	20.86
901.764	12.86
902.196	22.06
902.628	11.56
903.06	17.96
903.491	29.76
903.923	21.56
904.355	15.56
904.787	21.56
905.218	18.46
905.65	14.86
906.082	1.86
906.513	9.76
906.945	15.46
907.376	17.46
907.808	22.36
908.239	26.06
908.671	18.76
909.102	18.86
909.534	29.36
909.965	43.26
910.397	88.06
910.828	298.86
911.259	449.66
911.691	204.86
912.122	99.66
912.553	49.66
912.984	30.36
913.415	21.16
913.847	19.66
914.278	17.26
914.709	11.86
915.14	17.36
915.571	13.76
916.002	12.86
916.433	17.16
916.864	16.36
917.295	7.56
917.726	22.96
918.157	13.66
918.587	28.36
919.018	17.06
919.449	20.96
919.88	23.46
920.311	27.86
920.741	52.26
921.172	159.86
921.603	143.26
922.033	66.56
922.464	40.66
922.895	26.36
923.325	22.46
923.756	15.66
924.186	15.86
924.617	27.96
925.047	39.66
925.478	56.76
925.908	39.76
926.338	25.66
926.769	16.66
927.199	22.46
927.629	10.76
928.06	17.56
928.49	12.76
928.92	10.36
929.35	15.96
929.78	14.46
930.21	7.46
930.641	5.76
931.071	11.26
931.501	6.96
931.931	6.66
932.361	7.46
932.791	0.56
933.221	10.46
933.651	0.26
934.08	19.76
934.51	28.66
934.94	10.86
935.37	13.96
935.8	8.76
936.229	7.16
936.659	8.26
937.089	8.06
937.519	11.56
937.948	22.06
938.378	17.56
938.807	4.36
939.237	4.86
939.666	10.86
940.096	0.36
940.525	-0.14
940.955	6.16
941.384	2.86
941.814	-3.64
942.243	-4.94
942.672	3.16
943.102	-4.84
943.531	-0.44
943.96	-1.84
944.39	2.96
944.819	2.46
945.248	0.06
945.677	0.26
946.106	7.36
946.535	3.56
946.964	2.36
947.393	2.56
947.822	1.76
948.251	-1.64
948.68	2.26
949.109	7.56
949.538	1.26
949.967	-1.34
950.396	-0.44
950.825	-1.64
951.254	-1.64
951.682	-0.14
952.111	4.96
952.54	5.36
952.969	-0.44
953.397	-6.84
953.826	5.06
954.254	-5.84
954.683	6.46
955.112	-4.34
955.54	-1.54
955.969	-0.44
956.397	-2.44
956.826	-2.04
957.254	1.46
957.682	-1.74
958.111	2.76
958.539	-3.04
958.967	-1.94
959.396	-4.14
959.824	2.06
960.252	2.86
960.68	-6.04
961.109	-5.24
961.537	-6.04
961.965	-1.44
962.393	2.56
962.821	0.46
963.249	-0.24
963.677	1.56
964.105	-2.54
964.533	40.56
964.961	36.56
965.389	15.86
965.817	5.56
966.245	0.86
966.672	-5.04
967.1	-7.04
967.528	4.26
967.956	3.46
968.383	-1.64
968.811	-5.54
969.239	-6.84
969.666	-5.64
970.094	-3.84
970.522	-5.14
970.949	0.16
971.377	-2.84
971.804	-3.74
972.232	-2.84
972.659	2.66
973.087	-4.74
973.514	-0.84
973.941	-8.74
974.369	1.16
974.796	-0.54
975.223	-2.24
975.651	-0.04
976.078	-0.14
976.505	-0.44
976.932	1.86
977.359	15.26
977.786	12.26
978.214	-0.54
978.641	-5.14
979.068	-3.84
979.495	3.06
979.922	-5.14
980.349	-0.04
980.776	2.56
981.202	-0.04
981.629	2.26
982.056	4.06
982.483	-1.64
982.91	2.46
983.337	-3.94
983.763	5.16
984.19	-4.24
984.617	-4.94
985.043	-4.54
985.47	1.16
985.897	-2.14
986.323	-9.44
986.75	4.46
987.176	-3.44
987.603	1.46
988.029	2.46
988.456	-7.94
988.882	-2.44
989.308	-7.54
989.735	-8.84
990.161	5.46
990.587	-5.14
991.014	-3.24
991.44	4.76
991.866	-0.44
992.292	-10.04
992.719	-2.54
993.145	1.06
993.571	-12.64
993.997	-7.34
994.423	-3.34
994.849	0.36
995.275	-0.94
995.701	-2.24
996.127	2.46
996.553	1.76
996.979	-3.54
997.405	0.96
997.83	-6.64
998.256	-7.94
998.682	-6.34
999.108	-5.44
999.534	-2.44
999.959	7.26
1000.385	-2.54
1000.811	3.66
1001.236	-9.14
1001.662	-6.34
1002.087	-10.14
1002.513	-0.94
1002.938	-0.84
1003.364	-3.94
1003.789	-2.04
1004.215	3.26
1004.64	3.76
1005.066	3.86
1005.491	-4.04
1005.916	-8.84
1006.342	-1.14
1006.767	-6.94
1007.192	2.46
1007.617	-6.74
1008.042	1.36
1008.468	-5.84
1008.893	-4.54
1009.318	-7.04
1009.743	-1.44
1010.168	6.96
1010.593	-2.84
1011.018	-6.44
1011.443	0.96
1011.868	3.86
1012.293	-3.24
1012.718	-8.04
1013.143	-1.64
1013.567	1.76
1013.992	1.26
1014.417	-14.64
1014.842	2.26
1015.267	-5.84
1015.691	-0.44
1016.116	8.06
1016.541	0.36
1016.965	0.06
1017.39	2.76
1017.814	5.96
1018.239	1.16
1018.663	-5.54
1019.088	-1.04
1019.512	-6.44
1019.937	-2.24
1020.361	-3.24
1020.785	-8.74
1021.21	-5.04
1021.634	-2.04
1022.058	0.66
1022.483	2.36
1022.907	0.16
1023.331	-8.24
1023.755	-1.04
1024.179	0.56
1024.604	-13.24
1025.028	-10.44
1025.452	-8.24
1025.876	-1.34
1026.3	0.76
1026.724	-8.74
1027.148	-8.14
1027.572	-10.94
1027.996	-0.74
1028.42	-0.34
1028.843	-1.94
1029.267	-7.04
1029.691	-5.64
1030.115	-3.44
1030.539	-4.84
1030.962	-9.74
1031.386	-7.44
1031.81	1.66
1032.233	1.86
1032.657	-8.34
1033.08	-4.34
1033.504	-0.84
1033.927	-4.84
1034.351	-2.04
1034.774	-1.74
1035.198	-5.34
1035.621	-4.64
1036.045	-7.24
1036.468	0.66
1036.891	-13.84
1037.315	-11.74
1037.738	-5.74
1038.161	-6.14
1038.584	-4.84
1039.008	-3.44
1039.431	-2.84
1039.854	-5.94
1040.277	-7.14
1040.7	-11.84
1041.123	-2.04
1041.546	-8.24
1041.969	-6.44
1042.392	-1.64
1042.815	-2.24
1043.238	-1.84
1043.661	-3.34
1044.084	-7.24
1044.507	-5.34
1044.93	-6.44
1045.352	-5.44
1045.775	-7.44
1046.198	3.06
1046.621	-4.14
1047.043	-5.04
1047.466	4.16
1047.889	-0.24
1048.311	-4.84
1048.734	-3.94
1049.156	-1.94
1049.579	-4.54
1050.001	-6.54
1050.424	-6.74
1050.846	-0.34
1051.269	-1.64
1051.691	-4.54
1052.113	-7.74
1052.536	3.06
1052.958	1.16
1053.38	-3.14
1053.802	-10.54
1054.225	-2.84
1054.647	-9.94
1055.069	-11.74
1055.491	0.46
1055.913	-4.74
1056.335	0.16
1056.757	-5.94
1057.179	-3.84
1057.601	-8.94
1058.023	-1.94
1058.445	-2.74
1058.867	-6.44
1059.289	-7.34
1059.711	-7.84
1060.133	-6.34
1060.555	-1.04
1060.976	-6.04
1061.398	-6.24
1061.82	-5.84
1062.241	-4.14
1062.663	-8.64
1063.085	-9.44
1063.506	-0.34
1063.928	4.06
1064.35	-0.94
1064.771	-11.74
1065.193	-3.04
1065.614	-13.84
1066.035	-4.94
1066.457	-8.44
1066.878	-5.54
1067.3	-8.64
1067.721	-8.04
1068.142	-5.44
1068.564	-0.54
1068.985	-1.44
1069.406	-5.84
1069.827	-6.04
1070.248	-3.84
1070.67	-4.74
1071.091	-2.84
1071.512	-2.64
1071.933	-8.64
1072.354	-7.44
1072.775	-4.54
1073.196	-9.84
1073.617	-5.34
1074.038	-8.24
1074.459	2.96
1074.88	-7.94
1075.3	0.36
1075.721	0.36
1076.142	-3.04
1076.563	-6.04
1076.983	-7.14
1077.404	-10.94
1077.825	-12.04
1078.246	-3.14
1078.666	-7.24
1079.087	-5.74
1079.507	-14.04
1079.928	-4.14
1080.348	-3.74
1080.769	-4.14
1081.189	-1.34
1081.61	-1.14
1082.03	-3.64
1082.451	-7.24
1082.871	-2.04
1083.291	-4.84
1083.711	-9.84
1084.132	-7.14
1084.552	-7.74
1084.972	-0.84
1085.392	-10.64
1085.813	-9.14
1086.233	-9.64
1086.653	-4.64
1087.073	-6.44
1087.493	-6.34
1087.913	-10.44
1088.333	-6.64
1088.753	-8.94
1089.173	1.06
1089.593	-5.94
1090.013	3.76
1090.433	0.36
1090.852	2.16
1091.272	-2.44
1091.692	-6.64
1092.112	-2.14
1092.531	-3.64
1092.951	-18.44
1093.371	-4.54
1093.79	-4.04
1094.21	-0.04
1094.63	-3.64
1095.049	-8.54
1095.469	-3.04
1095.888	-4.94
1096.308	-1.44
1096.727	2.66
1097.146	-5.14
1097.566	-1.34
1097.985	-10.54
1098.405	-3.44
1098.824	-5.64
1099.243	-4.84
1099.662	-4.84
1100.082	-8.24
1100.501	-3.34
1100.92	-2.84
1101.339	-3.14
1101.758	-6.04
