Data from 20171114-ORNL-Ar_H_NY_Subt18_08-08-34-765.txt Node
Date: Tue Nov 14 08:08:34 EST 2017
User: Ender
Spectrometer: HR+D1039
Trigger mode: 0
Integration Time (sec): 2.730000E-2
Scans to average: 10
Electric dark correction enabled: true
Nonlinearity correction enabled: false
Boxcar width: 0
XAxis mode: Wavelengths
Number of Pixels in Spectrum: 2048
>>>>>Begin Spectral Data<<<<<
187.836	-6.91
188.309	-6.91
188.782	-6.91
189.255	-1.81
189.728	-4.41
190.201	9.89
190.674	0.39
191.147	6.09
191.619	-12.71
192.092	-1.91
192.565	5.09
193.038	2.89
193.511	0.39
193.984	-1.61
194.456	0.99
194.929	2.29
195.402	0.89
195.874	0.39
196.347	0.19
196.82	-8.01
197.292	3.09
197.765	2.19
198.237	-8.31
198.71	3.39
199.182	-6.91
199.655	5.49
200.127	-1.71
200.6	-5.21
201.072	-2.91
201.544	-3.21
202.017	-3.71
202.489	4.89
202.961	0.29
203.433	1.89
203.906	-4.31
204.378	-8.11
204.85	-1.91
205.322	-7.51
205.794	-8.71
206.266	-4.61
206.739	-12.61
207.211	0.39
207.683	-10.61
208.155	-6.21
208.627	-10.61
209.099	-6.31
209.57	-11.61
210.042	-7.71
210.514	-6.61
210.986	-2.11
211.458	-7.61
211.93	-2.31
212.402	1.49
212.873	-3.61
213.345	-9.81
213.817	-9.21
214.288	-3.41
214.76	-7.91
215.232	-3.81
215.703	-2.91
216.175	0.89
216.646	-0.71
217.118	-7.01
217.589	-2.31
218.061	-1.51
218.532	-7.11
219.004	0.49
219.475	-4.21
219.946	-6.91
220.418	-3.61
220.889	6.09
221.36	-3.21
221.832	-7.81
222.303	-6.11
222.774	-0.41
223.245	-8.61
223.717	-10.61
224.188	-2.11
224.659	-13.31
225.13	-1.11
225.601	-0.21
226.072	-1.21
226.543	-1.31
227.014	-6.91
227.485	-3.51
227.956	-7.71
228.427	1.49
228.898	1.39
229.369	6.79
229.839	-1.81
230.31	-4.31
230.781	5.09
231.252	-8.21
231.722	-5.91
232.193	-8.11
232.664	-4.21
233.135	-0.31
233.605	-2.21
234.076	-8.81
234.546	-0.41
235.017	-5.51
235.487	-1.61
235.958	-0.61
236.428	-5.61
236.899	0.99
237.369	0.39
237.84	-0.81
238.31	4.79
238.78	2.19
239.251	2.69
239.721	-4.31
240.191	1.09
240.662	-3.31
241.132	0.69
241.602	-6.11
242.072	-2.51
242.542	3.49
243.013	-1.91
243.483	-1.91
243.953	4.29
244.423	-0.21
244.893	-9.81
245.363	3.29
245.833	4.79
246.303	1.79
246.773	5.19
247.243	1.99
247.712	-1.81
248.182	4.09
248.652	7.99
249.122	-5.71
249.592	3.79
250.061	13.89
250.531	28.19
251.001	10.59
251.471	12.79
251.94	15.19
252.41	4.49
252.879	-0.11
253.349	12.39
253.818	6.09
254.288	3.39
254.757	2.79
255.227	-1.71
255.696	1.39
256.166	4.49
256.635	4.19
257.105	9.49
257.574	2.29
258.043	10.69
258.513	5.09
258.982	15.89
259.451	4.19
259.92	9.59
260.389	7.49
260.859	8.99
261.328	5.19
261.797	14.59
262.266	6.89
262.735	8.89
263.204	5.69
263.673	-1.81
264.142	8.59
264.611	-3.31
265.08	0.49
265.549	-4.31
266.018	1.09
266.487	-2.91
266.955	-6.71
267.424	-0.81
267.893	0.19
268.362	1.19
268.83	0.19
269.299	7.49
269.768	7.89
270.236	-3.01
270.705	-4.51
271.174	6.59
271.642	3.59
272.111	3.49
272.579	11.09
273.048	9.79
273.516	16.29
273.985	10.89
274.453	12.59
274.922	12.09
275.39	5.79
275.858	2.39
276.327	5.49
276.795	17.09
277.263	7.39
277.731	17.69
278.2	39.49
278.668	35.09
279.136	31.99
279.604	14.19
280.072	12.89
280.54	6.99
281.008	10.29
281.477	11.39
281.945	11.79
282.413	20.09
282.881	13.69
283.348	3.99
283.816	8.19
284.284	13.69
284.752	20.89
285.22	15.49
285.688	11.09
286.156	15.19
286.623	27.19
287.091	34.09
287.559	28.89
288.026	15.09
288.494	9.19
288.962	2.19
289.429	11.89
289.897	18.79
290.364	10.49
290.832	11.29
291.3	13.69
291.767	19.29
292.234	18.89
292.702	9.09
293.169	13.79
293.637	18.49
294.104	15.59
294.571	6.99
295.039	6.29
295.506	9.39
295.973	13.49
296.44	11.89
296.908	11.69
297.375	13.59
297.842	16.99
298.309	9.89
298.776	9.69
299.243	15.19
299.71	10.39
300.177	21.29
300.644	15.89
301.111	19.89
301.578	16.39
302.045	13.59
302.512	20.19
302.979	17.69
303.446	16.69
303.913	14.39
304.379	15.39
304.846	20.19
305.313	15.59
305.78	19.39
306.246	25.39
306.713	23.29
307.18	15.09
307.646	19.49
308.113	26.49
308.579	21.89
309.046	21.09
309.512	24.19
309.979	14.99
310.445	27.59
310.912	20.69
311.378	31.79
311.845	21.49
312.311	33.99
312.777	27.89
313.244	28.59
313.71	33.49
314.176	20.79
314.642	24.09
315.109	28.89
315.575	29.49
316.041	33.69
316.507	30.49
316.973	33.99
317.439	24.19
317.905	33.19
318.371	23.79
318.837	30.99
319.303	30.79
319.769	32.59
320.235	33.39
320.701	26.39
321.167	31.19
321.633	27.39
322.099	30.29
322.564	33.79
323.03	32.29
323.496	28.29
323.962	33.39
324.427	30.89
324.893	39.39
325.359	33.69
325.824	31.79
326.29	26.99
326.755	33.99
327.221	34.69
327.686	34.69
328.152	39.99
328.617	39.19
329.083	40.99
329.548	43.39
330.014	40.39
330.479	35.59
330.944	39.09
331.41	40.59
331.875	38.79
332.34	39.19
332.805	42.39
333.271	41.89
333.736	38.49
334.201	45.59
334.666	48.99
335.131	49.39
335.596	51.09
336.061	44.49
336.526	39.59
336.991	47.19
337.456	54.89
337.921	41.69
338.386	41.59
338.851	51.19
339.316	41.49
339.781	40.89
340.246	43.89
340.711	40.29
341.175	43.29
341.64	33.59
342.105	45.29
342.569	49.19
343.034	51.89
343.499	47.49
343.963	49.79
344.428	57.49
344.893	56.49
345.357	56.69
345.822	53.79
346.286	60.49
346.751	66.69
347.215	59.89
347.679	70.49
348.144	91.89
348.608	78.99
349.073	64.69
349.537	71.89
350.001	73.09
350.465	85.09
350.93	74.99
351.394	71.39
351.858	65.29
352.322	80.09
352.786	73.49
353.25	94.79
353.715	102.19
354.179	101.69
354.643	107.69
355.107	114.69
355.571	90.19
356.035	96.89
356.498	108.39
356.962	101.39
357.426	119.19
357.89	107.79
358.354	86.39
358.818	76.29
359.281	70.39
359.745	70.49
360.209	74.09
360.673	78.09
361.136	78.09
361.6	77.09
362.064	70.99
362.527	82.39
362.991	85.09
363.454	73.89
363.918	72.59
364.381	73.59
364.845	76.09
365.308	87.39
365.772	78.69
366.235	80.09
366.698	79.29
367.162	82.69
367.625	77.69
368.088	82.19
368.552	79.89
369.015	80.09
369.478	93.89
369.941	99.49
370.404	93.59
370.867	86.29
371.331	97.99
371.794	108.29
372.257	103.49
372.72	105.39
373.183	105.39
373.646	94.89
374.109	96.29
374.572	104.29
375.035	106.49
375.497	106.49
375.96	98.99
376.423	97.49
376.886	106.09
377.349	109.29
377.811	94.69
378.274	102.09
378.737	98.69
379.199	110.19
379.662	105.79
380.125	111.59
380.587	111.79
381.05	115.49
381.512	122.69
381.975	124.69
382.437	129.99
382.9	116.49
383.362	121.69
383.825	130.99
384.287	136.49
384.75	128.49
385.212	135.89
385.674	132.59
386.136	130.39
386.599	123.79
387.061	125.69
387.523	128.39
387.985	130.19
388.447	137.19
388.91	140.09
389.372	142.69
389.834	144.09
390.296	141.69
390.758	147.19
391.22	153.99
391.682	194.89
392.144	248.99
392.606	201.79
393.068	152.69
393.529	157.59
393.991	154.29
394.453	146.59
394.915	151.79
395.377	172.89
395.838	190.89
396.3	150.09
396.762	142.79
397.224	135.09
397.685	133.09
398.147	131.39
398.608	126.99
399.07	133.79
399.531	137.29
399.993	141.29
400.454	150.79
400.916	145.69
401.377	147.19
401.839	150.39
402.3	147.29
402.762	159.09
403.223	183.49
403.684	166.29
404.145	158.19
404.607	162.79
405.068	164.99
405.529	163.09
405.99	181.39
406.451	167.49
406.913	164.19
407.374	169.69
407.835	154.89
408.296	165.19
408.757	167.49
409.218	186.09
409.679	179.49
410.14	177.09
410.601	173.29
411.062	186.89
411.522	189.69
411.983	184.29
412.444	177.39
412.905	182.29
413.366	188.09
413.826	190.69
414.287	212.29
414.748	266.09
415.208	247.69
415.669	206.09
416.13	211.09
416.59	207.19
417.051	211.59
417.511	216.59
417.972	235.19
418.432	249.09
418.893	295.19
419.353	247.59
419.814	200.99
420.274	182.49
420.734	183.89
421.195	194.99
421.655	196.69
422.115	194.19
422.576	192.39
423.036	198.69
423.496	207.49
423.956	216.09
424.416	232.29
424.876	263.59
425.336	258.29
425.797	262.69
426.257	254.89
426.717	236.99
427.177	235.89
427.637	220.19
428.097	230.99
428.556	249.79
429.016	264.89
429.476	259.59
429.936	271.49
430.396	270.89
430.856	283.99
431.315	316.49
431.775	349.49
432.235	374.79
432.694	346.89
433.154	352.59
433.614	390.69
434.073	342.29
434.533	286.19
434.993	270.79
435.452	276.79
435.912	283.79
436.371	288.19
436.83	281.19
437.29	266.19
437.749	243.29
438.209	241.49
438.668	270.79
439.127	277.99
439.587	268.99
440.046	249.19
440.505	264.59
440.964	277.19
441.424	322.29
441.883	312.79
442.342	260.89
442.801	222.09
443.26	223.29
443.719	228.09
444.178	225.19
444.637	212.19
445.096	227.39
445.555	229.59
446.014	226.59
446.473	231.99
446.932	227.59
447.391	222.69
447.849	231.89
448.308	221.59
448.767	218.19
449.226	242.59
449.685	237.79
450.143	254.69
450.602	243.29
451.061	223.29
451.519	231.69
451.978	235.59
452.436	234.59
452.895	234.29
453.353	257.39
453.812	242.49
454.27	236.49
454.729	236.59
455.187	249.99
455.646	247.59
456.104	250.99
456.562	263.49
457.021	275.29
457.479	262.59
457.937	276.99
458.395	266.49
458.854	251.29
459.312	261.89
459.77	279.39
460.228	254.29
460.686	243.99
461.144	250.99
461.602	251.99
462.06	253.69
462.518	250.49
462.976	254.09
463.434	253.09
463.892	268.49
464.35	279.59
464.808	285.39
465.266	266.49
465.724	269.49
466.181	272.89
466.639	273.29
467.097	296.49
467.555	294.09
468.012	300.19
468.47	309.79
468.928	330.89
469.385	342.59
469.843	347.49
470.3	346.09
470.758	365.89
471.215	397.19
471.673	412.19
472.13	407.29
472.588	426.29
473.045	378.99
473.503	380.99
473.96	390.29
474.417	405.99
474.875	429.29
475.332	475.49
475.789	464.69
476.246	474.59
476.704	489.69
477.161	516.29
477.618	531.49
478.075	563.29
478.532	617.29
478.989	680.49
479.446	797.49
479.903	763.69
480.36	794.39
480.817	851.39
481.274	954.79
481.731	1039.69
482.188	1120.69
482.645	1247.49
483.102	1349.69
483.558	1469.49
484.015	1525.79
484.472	1487.59
484.929	1448.49
485.385	1409.29
485.842	1370.89
486.299	1315.29
486.755	1264.29
487.212	1073.79
487.668	912.39
488.125	831.99
488.582	778.09
489.038	741.59
489.494	704.39
489.951	676.29
490.407	662.69
490.864	637.39
491.32	636.29
491.776	639.49
492.233	643.79
492.689	608.79
493.145	598.49
493.602	596.99
494.058	605.69
494.514	609.99
494.97	636.89
495.426	648.19
495.882	628.69
496.338	602.79
496.794	627.59
497.251	610.59
497.707	626.99
498.163	628.39
498.618	633.49
499.074	633.99
499.53	673.19
499.986	667.19
500.442	644.29
500.898	628.49
501.354	617.59
501.809	631.69
502.265	634.29
502.721	648.79
503.177	662.59
503.632	671.09
504.088	669.39
504.543	700.09
504.999	706.99
505.455	655.09
505.91	630.19
506.366	624.09
506.821	628.59
507.277	622.29
507.732	633.79
508.187	620.69
508.643	634.49
509.098	633.49
509.553	654.59
510.009	679.69
510.464	674.79
510.919	685.49
511.375	699.59
511.83	712.49
512.285	723.49
512.74	747.49
513.195	778.49
513.65	767.19
514.105	774.89
514.56	773.89
515.015	793.79
515.47	799.69
515.925	782.29
516.38	782.49
516.835	787.09
517.29	774.19
517.745	768.59
518.2	762.09
518.655	741.99
519.109	736.99
519.564	742.39
520.019	728.49
520.474	724.19
520.928	728.59
521.383	711.09
521.838	699.69
522.292	712.19
522.747	706.29
523.201	712.59
523.656	702.19
524.11	690.89
524.565	692.89
525.019	687.69
525.474	691.49
525.928	695.79
526.382	697.29
526.837	694.79
527.291	707.09
527.745	685.39
528.2	697.69
528.654	696.39
529.108	686.19
529.562	691.09
530.016	682.59
530.47	690.59
530.925	696.09
531.379	689.69
531.833	701.59
532.287	695.99
532.741	694.89
533.195	701.69
533.649	704.49
534.103	715.09
534.556	700.79
535.01	706.69
535.464	710.19
535.918	718.49
536.372	722.49
536.826	714.99
537.279	702.49
537.733	708.49
538.187	712.79
538.64	717.79
539.094	719.99
539.548	728.79
540.001	722.59
540.455	717.49
540.908	739.89
541.362	736.89
541.815	752.29
542.269	756.69
542.722	768.69
543.175	766.89
543.629	771.09
544.082	781.79
544.536	792.49
544.989	795.89
545.442	795.99
545.895	782.89
546.349	782.89
546.802	801.19
547.255	802.69
547.708	805.09
548.161	813.99
548.614	822.59
549.067	833.99
549.52	815.59
549.973	807.49
550.426	816.49
550.879	803.49
551.332	808.69
551.785	807.69
552.238	809.19
552.691	821.09
553.144	842.99
553.596	859.19
554.049	871.39
554.502	892.89
554.955	909.19
555.407	902.19
555.86	901.79
556.313	887.59
556.765	884.29
557.218	893.49
557.67	884.09
558.123	879.69
558.576	870.99
559.028	880.59
559.48	878.09
559.933	876.79
560.385	847.89
560.838	808.49
561.29	787.19
561.742	785.39
562.195	769.99
562.647	764.69
563.099	774.29
563.551	773.29
564.004	787.59
564.456	767.69
564.908	761.69
565.36	742.79
565.812	730.49
566.264	730.09
566.716	734.59
567.168	714.19
567.62	715.79
568.072	701.49
568.524	693.99
568.976	699.39
569.428	678.49
569.88	677.99
570.332	690.39
570.784	680.79
571.235	687.79
571.687	691.69
572.139	709.99
572.59	716.69
573.042	715.19
573.494	707.49
573.945	711.69
574.397	687.19
574.849	690.99
575.3	693.79
575.752	682.69
576.203	685.49
576.655	679.39
577.106	671.49
577.557	666.29
578.009	672.39
578.46	676.39
578.912	667.49
579.363	668.79
579.814	668.09
580.265	666.39
580.717	676.39
581.168	673.49
581.619	682.99
582.07	675.69
582.521	668.79
582.972	677.69
583.423	691.79
583.875	679.69
584.326	701.99
584.777	741.99
585.227	799.09
585.678	852.09
586.129	928.99
586.58	987.39
587.031	1042.19
587.482	1158.79
587.933	1285.89
588.384	1153.89
588.834	911.79
589.285	811.59
589.736	789.59
590.186	775.69
590.637	771.59
591.088	752.39
591.538	753.59
591.989	739.59
592.439	725.59
592.89	724.79
593.34	713.69
593.791	709.69
594.241	703.39
594.692	714.99
595.142	697.19
595.593	711.79
596.043	711.29
596.493	715.49
596.943	723.69
597.394	730.59
597.844	714.09
598.294	745.59
598.744	765.69
599.195	785.19
599.645	822.89
600.095	870.79
600.545	931.09
600.995	977.89
601.445	1025.99
601.895	1094.19
602.345	1139.09
602.795	1123.09
603.245	1076.99
603.695	1014.69
604.145	965.39
604.594	918.49
605.044	854.49
605.494	803.99
605.944	763.79
606.393	753.99
606.843	724.69
607.293	739.29
607.743	737.29
608.192	761.39
608.642	767.49
609.091	772.99
609.541	776.69
609.99	775.19
610.44	771.59
610.889	726.99
611.339	698.19
611.788	690.09
612.238	702.69
612.687	722.39
613.136	721.89
613.586	737.79
614.035	723.49
614.484	742.39
614.933	745.09
615.383	742.89
615.832	732.59
616.281	723.09
616.73	685.19
617.179	668.19
617.628	656.49
618.077	633.69
618.526	633.59
618.975	616.29
619.424	620.39
619.873	623.69
620.322	623.19
620.771	611.69
621.22	612.49
621.669	600.79
622.118	588.09
622.567	592.29
623.015	572.19
623.464	581.69
623.913	571.59
624.361	558.79
624.81	558.89
625.259	563.19
625.707	563.29
626.156	560.69
626.604	569.19
627.053	565.59
627.501	568.69
627.95	582.99
628.398	581.59
628.847	582.09
629.295	574.39
629.744	582.29
630.192	576.59
630.64	573.49
631.089	564.49
631.537	575.79
631.985	571.79
632.433	579.19
632.881	594.49
633.33	631.59
633.778	610.09
634.226	569.99
634.674	565.19
635.122	572.19
635.57	588.59
636.018	610.59
636.466	583.89
636.914	558.09
637.362	578.19
637.81	578.09
638.258	588.19
638.705	584.29
639.153	614.59
639.601	627.49
640.049	644.39
640.497	685.39
640.944	710.49
641.392	650.29
641.84	612.49
642.287	587.29
642.735	571.79
643.182	572.49
643.63	569.29
644.078	578.49
644.525	596.09
644.973	601.69
645.42	615.99
645.867	638.09
646.315	645.69
646.762	662.99
647.21	696.39
647.657	707.79
648.104	747.09
648.551	777.39
648.999	839.69
649.446	922.19
649.893	1003.79
650.34	1150.59
650.787	1385.39
651.234	1709.29
651.682	2238.49
652.129	3058.79
652.576	4401.49
653.023	6438.89
653.47	8736.99
653.917	10814.29
654.363	12415.09
654.81	13644.69
655.257	12949.59
655.704	8498.09
656.151	5080.99
656.598	3313.99
657.044	2368.49
657.491	1829.59
657.938	1456.89
658.385	1229.89
658.831	1086.39
659.278	956.89
659.724	861.19
660.171	786.69
660.618	724.19
661.064	688.99
661.511	666.49
661.957	653.89
662.404	643.39
662.85	657.89
663.296	630.89
663.743	566.59
664.189	551.09
664.635	533.39
665.082	532.09
665.528	531.79
665.974	520.99
666.42	512.89
666.867	503.49
667.313	491.59
667.759	481.69
668.205	473.59
668.651	473.79
669.097	472.89
669.543	476.39
669.989	474.09
670.435	456.89
670.881	451.59
671.327	452.79
671.773	477.89
672.219	496.19
672.665	562.69
673.11	597.09
673.556	636.79
674.002	675.49
674.448	659.59
674.893	557.69
675.339	485.29
675.785	446.39
676.23	422.59
676.676	394.39
677.122	385.29
677.567	374.49
678.013	384.89
678.458	363.09
678.904	372.09
679.349	349.09
679.794	362.99
680.24	357.69
680.685	361.19
681.131	352.69
681.576	350.09
682.021	363.69
682.466	353.39
682.912	361.49
683.357	352.59
683.802	386.99
684.247	419.19
684.692	458.39
685.137	500.79
685.583	540.59
686.028	572.49
686.473	524.49
686.918	451.19
687.363	415.99
687.807	400.89
688.252	372.79
688.697	364.99
689.142	345.99
689.587	334.69
690.032	335.49
690.477	353.59
690.921	355.69
691.366	396.39
691.811	418.19
692.255	437.99
692.7	482.79
693.145	520.99
693.589	728.79
694.034	1178.19
694.478	1585.69
694.923	1746.19
695.367	2266.59
695.812	1213.29
696.256	512.49
696.701	372.69
697.145	351.59
697.59	335.99
698.034	324.39
698.478	333.79
698.922	324.89
699.367	324.59
699.811	338.69
700.255	364.59
700.699	394.89
701.143	439.29
701.588	496.49
702.032	527.79
702.476	506.69
702.92	503.99
703.364	504.09
703.808	666.59
704.252	1077.99
704.696	1504.19
705.14	1684.39
705.584	2142.89
706.027	1077.29
706.471	529.49
706.915	402.99
707.359	355.59
707.803	325.59
708.246	314.29
708.69	318.69
709.134	315.89
709.577	311.19
710.021	323.29
710.465	312.49
710.908	314.29
711.352	301.69
711.795	318.89
712.239	367.19
712.682	397.69
713.126	425.49
713.569	474.69
714.012	383.69
714.456	319.69
714.899	301.89
715.342	285.29
715.786	265.99
716.229	266.89
716.672	263.69
717.115	252.79
717.558	250.59
718.002	263.39
718.445	268.89
718.888	288.79
719.331	306.29
719.774	313.29
720.217	303.29
720.66	291.69
721.103	266.69
721.546	258.79
721.989	256.59
722.432	237.09
722.874	241.19
723.317	236.19
723.76	235.09
724.203	265.59
724.645	327.29
725.088	466.09
725.531	582.59
725.974	640.99
726.416	552.29
726.859	317.49
727.301	249.39
727.744	239.79
728.187	240.49
728.629	245.19
729.071	250.89
729.514	267.99
729.956	277.09
730.399	294.49
730.841	300.99
731.283	285.19
731.726	286.39
732.168	274.59
732.61	269.79
733.053	291.29
733.495	327.99
733.937	361.59
734.379	397.89
734.821	450.29
735.263	555.29
735.705	881.49
736.148	1666.89
736.59	2644.89
737.032	3048.89
737.474	2492.39
737.916	829.49
738.357	436.99
738.799	336.99
739.241	304.09
739.683	287.09
740.125	295.89
740.567	303.69
741.008	320.39
741.45	320.39
741.892	327.39
742.334	349.99
742.775	365.09
743.217	347.19
743.658	279.19
744.1	260.19
744.542	269.59
744.983	328.99
745.425	349.39
745.866	345.49
746.307	284.69
746.749	289.59
747.19	334.09
747.632	476.69
748.073	948.79
748.514	1959.09
748.956	2921.29
749.397	3662.99
749.838	3038.39
750.279	2954.39
750.72	1510.29
751.162	566.29
751.603	328.39
752.044	259.39
752.485	223.39
752.926	222.59
753.367	202.99
753.808	201.59
754.249	188.29
754.69	192.89
755.131	183.39
755.572	182.19
756.013	181.59
756.453	184.99
756.894	194.79
757.335	191.09
757.776	206.39
758.216	201.79
758.657	197.59
759.098	211.39
759.538	227.79
759.979	271.79
760.42	386.09
760.86	748.79
761.301	1966.79
761.741	4620.59
762.182	6417.79
762.622	4539.29
763.063	1329.29
763.503	549.19
763.943	347.49
764.384	328.39
764.824	352.89
765.264	376.79
765.705	277.29
766.145	201.79
766.585	193.29
767.025	178.79
767.465	186.59
767.906	228.59
768.346	281.99
768.786	301.09
769.226	246.79
769.666	330.99
770.106	665.79
770.546	1655.99
770.986	2662.49
771.426	2356.99
771.866	799.39
772.306	336.29
772.745	207.19
773.185	174.89
773.625	167.79
774.065	166.79
774.505	194.59
774.944	286.89
775.384	585.79
775.824	988.39
776.263	955.29
776.703	424.09
777.142	201.89
777.582	151.99
778.021	132.89
778.461	138.59
778.9	140.69
779.34	134.79
779.779	115.89
780.219	114.29
780.658	109.19
781.097	112.99
781.537	117.19
781.976	109.59
782.415	106.09
782.855	105.99
783.294	109.39
783.733	114.89
784.172	118.79
784.611	101.79
785.05	108.99
785.489	118.49
785.928	120.09
786.367	118.49
786.806	121.09
787.245	136.39
787.684	132.29
788.123	149.09
788.562	136.39
789.001	134.79
789.44	124.59
789.879	120.29
790.317	120.79
790.756	129.09
791.195	137.09
791.634	145.29
792.072	211.09
792.511	387.99
792.95	1069.09
793.388	2178.99
793.827	1923.19
794.265	679.79
794.704	289.29
795.142	187.39
795.581	153.89
796.019	140.29
796.458	125.29
796.896	125.29
797.334	127.09
797.773	157.39
798.211	237.99
798.649	471.39
799.087	1061.39
799.526	1624.79
799.964	2065.29
800.402	2015.99
800.84	772.89
801.278	312.89
801.716	193.09
802.154	158.39
802.592	147.49
803.03	146.19
803.468	141.09
803.906	148.29
804.344	151.49
804.782	150.89
805.22	137.99
805.658	132.19
806.096	149.29
806.533	161.29
806.971	180.49
807.409	221.59
807.847	336.79
808.284	710.69
808.722	1953.89
809.16	3322.19
809.597	3258.29
810.035	5583.39
810.472	5737.09
810.91	2108.49
811.347	815.39
811.785	414.19
812.222	266.49
812.66	202.49
813.097	170.09
813.535	143.39
813.972	135.79
814.409	120.29
814.846	112.49
815.284	111.29
815.721	111.39
816.158	106.89
816.595	126.99
817.032	169.39
817.47	187.69
817.907	146.29
818.344	132.09
818.781	108.19
819.218	98.39
819.655	123.69
820.092	193.59
820.529	217.09
820.966	179.39
821.403	132.59
821.839	104.89
822.276	101.79
822.713	124.79
823.15	133.49
823.587	131.19
824.023	153.39
824.46	327.59
824.897	943.39
825.333	1371.89
825.77	585.69
826.206	241.09
826.643	135.39
827.08	100.09
827.516	86.59
827.953	74.09
828.389	76.99
828.825	67.79
829.262	67.59
829.698	64.39
830.135	62.39
830.571	61.69
831.007	69.89
831.443	65.09
831.88	68.59
832.316	62.49
832.752	65.59
833.188	65.59
833.624	68.59
834.06	73.49
834.497	73.09
834.933	68.39
835.369	74.99
835.805	66.69
836.241	77.29
836.677	83.49
837.112	95.39
837.548	108.99
837.984	138.09
838.42	210.29
838.856	525.29
839.292	1571.09
839.727	2316.19
840.163	1091.19
840.599	973.69
841.034	2097.09
841.47	2095.59
841.906	781.79
842.341	339.19
842.777	228.79
843.212	276.69
843.648	263.69
844.083	135.39
844.519	92.59
844.954	79.89
845.39	53.39
845.825	54.09
846.261	55.79
846.696	54.49
847.131	57.19
847.566	59.69
848.002	47.99
848.437	52.99
848.872	60.29
849.307	58.89
849.742	86.59
850.177	187.59
850.613	580.09
851.048	876.89
851.483	384.49
851.918	161.59
852.353	90.29
852.788	60.09
853.223	56.49
853.657	55.09
854.092	50.69
854.527	42.09
854.962	40.89
855.397	44.09
855.832	49.19
856.266	45.69
856.701	40.69
857.136	35.09
857.57	40.19
858.005	51.29
858.44	55.49
858.874	37.79
859.309	49.79
859.743	42.09
860.178	45.79
860.612	44.89
861.047	52.79
861.481	66.39
861.915	66.89
862.35	48.79
862.784	37.79
863.218	36.39
863.653	39.19
864.087	49.09
864.521	54.79
864.955	72.19
865.39	160.69
865.824	187.29
866.258	111.59
866.692	171.59
867.126	181.39
867.56	106.39
867.994	50.89
868.428	37.49
868.862	46.89
869.296	58.59
869.73	60.19
870.164	55.49
870.598	47.79
871.031	32.59
871.465	32.79
871.899	28.49
872.333	28.99
872.766	22.29
873.2	21.39
873.634	34.19
874.067	29.09
874.501	28.09
874.935	36.29
875.368	32.79
875.802	27.49
876.235	28.69
876.669	27.29
877.102	26.99
877.535	29.99
877.969	23.99
878.402	24.59
878.836	17.39
879.269	23.69
879.702	26.89
880.135	25.39
880.569	21.39
881.002	26.79
881.435	16.59
881.868	16.79
882.301	24.19
882.734	20.59
883.167	22.49
883.601	17.99
884.034	19.89
884.467	9.09
884.899	23.89
885.332	19.39
885.765	10.49
886.198	15.69
886.631	14.89
887.064	17.99
887.497	24.89
887.929	23.59
888.362	15.69
888.795	9.59
889.228	21.99
889.66	20.19
890.093	18.39
890.526	15.09
890.958	19.89
891.391	22.79
891.823	23.29
892.256	8.79
892.688	6.59
893.121	12.09
893.553	15.39
893.985	21.29
894.418	14.59
894.85	11.99
895.282	18.49
895.715	19.79
896.147	13.69
896.579	20.19
897.011	18.79
897.444	15.59
897.876	13.99
898.308	15.39
898.74	16.39
899.172	16.29
899.604	20.59
900.036	16.19
900.468	17.09
900.9	12.49
901.332	20.59
901.764	11.89
902.196	19.89
902.628	21.29
903.06	15.79
903.491	25.39
903.923	28.79
904.355	26.29
904.787	20.89
905.218	21.09
905.65	22.09
906.082	10.69
906.513	12.49
906.945	15.89
907.376	16.49
907.808	23.39
908.239	21.59
908.671	20.19
909.102	19.69
909.534	28.39
909.965	49.49
910.397	100.19
910.828	327.89
911.259	478.89
911.691	215.49
912.122	112.19
912.553	47.69
912.984	35.49
913.415	18.69
913.847	26.49
914.278	17.39
914.709	15.69
915.14	19.49
915.571	19.49
916.002	13.29
916.433	21.79
916.864	17.59
917.295	15.49
917.726	22.29
918.157	19.89
918.587	29.39
919.018	25.89
919.449	18.99
919.88	27.59
920.311	32.19
920.741	45.49
921.172	165.69
921.603	148.79
922.033	76.69
922.464	50.09
922.895	21.49
923.325	19.79
923.756	16.79
924.186	16.29
924.617	25.89
925.047	40.09
925.478	41.59
925.908	39.09
926.338	29.39
926.769	17.59
927.199	15.69
927.629	2.59
928.06	13.69
928.49	13.89
928.92	12.89
929.35	9.99
929.78	11.59
930.21	7.39
930.641	10.89
931.071	8.19
931.501	6.39
931.931	9.89
932.361	8.19
932.791	-1.81
933.221	2.39
933.651	2.19
934.08	17.69
934.51	33.29
934.94	6.29
935.37	4.89
935.8	8.39
936.229	9.89
936.659	9.89
937.089	9.29
937.519	11.19
937.948	21.49
938.378	17.79
938.807	7.29
939.237	3.59
939.666	6.09
940.096	-1.61
940.525	1.39
940.955	4.19
941.384	7.29
941.814	-4.11
942.243	-4.61
942.672	3.59
943.102	5.19
943.531	1.39
943.96	4.59
944.39	2.99
944.819	2.69
945.248	3.89
945.677	3.29
946.106	10.79
946.535	5.39
946.964	3.49
947.393	5.09
947.822	2.89
948.251	-5.21
948.68	7.19
949.109	3.99
949.538	3.89
949.967	2.19
950.396	0.09
950.825	-1.01
951.254	3.89
951.682	-5.11
952.111	3.09
952.54	5.59
952.969	-6.01
953.397	-5.91
953.826	2.89
954.254	-9.81
954.683	7.29
955.112	-4.21
955.54	4.79
955.969	-0.91
956.397	0.49
956.826	-2.71
957.254	5.19
957.682	0.89
958.111	4.79
958.539	3.29
958.967	3.69
959.396	-5.41
959.824	3.89
960.252	-1.11
960.68	-2.91
961.109	3.49
961.537	-11.11
961.965	-1.91
962.393	2.09
962.821	0.49
963.249	4.09
963.677	5.59
964.105	2.99
964.533	47.09
964.961	41.09
965.389	21.79
965.817	11.89
966.245	5.69
966.672	-0.11
967.1	0.69
967.528	-1.21
967.956	-1.01
968.383	4.59
968.811	2.79
969.239	-3.51
969.666	-6.21
970.094	-1.41
970.522	6.59
970.949	-4.81
971.377	-2.21
971.804	-5.31
972.232	-5.51
972.659	2.79
973.087	-2.21
973.514	-3.91
973.941	-2.01
974.369	8.79
974.796	-3.71
975.223	-0.91
975.651	1.29
976.078	3.69
976.505	-5.81
976.932	2.19
977.359	15.29
977.786	16.09
978.214	-2.01
978.641	2.99
979.068	0.39
979.495	-8.21
979.922	-5.11
980.349	-1.61
980.776	0.59
981.202	-6.21
981.629	7.89
982.056	5.99
982.483	-2.91
982.91	4.09
983.337	-4.41
983.763	0.09
984.19	-0.21
984.617	2.69
985.043	-3.01
985.47	-0.21
985.897	-7.81
986.323	-8.41
986.75	2.09
987.176	-1.01
987.603	-1.61
988.029	1.89
988.456	0.29
988.882	1.99
989.308	-8.41
989.735	-2.71
990.161	-2.11
990.587	-5.71
991.014	2.99
991.44	3.69
991.866	-3.91
992.292	-8.31
992.719	-4.21
993.145	5.39
993.571	-6.81
993.997	-5.11
994.423	-2.41
994.849	-2.71
995.275	4.59
995.701	4.49
996.127	-3.01
996.553	-2.81
996.979	-0.71
997.405	0.19
997.83	-3.61
998.256	-5.31
998.682	-8.01
999.108	-7.31
999.534	-0.11
999.959	-5.71
1000.385	-4.31
1000.811	1.79
1001.236	-9.21
1001.662	-7.11
1002.087	-3.31
1002.513	1.59
1002.938	3.99
1003.364	1.29
1003.789	2.19
1004.215	3.99
1004.64	-1.91
1005.066	2.09
1005.491	1.99
1005.916	-5.61
1006.342	-3.51
1006.767	-4.81
1007.192	6.79
1007.617	-4.41
1008.042	-5.61
1008.468	-8.81
1008.893	-6.11
1009.318	-3.61
1009.743	-0.41
1010.168	3.59
1010.593	0.89
1011.018	-8.51
1011.443	-1.71
1011.868	3.69
1012.293	-5.31
1012.718	-3.51
1013.143	-3.21
1013.567	4.99
1013.992	-3.81
1014.417	-13.31
1014.842	5.79
1015.267	-8.31
1015.691	-8.51
1016.116	6.09
1016.541	-5.31
1016.965	-0.21
1017.39	-0.21
1017.814	-2.91
1018.239	-3.61
1018.663	-3.01
1019.088	-12.61
1019.512	0.59
1019.937	-3.71
1020.361	-7.71
1020.785	-11.31
1021.21	-5.01
1021.634	-0.11
1022.058	1.99
1022.483	8.09
1022.907	-0.01
1023.331	-1.31
1023.755	-3.41
1024.179	-5.11
1024.604	-1.31
1025.028	-3.71
1025.452	-0.61
1025.876	-7.11
1026.3	-4.31
1026.724	-10.81
1027.148	-1.81
1027.572	-8.91
1027.996	-6.51
1028.42	-3.41
1028.843	-4.31
1029.267	-3.71
1029.691	-1.91
1030.115	-6.01
1030.539	-10.31
1030.962	-2.61
1031.386	-8.01
1031.81	1.39
1032.233	1.89
1032.657	3.09
1033.08	-4.21
1033.504	-1.81
1033.927	-1.61
1034.351	-0.61
1034.774	-8.01
1035.198	-4.11
1035.621	-9.31
1036.045	-7.81
1036.468	3.69
1036.891	-11.31
1037.315	-4.91
1037.738	-5.61
1038.161	-1.21
1038.584	-1.21
1039.008	-3.91
1039.431	1.59
1039.854	-4.21
1040.277	-9.31
1040.7	-8.51
1041.123	-0.51
1041.546	-7.21
1041.969	-1.61
1042.392	-7.51
1042.815	-1.61
1043.238	0.79
1043.661	-1.61
1044.084	-10.11
1044.507	-5.91
1044.93	-6.91
1045.352	-8.51
1045.775	-1.41
1046.198	-6.81
1046.621	-0.71
1047.043	0.39
1047.466	1.89
1047.889	-2.51
1048.311	-1.81
1048.734	-6.91
1049.156	-6.11
1049.579	-2.71
1050.001	-3.31
1050.424	-1.41
1050.846	-4.61
1051.269	-4.71
1051.691	-10.91
1052.113	-7.81
1052.536	-2.91
1052.958	-2.01
1053.38	-9.11
1053.802	-10.01
1054.225	0.39
1054.647	-4.21
1055.069	-3.71
1055.491	5.99
1055.913	-1.31
1056.335	-4.31
1056.757	-4.31
1057.179	-4.91
1057.601	-10.61
1058.023	-2.31
1058.445	-8.01
1058.867	-2.61
1059.289	-6.61
1059.711	-3.01
1060.133	-2.81
1060.555	-2.41
1060.976	-9.01
1061.398	-5.11
1061.82	-4.01
1062.241	1.79
1062.663	-10.51
1063.085	-5.41
1063.506	1.09
1063.928	-7.91
1064.35	-4.91
1064.771	-13.31
1065.193	-2.11
1065.614	-6.61
1066.035	-9.21
1066.457	-0.41
1066.878	0.99
1067.3	-5.91
1067.721	-4.21
1068.142	-7.11
1068.564	0.79
1068.985	-0.91
1069.406	-5.51
1069.827	-10.21
1070.248	0.99
1070.67	-7.61
1071.091	-3.61
1071.512	-2.61
1071.933	-3.31
1072.354	-12.71
1072.775	-3.61
1073.196	-6.51
1073.617	-0.71
1074.038	-7.01
1074.459	-3.51
1074.88	-6.71
1075.3	1.19
1075.721	-8.41
1076.142	0.59
1076.563	-1.31
1076.983	-4.41
1077.404	-5.61
1077.825	-11.91
1078.246	-1.11
1078.666	-15.61
1079.087	-2.01
1079.507	-5.81
1079.928	0.29
1080.348	0.49
1080.769	-4.01
1081.189	2.99
1081.61	-6.51
1082.03	-4.51
1082.451	-9.11
1082.871	-2.81
1083.291	-3.51
1083.711	-9.01
1084.132	-5.71
1084.552	-2.41
1084.972	-2.11
1085.392	-10.61
1085.813	-7.61
1086.233	-8.01
1086.653	-6.01
1087.073	-1.81
1087.493	-5.91
1087.913	-3.11
1088.333	-10.51
1088.753	-8.51
1089.173	3.99
1089.593	-1.21
1090.013	0.59
1090.433	3.29
1090.852	-4.61
1091.272	-1.31
1091.692	-3.91
1092.112	-2.01
1092.531	-7.11
1092.951	-14.31
1093.371	-4.51
1093.79	1.49
1094.21	-4.71
1094.63	-3.01
1095.049	-1.81
1095.469	-1.61
1095.888	-1.51
1096.308	-3.41
1096.727	4.69
1097.146	-3.61
1097.566	-2.61
1097.985	-6.11
1098.405	-2.91
1098.824	-3.51
1099.243	-5.71
1099.662	-5.41
1100.082	-6.01
1100.501	-3.31
1100.92	-4.81
1101.339	-6.21
1101.758	-2.81
