Data from 20171114-ORNL-Ar_H_NY_Subt18_08-06-10-361.txt Node
Date: Tue Nov 14 08:06:10 EST 2017
User: Ender
Spectrometer: HR+D1039
Trigger mode: 0
Integration Time (sec): 2.730000E-2
Scans to average: 10
Electric dark correction enabled: true
Nonlinearity correction enabled: false
Boxcar width: 0
XAxis mode: Wavelengths
Number of Pixels in Spectrum: 2048
>>>>>Begin Spectral Data<<<<<
187.836	-0.03
188.309	-0.03
188.782	-0.03
189.255	-2.53
189.728	-3.93
190.201	5.27
190.674	2.37
191.147	5.97
191.619	-8.93
192.092	-0.53
192.565	4.37
193.038	-0.73
193.511	-0.53
193.984	0.57
194.456	1.67
194.929	-3.03
195.402	1.37
195.874	-1.33
196.347	4.37
196.82	-7.43
197.292	1.67
197.765	0.77
198.237	-5.63
198.71	0.07
199.182	-0.23
199.655	6.47
200.127	7.37
200.6	1.57
201.072	-4.03
201.544	0.17
202.017	-3.13
202.489	0.77
202.961	-5.03
203.433	-1.53
203.906	-0.63
204.378	-6.63
204.85	-6.03
205.322	-11.33
205.794	-2.63
206.266	-4.13
206.739	-7.63
207.211	2.77
207.683	-4.73
208.155	-2.33
208.627	-9.13
209.099	-2.33
209.57	-9.43
210.042	-4.43
210.514	-4.53
210.986	3.87
211.458	-6.63
211.93	0.97
212.402	0.27
212.873	-3.03
213.345	-5.53
213.817	-11.93
214.288	-3.23
214.76	-7.63
215.232	-9.63
215.703	-8.03
216.175	-5.73
216.646	-5.13
217.118	-3.33
217.589	-0.23
218.061	-2.63
218.532	0.47
219.004	-2.13
219.475	-7.93
219.946	-3.03
220.418	-5.53
220.889	0.87
221.36	-3.53
221.832	-6.23
222.303	-7.63
222.774	1.57
223.245	-4.53
223.717	-6.03
224.188	-2.63
224.659	-8.33
225.13	-5.63
225.601	-2.53
226.072	-0.03
226.543	-1.93
227.014	-1.93
227.485	0.67
227.956	-4.23
228.427	-2.03
228.898	3.07
229.369	3.27
229.839	-5.23
230.31	-0.33
230.781	1.07
231.252	-3.73
231.722	-4.53
232.193	-3.13
232.664	3.87
233.135	-2.33
233.605	-1.83
234.076	-0.03
234.546	0.27
235.017	-1.23
235.487	-3.83
235.958	-4.13
236.428	0.67
236.899	-0.23
237.369	-2.53
237.84	2.77
238.31	3.87
238.78	5.27
239.251	-0.03
239.721	5.57
240.191	2.57
240.662	3.17
241.132	8.07
241.602	-3.73
242.072	1.57
242.542	6.27
243.013	-0.53
243.483	9.47
243.953	1.47
244.423	-3.43
244.893	2.57
245.363	-0.53
245.833	2.27
246.303	-3.13
246.773	7.37
247.243	4.67
247.712	7.77
248.182	11.27
248.652	1.37
249.122	-2.43
249.592	10.57
250.061	21.57
250.531	35.37
251.001	16.87
251.471	27.37
251.94	25.27
252.41	4.17
252.879	4.57
253.349	15.27
253.818	13.57
254.288	3.57
254.757	8.77
255.227	2.07
255.696	0.27
256.166	8.47
256.635	10.47
257.105	13.87
257.574	8.67
258.043	8.47
258.513	11.47
258.982	10.47
259.451	15.17
259.92	11.97
260.389	8.77
260.859	21.27
261.328	11.17
261.797	18.27
262.266	7.07
262.735	11.47
263.204	3.27
263.673	0.87
264.142	6.27
264.611	-5.93
265.08	3.17
265.549	7.27
266.018	3.97
266.487	-1.73
266.955	2.27
267.424	4.07
267.893	2.57
268.362	3.37
268.83	3.97
269.299	8.97
269.768	8.07
270.236	12.57
270.705	3.47
271.174	10.17
271.642	6.47
272.111	13.17
272.579	19.47
273.048	28.47
273.516	31.67
273.985	30.57
274.453	24.57
274.922	15.27
275.39	9.07
275.858	3.77
276.327	8.57
276.795	12.27
277.263	12.17
277.731	30.47
278.2	56.87
278.668	57.27
279.136	47.27
279.604	17.67
280.072	15.27
280.54	15.07
281.008	9.07
281.477	13.07
281.945	12.07
282.413	16.07
282.881	15.07
283.348	10.57
283.816	14.77
284.284	21.27
284.752	22.77
285.22	10.37
285.688	17.77
286.156	18.37
286.623	40.87
287.091	54.67
287.559	31.07
288.026	26.17
288.494	24.27
288.962	5.97
289.429	12.17
289.897	24.07
290.364	14.97
290.832	13.27
291.3	19.67
291.767	19.87
292.234	20.17
292.702	19.67
293.169	22.17
293.637	24.17
294.104	20.17
294.571	10.67
295.039	14.87
295.506	16.17
295.973	16.77
296.44	11.77
296.908	21.07
297.375	26.47
297.842	19.27
298.309	18.07
298.776	15.47
299.243	18.67
299.71	16.07
300.177	17.77
300.644	24.57
301.111	22.17
301.578	23.97
302.045	12.37
302.512	25.67
302.979	29.17
303.446	22.07
303.913	20.87
304.379	17.67
304.846	24.47
305.313	19.37
305.78	25.87
306.246	29.17
306.713	28.37
307.18	25.57
307.646	29.77
308.113	32.37
308.579	23.77
309.046	29.87
309.512	26.87
309.979	17.67
310.445	26.37
310.912	35.07
311.378	32.57
311.845	23.87
312.311	27.47
312.777	35.17
313.244	34.67
313.71	35.27
314.176	35.27
314.642	30.87
315.109	32.37
315.575	36.07
316.041	37.57
316.507	36.17
316.973	38.17
317.439	32.97
317.905	33.47
318.371	41.07
318.837	36.67
319.303	37.87
319.769	34.87
320.235	38.07
320.701	36.97
321.167	33.97
321.633	38.87
322.099	47.57
322.564	49.07
323.03	42.67
323.496	37.37
323.962	47.07
324.427	33.97
324.893	42.47
325.359	40.67
325.824	42.37
326.29	39.27
326.755	44.17
327.221	40.77
327.686	47.77
328.152	42.57
328.617	48.57
329.083	50.87
329.548	53.17
330.014	49.97
330.479	43.27
330.944	45.27
331.41	43.67
331.875	48.07
332.34	43.37
332.805	48.47
333.271	55.57
333.736	41.97
334.201	51.57
334.666	52.17
335.131	54.67
335.596	51.67
336.061	48.37
336.526	45.87
336.991	45.57
337.456	57.57
337.921	49.87
338.386	50.77
338.851	50.97
339.316	48.67
339.781	48.57
340.246	52.77
340.711	46.37
341.175	52.27
341.64	47.87
342.105	54.77
342.569	55.97
343.034	58.07
343.499	58.07
343.963	45.87
344.428	65.57
344.893	66.87
345.357	64.27
345.822	64.07
346.286	73.97
346.751	77.47
347.215	66.97
347.679	77.47
348.144	99.87
348.608	82.97
349.073	66.57
349.537	77.97
350.001	78.07
350.465	89.07
350.93	84.97
351.394	83.97
351.858	77.07
352.322	90.07
352.786	86.27
353.25	101.47
353.715	112.97
354.179	96.67
354.643	130.07
355.107	130.97
355.571	111.17
356.035	105.67
356.498	122.37
356.962	120.87
357.426	131.77
357.89	119.47
358.354	92.67
358.818	80.17
359.281	78.17
359.745	76.97
360.209	79.27
360.673	77.97
361.136	78.17
361.6	86.77
362.064	77.97
362.527	84.27
362.991	92.57
363.454	85.37
363.918	80.87
364.381	84.07
364.845	80.97
365.308	91.97
365.772	86.87
366.235	85.37
366.698	82.87
367.162	91.27
367.625	88.07
368.088	89.77
368.552	89.17
369.015	86.97
369.478	99.37
369.941	102.67
370.404	95.57
370.867	107.17
371.331	104.17
371.794	115.87
372.257	115.87
372.72	121.77
373.183	112.37
373.646	104.07
374.109	100.97
374.572	107.97
375.035	108.17
375.497	108.97
375.96	104.57
376.423	105.17
376.886	114.77
377.349	107.87
377.811	103.17
378.274	109.17
378.737	115.07
379.199	110.77
379.662	116.47
380.125	124.97
380.587	123.87
381.05	126.67
381.512	136.27
381.975	137.87
382.437	129.67
382.9	125.97
383.362	134.27
383.825	143.27
384.287	155.67
384.75	142.87
385.212	138.57
385.674	144.57
386.136	145.07
386.599	124.57
387.061	132.07
387.523	129.77
387.985	136.17
388.447	150.67
388.91	148.47
389.372	154.77
389.834	158.07
390.296	144.67
390.758	157.17
391.22	170.87
391.682	209.77
392.144	296.97
392.606	232.07
393.068	170.47
393.529	168.97
393.991	155.07
394.453	153.67
394.915	162.17
395.377	193.17
395.838	213.87
396.3	157.17
396.762	145.47
397.224	143.27
397.685	137.17
398.147	131.97
398.608	135.27
399.07	130.77
399.531	141.77
399.993	150.27
400.454	156.77
400.916	150.97
401.377	145.77
401.839	153.77
402.3	156.77
402.762	170.47
403.223	187.87
403.684	174.27
404.145	168.57
404.607	161.97
405.068	169.47
405.529	173.47
405.99	192.37
406.451	180.17
406.913	179.67
407.374	171.07
407.835	167.27
408.296	170.47
408.757	176.07
409.218	192.37
409.679	179.97
410.14	180.67
410.601	180.27
411.062	195.57
411.522	193.17
411.983	198.57
412.444	177.17
412.905	184.77
413.366	180.17
413.826	193.97
414.287	218.37
414.748	268.87
415.208	260.07
415.669	220.27
416.13	204.87
416.59	209.27
417.051	218.47
417.511	227.57
417.972	239.57
418.432	249.87
418.893	290.47
419.353	257.67
419.814	200.07
420.274	187.37
420.734	181.07
421.195	207.47
421.655	197.37
422.115	197.17
422.576	200.27
423.036	193.07
423.496	203.47
423.956	220.27
424.416	233.57
424.876	268.37
425.336	270.67
425.797	267.67
426.257	257.57
426.717	244.37
427.177	237.17
427.637	228.77
428.097	241.97
428.556	256.37
429.016	271.37
429.476	273.77
429.936	285.37
430.396	290.87
430.856	304.97
431.315	323.07
431.775	364.67
432.235	388.17
432.694	361.17
433.154	372.17
433.614	400.27
434.073	346.77
434.533	299.17
434.993	278.57
435.452	295.47
435.912	303.27
436.371	297.37
436.83	287.87
437.29	277.57
437.749	252.27
438.209	251.47
438.668	277.77
439.127	297.87
439.587	272.57
440.046	259.77
440.505	264.87
440.964	281.57
441.424	333.17
441.883	324.87
442.342	267.07
442.801	233.37
443.26	228.97
443.719	224.67
444.178	223.37
444.637	213.37
445.096	226.47
445.555	220.47
446.014	231.57
446.473	228.77
446.932	238.97
447.391	227.87
447.849	235.47
448.308	218.37
448.767	230.67
449.226	241.87
449.685	239.77
450.143	257.87
450.602	241.37
451.061	229.97
451.519	240.17
451.978	238.47
452.436	236.27
452.895	244.17
453.353	261.17
453.812	239.77
454.27	232.97
454.729	245.27
455.187	245.57
455.646	247.77
456.104	250.97
456.562	266.77
457.021	275.57
457.479	267.37
457.937	286.77
458.395	274.17
458.854	259.77
459.312	266.37
459.77	285.07
460.228	265.27
460.686	253.27
461.144	251.07
461.602	243.17
462.06	246.97
462.518	257.77
462.976	264.07
463.434	266.07
463.892	264.67
464.35	280.77
464.808	297.27
465.266	271.07
465.724	280.17
466.181	275.57
466.639	281.47
467.097	295.87
467.555	309.27
468.012	304.67
468.47	322.07
468.928	332.17
469.385	344.47
469.843	358.07
470.3	354.97
470.758	372.37
471.215	395.87
471.673	419.57
472.13	421.27
472.588	424.07
473.045	379.17
473.503	385.67
473.96	395.97
474.417	417.27
474.875	439.07
475.332	482.47
475.789	472.07
476.246	476.47
476.704	501.37
477.161	526.27
477.618	538.27
478.075	573.37
478.532	626.67
478.989	706.07
479.446	822.77
479.903	799.37
480.36	827.47
480.817	888.27
481.274	998.97
481.731	1105.77
482.188	1192.77
482.645	1328.07
483.102	1444.77
483.558	1581.27
484.015	1636.77
484.472	1607.77
484.929	1560.77
485.385	1498.47
485.842	1466.97
486.299	1395.47
486.755	1332.87
487.212	1107.57
487.668	944.17
488.125	873.87
488.582	796.27
489.038	767.87
489.494	732.07
489.951	709.87
490.407	682.27
490.864	658.37
491.32	656.07
491.776	665.87
492.233	657.07
492.689	630.17
493.145	623.97
493.602	615.47
494.058	615.77
494.514	621.37
494.97	652.07
495.426	658.57
495.882	630.37
496.338	632.47
496.794	631.37
497.251	636.57
497.707	650.07
498.163	653.27
498.618	653.87
499.074	656.87
499.53	695.27
499.986	699.37
500.442	663.87
500.898	645.67
501.354	635.77
501.809	654.17
502.265	659.57
502.721	674.27
503.177	696.77
503.632	683.47
504.088	686.17
504.543	726.17
504.999	728.27
505.455	663.77
505.91	641.47
506.366	650.37
506.821	632.27
507.277	636.27
507.732	633.77
508.187	638.57
508.643	642.47
509.098	646.87
509.553	667.07
510.009	674.47
510.464	680.07
510.919	707.17
511.375	705.87
511.83	714.77
512.285	741.97
512.74	782.77
513.195	806.07
513.65	787.77
514.105	780.87
514.56	793.17
515.015	810.77
515.47	825.67
515.925	802.27
516.38	806.67
516.835	797.87
517.29	799.17
517.745	789.37
518.2	775.77
518.655	756.37
519.109	757.57
519.564	766.27
520.019	742.77
520.474	739.97
520.928	735.77
521.383	732.87
521.838	727.07
522.292	726.07
522.747	720.57
523.201	712.67
523.656	704.57
524.11	709.57
524.565	709.67
525.019	702.47
525.474	719.87
525.928	716.27
526.382	710.07
526.837	708.57
527.291	712.87
527.745	719.67
528.2	712.37
528.654	702.47
529.108	700.97
529.562	706.67
530.016	696.67
530.47	698.27
530.925	709.97
531.379	716.07
531.833	725.97
532.287	706.07
532.741	712.87
533.195	723.07
533.649	735.37
534.103	732.67
534.556	724.27
535.01	729.87
535.464	716.97
535.918	731.57
536.372	728.17
536.826	725.07
537.279	725.47
537.733	727.57
538.187	724.67
538.64	723.57
539.094	737.17
539.548	741.37
540.001	731.67
540.455	743.57
540.908	748.27
541.362	746.87
541.815	756.67
542.269	778.87
542.722	769.67
543.175	794.47
543.629	786.47
544.082	803.27
544.536	802.47
544.989	801.37
545.442	810.17
545.895	802.07
546.349	808.27
546.802	803.97
547.255	812.87
547.708	818.97
548.161	831.57
548.614	827.67
549.067	837.47
549.52	834.27
549.973	820.67
550.426	805.07
550.879	807.67
551.332	815.57
551.785	830.27
552.238	820.57
552.691	821.17
553.144	842.67
553.596	864.37
554.049	871.97
554.502	907.37
554.955	941.07
555.407	923.77
555.86	920.27
556.313	904.47
556.765	887.57
557.218	911.27
557.67	902.37
558.123	906.27
558.576	885.87
559.028	905.27
559.48	893.97
559.933	892.77
560.385	859.37
560.838	819.07
561.29	796.47
561.742	798.77
562.195	770.87
562.647	776.47
563.099	793.17
563.551	786.77
564.004	803.17
564.456	789.97
564.908	773.27
565.36	765.37
565.812	742.67
566.264	739.57
566.716	736.57
567.168	725.07
567.62	735.87
568.072	716.67
568.524	702.67
568.976	700.17
569.428	684.27
569.88	690.27
570.332	686.47
570.784	702.07
571.235	691.97
571.687	706.07
572.139	715.97
572.59	718.87
573.042	720.67
573.494	716.87
573.945	711.97
574.397	701.17
574.849	694.67
575.3	698.47
575.752	691.37
576.203	682.77
576.655	694.17
577.106	673.87
577.557	666.07
578.009	671.57
578.46	677.87
578.912	671.47
579.363	676.87
579.814	674.57
580.265	663.77
580.717	674.47
581.168	679.87
581.619	690.27
582.07	688.97
582.521	690.37
582.972	687.37
583.423	689.77
583.875	692.47
584.326	702.67
584.777	747.67
585.227	821.67
585.678	913.87
586.129	1008.77
586.58	1081.97
587.031	1152.47
587.482	1309.27
587.933	1486.47
588.384	1299.87
588.834	976.27
589.285	809.27
589.736	792.47
590.186	778.97
590.637	773.47
591.088	745.57
591.538	751.07
591.989	747.27
592.439	728.37
592.89	732.27
593.34	717.37
593.791	726.27
594.241	706.87
594.692	726.07
595.142	712.07
595.593	715.57
596.043	718.07
596.493	720.87
596.943	723.97
597.394	723.67
597.844	725.27
598.294	736.47
598.744	755.97
599.195	779.47
599.645	824.27
600.095	863.47
600.545	911.47
600.995	972.87
601.445	1036.07
601.895	1108.37
602.345	1146.87
602.795	1125.17
603.245	1068.87
603.695	1010.77
604.145	953.37
604.594	921.27
605.044	876.77
605.494	812.07
605.944	752.37
606.393	747.37
606.843	740.87
607.293	743.67
607.743	741.47
608.192	751.57
608.642	759.07
609.091	779.87
609.541	779.07
609.99	780.67
610.44	778.37
610.889	736.17
611.339	701.07
611.788	697.37
612.238	700.97
612.687	723.77
613.136	726.27
613.586	738.57
614.035	730.37
614.484	761.37
614.933	764.37
615.383	758.67
615.832	741.57
616.281	721.57
616.73	690.87
617.179	668.97
617.628	660.77
618.077	630.97
618.526	621.27
618.975	617.27
619.424	613.97
619.873	615.57
620.322	611.17
620.771	612.67
621.22	617.97
621.669	598.57
622.118	598.37
622.567	591.67
623.015	573.57
623.464	573.37
623.913	562.17
624.361	561.57
624.81	550.27
625.259	554.77
625.707	556.27
626.156	553.47
626.604	564.97
627.053	562.37
627.501	566.57
627.95	569.27
628.398	574.57
628.847	577.37
629.295	575.67
629.744	577.37
630.192	568.27
630.64	568.97
631.089	563.87
631.537	579.37
631.985	582.77
632.433	596.57
632.881	601.87
633.33	666.47
633.778	638.17
634.226	564.67
634.674	567.17
635.122	579.17
635.57	596.87
636.018	638.67
636.466	593.47
636.914	558.87
637.362	563.57
637.81	580.07
638.258	582.87
638.705	587.07
639.153	621.57
639.601	622.57
640.049	644.27
640.497	677.77
640.944	689.67
641.392	641.27
641.84	607.67
642.287	583.27
642.735	567.97
643.182	575.67
643.63	577.17
644.078	577.07
644.525	589.27
644.973	589.17
645.42	605.07
645.867	632.37
646.315	642.67
646.762	656.47
647.21	696.57
647.657	726.57
648.104	745.47
648.551	773.77
648.999	828.37
649.446	923.97
649.893	1005.67
650.34	1164.47
650.787	1407.17
651.234	1728.97
651.682	2257.17
652.129	3094.67
652.576	4459.57
653.023	6594.27
653.47	9037.77
653.917	11331.77
654.363	13068.87
654.81	14455.67
655.257	13768.97
655.704	9026.57
656.151	5304.07
656.598	3456.77
657.044	2448.07
657.491	1866.07
657.938	1496.97
658.385	1259.77
658.831	1078.17
659.278	963.17
659.724	859.27
660.171	797.07
660.618	722.37
661.064	700.87
661.511	666.47
661.957	652.77
662.404	634.67
662.85	648.77
663.296	628.17
663.743	562.67
664.189	543.57
664.635	539.77
665.082	528.07
665.528	533.77
665.974	518.07
666.42	506.67
666.867	509.17
667.313	486.77
667.759	474.17
668.205	481.87
668.651	489.37
669.097	487.17
669.543	498.87
669.989	479.77
670.435	447.27
670.881	442.97
671.327	444.37
671.773	471.27
672.219	491.07
672.665	548.67
673.11	574.97
673.556	630.87
674.002	662.07
674.448	636.37
674.893	547.87
675.339	469.07
675.785	440.07
676.23	413.27
676.676	391.07
677.122	382.07
677.567	374.97
678.013	370.47
678.458	362.07
678.904	357.87
679.349	339.47
679.794	349.77
680.24	348.27
680.685	346.07
681.131	345.27
681.576	346.57
682.021	349.07
682.466	341.67
682.912	340.67
683.357	349.57
683.802	378.27
684.247	400.87
684.692	449.67
685.137	490.67
685.583	536.67
686.028	548.77
686.473	517.07
686.918	435.77
687.363	416.37
687.807	393.97
688.252	365.27
688.697	352.17
689.142	322.67
689.587	328.27
690.032	327.37
690.477	340.17
690.921	353.37
691.366	375.67
691.811	400.97
692.255	428.77
692.7	451.47
693.145	492.57
693.589	687.57
694.034	1117.37
694.478	1506.27
694.923	1715.97
695.367	2244.87
695.812	1176.77
696.256	483.07
696.701	376.97
697.145	336.77
697.59	322.47
698.034	315.87
698.478	319.07
698.922	316.87
699.367	330.47
699.811	333.47
700.255	348.27
700.699	379.77
701.143	419.77
701.588	474.07
702.032	508.57
702.476	505.07
702.92	493.57
703.364	477.57
703.808	621.37
704.252	1017.07
704.696	1440.17
705.14	1643.77
705.584	2104.97
706.027	1056.17
706.471	513.37
706.915	390.07
707.359	351.27
707.803	321.57
708.246	311.47
708.69	305.07
709.134	312.57
709.577	306.37
710.021	311.27
710.465	308.47
710.908	298.67
711.352	296.07
711.795	305.17
712.239	343.47
712.682	375.87
713.126	412.87
713.569	456.67
714.012	363.47
714.456	317.77
714.899	294.77
715.342	266.47
715.786	265.87
716.229	253.87
716.672	260.17
717.115	239.17
717.558	242.37
718.002	244.87
718.445	255.87
718.888	283.87
719.331	289.57
719.774	310.37
720.217	308.37
720.66	284.07
721.103	267.27
721.546	254.97
721.989	244.17
722.432	234.77
722.874	241.67
723.317	222.67
723.76	235.77
724.203	257.07
724.645	308.97
725.088	436.17
725.531	559.57
725.974	639.67
726.416	535.97
726.859	305.97
727.301	245.77
727.744	235.47
728.187	229.97
728.629	236.87
729.071	241.67
729.514	261.27
729.956	264.37
730.399	274.97
730.841	283.17
731.283	269.97
731.726	264.97
732.168	260.47
732.61	263.27
733.053	287.67
733.495	318.97
733.937	339.37
734.379	394.17
734.821	432.57
735.263	530.97
735.705	821.07
736.148	1536.57
736.59	2530.27
737.032	3016.87
737.474	2480.37
737.916	794.17
738.357	421.17
738.799	328.27
739.241	296.67
739.683	278.47
740.125	296.87
740.567	294.87
741.008	305.17
741.45	308.37
741.892	308.07
742.334	342.67
742.775	358.87
743.217	343.37
743.658	265.07
744.1	250.37
744.542	260.17
744.983	309.37
745.425	340.67
745.866	336.87
746.307	280.77
746.749	285.27
747.19	321.77
747.632	443.47
748.073	855.07
748.514	1818.17
748.956	2808.97
749.397	3492.87
749.838	2918.47
750.279	2926.97
750.72	1477.27
751.162	536.87
751.603	316.47
752.044	244.27
752.485	212.67
752.926	204.77
753.367	200.27
753.808	196.37
754.249	190.87
754.69	188.37
755.131	179.97
755.572	174.57
756.013	179.77
756.453	180.87
756.894	190.57
757.335	187.47
757.776	191.17
758.216	197.17
758.657	197.57
759.098	198.77
759.538	219.07
759.979	256.87
760.42	367.17
760.86	685.67
761.301	1759.17
761.741	4329.07
762.182	6347.97
762.622	4463.67
763.063	1289.77
763.503	532.57
763.943	344.57
764.384	333.17
764.824	394.77
765.264	424.97
765.705	297.87
766.145	210.97
766.585	186.47
767.025	174.67
767.465	180.07
767.906	238.57
768.346	306.17
768.786	326.17
769.226	261.57
769.666	314.87
770.106	605.87
770.546	1519.87
770.986	2609.87
771.426	2339.37
771.866	773.17
772.306	325.97
772.745	208.47
773.185	167.67
773.625	164.47
774.065	171.47
774.505	193.47
774.944	295.17
775.384	668.27
775.824	1207.37
776.263	1178.77
776.703	496.77
777.142	216.37
777.582	158.67
778.021	137.17
778.461	132.87
778.9	135.77
779.34	125.37
779.779	116.07
780.219	109.27
780.658	103.07
781.097	109.37
781.537	114.77
781.976	111.27
782.415	105.57
782.855	99.97
783.294	99.67
783.733	105.57
784.172	104.07
784.611	102.07
785.05	109.77
785.489	110.37
785.928	115.47
786.367	114.37
786.806	116.37
787.245	132.27
787.684	134.17
788.123	144.17
788.562	128.77
789.001	118.07
789.44	114.97
789.879	116.97
790.317	115.57
790.756	118.67
791.195	120.67
791.634	147.57
792.072	200.87
792.511	356.97
792.95	974.17
793.388	2100.57
793.827	1915.37
794.265	669.67
794.704	273.07
795.142	181.87
795.581	144.37
796.019	121.97
796.458	129.37
796.896	122.67
797.334	128.47
797.773	152.37
798.211	214.47
798.649	434.47
799.087	990.97
799.526	1556.67
799.964	1969.77
800.402	1982.07
800.84	739.87
801.278	295.27
801.716	179.17
802.154	150.97
802.592	145.17
803.03	135.87
803.468	135.27
803.906	140.07
804.344	146.17
804.782	135.97
805.22	137.47
805.658	130.17
806.096	145.47
806.533	155.87
806.971	165.97
807.409	210.27
807.847	300.97
808.284	643.77
808.722	1808.77
809.16	3237.47
809.597	3052.07
810.035	5272.37
810.472	5709.37
810.91	2055.27
811.347	772.57
811.785	396.27
812.222	255.87
812.66	194.27
813.097	165.97
813.535	136.57
813.972	127.37
814.409	116.77
814.846	105.07
815.284	107.17
815.721	102.27
816.158	105.77
816.595	115.07
817.032	178.67
817.47	193.57
817.907	162.77
818.344	149.27
818.781	114.77
819.218	102.17
819.655	119.97
820.092	176.27
820.529	208.97
820.966	172.17
821.403	124.47
821.839	106.27
822.276	99.67
822.713	119.57
823.15	133.17
823.587	119.37
824.023	144.87
824.46	296.87
824.897	868.37
825.333	1320.07
825.77	573.47
826.206	219.87
826.643	129.27
827.08	98.47
827.516	82.27
827.953	78.97
828.389	80.47
828.825	75.97
829.262	65.57
829.698	65.87
830.135	61.07
830.571	57.27
831.007	63.67
831.443	63.87
831.88	59.67
832.316	62.17
832.752	66.17
833.188	65.17
833.624	65.17
834.06	59.17
834.497	65.77
834.933	72.97
835.369	76.37
835.805	63.47
836.241	72.97
836.677	79.97
837.112	86.87
837.548	100.47
837.984	129.67
838.42	194.57
838.856	475.17
839.292	1470.57
839.727	2254.67
840.163	1049.67
840.599	891.77
841.034	1987.37
841.47	2100.57
841.906	765.17
842.341	331.87
842.777	230.87
843.212	312.57
843.648	305.27
844.083	150.67
844.519	91.17
844.954	73.37
845.39	55.87
845.825	58.67
846.261	56.37
846.696	58.17
847.131	46.57
847.566	56.17
848.002	50.37
848.437	58.17
848.872	60.97
849.307	62.17
849.742	81.97
850.177	174.97
850.613	533.57
851.048	857.37
851.483	366.37
851.918	149.47
852.353	90.97
852.788	61.97
853.223	52.17
853.657	52.67
854.092	48.97
854.527	38.77
854.962	42.67
855.397	40.67
855.832	46.37
856.266	41.37
856.701	44.87
857.136	42.97
857.57	37.77
858.005	47.47
858.44	58.37
858.874	45.07
859.309	48.27
859.743	30.27
860.178	44.67
860.612	39.97
861.047	49.37
861.481	65.37
861.915	68.97
862.35	49.97
862.784	33.37
863.218	34.17
863.653	32.07
864.087	40.97
864.521	53.97
864.955	66.17
865.39	157.67
865.824	175.47
866.258	106.97
866.692	152.07
867.126	173.67
867.56	103.67
867.994	57.57
868.428	40.07
868.862	48.27
869.296	57.77
869.73	52.47
870.164	54.37
870.598	40.87
871.031	36.77
871.465	32.67
871.899	33.07
872.333	24.27
872.766	23.67
873.2	22.77
873.634	27.77
874.067	25.97
874.501	29.27
874.935	37.47
875.368	30.77
875.802	27.07
876.235	20.27
876.669	32.87
877.102	20.87
877.535	28.17
877.969	15.57
878.402	21.17
878.836	22.67
879.269	22.87
879.702	27.77
880.135	19.87
880.569	27.67
881.002	33.97
881.435	19.17
881.868	14.87
882.301	15.97
882.734	17.07
883.167	17.77
883.601	23.37
884.034	17.67
884.467	14.97
884.899	16.27
885.332	19.37
885.765	17.77
886.198	16.67
886.631	10.57
887.064	16.27
887.497	21.67
887.929	25.87
888.362	13.27
888.795	9.77
889.228	24.27
889.66	19.67
890.093	19.07
890.526	17.57
890.958	14.67
891.391	18.27
891.823	24.67
892.256	15.97
892.688	16.27
893.121	17.37
893.553	14.97
893.985	19.57
894.418	16.77
894.85	9.17
895.282	20.87
895.715	20.47
896.147	18.27
896.579	15.17
897.011	13.87
897.444	21.57
897.876	16.47
898.308	17.77
898.74	16.77
899.172	15.97
899.604	22.67
900.036	16.77
900.468	14.97
900.9	11.67
901.332	19.57
901.764	13.97
902.196	17.77
902.628	15.97
903.06	17.07
903.491	29.57
903.923	22.57
904.355	18.27
904.787	23.77
905.218	20.57
905.65	22.97
906.082	12.67
906.513	12.67
906.945	18.37
907.376	14.47
907.808	22.67
908.239	24.87
908.671	22.87
909.102	16.87
909.534	27.07
909.965	40.37
910.397	90.47
910.828	308.47
911.259	463.77
911.691	212.57
912.122	103.67
912.553	54.37
912.984	38.67
913.415	23.47
913.847	20.47
914.278	17.27
914.709	17.47
915.14	17.77
915.571	18.07
916.002	15.77
916.433	15.67
916.864	13.57
917.295	9.37
917.726	25.97
918.157	18.37
918.587	26.37
919.018	22.57
919.449	21.47
919.88	24.77
920.311	30.57
920.741	45.67
921.172	158.27
921.603	151.27
922.033	67.67
922.464	46.37
922.895	23.67
923.325	20.27
923.756	10.67
924.186	22.17
924.617	23.17
925.047	46.57
925.478	54.37
925.908	48.37
926.338	33.37
926.769	21.87
927.199	20.57
927.629	8.87
928.06	16.67
928.49	11.67
928.92	12.17
929.35	13.57
929.78	13.27
930.21	14.67
930.641	11.47
931.071	1.37
931.501	2.37
931.931	11.97
932.361	7.77
932.791	6.07
933.221	3.97
933.651	4.47
934.08	16.47
934.51	30.47
934.94	15.07
935.37	12.07
935.8	7.57
936.229	10.77
936.659	5.37
937.089	2.97
937.519	9.67
937.948	25.27
938.378	19.27
938.807	8.57
939.237	-1.13
939.666	5.67
940.096	0.97
940.525	2.17
940.955	-1.33
941.384	2.27
941.814	-6.53
942.243	-4.63
942.672	7.37
943.102	-0.23
943.531	0.87
943.96	-3.93
944.39	-0.73
944.819	-3.73
945.248	4.97
945.677	2.67
946.106	4.77
946.535	0.57
946.964	-3.13
947.393	6.97
947.822	-1.03
948.251	-1.33
948.68	3.87
949.109	11.97
949.538	7.17
949.967	-0.13
950.396	3.47
950.825	1.27
951.254	-0.13
951.682	-4.23
952.111	5.17
952.54	3.97
952.969	-3.43
953.397	-4.93
953.826	6.67
954.254	-7.23
954.683	-3.93
955.112	-4.63
955.54	4.07
955.969	1.87
956.397	-2.03
956.826	-0.43
957.254	10.07
957.682	-3.43
958.111	1.77
958.539	-1.43
958.967	0.07
959.396	0.07
959.824	0.47
960.252	0.77
960.68	-7.03
961.109	-2.73
961.537	0.77
961.965	3.07
962.393	6.97
962.821	-0.23
963.249	-4.43
963.677	7.67
964.105	7.27
964.533	46.67
964.961	41.97
965.389	17.07
965.817	7.87
966.245	3.27
966.672	1.87
967.1	-10.33
967.528	5.27
967.956	-2.03
968.383	-2.33
968.811	-3.93
969.239	-1.63
969.666	-5.83
970.094	-5.63
970.522	1.87
970.949	2.67
971.377	-2.73
971.804	-1.93
972.232	-2.43
972.659	-3.63
973.087	1.97
973.514	3.07
973.941	-6.23
974.369	0.77
974.796	-6.23
975.223	-1.73
975.651	-1.83
976.078	0.37
976.505	2.07
976.932	1.07
977.359	15.47
977.786	14.77
978.214	1.77
978.641	-8.33
979.068	-1.63
979.495	-5.63
979.922	1.57
980.349	-3.03
980.776	2.87
981.202	-5.83
981.629	-0.43
982.056	4.47
982.483	-5.83
982.91	9.37
983.337	-2.93
983.763	0.47
984.19	-4.03
984.617	1.27
985.043	-1.43
985.47	-0.63
985.897	-1.43
986.323	-12.43
986.75	2.17
987.176	-0.63
987.603	-3.13
988.029	-4.03
988.456	-4.73
988.882	0.27
989.308	-5.23
989.735	-11.53
990.161	-6.63
990.587	-0.43
991.014	7.17
991.44	3.97
991.866	-4.23
992.292	0.57
992.719	-8.83
993.145	2.67
993.571	-6.03
993.997	-3.23
994.423	-0.73
994.849	-8.23
995.275	2.37
995.701	-2.23
996.127	-0.53
996.553	-2.13
996.979	-6.33
997.405	-1.93
997.83	-10.23
998.256	-7.13
998.682	-9.23
999.108	-7.83
999.534	-6.43
999.959	-1.13
1000.385	-5.33
1000.811	0.57
1001.236	-10.03
1001.662	-5.43
1002.087	-3.43
1002.513	-4.13
1002.938	0.47
1003.364	2.87
1003.789	3.97
1004.215	-0.33
1004.64	3.87
1005.066	1.27
1005.491	-1.03
1005.916	-2.83
1006.342	-0.53
1006.767	-6.53
1007.192	3.77
1007.617	-3.23
1008.042	-4.13
1008.468	-8.53
1008.893	-3.03
1009.318	0.27
1009.743	-3.33
1010.168	2.87
1010.593	-2.33
1011.018	-9.03
1011.443	-1.83
1011.868	-2.73
1012.293	1.37
1012.718	-3.83
1013.143	-4.23
1013.567	2.57
1013.992	-4.33
1014.417	-11.43
1014.842	-3.03
1015.267	-5.53
1015.691	-7.93
1016.116	2.17
1016.541	-5.33
1016.965	1.87
1017.39	-1.13
1017.814	2.87
1018.239	2.17
1018.663	-4.33
1019.088	-9.83
1019.512	-5.23
1019.937	-5.03
1020.361	-7.73
1020.785	-13.93
1021.21	-3.13
1021.634	-4.93
1022.058	-0.73
1022.483	-0.03
1022.907	-2.43
1023.331	-6.63
1023.755	-4.23
1024.179	4.57
1024.604	-4.63
1025.028	-2.43
1025.452	-1.93
1025.876	-1.43
1026.3	4.17
1026.724	-11.73
1027.148	-4.63
1027.572	-5.93
1027.996	-7.13
1028.42	0.27
1028.843	-4.23
1029.267	-4.03
1029.691	-4.03
1030.115	-3.73
1030.539	-8.23
1030.962	-4.83
1031.386	-5.83
1031.81	1.57
1032.233	-1.93
1032.657	-5.33
1033.08	-6.43
1033.504	1.67
1033.927	1.27
1034.351	-0.53
1034.774	-7.63
1035.198	-2.23
1035.621	-3.53
1036.045	-7.93
1036.468	0.47
1036.891	-8.33
1037.315	-9.33
1037.738	-8.53
1038.161	0.97
1038.584	-8.03
1039.008	-5.33
1039.431	-7.63
1039.854	-5.03
1040.277	-12.23
1040.7	-12.13
1041.123	-3.23
1041.546	-14.63
1041.969	-1.13
1042.392	-7.73
1042.815	-5.23
1043.238	0.77
1043.661	0.27
1044.084	-4.43
1044.507	-8.13
1044.93	-9.13
1045.352	-7.53
1045.775	0.27
1046.198	-4.23
1046.621	-4.83
1047.043	-6.83
1047.466	4.27
1047.889	-1.03
1048.311	-9.33
1048.734	-1.53
1049.156	-2.33
1049.579	-4.83
1050.001	-4.03
1050.424	-2.23
1050.846	-0.83
1051.269	3.07
1051.691	-7.23
1052.113	-5.13
1052.536	-3.03
1052.958	-0.23
1053.38	0.07
1053.802	-8.63
1054.225	-0.13
1054.647	-12.83
1055.069	2.37
1055.491	3.87
1055.913	-15.03
1056.335	-0.33
1056.757	-7.93
1057.179	-2.63
1057.601	-0.53
1058.023	-5.13
1058.445	-5.33
1058.867	-0.23
1059.289	-6.43
1059.711	-9.43
1060.133	-12.43
1060.555	-10.33
1060.976	-3.33
1061.398	-6.43
1061.82	-3.53
1062.241	-2.33
1062.663	-5.83
1063.085	-5.53
1063.506	-3.23
1063.928	-2.43
1064.35	-4.23
1064.771	-11.33
1065.193	-4.43
1065.614	-6.33
1066.035	-7.13
1066.457	-5.33
1066.878	0.77
1067.3	-2.23
1067.721	-0.63
1068.142	-5.43
1068.564	-5.23
1068.985	-3.53
1069.406	-6.03
1069.827	-5.33
1070.248	-3.53
1070.67	-8.63
1071.091	-7.03
1071.512	-4.33
1071.933	-6.73
1072.354	-7.13
1072.775	-0.73
1073.196	-10.53
1073.617	-2.13
1074.038	-4.73
1074.459	-2.63
1074.88	-5.83
1075.3	-6.43
1075.721	-3.83
1076.142	-3.03
1076.563	-0.73
1076.983	-4.73
1077.404	-6.33
1077.825	-5.63
1078.246	-5.93
1078.666	-11.33
1079.087	-6.93
1079.507	-6.63
1079.928	-1.63
1080.348	3.37
1080.769	-7.33
1081.189	-4.43
1081.61	-6.03
1082.03	-0.93
1082.451	-10.03
1082.871	-4.33
1083.291	-3.73
1083.711	-12.43
1084.132	-3.73
1084.552	0.67
1084.972	-3.73
1085.392	-14.23
1085.813	-6.13
1086.233	-5.13
1086.653	-5.83
1087.073	-5.73
1087.493	-4.23
1087.913	-3.23
1088.333	-6.03
1088.753	-4.93
1089.173	3.87
1089.593	-4.93
1090.013	-0.83
1090.433	2.87
1090.852	-1.43
1091.272	-2.43
1091.692	-0.33
1092.112	-6.83
1092.531	-7.93
1092.951	-15.83
1093.371	-5.73
1093.79	1.07
1094.21	-6.13
1094.63	-5.43
1095.049	-9.43
1095.469	-1.93
1095.888	-3.23
1096.308	0.57
1096.727	-0.13
1097.146	-4.43
1097.566	-2.93
1097.985	1.27
1098.405	1.07
1098.824	-2.43
1099.243	-7.13
1099.662	-11.43
1100.082	-7.63
1100.501	0.67
1100.92	-9.13
1101.339	-4.63
1101.758	-7.83
