Data from 20171114-ORNL-Ar_H_NY_Subt18_08-04-30-452.txt Node
Date: Tue Nov 14 08:04:30 EST 2017
User: Ender
Spectrometer: HR+D1039
Trigger mode: 0
Integration Time (sec): 2.730000E-2
Scans to average: 10
Electric dark correction enabled: true
Nonlinearity correction enabled: false
Boxcar width: 0
XAxis mode: Wavelengths
Number of Pixels in Spectrum: 2048
>>>>>Begin Spectral Data<<<<<
187.836	-4.64
188.309	-4.64
188.782	-4.64
189.255	0.46
189.728	-1.54
190.201	4.46
190.674	1.86
191.147	-0.04
191.619	-8.54
192.092	0.56
192.565	3.56
193.038	-1.84
193.511	0.66
193.984	1.76
194.456	-2.24
194.929	5.26
195.402	-4.84
195.874	5.06
196.347	-2.34
196.82	-8.04
197.292	2.86
197.765	-4.64
198.237	-7.34
198.71	-2.34
199.182	-8.74
199.655	-2.14
200.127	3.26
200.6	-2.44
201.072	-2.14
201.544	-4.14
202.017	-5.64
202.489	7.86
202.961	-1.44
203.433	-6.74
203.906	-8.74
204.378	-4.64
204.85	-5.54
205.322	-9.74
205.794	-3.14
206.266	-1.54
206.739	-7.74
207.211	2.36
207.683	-5.34
208.155	2.76
208.627	-7.14
209.099	-4.14
209.57	-4.34
210.042	-4.54
210.514	-4.44
210.986	-0.74
211.458	-5.24
211.93	1.86
212.402	4.56
212.873	-2.64
213.345	-10.24
213.817	-12.04
214.288	-8.14
214.76	-13.34
215.232	-7.24
215.703	-2.64
216.175	-7.04
216.646	-8.34
217.118	-4.54
217.589	-3.64
218.061	-3.64
218.532	-2.74
219.004	1.06
219.475	-4.54
219.946	1.46
220.418	-7.24
220.889	0.16
221.36	0.26
221.832	-0.94
222.303	-4.54
222.774	-2.44
223.245	-8.74
223.717	-9.64
224.188	-6.94
224.659	-9.04
225.13	-4.64
225.601	-8.14
226.072	1.66
226.543	2.86
227.014	5.26
227.485	-7.94
227.956	-6.54
228.427	-6.04
228.898	1.76
229.369	0.46
229.839	-3.94
230.31	-7.74
230.781	1.16
231.252	-3.54
231.722	-8.44
232.193	-0.84
232.664	9.76
233.135	5.26
233.605	-0.74
234.076	-8.04
234.546	0.36
235.017	-1.34
235.487	0.36
235.958	-2.04
236.428	4.56
236.899	7.36
237.369	7.86
237.84	2.36
238.31	11.36
238.78	-2.04
239.251	2.66
239.721	7.96
240.191	-0.24
240.662	-3.14
241.132	1.16
241.602	-6.54
242.072	2.06
242.542	1.26
243.013	1.66
243.483	4.16
243.953	3.76
244.423	-2.54
244.893	2.06
245.363	6.26
245.833	0.46
246.303	2.16
246.773	0.26
247.243	5.86
247.712	3.26
248.182	14.16
248.652	10.76
249.122	4.36
249.592	15.36
250.061	26.86
250.531	28.36
251.001	22.16
251.471	22.16
251.94	27.46
252.41	12.06
252.879	5.56
253.349	14.66
253.818	8.66
254.288	10.26
254.757	10.16
255.227	4.16
255.696	-1.84
256.166	8.56
256.635	11.36
257.105	11.46
257.574	9.86
258.043	10.66
258.513	12.26
258.982	16.06
259.451	17.06
259.92	17.16
260.389	15.76
260.859	21.26
261.328	20.26
261.797	22.96
262.266	10.16
262.735	17.16
263.204	10.96
263.673	2.66
264.142	5.76
264.611	-4.74
265.08	0.36
265.549	-0.34
266.018	7.66
266.487	-4.44
266.955	-3.24
267.424	8.96
267.893	11.96
268.362	2.46
268.83	0.86
269.299	13.46
269.768	7.06
270.236	13.76
270.705	5.36
271.174	8.36
271.642	7.46
272.111	16.36
272.579	15.36
273.048	26.36
273.516	29.06
273.985	27.96
274.453	27.96
274.922	22.96
275.39	14.56
275.858	6.86
276.327	10.16
276.795	19.86
277.263	10.26
277.731	37.56
278.2	57.06
278.668	64.06
279.136	51.46
279.604	23.16
280.072	15.86
280.54	5.26
281.008	12.66
281.477	19.96
281.945	15.66
282.413	12.26
282.881	15.16
283.348	6.76
283.816	14.26
284.284	13.06
284.752	18.26
285.22	14.56
285.688	15.26
286.156	17.46
286.623	47.36
287.091	62.76
287.559	24.86
288.026	19.26
288.494	16.26
288.962	7.66
289.429	12.26
289.897	19.16
290.364	14.96
290.832	15.96
291.3	16.46
291.767	13.46
292.234	25.16
292.702	14.66
293.169	23.76
293.637	23.16
294.104	22.56
294.571	13.76
295.039	10.06
295.506	14.66
295.973	20.06
296.44	18.16
296.908	17.66
297.375	15.26
297.842	17.36
298.309	19.86
298.776	13.56
299.243	17.36
299.71	13.06
300.177	22.96
300.644	17.66
301.111	17.86
301.578	25.16
302.045	21.86
302.512	25.46
302.979	23.56
303.446	23.96
303.913	15.96
304.379	26.26
304.846	26.36
305.313	22.36
305.78	18.26
306.246	24.36
306.713	28.16
307.18	29.26
307.646	27.96
308.113	26.26
308.579	23.26
309.046	28.76
309.512	30.46
309.979	20.26
310.445	26.46
310.912	33.46
311.378	30.56
311.845	30.16
312.311	31.86
312.777	31.06
313.244	32.06
313.71	34.66
314.176	33.46
314.642	26.86
315.109	27.46
315.575	34.06
316.041	38.76
316.507	29.46
316.973	39.56
317.439	34.26
317.905	41.66
318.371	35.86
318.837	36.96
319.303	35.26
319.769	37.16
320.235	33.16
320.701	35.16
321.167	32.36
321.633	32.06
322.099	38.36
322.564	38.36
323.03	32.36
323.496	37.96
323.962	36.46
324.427	34.86
324.893	44.06
325.359	38.86
325.824	35.86
326.29	39.76
326.755	38.46
327.221	41.86
327.686	35.46
328.152	46.36
328.617	37.36
329.083	43.66
329.548	51.06
330.014	50.56
330.479	40.96
330.944	41.76
331.41	44.96
331.875	42.66
332.34	38.96
332.805	43.76
333.271	52.56
333.736	44.36
334.201	42.66
334.666	53.36
335.131	48.46
335.596	45.76
336.061	54.36
336.526	44.56
336.991	45.26
337.456	55.46
337.921	46.56
338.386	40.56
338.851	44.56
339.316	45.66
339.781	41.96
340.246	52.66
340.711	42.96
341.175	47.46
341.64	49.76
342.105	49.16
342.569	57.26
343.034	54.46
343.499	55.66
343.963	52.86
344.428	71.06
344.893	59.56
345.357	54.76
345.822	55.76
346.286	62.86
346.751	70.16
347.215	57.66
347.679	74.26
348.144	97.36
348.608	80.86
349.073	65.96
349.537	73.16
350.001	78.96
350.465	86.36
350.93	73.96
351.394	73.26
351.858	75.56
352.322	79.26
352.786	79.06
353.25	92.06
353.715	99.96
354.179	96.46
354.643	115.76
355.107	121.26
355.571	107.26
356.035	97.16
356.498	110.66
356.962	109.66
357.426	121.06
357.89	104.86
358.354	86.56
358.818	79.86
359.281	80.16
359.745	72.86
360.209	71.96
360.673	70.36
361.136	79.86
361.6	80.26
362.064	80.26
362.527	78.96
362.991	80.16
363.454	76.76
363.918	71.16
364.381	67.06
364.845	72.76
365.308	80.56
365.772	83.86
366.235	76.76
366.698	81.36
367.162	77.76
367.625	86.66
368.088	82.26
368.552	80.76
369.015	81.46
369.478	90.46
369.941	95.26
370.404	85.96
370.867	98.16
371.331	107.46
371.794	115.06
372.257	101.16
372.72	108.36
373.183	104.46
373.646	100.16
374.109	98.66
374.572	100.66
375.035	105.36
375.497	103.26
375.96	96.86
376.423	96.26
376.886	105.36
377.349	101.86
377.811	94.76
378.274	95.56
378.737	97.86
379.199	98.46
379.662	100.96
380.125	110.16
380.587	110.86
381.05	118.46
381.512	121.16
381.975	125.96
382.437	118.06
382.9	119.76
383.362	122.66
383.825	134.16
384.287	133.76
384.75	127.26
385.212	127.36
385.674	127.26
386.136	119.36
386.599	116.86
387.061	114.86
387.523	119.76
387.985	123.56
388.447	136.86
388.91	130.46
389.372	148.46
389.834	142.66
390.296	134.86
390.758	142.16
391.22	150.36
391.682	194.16
392.144	280.16
392.606	215.56
393.068	155.46
393.529	158.96
393.991	137.66
394.453	136.16
394.915	150.86
395.377	186.56
395.838	201.26
396.3	143.46
396.762	133.86
397.224	120.26
397.685	123.46
398.147	122.36
398.608	126.76
399.07	111.76
399.531	122.46
399.993	131.46
400.454	135.06
400.916	128.26
401.377	127.86
401.839	140.16
402.3	138.06
402.762	152.46
403.223	161.96
403.684	153.96
404.145	143.16
404.607	143.86
405.068	156.56
405.529	148.36
405.99	175.26
406.451	161.26
406.913	156.16
407.374	150.56
407.835	146.06
408.296	154.86
408.757	152.66
409.218	176.06
409.679	160.26
410.14	160.66
410.601	159.56
411.062	165.06
411.522	173.26
411.983	178.86
412.444	154.96
412.905	169.86
413.366	164.86
413.826	177.26
414.287	197.96
414.748	234.96
415.208	225.06
415.669	196.46
416.13	189.26
416.59	180.26
417.051	197.36
417.511	196.36
417.972	219.56
418.432	231.06
418.893	266.86
419.353	227.36
419.814	178.86
420.274	171.86
420.734	167.26
421.195	179.76
421.655	179.66
422.115	174.56
422.576	177.46
423.036	176.06
423.496	185.56
423.956	198.26
424.416	214.66
424.876	242.96
425.336	228.96
425.797	240.76
426.257	233.16
426.717	216.76
427.177	214.16
427.637	207.26
428.097	212.86
428.556	222.36
429.016	241.66
429.476	231.76
429.936	252.86
430.396	246.56
430.856	268.96
431.315	288.66
431.775	318.36
432.235	342.16
432.694	325.06
433.154	329.06
433.614	352.26
434.073	303.76
434.533	253.56
434.993	244.66
435.452	252.26
435.912	262.36
436.371	264.96
436.83	257.16
437.29	249.86
437.749	221.06
438.209	219.96
438.668	239.56
439.127	251.16
439.587	236.66
440.046	233.76
440.505	234.36
440.964	243.86
441.424	288.56
441.883	276.96
442.342	240.76
442.801	207.66
443.26	204.96
443.719	194.96
444.178	197.96
444.637	186.56
445.096	204.06
445.555	197.96
446.014	202.06
446.473	204.86
446.932	206.86
447.391	204.96
447.849	202.56
448.308	196.46
448.767	197.26
449.226	211.16
449.685	212.66
450.143	224.96
450.602	223.36
451.061	205.56
451.519	212.36
451.978	213.26
452.436	213.76
452.895	211.86
453.353	230.86
453.812	213.26
454.27	218.36
454.729	219.96
455.187	212.06
455.646	220.86
456.104	220.66
456.562	234.86
457.021	239.96
457.479	233.06
457.937	242.76
458.395	232.46
458.854	215.96
459.312	228.96
459.77	236.86
460.228	224.56
460.686	218.56
461.144	221.26
461.602	224.16
462.06	213.06
462.518	225.96
462.976	230.26
463.434	231.16
463.892	237.26
464.35	246.56
464.808	256.06
465.266	238.06
465.724	241.16
466.181	243.26
466.639	248.16
467.097	255.96
467.555	271.16
468.012	277.96
468.47	274.66
468.928	296.06
469.385	307.06
469.843	308.86
470.3	311.26
470.758	325.66
471.215	346.66
471.673	361.96
472.13	362.76
472.588	366.96
473.045	333.66
473.503	334.06
473.96	360.36
474.417	357.86
474.875	397.66
475.332	426.66
475.789	418.66
476.246	426.66
476.704	442.86
477.161	461.56
477.618	476.96
478.075	509.36
478.532	563.26
478.989	625.26
479.446	725.26
479.903	705.66
480.36	737.06
480.817	790.46
481.274	888.46
481.731	995.16
482.188	1073.76
482.645	1206.86
483.102	1316.26
483.558	1429.16
484.015	1485.86
484.472	1466.76
484.929	1414.56
485.385	1369.96
485.842	1343.46
486.299	1269.26
486.755	1193.96
487.212	994.66
487.668	846.86
488.125	778.36
488.582	711.16
489.038	699.16
489.494	659.06
489.951	625.26
490.407	604.36
490.864	594.46
491.32	592.06
491.776	585.96
492.233	582.26
492.689	555.16
493.145	556.46
493.602	541.46
494.058	559.86
494.514	560.06
494.97	577.86
495.426	578.26
495.882	559.36
496.338	559.66
496.794	570.56
497.251	572.16
497.707	578.56
498.163	576.36
498.618	581.56
499.074	588.76
499.53	613.96
499.986	610.86
500.442	585.66
500.898	571.36
501.354	572.16
501.809	577.76
502.265	585.16
502.721	603.06
503.177	615.86
503.632	594.16
504.088	613.36
504.543	643.66
504.999	632.56
505.455	596.76
505.91	572.96
506.366	567.76
506.821	567.46
507.277	556.36
507.732	566.86
508.187	565.16
508.643	568.56
509.098	569.26
509.553	591.56
510.009	601.66
510.464	606.96
510.919	629.66
511.375	618.96
511.83	645.96
512.285	653.36
512.74	687.46
513.195	705.86
513.65	710.76
514.105	698.36
514.56	697.16
515.015	720.76
515.47	733.16
515.925	724.86
516.38	721.86
516.835	722.66
517.29	711.76
517.745	705.86
518.2	690.06
518.655	673.86
519.109	674.36
519.564	677.96
520.019	654.86
520.474	663.76
520.928	663.86
521.383	668.26
521.838	640.06
522.292	651.26
522.747	647.16
523.201	635.16
523.656	631.96
524.11	625.06
524.565	625.46
525.019	623.06
525.474	629.96
525.928	633.66
526.382	624.16
526.837	630.66
527.291	621.16
527.745	628.06
528.2	629.36
528.654	625.56
529.108	623.26
529.562	624.76
530.016	619.86
530.47	627.86
530.925	624.76
531.379	625.76
531.833	645.16
532.287	641.96
532.741	635.36
533.195	637.46
533.649	647.86
534.103	655.76
534.556	645.96
535.01	652.36
535.464	635.56
535.918	654.46
536.372	653.46
536.826	645.86
537.279	631.06
537.733	641.46
538.187	646.56
538.64	647.06
539.094	648.86
539.548	649.66
540.001	643.36
540.455	650.46
540.908	656.66
541.362	666.26
541.815	665.96
542.269	683.46
542.722	678.36
543.175	681.36
543.629	690.16
544.082	702.46
544.536	713.66
544.989	694.36
545.442	706.46
545.895	710.66
546.349	709.36
546.802	694.36
547.255	718.06
547.708	715.56
548.161	719.46
548.614	725.16
549.067	740.86
549.52	730.06
549.973	718.86
550.426	720.86
550.879	704.26
551.332	716.76
551.785	724.36
552.238	722.06
552.691	723.06
553.144	743.76
553.596	755.56
554.049	777.56
554.502	799.16
554.955	812.56
555.407	815.26
555.86	803.46
556.313	796.56
556.765	785.86
557.218	788.16
557.67	774.16
558.123	775.36
558.576	790.16
559.028	785.66
559.48	781.56
559.933	775.66
560.385	749.56
560.838	710.86
561.29	693.96
561.742	694.46
562.195	676.06
562.647	670.16
563.099	689.26
563.551	683.06
564.004	688.66
564.456	676.26
564.908	679.76
565.36	667.06
565.812	645.76
566.264	643.06
566.716	638.16
567.168	632.16
567.62	642.96
568.072	618.66
568.524	617.76
568.976	612.56
569.428	605.16
569.88	590.16
570.332	600.76
570.784	599.86
571.235	594.76
571.687	613.56
572.139	625.66
572.59	620.36
573.042	623.36
573.494	633.36
573.945	619.96
574.397	597.16
574.849	601.66
575.3	605.26
575.752	598.76
576.203	592.96
576.655	592.76
577.106	579.56
577.557	575.46
578.009	578.06
578.46	569.96
578.912	573.06
579.363	578.26
579.814	589.16
580.265	579.56
580.717	590.66
581.168	579.86
581.619	590.56
582.07	598.76
582.521	590.96
582.972	589.46
583.423	598.36
583.875	589.06
584.326	615.16
584.777	658.76
585.227	719.86
585.678	820.66
586.129	894.06
586.58	963.46
587.031	1051.36
587.482	1205.46
587.933	1381.96
588.384	1202.76
588.834	870.56
589.285	710.36
589.736	684.06
590.186	674.16
590.637	660.36
591.088	642.36
591.538	644.86
591.989	632.16
592.439	638.96
592.89	618.76
593.34	609.06
593.791	618.46
594.241	607.56
594.692	615.66
595.142	606.86
595.593	606.16
596.043	619.66
596.493	613.56
596.943	621.36
597.394	635.56
597.844	613.16
598.294	631.26
598.744	652.46
599.195	665.36
599.645	709.66
600.095	729.96
600.545	785.36
600.995	825.46
601.445	879.26
601.895	932.26
602.345	985.66
602.795	970.46
603.245	931.06
603.695	884.96
604.145	827.76
604.594	786.56
605.044	741.76
605.494	694.66
605.944	647.76
606.393	639.96
606.843	627.46
607.293	637.26
607.743	639.06
608.192	646.96
608.642	659.26
609.091	658.96
609.541	669.26
609.99	650.76
610.44	651.16
610.889	616.36
611.339	598.16
611.788	584.66
612.238	603.06
612.687	617.56
613.136	623.66
613.586	634.96
614.035	640.36
614.484	653.46
614.933	654.16
615.383	645.26
615.832	630.96
616.281	617.06
616.73	584.36
617.179	567.36
617.628	545.36
618.077	537.26
618.526	533.56
618.975	529.66
619.424	524.06
619.873	521.36
620.322	524.06
620.771	512.96
621.22	507.56
621.669	499.76
622.118	499.26
622.567	489.06
623.015	478.46
623.464	482.56
623.913	478.56
624.361	472.26
624.81	463.56
625.259	463.96
625.707	475.66
626.156	474.86
626.604	483.36
627.053	480.06
627.501	479.56
627.95	471.66
628.398	492.56
628.847	489.36
629.295	483.96
629.744	488.56
630.192	478.66
630.64	480.26
631.089	476.16
631.537	486.06
631.985	489.46
632.433	504.66
632.881	508.76
633.33	559.06
633.778	542.76
634.226	474.46
634.674	488.26
635.122	481.56
635.57	496.96
636.018	529.76
636.466	487.76
636.914	464.26
637.362	482.16
637.81	482.96
638.258	485.46
638.705	485.36
639.153	505.36
639.601	509.56
640.049	538.36
640.497	564.26
640.944	590.36
641.392	542.96
641.84	522.06
642.287	487.96
642.735	476.96
643.182	486.86
643.63	482.86
644.078	484.56
644.525	499.66
644.973	497.46
645.42	505.46
645.867	515.26
646.315	528.56
646.762	561.36
647.21	580.66
647.657	602.56
648.104	635.36
648.551	655.26
648.999	706.06
649.446	765.76
649.893	846.36
650.34	972.76
650.787	1160.86
651.234	1430.86
651.682	1869.46
652.129	2564.86
652.576	3687.26
653.023	5499.36
653.47	7634.06
653.917	9657.06
654.363	11309.66
654.81	12726.16
655.257	12080.96
655.704	7797.16
656.151	4561.66
656.598	2941.56
657.044	2072.16
657.491	1586.96
657.938	1270.16
658.385	1061.46
658.831	910.06
659.278	823.16
659.724	718.96
660.171	663.66
660.618	598.86
661.064	566.86
661.511	545.76
661.957	547.46
662.404	530.66
662.85	535.66
663.296	512.76
663.743	464.46
664.189	453.76
664.635	440.96
665.082	444.56
665.528	438.86
665.974	436.36
666.42	425.56
666.867	420.06
667.313	404.46
667.759	396.66
668.205	399.46
668.651	411.06
669.097	421.26
669.543	428.96
669.989	393.16
670.435	373.96
670.881	370.56
671.327	373.66
671.773	391.06
672.219	402.56
672.665	447.16
673.11	471.96
673.556	526.56
674.002	564.26
674.448	543.76
674.893	455.66
675.339	394.46
675.785	358.46
676.23	346.66
676.676	321.46
677.122	308.56
677.567	302.56
678.013	297.16
678.458	293.96
678.904	295.86
679.349	283.26
679.794	301.26
680.24	288.26
680.685	293.16
681.131	282.16
681.576	283.86
682.021	290.26
682.466	280.96
682.912	281.16
683.357	282.26
683.802	313.96
684.247	333.46
684.692	365.56
685.137	407.26
685.583	445.86
686.028	470.16
686.473	426.26
686.918	361.76
687.363	345.96
687.807	321.46
688.252	295.56
688.697	290.46
689.142	272.96
689.587	270.96
690.032	264.86
690.477	279.96
690.921	287.56
691.366	313.96
691.811	324.06
692.255	352.26
692.7	378.36
693.145	406.96
693.589	557.66
694.034	903.56
694.478	1245.06
694.923	1450.96
695.367	1905.36
695.812	998.76
696.256	406.96
696.701	302.66
697.145	285.76
697.59	271.36
698.034	260.76
698.478	275.56
698.922	265.06
699.367	272.96
699.811	274.46
700.255	293.36
700.699	309.56
701.143	344.66
701.588	387.86
702.032	434.16
702.476	424.36
702.92	406.36
703.364	401.96
703.808	505.76
704.252	814.76
704.696	1178.96
705.14	1386.96
705.584	1785.86
706.027	878.96
706.471	423.76
706.915	322.16
707.359	288.16
707.803	262.16
708.246	256.86
708.69	254.06
709.134	258.66
709.577	255.26
710.021	260.96
710.465	249.66
710.908	242.76
711.352	239.36
711.795	258.46
712.239	284.96
712.682	308.86
713.126	339.46
713.569	385.66
714.012	303.36
714.456	266.66
714.899	248.66
715.342	227.06
715.786	214.06
716.229	210.06
716.672	212.96
717.115	200.96
717.558	202.26
718.002	206.06
718.445	213.06
718.888	236.16
719.331	235.86
719.774	251.76
720.217	248.56
720.66	227.56
721.103	217.26
721.546	206.26
721.989	199.46
722.432	184.06
722.874	192.26
723.317	180.06
723.76	191.26
724.203	209.56
724.645	249.16
725.088	353.06
725.531	458.26
725.974	537.86
726.416	449.56
726.859	248.56
727.301	198.06
727.744	195.06
728.187	193.76
728.629	203.56
729.071	200.96
729.514	212.36
729.956	226.26
730.399	230.06
730.841	236.26
731.283	220.56
731.726	217.46
732.168	206.36
732.61	214.86
733.053	233.96
733.495	253.46
733.937	284.56
734.379	318.06
734.821	347.16
735.263	428.06
735.705	655.06
736.148	1238.86
736.59	2085.66
737.032	2556.66
737.474	2080.86
737.916	666.66
738.357	348.26
738.799	271.86
739.241	244.86
739.683	225.66
740.125	234.26
740.567	238.86
741.008	253.06
741.45	262.46
741.892	249.96
742.334	282.96
742.775	292.76
743.217	285.16
743.658	218.76
744.1	207.76
744.542	218.66
744.983	249.96
745.425	278.86
745.866	281.76
746.307	230.26
746.749	221.86
747.19	265.56
747.632	357.76
748.073	683.36
748.514	1465.46
748.956	2325.36
749.397	2915.86
749.838	2439.56
750.279	2506.86
750.72	1246.56
751.162	446.66
751.603	258.36
752.044	203.86
752.485	177.56
752.926	176.96
753.367	164.36
753.808	158.56
754.249	158.36
754.69	151.86
755.131	145.86
755.572	142.66
756.013	142.66
756.453	151.36
756.894	151.16
757.335	163.86
757.776	163.26
758.216	158.96
758.657	155.36
759.098	155.06
759.538	183.96
759.979	211.66
760.42	286.06
760.86	552.56
761.301	1423.86
761.741	3547.26
762.182	5470.16
762.622	3849.16
763.063	1082.26
763.503	439.26
763.943	273.56
764.384	280.66
764.824	341.06
765.264	391.66
765.705	260.36
766.145	176.96
766.585	154.16
767.025	145.56
767.465	147.66
767.906	189.86
768.346	269.86
768.786	287.66
769.226	211.86
769.666	256.26
770.106	479.86
770.546	1218.46
770.986	2181.96
771.426	2011.66
771.866	655.66
772.306	265.56
772.745	173.26
773.185	142.06
773.625	140.56
774.065	135.36
774.505	160.66
774.944	256.86
775.384	578.86
775.824	1100.26
776.263	1092.96
776.703	450.16
777.142	187.36
777.582	135.56
778.021	110.36
778.461	113.16
778.9	112.36
779.34	107.66
779.779	93.76
780.219	85.56
780.658	83.46
781.097	84.26
781.537	85.96
781.976	90.76
782.415	91.96
782.855	83.96
783.294	81.26
783.733	81.76
784.172	87.36
784.611	90.96
785.05	89.16
785.489	81.16
785.928	88.06
786.367	101.06
786.806	96.36
787.245	103.06
787.684	109.86
788.123	116.66
788.562	97.66
789.001	96.36
789.44	98.96
789.879	93.56
790.317	93.96
790.756	101.86
791.195	109.66
791.634	113.86
792.072	155.26
792.511	287.36
792.95	783.56
793.388	1766.56
793.827	1647.06
794.265	560.06
794.704	223.86
795.142	144.16
795.581	124.06
796.019	120.36
796.458	97.56
796.896	99.26
797.334	104.36
797.773	122.06
798.211	174.76
798.649	339.46
799.087	807.86
799.526	1292.76
799.964	1640.56
800.402	1707.86
800.84	629.76
801.278	247.36
801.716	151.26
802.154	121.36
802.592	114.66
803.03	105.76
803.468	103.26
803.906	112.26
804.344	118.46
804.782	113.16
805.22	107.06
805.658	105.76
806.096	116.26
806.533	130.16
806.971	138.36
807.409	172.46
807.847	247.26
808.284	510.96
808.722	1478.56
809.16	2740.76
809.597	2522.46
810.035	4453.96
810.472	4992.66
810.91	1756.96
811.347	663.36
811.785	325.36
812.222	215.66
812.66	149.96
813.097	128.96
813.535	111.56
813.972	102.86
814.409	98.46
814.846	88.16
815.284	88.86
815.721	86.36
816.158	88.86
816.595	99.46
817.032	152.16
817.47	155.86
817.907	148.16
818.344	129.36
818.781	99.06
819.218	84.06
819.655	99.16
820.092	153.16
820.529	181.86
820.966	151.96
821.403	108.86
821.839	85.46
822.276	78.46
822.713	97.66
823.15	113.06
823.587	97.26
824.023	123.46
824.46	222.16
824.897	718.26
825.333	1137.06
825.77	480.36
826.206	187.56
826.643	110.96
827.08	82.86
827.516	61.26
827.953	58.36
828.389	60.76
828.825	54.16
829.262	52.06
829.698	51.76
830.135	50.96
830.571	47.36
831.007	50.76
831.443	51.66
831.88	55.66
832.316	50.36
832.752	50.06
833.188	48.16
833.624	50.46
834.06	52.66
834.497	56.66
834.933	54.96
835.369	64.96
835.805	52.06
836.241	59.16
836.677	59.16
837.112	70.66
837.548	77.66
837.984	103.66
838.42	156.16
838.856	380.96
839.292	1229.36
839.727	1971.16
840.163	883.46
840.599	734.86
841.034	1670.46
841.47	1813.06
841.906	654.86
842.341	276.16
842.777	192.46
843.212	269.56
843.648	272.36
844.083	125.86
844.519	79.06
844.954	67.16
845.39	52.06
845.825	49.66
846.261	44.26
846.696	43.86
847.131	43.06
847.566	42.96
848.002	37.56
848.437	43.96
848.872	48.96
849.307	54.46
849.742	61.86
850.177	143.96
850.613	440.96
851.048	747.46
851.483	312.16
851.918	116.16
852.353	65.66
852.788	46.76
853.223	52.16
853.657	43.46
854.092	30.46
854.527	32.06
854.962	32.66
855.397	31.16
855.832	40.16
856.266	32.96
856.701	35.36
857.136	28.36
857.57	33.16
858.005	38.76
858.44	51.46
858.874	31.86
859.309	38.86
859.743	32.16
860.178	36.26
860.612	31.26
861.047	41.56
861.481	53.76
861.915	53.36
862.35	46.86
862.784	24.86
863.218	28.36
863.653	29.86
864.087	35.06
864.521	43.36
864.955	54.76
865.39	126.36
865.824	142.06
866.258	95.16
866.692	133.76
867.126	152.16
867.56	89.16
867.994	43.86
868.428	29.06
868.862	32.46
869.296	43.96
869.73	47.46
870.164	42.46
870.598	44.06
871.031	28.46
871.465	20.26
871.899	22.36
872.333	21.26
872.766	15.66
873.2	20.76
873.634	25.96
874.067	20.06
874.501	15.76
874.935	24.16
875.368	21.06
875.802	18.56
876.235	19.26
876.669	19.26
877.102	18.16
877.535	21.56
877.969	12.16
878.402	20.16
878.836	8.86
879.269	13.46
879.702	19.96
880.135	15.86
880.569	19.86
881.002	20.96
881.435	19.46
881.868	10.16
882.301	13.86
882.734	16.66
883.167	16.36
883.601	13.96
884.034	14.26
884.467	6.96
884.899	16.36
885.332	9.96
885.765	11.76
886.198	8.56
886.631	13.16
887.064	16.46
887.497	11.76
887.929	19.56
888.362	11.76
888.795	7.96
889.228	15.56
889.66	17.06
890.093	10.96
890.526	14.66
890.958	14.16
891.391	17.16
891.823	21.66
892.256	15.26
892.688	16.26
893.121	19.76
893.553	7.96
893.985	17.76
894.418	15.26
894.85	7.46
895.282	9.56
895.715	11.76
896.147	9.16
896.579	13.46
897.011	9.46
897.444	11.56
897.876	7.06
898.308	11.46
898.74	15.46
899.172	5.66
899.604	15.86
900.036	20.86
900.468	10.26
900.9	7.66
901.332	14.06
901.764	14.86
902.196	17.06
902.628	11.46
903.06	13.16
903.491	16.76
903.923	14.26
904.355	16.96
904.787	20.66
905.218	12.86
905.65	14.36
906.082	8.96
906.513	10.86
906.945	15.26
907.376	10.56
907.808	14.46
908.239	16.36
908.671	15.96
909.102	15.26
909.534	20.86
909.965	36.06
910.397	74.26
910.828	260.76
911.259	405.26
911.691	177.06
912.122	87.66
912.553	45.36
912.984	28.76
913.415	24.86
913.847	20.66
914.278	11.16
914.709	9.16
915.14	10.46
915.571	17.66
916.002	6.56
916.433	9.46
916.864	10.36
917.295	4.76
917.726	16.36
918.157	10.96
918.587	19.16
919.018	16.06
919.449	11.16
919.88	17.46
920.311	22.86
920.741	35.36
921.172	140.76
921.603	122.86
922.033	53.86
922.464	34.76
922.895	19.16
923.325	20.16
923.756	11.76
924.186	12.46
924.617	20.66
925.047	36.76
925.478	46.66
925.908	38.36
926.338	28.56
926.769	11.96
927.199	19.76
927.629	5.56
928.06	8.96
928.49	14.46
928.92	9.26
929.35	10.76
929.78	10.86
930.21	1.36
930.641	4.06
931.071	11.86
931.501	4.46
931.931	1.66
932.361	2.36
932.791	3.66
933.221	3.16
933.651	3.26
934.08	11.66
934.51	25.56
934.94	4.06
935.37	4.36
935.8	6.96
936.229	7.96
936.659	1.36
937.089	0.36
937.519	5.36
937.948	19.56
938.378	13.96
938.807	1.36
939.237	3.66
939.666	8.46
940.096	-4.24
940.525	4.16
940.955	-3.04
941.384	4.46
941.814	-4.14
942.243	-0.14
942.672	2.36
943.102	-8.74
943.531	-0.14
943.96	2.06
944.39	1.16
944.819	-1.64
945.248	2.56
945.677	-2.54
946.106	4.06
946.535	5.46
946.964	-0.34
947.393	5.16
947.822	-3.14
948.251	-4.84
948.68	2.26
949.109	-0.94
949.538	4.36
949.967	2.46
950.396	-0.14
950.825	-1.54
951.254	3.36
951.682	-4.94
952.111	1.36
952.54	6.06
952.969	-2.24
953.397	-6.84
953.826	2.36
954.254	-7.74
954.683	4.56
955.112	-3.94
955.54	-1.74
955.969	2.46
956.397	3.86
956.826	-3.94
957.254	0.56
957.682	1.26
958.111	-1.44
958.539	-5.64
958.967	1.16
959.396	-0.94
959.824	-0.64
960.252	4.96
960.68	-4.24
961.109	-5.14
961.537	-2.94
961.965	-2.14
962.393	-1.54
962.821	-6.44
963.249	-2.54
963.677	2.76
964.105	2.66
964.533	41.56
964.961	40.06
965.389	17.66
965.817	3.06
966.245	1.66
966.672	-1.94
967.1	-12.84
967.528	-4.74
967.956	-5.84
968.383	0.16
968.811	-4.24
969.239	-4.44
969.666	-6.94
970.094	-2.74
970.522	-1.64
970.949	3.16
971.377	-13.44
971.804	-1.44
972.232	-9.34
972.659	-1.64
973.087	-7.74
973.514	-4.74
973.941	-9.94
974.369	2.76
974.796	4.66
975.223	-3.14
975.651	-6.34
976.078	-3.84
976.505	-2.34
976.932	5.46
977.359	17.06
977.786	10.86
978.214	-0.74
978.641	-8.34
979.068	-2.94
979.495	-4.54
979.922	-3.54
980.349	-0.04
980.776	-3.04
981.202	-3.14
981.629	3.26
982.056	3.26
982.483	-0.44
982.91	1.66
983.337	-7.24
983.763	2.46
984.19	-5.34
984.617	-0.44
985.043	-2.34
985.47	-0.44
985.897	-1.84
986.323	-10.94
986.75	-1.74
987.176	-2.44
987.603	3.36
988.029	-3.64
988.456	-8.74
988.882	0.36
989.308	-5.24
989.735	-8.74
990.161	0.76
990.587	-4.64
991.014	-0.34
991.44	6.96
991.866	-2.14
992.292	-6.64
992.719	1.86
993.145	1.36
993.571	-5.54
993.997	-8.34
994.423	-2.94
994.849	-8.64
995.275	7.96
995.701	3.66
996.127	-1.64
996.553	2.56
996.979	3.46
997.405	0.36
997.83	-2.44
998.256	-5.44
998.682	-9.74
999.108	-12.04
999.534	-4.94
999.959	0.46
1000.385	-8.04
1000.811	0.06
1001.236	-13.44
1001.662	-8.84
1002.087	-8.04
1002.513	-2.64
1002.938	7.36
1003.364	-1.44
1003.789	3.76
1004.215	1.66
1004.64	-0.34
1005.066	4.26
1005.491	-0.14
1005.916	-5.64
1006.342	-6.54
1006.767	-6.94
1007.192	4.26
1007.617	-2.34
1008.042	-7.94
1008.468	-9.14
1008.893	-5.74
1009.318	0.76
1009.743	-4.44
1010.168	-3.24
1010.593	0.96
1011.018	-6.74
1011.443	-2.44
1011.868	5.76
1012.293	-0.74
1012.718	-9.14
1013.143	-3.44
1013.567	-4.74
1013.992	-2.44
1014.417	-9.84
1014.842	7.66
1015.267	-7.84
1015.691	-6.24
1016.116	2.46
1016.541	-6.84
1016.965	-3.24
1017.39	-1.84
1017.814	-2.44
1018.239	-0.44
1018.663	-10.44
1019.088	-11.14
1019.512	-2.64
1019.937	-3.84
1020.361	-7.64
1020.785	-10.24
1021.21	2.26
1021.634	-7.04
1022.058	0.76
1022.483	-2.64
1022.907	-6.04
1023.331	-7.84
1023.755	-3.24
1024.179	-6.54
1024.604	-7.44
1025.028	-7.84
1025.452	-3.24
1025.876	-5.94
1026.3	1.46
1026.724	-8.04
1027.148	0.26
1027.572	-8.14
1027.996	-8.64
1028.42	-7.14
1028.843	-3.84
1029.267	-12.04
1029.691	-1.64
1030.115	-1.74
1030.539	-2.64
1030.962	-3.04
1031.386	-12.84
1031.81	-5.84
1032.233	-0.94
1032.657	-3.04
1033.08	-6.34
1033.504	-6.54
1033.927	-5.14
1034.351	-3.24
1034.774	-0.84
1035.198	-5.24
1035.621	-7.34
1036.045	-4.64
1036.468	-0.04
1036.891	-9.84
1037.315	-6.64
1037.738	-7.04
1038.161	-0.24
1038.584	-9.44
1039.008	-4.64
1039.431	-6.34
1039.854	-1.34
1040.277	-10.94
1040.7	-15.74
1041.123	-1.64
1041.546	-6.94
1041.969	-11.84
1042.392	-5.74
1042.815	2.46
1043.238	0.16
1043.661	0.16
1044.084	-5.34
1044.507	-5.44
1044.93	-8.94
1045.352	-2.44
1045.775	-3.14
1046.198	-4.44
1046.621	-7.04
1047.043	-0.94
1047.466	4.66
1047.889	-0.44
1048.311	-7.34
1048.734	-7.04
1049.156	-4.34
1049.579	-6.14
1050.001	-3.44
1050.424	2.16
1050.846	-1.64
1051.269	2.16
1051.691	-5.24
1052.113	-9.44
1052.536	0.26
1052.958	-2.64
1053.38	-7.84
1053.802	-9.74
1054.225	0.96
1054.647	-9.84
1055.069	-5.94
1055.491	5.76
1055.913	-4.24
1056.335	-2.54
1056.757	-3.34
1057.179	-5.74
1057.601	-2.54
1058.023	0.66
1058.445	-7.64
1058.867	-9.64
1059.289	1.26
1059.711	-9.54
1060.133	-9.74
1060.555	-3.94
1060.976	-10.54
1061.398	-8.54
1061.82	-6.84
1062.241	-5.14
1062.663	-8.54
1063.085	-8.54
1063.506	1.06
1063.928	-4.14
1064.35	-3.74
1064.771	-15.54
1065.193	-3.04
1065.614	-9.04
1066.035	3.06
1066.457	-3.04
1066.878	-1.74
1067.3	-10.14
1067.721	-5.14
1068.142	1.36
1068.564	-4.64
1068.985	-8.04
1069.406	-3.24
1069.827	-5.24
1070.248	-1.94
1070.67	-2.74
1071.091	-6.14
1071.512	-3.64
1071.933	-8.64
1072.354	-5.74
1072.775	-9.34
1073.196	-6.24
1073.617	-4.24
1074.038	-8.44
1074.459	-2.34
1074.88	-8.94
1075.3	-0.84
1075.721	-6.34
1076.142	0.16
1076.563	-1.84
1076.983	-15.94
1077.404	-3.74
1077.825	-6.94
1078.246	-6.94
1078.666	-6.24
1079.087	-5.74
1079.507	-10.64
1079.928	0.06
1080.348	-1.14
1080.769	-3.74
1081.189	-0.04
1081.61	-1.24
1082.03	-11.04
1082.451	-3.54
1082.871	-4.14
1083.291	-6.44
1083.711	-9.34
1084.132	-4.44
1084.552	-3.04
1084.972	-3.64
1085.392	-9.34
1085.813	-12.14
1086.233	-9.34
1086.653	-6.44
1087.073	0.26
1087.493	-7.34
1087.913	-6.44
1088.333	-6.34
1088.753	1.36
1089.173	4.86
1089.593	-6.94
1090.013	-5.84
1090.433	-1.74
1090.852	-6.54
1091.272	-3.04
1091.692	-2.34
1092.112	-4.94
1092.531	-10.34
1092.951	-10.74
1093.371	-3.04
1093.79	3.96
1094.21	-3.34
1094.63	-8.94
1095.049	-4.24
1095.469	-0.44
1095.888	-5.54
1096.308	-0.54
1096.727	2.16
1097.146	-7.44
1097.566	-0.24
1097.985	-7.74
1098.405	-1.64
1098.824	1.76
1099.243	0.36
1099.662	-5.74
1100.082	-0.94
1100.501	-3.64
1100.92	-3.44
1101.339	-3.54
1101.758	-8.84
