Data from 20171114-ORNL-Ar_H_NY_Subt18_08-06-16-366.txt Node
Date: Tue Nov 14 08:06:16 EST 2017
User: Ender
Spectrometer: HR+D1039
Trigger mode: 0
Integration Time (sec): 2.730000E-2
Scans to average: 10
Electric dark correction enabled: true
Nonlinearity correction enabled: false
Boxcar width: 0
XAxis mode: Wavelengths
Number of Pixels in Spectrum: 2048
>>>>>Begin Spectral Data<<<<<
187.836	-3.94
188.309	-3.94
188.782	-3.94
189.255	0.56
189.728	-2.34
190.201	1.26
190.674	1.66
191.147	-3.84
191.619	-6.64
192.092	3.26
192.565	9.26
193.038	-1.64
193.511	2.46
193.984	4.86
194.456	-5.84
194.929	1.86
195.402	-2.94
195.874	1.96
196.347	-3.84
196.82	-9.54
197.292	8.76
197.765	-0.44
198.237	-6.24
198.71	1.66
199.182	0.66
199.655	7.86
200.127	-3.04
200.6	-2.64
201.072	3.26
201.544	-1.34
202.017	-8.54
202.489	3.16
202.961	-5.54
203.433	-4.44
203.906	-11.44
204.378	-2.54
204.85	-8.44
205.322	-8.34
205.794	-2.24
206.266	-5.54
206.739	-5.24
207.211	5.66
207.683	-9.04
208.155	-12.54
208.627	-3.74
209.099	-6.64
209.57	-6.74
210.042	-5.34
210.514	-4.64
210.986	-0.44
211.458	-8.44
211.93	-3.74
212.402	-0.94
212.873	-4.04
213.345	-8.84
213.817	-11.34
214.288	-1.84
214.76	-9.24
215.232	-4.54
215.703	-6.94
216.175	-1.84
216.646	-6.64
217.118	-10.84
217.589	-4.34
218.061	-4.24
218.532	-3.84
219.004	-5.94
219.475	-2.14
219.946	-8.84
220.418	-5.04
220.889	4.36
221.36	2.46
221.832	-12.34
222.303	-9.44
222.774	-0.74
223.245	-10.74
223.717	-11.94
224.188	-8.34
224.659	-8.44
225.13	-8.94
225.601	-2.44
226.072	2.16
226.543	-1.24
227.014	4.16
227.485	-0.34
227.956	-5.34
228.427	-5.64
228.898	1.86
229.369	0.46
229.839	-3.54
230.31	-7.74
230.781	8.36
231.252	-0.44
231.722	-1.24
232.193	-0.84
232.664	-0.54
233.135	4.56
233.605	4.06
234.076	-1.84
234.546	0.56
235.017	7.36
235.487	1.96
235.958	-2.54
236.428	-2.74
236.899	3.16
237.369	3.36
237.84	-5.14
238.31	5.66
238.78	2.46
239.251	-2.14
239.721	2.06
240.191	-1.44
240.662	-1.84
241.132	2.26
241.602	-1.14
242.072	-0.14
242.542	8.66
243.013	-1.54
243.483	0.96
243.953	0.56
244.423	0.56
244.893	-5.54
245.363	1.66
245.833	3.96
246.303	-4.54
246.773	6.36
247.243	6.46
247.712	1.86
248.182	4.56
248.652	6.56
249.122	4.36
249.592	7.56
250.061	14.26
250.531	29.16
251.001	13.66
251.471	22.56
251.94	18.86
252.41	8.06
252.879	-0.64
253.349	6.96
253.818	10.26
254.288	0.56
254.757	1.46
255.227	5.86
255.696	0.26
256.166	6.66
256.635	13.26
257.105	9.26
257.574	2.66
258.043	7.56
258.513	8.36
258.982	13.26
259.451	6.26
259.92	8.76
260.389	4.56
260.859	13.26
261.328	11.26
261.797	14.56
262.266	9.56
262.735	9.46
263.204	8.76
263.673	5.86
264.142	12.16
264.611	-3.04
265.08	2.36
265.549	4.26
266.018	1.76
266.487	1.16
266.955	1.96
267.424	2.36
267.893	6.16
268.362	-0.64
268.83	3.46
269.299	12.56
269.768	9.66
270.236	8.06
270.705	4.36
271.174	10.16
271.642	5.36
272.111	12.06
272.579	18.36
273.048	20.86
273.516	24.96
273.985	30.36
274.453	23.46
274.922	19.86
275.39	6.16
275.858	4.16
276.327	11.76
276.795	20.16
277.263	12.66
277.731	30.46
278.2	55.06
278.668	62.76
279.136	42.56
279.604	21.66
280.072	19.56
280.54	9.46
281.008	10.36
281.477	17.66
281.945	13.56
282.413	16.36
282.881	14.76
283.348	3.66
283.816	16.16
284.284	12.56
284.752	18.26
285.22	14.26
285.688	20.66
286.156	21.66
286.623	41.06
287.091	47.36
287.559	28.66
288.026	22.16
288.494	20.16
288.962	8.66
289.429	11.06
289.897	16.06
290.364	9.86
290.832	23.86
291.3	16.36
291.767	15.86
292.234	21.06
292.702	11.06
293.169	11.36
293.637	28.56
294.104	21.06
294.571	8.86
295.039	16.06
295.506	12.36
295.973	10.46
296.44	12.26
296.908	16.96
297.375	18.36
297.842	21.56
298.309	19.76
298.776	9.96
299.243	32.36
299.71	18.96
300.177	23.76
300.644	22.76
301.111	25.36
301.578	22.76
302.045	22.16
302.512	28.86
302.979	30.26
303.446	22.36
303.913	18.46
304.379	17.36
304.846	26.96
305.313	25.26
305.78	20.76
306.246	29.06
306.713	27.46
307.18	27.26
307.646	28.76
308.113	27.46
308.579	24.26
309.046	22.36
309.512	26.06
309.979	14.56
310.445	29.86
310.912	30.66
311.378	36.76
311.845	27.86
312.311	33.46
312.777	32.66
313.244	31.66
313.71	42.36
314.176	36.06
314.642	34.76
315.109	31.66
315.575	29.96
316.041	39.86
316.507	31.86
316.973	41.56
317.439	35.26
317.905	37.86
318.371	38.36
318.837	33.46
319.303	35.46
319.769	34.96
320.235	27.86
320.701	28.56
321.167	32.46
321.633	34.86
322.099	40.76
322.564	45.86
323.03	48.46
323.496	38.56
323.962	38.16
324.427	33.56
324.893	44.56
325.359	47.06
325.824	40.06
326.29	40.26
326.755	29.96
327.221	37.96
327.686	41.16
328.152	47.66
328.617	48.96
329.083	47.76
329.548	51.66
330.014	44.86
330.479	41.66
330.944	45.06
331.41	44.66
331.875	41.36
332.34	44.66
332.805	52.86
333.271	45.86
333.736	51.16
334.201	51.96
334.666	51.36
335.131	52.46
335.596	54.06
336.061	51.46
336.526	44.06
336.991	53.36
337.456	63.56
337.921	48.36
338.386	49.66
338.851	48.06
339.316	47.76
339.781	54.76
340.246	56.56
340.711	46.46
341.175	56.66
341.64	46.36
342.105	53.26
342.569	53.56
343.034	64.96
343.499	57.56
343.963	52.76
344.428	66.16
344.893	59.96
345.357	61.66
345.822	60.26
346.286	70.66
346.751	71.46
347.215	71.46
347.679	71.76
348.144	98.26
348.608	83.56
349.073	73.26
349.537	75.26
350.001	79.66
350.465	92.36
350.93	83.26
351.394	84.06
351.858	74.86
352.322	92.56
352.786	88.86
353.25	99.56
353.715	114.56
354.179	105.46
354.643	116.16
355.107	132.96
355.571	113.16
356.035	106.06
356.498	120.76
356.962	118.66
357.426	132.56
357.89	118.36
358.354	90.46
358.818	87.26
359.281	81.86
359.745	84.46
360.209	86.26
360.673	79.56
361.136	83.26
361.6	89.06
362.064	86.26
362.527	84.56
362.991	94.06
363.454	76.86
363.918	79.56
364.381	78.06
364.845	88.06
365.308	90.76
365.772	90.56
366.235	83.06
366.698	86.86
367.162	90.46
367.625	87.56
368.088	95.16
368.552	91.16
369.015	92.36
369.478	100.36
369.941	97.06
370.404	94.66
370.867	105.96
371.331	112.06
371.794	117.46
372.257	117.46
372.72	117.56
373.183	109.36
373.646	107.76
374.109	108.76
374.572	112.06
375.035	115.76
375.497	108.46
375.96	106.06
376.423	113.36
376.886	122.06
377.349	115.76
377.811	107.06
378.274	109.66
378.737	114.06
379.199	115.56
379.662	113.96
380.125	122.86
380.587	114.66
381.05	130.56
381.512	132.36
381.975	138.06
382.437	130.56
382.9	128.96
383.362	133.86
383.825	140.56
384.287	147.66
384.75	146.16
385.212	142.66
385.674	144.86
386.136	138.26
386.599	130.36
387.061	134.36
387.523	134.56
387.985	142.26
388.447	144.36
388.91	148.16
389.372	157.26
389.834	159.56
390.296	145.16
390.758	158.46
391.22	176.36
391.682	215.86
392.144	293.86
392.606	232.56
393.068	165.96
393.529	169.56
393.991	158.06
394.453	154.16
394.915	159.66
395.377	195.86
395.838	212.66
396.3	156.46
396.762	145.66
397.224	147.66
397.685	130.96
398.147	136.56
398.608	132.86
399.07	135.96
399.531	143.16
399.993	146.96
400.454	156.06
400.916	149.56
401.377	151.56
401.839	148.46
402.3	157.46
402.762	174.86
403.223	185.06
403.684	180.36
404.145	161.86
404.607	165.76
405.068	172.96
405.529	174.76
405.99	190.96
406.451	186.46
406.913	177.66
407.374	169.76
407.835	164.66
408.296	164.66
408.757	175.56
409.218	190.06
409.679	184.36
410.14	186.16
410.601	186.96
411.062	185.06
411.522	192.16
411.983	193.26
412.444	182.96
412.905	184.06
413.366	189.26
413.826	203.26
414.287	226.56
414.748	269.86
415.208	254.66
415.669	217.56
416.13	212.66
416.59	209.96
417.051	220.06
417.511	223.26
417.972	247.86
418.432	250.16
418.893	293.06
419.353	259.66
419.814	202.26
420.274	192.86
420.734	191.06
421.195	199.26
421.655	199.96
422.115	195.06
422.576	198.26
423.036	201.76
423.496	215.36
423.956	218.16
424.416	231.66
424.876	276.66
425.336	272.76
425.797	272.66
426.257	262.16
426.717	255.36
427.177	238.96
427.637	223.86
428.097	245.56
428.556	256.96
429.016	285.46
429.476	274.86
429.936	286.06
430.396	285.56
430.856	299.16
431.315	327.26
431.775	364.76
432.235	394.66
432.694	369.16
433.154	372.86
433.614	404.96
434.073	351.86
434.533	288.56
434.993	281.66
435.452	291.56
435.912	304.96
436.371	299.06
436.83	294.56
437.29	278.76
437.749	251.76
438.209	250.26
438.668	289.66
439.127	298.26
439.587	271.06
440.046	261.66
440.505	272.06
440.964	287.96
441.424	339.36
441.883	321.96
442.342	271.06
442.801	236.86
443.26	231.56
443.719	230.86
444.178	219.76
444.637	219.76
445.096	222.36
445.555	224.56
446.014	230.56
446.473	233.26
446.932	238.66
447.391	229.16
447.849	233.06
448.308	228.46
448.767	228.76
449.226	240.86
449.685	238.26
450.143	256.06
450.602	249.66
451.061	230.96
451.519	239.16
451.978	239.66
452.436	242.26
452.895	245.66
453.353	262.66
453.812	252.16
454.27	243.06
454.729	253.96
455.187	250.06
455.646	252.36
456.104	251.86
456.562	266.06
457.021	272.36
457.479	266.46
457.937	283.86
458.395	268.46
458.854	254.56
459.312	270.96
459.77	285.46
460.228	262.86
460.686	253.66
461.144	251.16
461.602	254.56
462.06	249.16
462.518	257.36
462.976	258.16
463.434	260.06
463.892	264.06
464.35	283.86
464.808	294.46
465.266	270.86
465.724	274.96
466.181	278.76
466.639	271.76
467.097	290.86
467.555	307.76
468.012	309.76
468.47	314.16
468.928	339.16
469.385	358.06
469.843	356.46
470.3	355.26
470.758	368.76
471.215	394.56
471.673	424.16
472.13	420.26
472.588	432.36
473.045	376.16
473.503	394.36
473.96	397.86
474.417	411.56
474.875	452.96
475.332	493.36
475.789	474.16
476.246	480.76
476.704	495.46
477.161	522.56
477.618	538.86
478.075	576.26
478.532	633.16
478.989	715.66
479.446	831.16
479.903	786.66
480.36	827.16
480.817	895.36
481.274	993.76
481.731	1097.56
482.188	1190.96
482.645	1322.36
483.102	1421.56
483.558	1582.76
484.015	1628.76
484.472	1596.96
484.929	1546.26
485.385	1487.66
485.842	1456.16
486.299	1393.56
486.755	1339.06
487.212	1113.46
487.668	953.06
488.125	866.56
488.582	803.36
489.038	761.36
489.494	729.16
489.951	699.16
490.407	681.26
490.864	658.06
491.32	651.56
491.776	665.66
492.233	666.66
492.689	624.26
493.145	618.46
493.602	616.86
494.058	631.56
494.514	636.96
494.97	659.66
495.426	659.66
495.882	639.06
496.338	626.56
496.794	655.26
497.251	644.56
497.707	653.16
498.163	653.66
498.618	656.06
499.074	665.16
499.53	695.16
499.986	691.26
500.442	654.46
500.898	650.76
501.354	644.26
501.809	648.96
502.265	666.46
502.721	676.46
503.177	688.96
503.632	685.36
504.088	698.56
504.543	727.06
504.999	726.56
505.455	671.36
505.91	653.86
506.366	644.26
506.821	640.86
507.277	639.76
507.732	638.56
508.187	647.66
508.643	644.76
509.098	649.96
509.553	674.86
510.009	680.96
510.464	684.66
510.919	705.86
511.375	704.46
511.83	713.76
512.285	735.66
512.74	772.56
513.195	802.86
513.65	789.66
514.105	790.96
514.56	781.46
515.015	817.56
515.47	825.06
515.925	810.36
516.38	797.66
516.835	810.76
517.29	801.46
517.745	799.86
518.2	780.36
518.655	766.96
519.109	758.66
519.564	752.36
520.019	750.76
520.474	734.66
520.928	744.16
521.383	733.26
521.838	729.76
522.292	735.46
522.747	723.46
523.201	716.26
523.656	711.16
524.11	713.76
524.565	709.96
525.019	706.36
525.474	717.16
525.928	718.76
526.382	717.76
526.837	713.16
527.291	710.96
527.745	709.56
528.2	714.36
528.654	706.06
529.108	700.86
529.562	703.96
530.016	708.46
530.47	700.26
530.925	711.86
531.379	706.36
531.833	715.76
532.287	710.96
532.741	720.76
533.195	722.06
533.649	728.86
534.103	739.26
534.556	724.06
535.01	726.16
535.464	728.36
535.918	727.86
536.372	731.16
536.826	725.26
537.279	714.36
537.733	722.96
538.187	731.26
538.64	735.66
539.094	743.26
539.548	747.96
540.001	741.96
540.455	744.46
540.908	743.16
541.362	756.36
541.815	752.76
542.269	774.96
542.722	766.86
543.175	786.76
543.629	784.96
544.082	797.56
544.536	803.66
544.989	796.96
545.442	813.16
545.895	800.36
546.349	813.76
546.802	800.56
547.255	813.96
547.708	822.46
548.161	828.86
548.614	840.56
549.067	850.66
549.52	833.16
549.973	835.96
550.426	819.06
550.879	813.46
551.332	816.96
551.785	822.56
552.238	821.06
552.691	829.26
553.144	849.56
553.596	859.36
554.049	878.96
554.502	904.56
554.955	924.96
555.407	918.56
555.86	913.46
556.313	905.96
556.765	904.96
557.218	889.86
557.67	899.36
558.123	893.86
558.576	897.16
559.028	888.76
559.48	889.66
559.933	884.36
560.385	850.66
560.838	820.66
561.29	795.56
561.742	799.96
562.195	779.06
562.647	778.06
563.099	783.76
563.551	792.56
564.004	790.86
564.456	784.76
564.908	772.16
565.36	768.66
565.812	742.76
566.264	739.86
566.716	733.36
567.168	724.76
567.62	737.86
568.072	723.36
568.524	703.56
568.976	699.56
569.428	683.66
569.88	692.36
570.332	695.46
570.784	699.16
571.235	690.96
571.687	711.56
572.139	708.46
572.59	721.16
573.042	722.16
573.494	724.86
573.945	714.86
574.397	691.46
574.849	697.76
575.3	703.86
575.752	695.06
576.203	688.16
576.655	691.86
577.106	683.26
577.557	671.76
578.009	676.26
578.46	672.56
578.912	671.16
579.363	674.26
579.814	686.56
580.265	674.36
580.717	676.06
581.168	675.46
581.619	680.86
582.07	690.26
582.521	687.46
582.972	695.06
583.423	681.26
583.875	693.26
584.326	721.26
584.777	765.36
585.227	831.56
585.678	920.26
586.129	990.56
586.58	1056.76
587.031	1129.46
587.482	1287.16
587.933	1452.06
588.384	1282.56
588.834	971.16
589.285	808.46
589.736	784.66
590.186	779.06
590.637	778.56
591.088	755.06
591.538	744.66
591.989	740.76
592.439	731.16
592.89	731.06
593.34	725.46
593.791	710.96
594.241	722.66
594.692	717.96
595.142	711.76
595.593	706.46
596.043	714.66
596.493	719.36
596.943	720.76
597.394	730.36
597.844	709.66
598.294	741.26
598.744	759.86
599.195	781.46
599.645	824.46
600.095	866.46
600.545	932.06
600.995	969.36
601.445	1032.16
601.895	1107.16
602.345	1141.86
602.795	1123.26
603.245	1092.76
603.695	1028.46
604.145	969.06
604.594	923.86
605.044	861.76
605.494	809.46
605.944	759.56
606.393	749.46
606.843	737.36
607.293	740.56
607.743	745.46
608.192	748.66
608.642	766.96
609.091	777.06
609.541	769.96
609.99	777.16
610.44	779.46
610.889	731.66
611.339	709.76
611.788	697.76
612.238	711.06
612.687	727.96
613.136	724.26
613.586	737.36
614.035	740.96
614.484	760.06
614.933	763.66
615.383	740.26
615.832	738.36
616.281	732.16
616.73	692.26
617.179	673.56
617.628	664.66
618.077	649.56
618.526	630.66
618.975	617.76
619.424	613.86
619.873	617.86
620.322	628.16
620.771	609.46
621.22	608.86
621.669	597.46
622.118	594.66
622.567	588.06
623.015	571.36
623.464	579.66
623.913	564.26
624.361	554.36
624.81	545.26
625.259	560.46
625.707	553.26
626.156	557.76
626.604	571.66
627.053	565.96
627.501	573.46
627.95	567.86
628.398	580.06
628.847	571.46
629.295	581.16
629.744	582.86
630.192	577.46
630.64	571.06
631.089	562.66
631.537	581.16
631.985	584.56
632.433	612.16
632.881	612.56
633.33	667.36
633.778	632.66
634.226	566.26
634.674	573.06
635.122	584.26
635.57	606.96
636.018	629.26
636.466	585.86
636.914	560.56
637.362	581.96
637.81	583.86
638.258	592.06
638.705	578.26
639.153	598.66
639.601	622.56
640.049	650.76
640.497	673.96
640.944	697.76
641.392	647.06
641.84	619.06
642.287	589.36
642.735	574.56
643.182	572.16
643.63	572.06
644.078	577.16
644.525	591.66
644.973	594.06
645.42	599.36
645.867	621.56
646.315	642.86
646.762	662.26
647.21	691.86
647.657	724.56
648.104	754.96
648.551	776.96
648.999	842.86
649.446	923.66
649.893	1022.16
650.34	1165.06
650.787	1395.46
651.234	1723.96
651.682	2244.56
652.129	3093.06
652.576	4423.96
653.023	6515.26
653.47	8956.46
653.917	11174.86
654.363	12945.26
654.81	14282.26
655.257	13584.56
655.704	8929.06
656.151	5286.36
656.598	3392.86
657.044	2412.26
657.491	1865.76
657.938	1498.26
658.385	1252.66
658.831	1084.86
659.278	977.96
659.724	863.06
660.171	792.36
660.618	721.26
661.064	686.66
661.511	671.26
661.957	658.66
662.404	646.86
662.85	652.66
663.296	626.56
663.743	555.56
664.189	534.36
664.635	535.56
665.082	527.86
665.528	531.16
665.974	518.76
666.42	507.26
666.867	501.66
667.313	494.56
667.759	477.16
668.205	480.66
668.651	489.86
669.097	479.56
669.543	500.86
669.989	462.56
670.435	450.86
670.881	443.06
671.327	446.06
671.773	467.26
672.219	489.56
672.665	539.36
673.11	581.56
673.556	627.66
674.002	659.36
674.448	655.16
674.893	545.46
675.339	483.76
675.785	446.46
676.23	420.06
676.676	385.36
677.122	383.26
677.567	374.86
678.013	369.56
678.458	360.96
678.904	358.86
679.349	351.36
679.794	354.56
680.24	355.56
680.685	344.76
681.131	352.56
681.576	347.06
682.021	357.46
682.466	354.66
682.912	346.56
683.357	348.96
683.802	377.16
684.247	409.26
684.692	458.66
685.137	497.66
685.583	539.96
686.028	553.16
686.473	516.16
686.918	450.46
687.363	416.76
687.807	390.46
688.252	363.16
688.697	350.46
689.142	334.86
689.587	331.76
690.032	315.46
690.477	341.46
690.921	351.36
691.366	379.46
691.811	397.86
692.255	433.16
692.7	459.86
693.145	488.96
693.589	690.76
694.034	1115.26
694.478	1525.26
694.923	1724.66
695.367	2246.26
695.812	1194.36
696.256	496.46
696.701	376.26
697.145	342.86
697.59	324.16
698.034	316.56
698.478	327.36
698.922	318.96
699.367	329.46
699.811	340.66
700.255	351.56
700.699	374.26
701.143	417.76
701.588	474.16
702.032	516.56
702.476	510.76
702.92	491.76
703.364	491.16
703.808	630.56
704.252	1019.16
704.696	1444.36
705.14	1673.16
705.584	2126.46
706.027	1056.56
706.471	524.56
706.915	388.86
707.359	346.36
707.803	323.26
708.246	307.46
708.69	304.26
709.134	314.26
709.577	309.16
710.021	320.46
710.465	301.86
710.908	294.06
711.352	294.66
711.795	318.96
712.239	349.16
712.682	385.06
713.126	411.26
713.569	462.96
714.012	361.96
714.456	313.36
714.899	296.16
715.342	275.26
715.786	255.46
716.229	259.96
716.672	253.86
717.115	240.46
717.558	250.16
718.002	254.26
718.445	261.06
718.888	288.96
719.331	292.56
719.774	303.96
720.217	303.86
720.66	287.86
721.103	257.86
721.546	251.06
721.989	244.16
722.432	232.66
722.874	231.76
723.317	236.66
723.76	235.66
724.203	253.06
724.645	313.76
725.088	443.36
725.531	561.86
725.974	640.06
726.416	541.06
726.859	311.16
727.301	248.06
727.744	233.86
728.187	230.86
728.629	238.66
729.071	244.96
729.514	259.06
729.956	271.96
730.399	282.76
730.841	284.86
731.283	278.46
731.726	265.86
732.168	259.56
732.61	265.66
733.053	283.86
733.495	313.66
733.937	349.16
734.379	394.16
734.821	428.46
735.263	539.76
735.705	817.16
736.148	1549.76
736.59	2559.26
737.032	3049.46
737.474	2467.56
737.916	806.56
738.357	425.56
738.799	325.86
739.241	295.36
739.683	275.06
740.125	285.76
740.567	302.26
741.008	313.76
741.45	311.66
741.892	312.26
742.334	343.76
742.775	352.56
743.217	337.76
743.658	266.66
744.1	250.56
744.542	267.56
744.983	309.46
745.425	339.56
745.866	336.46
746.307	276.66
746.749	277.46
747.19	318.26
747.632	455.76
748.073	864.76
748.514	1830.06
748.956	2811.06
749.397	3547.06
749.838	2934.36
750.279	2942.86
750.72	1470.16
751.162	537.66
751.603	321.16
752.044	246.16
752.485	213.16
752.926	201.46
753.367	202.26
753.808	189.96
754.249	193.96
754.69	183.66
755.131	181.16
755.572	179.16
756.013	181.26
756.453	179.26
756.894	186.86
757.335	188.16
757.776	188.46
758.216	187.06
758.657	194.46
759.098	197.76
759.538	218.86
759.979	267.76
760.42	363.86
760.86	691.56
761.301	1773.96
761.741	4365.26
762.182	6353.56
762.622	4491.96
763.063	1289.86
763.503	540.76
763.943	342.76
764.384	334.46
764.824	383.06
765.264	414.06
765.705	290.86
766.145	209.26
766.585	188.26
767.025	183.26
767.465	179.06
767.906	230.36
768.346	302.86
768.786	326.76
769.226	256.16
769.666	311.66
770.106	612.86
770.546	1523.56
770.986	2616.96
771.426	2359.76
771.866	780.06
772.306	321.16
772.745	208.56
773.185	169.16
773.625	163.66
774.065	167.26
774.505	199.76
774.944	300.36
775.384	637.06
775.824	1159.86
776.263	1133.56
776.703	493.86
777.142	219.36
777.582	157.76
778.021	131.76
778.461	137.56
778.9	138.46
779.34	125.76
779.779	117.66
780.219	108.16
780.658	119.66
781.097	113.16
781.537	113.66
781.976	107.06
782.415	107.66
782.855	107.56
783.294	100.06
783.733	110.16
784.172	107.86
784.611	98.66
785.05	109.76
785.489	113.66
785.928	118.16
786.367	122.06
786.806	117.96
787.245	128.66
787.684	134.46
788.123	143.76
788.562	129.46
789.001	121.36
789.44	125.96
789.879	121.86
790.317	118.46
790.756	126.56
791.195	128.46
791.634	146.16
792.072	198.76
792.511	358.86
792.95	990.16
793.388	2108.36
793.827	1925.86
794.265	670.56
794.704	273.76
795.142	186.96
795.581	149.96
796.019	139.46
796.458	132.26
796.896	124.76
797.334	132.86
797.773	151.76
798.211	215.16
798.649	431.86
799.087	1010.46
799.526	1571.76
799.964	1987.76
800.402	1988.66
800.84	744.86
801.278	298.26
801.716	187.36
802.154	154.36
802.592	146.06
803.03	139.76
803.468	129.96
803.906	139.76
804.344	150.16
804.782	141.06
805.22	138.56
805.658	131.46
806.096	145.26
806.533	153.66
806.971	171.56
807.409	213.36
807.847	304.86
808.284	639.66
808.722	1824.26
809.16	3233.76
809.597	3081.66
810.035	5367.66
810.472	5733.66
810.91	2058.96
811.347	790.46
811.785	394.26
812.222	255.66
812.66	198.56
813.097	160.76
813.535	139.66
813.972	130.86
814.409	115.56
814.846	104.96
815.284	115.06
815.721	102.56
816.158	106.16
816.595	118.26
817.032	178.56
817.47	191.86
817.907	177.76
818.344	144.06
818.781	116.36
819.218	103.46
819.655	124.06
820.092	183.66
820.529	213.06
820.966	181.36
821.403	129.36
821.839	105.96
822.276	100.66
822.713	117.56
823.15	134.86
823.587	115.46
824.023	145.66
824.46	294.86
824.897	883.06
825.333	1343.36
825.77	575.76
826.206	227.96
826.643	130.96
827.08	96.26
827.516	83.76
827.953	74.46
828.389	78.36
828.825	70.56
829.262	60.76
829.698	65.36
830.135	62.66
830.571	63.26
831.007	58.96
831.443	65.36
831.88	56.86
832.316	65.56
832.752	69.06
833.188	66.56
833.624	70.36
834.06	64.66
834.497	69.06
834.933	69.46
835.369	80.16
835.805	68.16
836.241	70.76
836.677	78.46
837.112	85.76
837.548	100.86
837.984	131.16
838.42	198.06
838.856	482.46
839.292	1493.76
839.727	2287.96
840.163	1060.86
840.599	907.66
841.034	2013.76
841.47	2096.26
841.906	766.56
842.341	332.96
842.777	229.26
843.212	308.26
843.648	301.96
844.083	151.36
844.519	89.26
844.954	81.16
845.39	60.96
845.825	57.06
846.261	53.16
846.696	58.76
847.131	50.66
847.566	52.96
848.002	55.86
848.437	56.26
848.872	61.16
849.307	63.66
849.742	83.26
850.177	178.06
850.613	545.46
851.048	876.96
851.483	375.46
851.918	146.46
852.353	77.76
852.788	56.96
853.223	58.06
853.657	60.56
854.092	43.46
854.527	42.16
854.962	44.26
855.397	43.76
855.832	48.56
856.266	41.76
856.701	38.26
857.136	41.36
857.57	34.46
858.005	54.36
858.44	56.66
858.874	45.06
859.309	47.06
859.743	38.46
860.178	46.96
860.612	42.66
861.047	46.56
861.481	64.76
861.915	72.26
862.35	52.16
862.784	33.76
863.218	37.36
863.653	34.76
864.087	43.96
864.521	48.86
864.955	69.66
865.39	151.46
865.824	177.16
866.258	118.76
866.692	163.56
867.126	169.16
867.56	97.86
867.994	46.76
868.428	35.26
868.862	43.86
869.296	55.86
869.73	54.56
870.164	51.36
870.598	47.46
871.031	36.36
871.465	31.86
871.899	29.16
872.333	22.56
872.766	30.76
873.2	19.26
873.634	28.26
874.067	25.56
874.501	31.06
874.935	34.46
875.368	29.26
875.802	27.76
876.235	24.66
876.669	24.46
877.102	20.36
877.535	25.16
877.969	17.56
878.402	26.06
878.836	18.76
879.269	21.36
879.702	23.76
880.135	23.66
880.569	25.06
881.002	28.76
881.435	18.26
881.868	11.36
882.301	24.56
882.734	11.76
883.167	22.86
883.601	15.86
884.034	24.46
884.467	16.16
884.899	16.46
885.332	20.76
885.765	14.36
886.198	14.26
886.631	22.36
887.064	16.66
887.497	18.66
887.929	21.76
888.362	21.66
888.795	10.06
889.228	22.76
889.66	20.36
890.093	18.26
890.526	18.66
890.958	22.86
891.391	14.16
891.823	25.26
892.256	16.36
892.688	12.66
893.121	17.06
893.553	17.66
893.985	29.96
894.418	19.96
894.85	17.96
895.282	16.56
895.715	15.06
896.147	20.16
896.579	14.96
897.011	16.76
897.444	17.36
897.876	17.46
898.308	18.16
898.74	16.86
899.172	10.36
899.604	20.46
900.036	18.86
900.468	18.26
900.9	18.66
901.332	20.96
901.764	18.26
902.196	18.36
902.628	15.36
903.06	17.16
903.491	31.86
903.923	24.06
904.355	23.56
904.787	20.16
905.218	20.06
905.65	18.76
906.082	12.86
906.513	10.36
906.945	13.96
907.376	15.06
907.808	20.66
908.239	17.46
908.671	22.96
909.102	11.96
909.534	26.86
909.965	45.36
910.397	86.16
910.828	308.06
911.259	468.56
911.691	216.66
912.122	104.66
912.553	45.86
912.984	30.46
913.415	27.46
913.847	26.36
914.278	24.66
914.709	14.76
915.14	21.66
915.571	20.26
916.002	9.76
916.433	17.16
916.864	11.66
917.295	13.76
917.726	19.86
918.157	17.06
918.587	25.16
919.018	18.56
919.449	16.26
919.88	19.66
920.311	30.16
920.741	49.26
921.172	161.26
921.603	142.96
922.033	66.26
922.464	41.86
922.895	23.86
923.325	24.16
923.756	19.06
924.186	13.36
924.617	25.36
925.047	38.36
925.478	51.16
925.908	42.06
926.338	28.06
926.769	22.96
927.199	14.66
927.629	10.76
928.06	16.16
928.49	19.36
928.92	11.76
929.35	10.56
929.78	13.56
930.21	0.36
930.641	7.76
931.071	4.46
931.501	3.86
931.931	14.96
932.361	6.36
932.791	0.86
933.221	4.56
933.651	5.76
934.08	18.16
934.51	34.16
934.94	11.06
935.37	9.16
935.8	11.06
936.229	11.96
936.659	5.56
937.089	-1.54
937.519	12.06
937.948	19.56
938.378	21.96
938.807	1.56
939.237	-0.14
939.666	7.46
940.096	1.56
940.525	-2.64
940.955	0.46
941.384	7.46
941.814	1.76
942.243	1.66
942.672	3.36
943.102	0.86
943.531	-1.64
943.96	6.76
944.39	-1.34
944.819	-1.04
945.248	8.36
945.677	3.36
946.106	3.46
946.535	10.06
946.964	1.36
947.393	2.96
947.822	6.76
948.251	-1.44
948.68	3.96
949.109	12.86
949.538	3.66
949.967	-4.24
950.396	-3.84
950.825	7.16
951.254	-0.14
951.682	-1.44
952.111	4.26
952.54	6.36
952.969	-2.24
953.397	-1.84
953.826	1.26
954.254	-5.14
954.683	3.66
955.112	-3.04
955.54	-2.44
955.969	2.16
956.397	-1.44
956.826	-7.44
957.254	4.96
957.682	-0.64
958.111	3.16
958.539	9.06
958.967	1.96
959.396	-4.64
959.824	0.26
960.252	2.96
960.68	-8.44
961.109	-3.44
961.537	-2.24
961.965	5.76
962.393	2.36
962.821	-6.74
963.249	5.96
963.677	3.56
964.105	2.26
964.533	44.76
964.961	38.76
965.389	15.76
965.817	10.86
966.245	5.66
966.672	-1.64
967.1	-6.74
967.528	-2.74
967.956	-5.34
968.383	3.96
968.811	-4.44
969.239	-0.94
969.666	-9.94
970.094	-2.84
970.522	4.36
970.949	-1.04
971.377	-2.64
971.804	0.56
972.232	2.06
972.659	-2.44
973.087	-3.64
973.514	-1.84
973.941	-4.74
974.369	-0.54
974.796	-1.04
975.223	3.16
975.651	0.76
976.078	4.26
976.505	-5.14
976.932	5.36
977.359	14.86
977.786	10.36
978.214	-4.64
978.641	-1.44
979.068	-7.54
979.495	-6.24
979.922	-4.44
980.349	-1.54
980.776	1.06
981.202	-4.24
981.629	0.76
982.056	5.76
982.483	1.76
982.91	2.56
983.337	-3.74
983.763	3.16
984.19	-5.74
984.617	-2.94
985.043	-6.74
985.47	1.66
985.897	-2.14
986.323	-4.74
986.75	5.16
987.176	-0.14
987.603	-4.44
988.029	8.06
988.456	-3.84
988.882	4.36
989.308	-6.84
989.735	-5.44
990.161	0.46
990.587	1.56
991.014	2.46
991.44	8.76
991.866	1.06
992.292	-2.34
992.719	-1.34
993.145	3.46
993.571	-12.84
993.997	-3.24
994.423	-3.74
994.849	-7.64
995.275	11.76
995.701	4.56
996.127	-3.14
996.553	-5.74
996.979	1.06
997.405	-3.94
997.83	-5.84
998.256	-2.54
998.682	-6.14
999.108	-9.94
999.534	-4.34
999.959	-2.74
1000.385	-5.54
1000.811	4.16
1001.236	-6.74
1001.662	-5.34
1002.087	-10.34
1002.513	4.56
1002.938	-0.34
1003.364	1.56
1003.789	-4.74
1004.215	3.16
1004.64	6.06
1005.066	4.86
1005.491	5.16
1005.916	-0.14
1006.342	-1.74
1006.767	-4.84
1007.192	0.46
1007.617	-1.54
1008.042	-3.64
1008.468	-4.04
1008.893	-5.84
1009.318	-4.64
1009.743	-2.04
1010.168	5.76
1010.593	1.76
1011.018	-9.44
1011.443	-6.94
1011.868	-3.14
1012.293	-3.04
1012.718	-3.24
1013.143	4.26
1013.567	1.36
1013.992	6.46
1014.417	-5.64
1014.842	-1.54
1015.267	-5.24
1015.691	-10.14
1016.116	6.16
1016.541	-0.84
1016.965	1.16
1017.39	3.66
1017.814	8.66
1018.239	-0.14
1018.663	-5.84
1019.088	-8.44
1019.512	0.06
1019.937	5.26
1020.361	-4.24
1020.785	-8.54
1021.21	-6.04
1021.634	-2.14
1022.058	-0.34
1022.483	4.76
1022.907	-3.64
1023.331	-5.24
1023.755	-3.44
1024.179	-4.24
1024.604	-4.64
1025.028	-4.04
1025.452	-4.34
1025.876	6.16
1026.3	0.66
1026.724	-9.34
1027.148	-5.84
1027.572	-15.14
1027.996	-1.74
1028.42	-6.64
1028.843	0.06
1029.267	-3.94
1029.691	-1.94
1030.115	-7.04
1030.539	-10.84
1030.962	-5.84
1031.386	-7.74
1031.81	-3.34
1032.233	-3.14
1032.657	-3.14
1033.08	-1.84
1033.504	-5.34
1033.927	3.46
1034.351	-2.34
1034.774	1.06
1035.198	2.96
1035.621	-12.84
1036.045	-6.94
1036.468	4.66
1036.891	-11.04
1037.315	-4.24
1037.738	-7.14
1038.161	-4.24
1038.584	-5.44
1039.008	-9.04
1039.431	-5.04
1039.854	-0.74
1040.277	-11.24
1040.7	-6.64
1041.123	1.06
1041.546	-5.64
1041.969	-4.44
1042.392	-7.44
1042.815	-6.04
1043.238	0.36
1043.661	-4.94
1044.084	-3.04
1044.507	-5.64
1044.93	-10.04
1045.352	-8.64
1045.775	-7.44
1046.198	-0.44
1046.621	-6.14
1047.043	-3.24
1047.466	9.66
1047.889	-5.44
1048.311	-10.74
1048.734	-4.64
1049.156	-4.24
1049.579	-4.34
1050.001	-4.04
1050.424	-0.84
1050.846	-9.64
1051.269	-6.34
1051.691	-6.64
1052.113	-7.24
1052.536	-0.94
1052.958	-1.44
1053.38	0.16
1053.802	-3.94
1054.225	-1.74
1054.647	-6.04
1055.069	-4.54
1055.491	1.66
1055.913	-6.14
1056.335	2.26
1056.757	-4.64
1057.179	-4.74
1057.601	-6.74
1058.023	-4.64
1058.445	-4.54
1058.867	-5.84
1059.289	-4.04
1059.711	-6.34
1060.133	-9.14
1060.555	-0.84
1060.976	-8.84
1061.398	-7.54
1061.82	-7.24
1062.241	-7.04
1062.663	-14.64
1063.085	-2.84
1063.506	-0.04
1063.928	-6.24
1064.35	-2.04
1064.771	-10.04
1065.193	-2.04
1065.614	-6.64
1066.035	-1.84
1066.457	-3.94
1066.878	1.26
1067.3	3.36
1067.721	-6.24
1068.142	-6.54
1068.564	-7.84
1068.985	-3.64
1069.406	-12.34
1069.827	-3.74
1070.248	-2.24
1070.67	-12.54
1071.091	-5.74
1071.512	-4.24
1071.933	-12.54
1072.354	-12.34
1072.775	-3.94
1073.196	-6.44
1073.617	-2.44
1074.038	-5.84
1074.459	-4.84
1074.88	-9.94
1075.3	1.86
1075.721	-5.34
1076.142	-0.14
1076.563	-0.94
1076.983	-5.84
1077.404	-4.54
1077.825	-7.34
1078.246	-2.74
1078.666	-13.74
1079.087	-5.84
1079.507	-0.64
1079.928	-1.44
1080.348	2.16
1080.769	-4.94
1081.189	-0.54
1081.61	-4.94
1082.03	-10.24
1082.451	-5.84
1082.871	-1.04
1083.291	-5.44
1083.711	-13.44
1084.132	-7.94
1084.552	-5.34
1084.972	-5.44
1085.392	-13.94
1085.813	-4.84
1086.233	-9.14
1086.653	-11.04
1087.073	-1.54
1087.493	-8.44
1087.913	-0.24
1088.333	-4.14
1088.753	-2.04
1089.173	1.26
1089.593	-3.34
1090.013	2.16
1090.433	3.16
1090.852	-1.04
1091.272	-1.54
1091.692	-4.54
1092.112	-7.84
1092.531	-11.64
1092.951	-11.34
1093.371	-1.84
1093.79	0.86
1094.21	-4.34
1094.63	-5.24
1095.049	-6.94
1095.469	-8.24
1095.888	-4.94
1096.308	4.06
1096.727	-3.04
1097.146	-3.94
1097.566	1.76
1097.985	-9.64
1098.405	-5.74
1098.824	-5.24
1099.243	-5.84
1099.662	-6.64
1100.082	-0.84
1100.501	2.96
1100.92	-1.94
1101.339	-4.94
1101.758	-8.54
