Data from 20171114-ORNL-Ar_H_NY_Subt18_08-05-42-244.txt Node
Date: Tue Nov 14 08:05:42 EST 2017
User: Ender
Spectrometer: HR+D1039
Trigger mode: 0
Integration Time (sec): 2.730000E-2
Scans to average: 10
Electric dark correction enabled: true
Nonlinearity correction enabled: false
Boxcar width: 0
XAxis mode: Wavelengths
Number of Pixels in Spectrum: 2048
>>>>>Begin Spectral Data<<<<<
187.836	-0.81
188.309	-0.81
188.782	-0.81
189.255	-1.41
189.728	-3.31
190.201	1.99
190.674	-0.31
191.147	4.59
191.619	-8.31
192.092	-3.71
192.565	5.09
193.038	3.39
193.511	0.99
193.984	1.99
194.456	0.89
194.929	4.79
195.402	-5.51
195.874	-0.41
196.347	2.29
196.82	-2.21
197.292	5.59
197.765	0.49
198.237	-6.31
198.71	-3.01
199.182	-6.61
199.655	5.19
200.127	6.09
200.6	-1.71
201.072	0.19
201.544	-1.91
202.017	2.09
202.489	-3.71
202.961	-5.61
203.433	-3.81
203.906	-7.91
204.378	-4.91
204.85	-2.11
205.322	-7.21
205.794	-4.61
206.266	-5.21
206.739	-6.01
207.211	5.59
207.683	-9.61
208.155	-1.91
208.627	-6.01
209.099	-1.21
209.57	-6.61
210.042	-2.31
210.514	-5.21
210.986	1.79
211.458	-10.31
211.93	-8.61
212.402	2.89
212.873	-3.61
213.345	-11.31
213.817	-6.41
214.288	-6.41
214.76	-9.21
215.232	3.19
215.703	1.89
216.175	-4.91
216.646	-2.91
217.118	-9.11
217.589	0.19
218.061	-3.91
218.532	-0.51
219.004	5.59
219.475	0.59
219.946	0.89
220.418	-9.81
220.889	9.19
221.36	1.39
221.832	-6.81
222.303	-0.81
222.774	7.29
223.245	-2.31
223.717	-7.51
224.188	1.39
224.659	-6.41
225.13	-7.31
225.601	-2.41
226.072	0.29
226.543	-2.51
227.014	-1.41
227.485	-5.61
227.956	-5.21
228.427	0.59
228.898	0.49
229.369	5.59
229.839	-4.41
230.31	-3.81
230.781	-2.01
231.252	-2.01
231.722	0.99
232.193	2.49
232.664	2.19
233.135	-3.01
233.605	-3.81
234.076	-4.11
234.546	3.69
235.017	1.29
235.487	2.09
235.958	1.59
236.428	-0.01
236.899	7.09
237.369	7.29
237.84	0.49
238.31	9.59
238.78	4.29
239.251	0.29
239.721	7.09
240.191	2.49
240.662	4.49
241.132	3.89
241.602	-5.01
242.072	-1.41
242.542	3.09
243.013	0.39
243.483	0.19
243.953	3.09
244.423	-0.41
244.893	1.19
245.363	6.69
245.833	3.49
246.303	1.89
246.773	6.69
247.243	3.79
247.712	3.69
248.182	12.69
248.652	5.49
249.122	1.49
249.592	13.09
250.061	23.59
250.531	38.59
251.001	18.39
251.471	23.69
251.94	21.29
252.41	11.89
252.879	2.49
253.349	12.19
253.818	9.89
254.288	8.19
254.757	2.49
255.227	1.99
255.696	6.99
256.166	8.59
256.635	12.89
257.105	12.29
257.574	5.29
258.043	13.49
258.513	15.39
258.982	17.99
259.451	9.89
259.92	14.39
260.389	9.59
260.859	19.69
261.328	15.19
261.797	27.79
262.266	13.49
262.735	18.59
263.204	6.89
263.673	0.29
264.142	9.89
264.611	1.69
265.08	3.39
265.549	-2.01
266.018	11.19
266.487	-1.71
266.955	-1.11
267.424	1.19
267.893	4.69
268.362	4.39
268.83	6.39
269.299	10.39
269.768	5.89
270.236	6.99
270.705	7.29
271.174	11.79
271.642	5.79
272.111	9.49
272.579	18.99
273.048	31.09
273.516	31.69
273.985	31.49
274.453	24.79
274.922	25.59
275.39	13.59
275.858	3.09
276.327	13.79
276.795	27.49
277.263	18.09
277.731	32.49
278.2	59.29
278.668	60.49
279.136	47.69
279.604	22.99
280.072	15.19
280.54	9.29
281.008	7.79
281.477	14.09
281.945	11.89
282.413	12.09
282.881	22.29
283.348	14.29
283.816	18.09
284.284	12.39
284.752	23.99
285.22	18.59
285.688	23.09
286.156	21.29
286.623	43.69
287.091	50.79
287.559	28.59
288.026	16.79
288.494	24.29
288.962	3.89
289.429	17.59
289.897	22.79
290.364	11.19
290.832	20.49
291.3	20.79
291.767	17.99
292.234	23.89
292.702	17.79
293.169	25.19
293.637	27.99
294.104	23.79
294.571	11.79
295.039	11.89
295.506	11.59
295.973	18.49
296.44	19.09
296.908	18.79
297.375	18.39
297.842	15.39
298.309	24.19
298.776	16.19
299.243	30.49
299.71	13.49
300.177	23.89
300.644	25.99
301.111	23.69
301.578	24.49
302.045	17.89
302.512	26.89
302.979	27.39
303.446	27.49
303.913	18.19
304.379	20.99
304.846	24.59
305.313	29.89
305.78	28.69
306.246	28.79
306.713	29.39
307.18	29.99
307.646	31.99
308.113	33.59
308.579	28.29
309.046	26.09
309.512	32.09
309.979	23.69
310.445	29.59
310.912	27.89
311.378	31.29
311.845	28.49
312.311	30.59
312.777	33.89
313.244	34.19
313.71	31.59
314.176	32.69
314.642	31.09
315.109	29.49
315.575	37.89
316.041	45.09
316.507	36.99
316.973	42.59
317.439	35.79
317.905	39.99
318.371	35.29
318.837	33.29
319.303	36.89
319.769	39.59
320.235	37.49
320.701	38.79
321.167	41.39
321.633	36.99
322.099	40.99
322.564	51.59
323.03	42.89
323.496	40.19
323.962	41.69
324.427	38.59
324.893	43.49
325.359	43.49
325.824	36.89
326.29	34.69
326.755	37.79
327.221	44.89
327.686	38.19
328.152	53.19
328.617	41.49
329.083	56.69
329.548	52.79
330.014	49.69
330.479	44.49
330.944	46.49
331.41	41.19
331.875	52.99
332.34	44.69
332.805	49.19
333.271	48.89
333.736	43.99
334.201	58.79
334.666	54.09
335.131	54.09
335.596	55.09
336.061	52.49
336.526	47.09
336.991	57.39
337.456	53.59
337.921	54.09
338.386	50.99
338.851	44.79
339.316	46.99
339.781	51.49
340.246	57.29
340.711	44.59
341.175	54.19
341.64	46.09
342.105	54.49
342.569	57.89
343.034	59.49
343.499	54.79
343.963	55.19
344.428	63.89
344.893	62.59
345.357	59.59
345.822	63.89
346.286	69.89
346.751	77.69
347.215	75.99
347.679	81.39
348.144	102.99
348.608	84.59
349.073	69.39
349.537	79.89
350.001	83.79
350.465	92.29
350.93	82.29
351.394	81.59
351.858	76.89
352.322	97.19
352.786	90.09
353.25	103.99
353.715	114.79
354.179	103.79
354.643	121.39
355.107	130.99
355.571	115.99
356.035	107.29
356.498	123.19
356.962	124.79
357.426	138.39
357.89	122.89
358.354	91.09
358.818	84.79
359.281	83.49
359.745	78.89
360.209	77.99
360.673	75.29
361.136	81.89
361.6	84.39
362.064	86.09
362.527	87.69
362.991	93.69
363.454	87.99
363.918	76.79
364.381	75.49
364.845	89.29
365.308	89.79
365.772	91.49
366.235	88.89
366.698	88.19
367.162	85.89
367.625	84.39
368.088	91.39
368.552	92.29
369.015	89.59
369.478	93.49
369.941	107.09
370.404	92.29
370.867	103.79
371.331	104.09
371.794	117.19
372.257	113.29
372.72	118.29
373.183	116.99
373.646	107.29
374.109	103.49
374.572	110.19
375.035	109.29
375.497	118.79
375.96	107.19
376.423	109.49
376.886	115.79
377.349	109.69
377.811	102.69
378.274	108.09
378.737	109.59
379.199	116.69
379.662	111.79
380.125	119.59
380.587	114.59
381.05	124.29
381.512	129.49
381.975	136.99
382.437	130.49
382.9	131.09
383.362	130.29
383.825	145.69
384.287	151.29
384.75	135.89
385.212	134.39
385.674	141.09
386.136	135.09
386.599	122.39
387.061	126.49
387.523	133.69
387.985	142.59
388.447	150.79
388.91	146.39
389.372	159.69
389.834	153.39
390.296	144.19
390.758	153.69
391.22	167.29
391.682	203.89
392.144	299.19
392.606	235.29
393.068	159.69
393.529	172.39
393.991	150.19
394.453	145.99
394.915	161.79
395.377	197.69
395.838	212.19
396.3	158.69
396.762	147.29
397.224	140.09
397.685	130.89
398.147	125.29
398.608	128.59
399.07	133.59
399.531	141.09
399.993	143.19
400.454	151.19
400.916	152.19
401.377	148.29
401.839	152.39
402.3	153.59
402.762	164.49
403.223	181.99
403.684	170.09
404.145	163.69
404.607	154.79
405.068	163.29
405.529	170.39
405.99	190.39
406.451	170.99
406.913	175.99
407.374	162.89
407.835	158.19
408.296	163.09
408.757	168.79
409.218	185.29
409.679	179.79
410.14	178.39
410.601	181.29
411.062	185.29
411.522	192.29
411.983	192.59
412.444	175.99
412.905	176.39
413.366	182.89
413.826	191.09
414.287	213.39
414.748	250.59
415.208	241.79
415.669	212.09
416.13	206.89
416.59	196.19
417.051	206.69
417.511	218.69
417.972	226.99
418.432	237.39
418.893	280.79
419.353	249.99
419.814	194.39
420.274	179.79
420.734	183.49
421.195	196.79
421.655	194.39
422.115	204.19
422.576	186.79
423.036	197.09
423.496	204.39
423.956	225.79
424.416	227.49
424.876	266.29
425.336	259.99
425.797	262.69
426.257	253.29
426.717	233.59
427.177	229.39
427.637	226.39
428.097	232.49
428.556	241.99
429.016	267.99
429.476	259.89
429.936	273.69
430.396	280.29
430.856	291.49
431.315	312.49
431.775	350.19
432.235	375.29
432.694	342.79
433.154	359.99
433.614	387.99
434.073	342.59
434.533	291.29
434.993	268.69
435.452	285.99
435.912	296.59
436.371	285.09
436.83	284.39
437.29	267.89
437.749	244.69
438.209	249.89
438.668	269.29
439.127	282.29
439.587	267.19
440.046	254.69
440.505	255.59
440.964	279.19
441.424	322.69
441.883	308.79
442.342	258.29
442.801	224.79
443.26	222.49
443.719	226.69
444.178	223.29
444.637	217.99
445.096	215.59
445.555	219.09
446.014	222.19
446.473	223.49
446.932	230.69
447.391	229.89
447.849	232.39
448.308	219.89
448.767	228.39
449.226	234.09
449.685	234.99
450.143	249.49
450.602	240.29
451.061	219.79
451.519	225.39
451.978	228.69
452.436	236.29
452.895	237.09
453.353	253.89
453.812	241.59
454.27	236.99
454.729	241.19
455.187	242.99
455.646	240.59
456.104	251.79
456.562	247.89
457.021	256.69
457.479	257.39
457.937	265.89
458.395	258.99
458.854	252.59
459.312	254.99
459.77	273.59
460.228	249.99
460.686	238.79
461.144	247.79
461.602	240.69
462.06	236.59
462.518	256.19
462.976	254.49
463.434	260.09
463.892	263.79
464.35	272.99
464.808	290.29
465.266	268.49
465.724	265.69
466.181	267.59
466.639	265.29
467.097	288.19
467.555	299.59
468.012	300.39
468.47	305.49
468.928	325.29
469.385	334.79
469.843	357.59
470.3	351.69
470.758	360.69
471.215	380.79
471.673	414.49
472.13	402.29
472.588	408.59
473.045	365.19
473.503	372.49
473.96	394.19
474.417	396.09
474.875	434.89
475.332	467.29
475.789	457.89
476.246	463.39
476.704	494.99
477.161	502.69
477.618	512.09
478.075	554.99
478.532	621.19
478.989	694.79
479.446	808.89
479.903	781.09
480.36	809.89
480.817	869.89
481.274	973.49
481.731	1075.49
482.188	1169.89
482.645	1306.39
483.102	1419.69
483.558	1556.29
484.015	1603.59
484.472	1568.99
484.929	1540.39
485.385	1488.09
485.842	1450.49
486.299	1383.49
486.755	1308.49
487.212	1094.29
487.668	927.69
488.125	855.49
488.582	782.09
489.038	745.89
489.494	710.39
489.951	687.79
490.407	667.69
490.864	640.99
491.32	646.99
491.776	646.69
492.233	644.79
492.689	609.39
493.145	602.49
493.602	596.39
494.058	619.79
494.514	611.99
494.97	636.39
495.426	646.89
495.882	622.09
496.338	617.69
496.794	619.79
497.251	612.19
497.707	637.99
498.163	642.49
498.618	638.19
499.074	652.69
499.53	675.39
499.986	673.99
500.442	648.69
500.898	632.09
501.354	626.69
501.809	629.99
502.265	638.19
502.721	660.79
503.177	672.99
503.632	663.99
504.088	674.99
504.543	707.39
504.999	719.39
505.455	661.69
505.91	629.89
506.366	630.19
506.821	631.59
507.277	623.59
507.732	621.59
508.187	615.79
508.643	625.19
509.098	639.29
509.553	657.99
510.009	666.29
510.464	671.79
510.919	682.59
511.375	693.69
511.83	707.69
512.285	720.09
512.74	749.49
513.195	781.09
513.65	772.69
514.105	762.89
514.56	766.59
515.015	790.89
515.47	803.59
515.925	784.49
516.38	792.39
516.835	792.09
517.29	783.19
517.745	768.39
518.2	768.89
518.655	746.79
519.109	746.09
519.564	735.69
520.019	736.89
520.474	720.89
520.928	723.39
521.383	717.49
521.838	707.19
522.292	712.89
522.747	701.49
523.201	695.39
523.656	689.79
524.11	692.29
524.565	692.39
525.019	682.49
525.474	697.99
525.928	701.99
526.382	692.69
526.837	689.49
527.291	697.69
527.745	690.99
528.2	685.79
528.654	691.99
529.108	688.09
529.562	686.39
530.016	688.59
530.47	684.49
530.925	690.99
531.379	699.49
531.833	701.59
532.287	701.69
532.741	703.79
533.195	707.19
533.649	709.29
534.103	712.79
534.556	712.69
535.01	712.39
535.464	710.89
535.918	728.79
536.372	724.39
536.826	712.29
537.279	701.09
537.733	705.69
538.187	718.79
538.64	709.29
539.094	730.39
539.548	730.39
540.001	727.39
540.455	727.09
540.908	721.49
541.362	733.49
541.815	742.69
542.269	758.09
542.722	746.19
543.175	763.89
543.629	759.89
544.082	774.09
544.536	783.49
544.989	781.99
545.442	782.69
545.895	774.19
546.349	783.39
546.802	785.19
547.255	787.69
547.708	794.09
548.161	809.89
548.614	811.49
549.067	826.29
549.52	811.89
549.973	807.99
550.426	801.39
550.879	798.09
551.332	788.39
551.785	799.89
552.238	802.49
552.691	816.39
553.144	823.69
553.596	833.49
554.049	849.29
554.502	892.49
554.955	895.29
555.407	905.09
555.86	889.99
556.313	879.79
556.765	887.39
557.218	879.79
557.67	871.99
558.123	870.89
558.576	865.09
559.028	876.89
559.48	868.89
559.933	863.39
560.385	835.69
560.838	791.49
561.29	779.99
561.742	778.69
562.195	743.99
562.647	757.09
563.099	767.79
563.551	766.89
564.004	776.59
564.456	763.39
564.908	758.09
565.36	743.39
565.812	724.89
566.264	717.39
566.716	716.89
567.168	712.69
567.62	722.99
568.072	699.49
568.524	688.69
568.976	674.49
569.428	666.09
569.88	664.59
570.332	673.49
570.784	688.59
571.235	676.99
571.687	693.09
572.139	696.49
572.59	704.19
573.042	695.09
573.494	700.69
573.945	700.39
574.397	689.19
574.849	684.19
575.3	688.29
575.752	673.79
576.203	669.59
576.655	686.59
577.106	656.99
577.557	658.59
578.009	655.29
578.46	660.79
578.912	650.29
579.363	643.29
579.814	661.69
580.265	660.09
580.717	660.99
581.168	661.79
581.619	666.69
582.07	671.99
582.521	666.19
582.972	664.59
583.423	675.49
583.875	681.09
584.326	694.59
584.777	726.69
585.227	805.39
585.678	890.89
586.129	985.09
586.58	1059.29
587.031	1150.59
587.482	1311.19
587.933	1490.99
588.384	1289.19
588.834	959.19
589.285	788.29
589.736	763.59
590.186	759.19
590.637	758.39
591.088	725.69
591.538	725.79
591.989	717.39
592.439	708.89
592.89	704.39
593.34	698.39
593.791	694.89
594.241	691.19
594.692	693.19
595.142	695.79
595.593	684.09
596.043	695.99
596.493	702.09
596.943	706.59
597.394	715.69
597.844	705.19
598.294	714.39
598.744	730.39
599.195	754.29
599.645	796.99
600.095	840.89
600.545	890.49
600.995	935.89
601.445	997.29
601.895	1059.69
602.345	1097.99
602.795	1098.49
603.245	1048.69
603.695	988.99
604.145	935.59
604.594	900.69
605.044	847.79
605.494	784.29
605.944	733.59
606.393	730.19
606.843	710.89
607.293	712.89
607.743	718.79
608.192	726.19
608.642	746.79
609.091	749.89
609.541	750.79
609.99	754.99
610.44	747.99
610.889	709.19
611.339	688.69
611.788	673.39
612.238	686.19
612.687	706.29
613.136	701.89
613.586	720.19
614.035	723.79
614.484	738.69
614.933	737.89
615.383	739.59
615.832	720.39
616.281	706.39
616.73	671.69
617.179	655.39
617.628	633.99
618.077	623.19
618.526	608.09
618.975	600.19
619.424	598.19
619.873	591.89
620.322	611.89
620.771	587.39
621.22	587.59
621.669	581.29
622.118	575.89
622.567	566.29
623.015	554.59
623.464	554.39
623.913	546.79
624.361	532.39
624.81	537.99
625.259	530.79
625.707	547.09
626.156	541.39
626.604	557.29
627.053	545.89
627.501	545.49
627.95	550.59
628.398	561.89
628.847	557.09
629.295	551.99
629.744	559.19
630.192	552.49
630.64	546.19
631.089	549.59
631.537	560.09
631.985	573.09
632.433	584.29
632.881	586.59
633.33	638.49
633.778	615.09
634.226	545.99
634.674	549.69
635.122	566.79
635.57	589.09
636.018	606.59
636.466	565.19
636.914	543.89
637.362	543.09
637.81	551.39
638.258	559.99
638.705	556.49
639.153	590.09
639.601	598.79
640.049	622.29
640.497	651.19
640.944	680.29
641.392	626.39
641.84	596.49
642.287	565.09
642.735	554.79
643.182	555.59
643.63	556.49
644.078	548.79
644.525	581.99
644.973	579.09
645.42	583.99
645.867	594.79
646.315	611.59
646.762	649.09
647.21	673.79
647.657	689.39
648.104	720.59
648.551	747.09
648.999	815.49
649.446	889.19
649.893	969.29
650.34	1114.19
650.787	1340.49
651.234	1664.79
651.682	2188.99
652.129	2951.89
652.576	4278.49
653.023	6357.99
653.47	8741.49
653.917	10966.19
654.363	12737.59
654.81	14134.19
655.257	13461.49
655.704	8794.99
656.151	5184.79
656.598	3363.29
657.044	2375.19
657.491	1823.99
657.938	1448.39
658.385	1216.59
658.831	1051.39
659.278	936.19
659.724	830.49
660.171	766.39
660.618	705.19
661.064	672.39
661.511	644.89
661.957	636.59
662.404	631.59
662.85	639.59
663.296	609.99
663.743	544.29
664.189	524.29
664.635	517.29
665.082	503.99
665.528	505.19
665.974	508.09
666.42	496.49
666.867	488.09
667.313	476.09
667.759	467.79
668.205	466.89
668.651	461.29
669.097	468.19
669.543	482.29
669.989	458.39
670.435	441.69
670.881	425.89
671.327	432.99
671.773	448.89
672.219	464.09
672.665	514.59
673.11	555.69
673.556	609.19
674.002	642.29
674.448	628.79
674.893	521.09
675.339	455.79
675.785	419.09
676.23	408.29
676.676	377.29
677.122	372.39
677.567	356.69
678.013	355.69
678.458	342.69
678.904	341.09
679.349	332.59
679.794	345.09
680.24	334.39
680.685	333.29
681.131	336.49
681.576	338.29
682.021	340.19
682.466	334.29
682.912	336.89
683.357	334.69
683.802	369.79
684.247	387.79
684.692	441.19
685.137	470.09
685.583	515.79
686.028	546.59
686.473	498.19
686.918	427.69
687.363	404.39
687.807	381.29
688.252	352.89
688.697	336.29
689.142	326.19
689.587	312.29
690.032	310.79
690.477	322.39
690.921	333.19
691.366	363.49
691.811	387.89
692.255	407.09
692.7	428.19
693.145	475.89
693.589	647.49
694.034	1059.39
694.478	1454.59
694.923	1660.49
695.367	2176.19
695.812	1143.39
696.256	481.59
696.701	354.89
697.145	322.29
697.59	316.29
698.034	308.19
698.478	317.69
698.922	308.99
699.367	309.89
699.811	315.09
700.255	335.39
700.699	366.39
701.143	405.89
701.588	453.99
702.032	490.19
702.476	491.79
702.92	465.49
703.364	467.69
703.808	589.99
704.252	962.39
704.696	1366.79
705.14	1604.69
705.584	2039.39
706.027	1006.99
706.471	499.79
706.915	375.09
707.359	334.69
707.803	303.89
708.246	293.89
708.69	296.29
709.134	299.49
709.577	300.69
710.021	307.59
710.465	293.49
710.908	287.69
711.352	286.39
711.795	298.79
712.239	330.89
712.682	366.69
713.126	403.59
713.569	447.39
714.012	356.29
714.456	309.29
714.899	285.69
715.342	260.19
715.786	245.49
716.229	249.99
716.672	245.19
717.115	240.39
717.558	240.69
718.002	235.09
718.445	255.29
718.888	270.49
719.331	283.99
719.774	297.09
720.217	288.49
720.66	274.39
721.103	260.39
721.546	245.09
721.989	236.69
722.432	221.79
722.874	222.99
723.317	216.69
723.76	234.79
724.203	248.79
724.645	301.59
725.088	417.49
725.531	534.49
725.974	616.39
726.416	522.39
726.859	298.29
727.301	235.59
727.744	228.39
728.187	228.19
728.629	235.39
729.071	236.19
729.514	250.59
729.956	267.29
730.399	264.99
730.841	269.79
731.283	265.79
731.726	248.89
732.168	251.89
732.61	253.79
733.053	269.49
733.495	304.99
733.937	330.09
734.379	373.39
734.821	410.79
735.263	508.39
735.705	778.49
736.148	1456.19
736.59	2417.49
737.032	2908.99
737.474	2357.89
737.916	767.89
738.357	405.99
738.799	310.19
739.241	283.99
739.683	273.49
740.125	275.89
740.567	281.49
741.008	300.09
741.45	302.59
741.892	300.09
742.334	332.29
742.775	331.19
743.217	322.49
743.658	258.79
744.1	240.69
744.542	247.59
744.983	287.59
745.425	324.49
745.866	330.99
746.307	271.89
746.749	270.39
747.19	310.19
747.632	419.09
748.073	801.89
748.514	1722.69
748.956	2686.19
749.397	3362.79
749.838	2789.79
750.279	2842.49
750.72	1430.29
751.162	526.39
751.603	307.09
752.044	237.49
752.485	202.99
752.926	199.89
753.367	197.19
753.808	181.59
754.249	178.99
754.69	173.89
755.131	170.09
755.572	176.89
756.013	170.69
756.453	173.69
756.894	180.49
757.335	180.79
757.776	180.09
758.216	190.09
758.657	190.19
759.098	194.19
759.538	212.29
759.979	254.39
760.42	351.19
760.86	647.39
761.301	1681.59
761.741	4110.79
762.182	6137.69
762.622	4323.49
763.063	1238.79
763.503	513.99
763.943	321.89
764.384	321.19
764.824	383.49
765.264	423.19
765.705	287.09
766.145	191.89
766.585	176.29
767.025	169.99
767.465	172.99
767.906	231.79
768.346	310.69
768.786	328.19
769.226	243.89
769.666	286.79
770.106	560.89
770.546	1429.89
770.986	2493.99
771.426	2276.49
771.866	754.29
772.306	314.59
772.745	192.39
773.185	168.09
773.625	164.49
774.065	162.99
774.505	185.19
774.944	294.69
775.384	645.19
775.824	1172.39
776.263	1166.19
776.703	494.89
777.142	209.69
777.582	150.19
778.021	133.49
778.461	134.19
778.9	132.39
779.34	130.09
779.779	112.29
780.219	108.49
780.658	103.69
781.097	98.39
781.537	105.19
781.976	100.19
782.415	101.69
782.855	100.69
783.294	98.99
783.733	101.29
784.172	105.69
784.611	101.49
785.05	101.99
785.489	103.99
785.928	114.39
786.367	116.59
786.806	122.09
787.245	122.89
787.684	123.79
788.123	138.09
788.562	132.79
789.001	125.29
789.44	117.49
789.879	115.89
790.317	103.79
790.756	119.89
791.195	123.79
791.634	134.69
792.072	192.49
792.511	332.59
792.95	927.19
793.388	2014.79
793.827	1862.19
794.265	645.59
794.704	272.49
795.142	167.29
795.581	141.89
796.019	130.69
796.458	118.79
796.896	115.89
797.334	121.09
797.773	140.69
798.211	203.59
798.649	408.29
799.087	948.39
799.526	1493.29
799.964	1883.49
800.402	1917.49
800.84	720.09
801.278	277.39
801.716	181.59
802.154	142.29
802.592	140.19
803.03	131.79
803.468	125.29
803.906	133.19
804.344	144.79
804.782	133.49
805.22	128.89
805.658	116.19
806.096	136.49
806.533	150.69
806.971	165.89
807.409	205.79
807.847	291.89
808.284	612.19
808.722	1729.29
809.16	3098.19
809.597	2906.29
810.035	5099.49
810.472	5532.59
810.91	1986.09
811.347	748.89
811.785	391.19
812.222	240.89
812.66	181.99
813.097	153.49
813.535	137.89
813.972	113.69
814.409	110.59
814.846	106.19
815.284	106.89
815.721	104.59
816.158	97.19
816.595	116.49
817.032	171.09
817.47	186.59
817.907	166.49
818.344	139.49
818.781	100.29
819.218	95.89
819.655	116.59
820.092	175.99
820.529	204.79
820.966	167.39
821.403	121.69
821.839	103.09
822.276	102.29
822.713	112.89
823.15	131.09
823.587	111.89
824.023	144.59
824.46	273.29
824.897	835.19
825.333	1294.99
825.77	547.69
826.206	220.19
826.643	128.39
827.08	95.69
827.516	77.69
827.953	70.09
828.389	77.79
828.825	70.79
829.262	66.19
829.698	63.19
830.135	60.49
830.571	59.39
831.007	65.79
831.443	60.99
831.88	56.79
832.316	59.49
832.752	62.59
833.188	61.49
833.624	57.89
834.06	65.39
834.497	65.89
834.933	70.19
835.369	69.29
835.805	66.79
836.241	67.09
836.677	77.09
837.112	79.09
837.548	94.99
837.984	127.79
838.42	189.89
838.856	459.19
839.292	1405.89
839.727	2189.09
840.163	1014.09
840.599	861.49
841.034	1900.19
841.47	2018.79
841.906	737.89
842.341	315.99
842.777	226.59
843.212	305.29
843.648	300.59
844.083	152.09
844.519	93.39
844.954	81.09
845.39	57.39
845.825	55.59
846.261	50.99
846.696	54.09
847.131	50.59
847.566	54.69
848.002	47.99
848.437	43.99
848.872	63.59
849.307	59.99
849.742	80.79
850.177	163.79
850.613	510.09
851.048	835.89
851.483	369.39
851.918	148.69
852.353	81.99
852.788	59.09
853.223	53.39
853.657	47.39
854.092	42.39
854.527	42.99
854.962	43.89
855.397	45.69
855.832	47.99
856.266	40.89
856.701	39.59
857.136	32.59
857.57	48.19
858.005	50.29
858.44	62.29
858.874	42.99
859.309	57.09
859.743	34.79
860.178	40.89
860.612	43.19
861.047	48.39
861.481	64.69
861.915	63.99
862.35	46.49
862.784	34.69
863.218	39.79
863.653	30.89
864.087	45.49
864.521	54.69
864.955	64.39
865.39	150.69
865.824	171.29
866.258	108.69
866.692	155.59
867.126	169.49
867.56	105.39
867.994	51.89
868.428	35.79
868.862	44.99
869.296	51.99
869.73	52.29
870.164	50.09
870.598	47.99
871.031	38.49
871.465	28.29
871.899	28.49
872.333	24.29
872.766	21.69
873.2	27.59
873.634	28.99
874.067	24.69
874.501	25.19
874.935	29.09
875.368	35.99
875.802	28.99
876.235	24.39
876.669	24.89
877.102	23.29
877.535	30.09
877.969	23.39
878.402	28.19
878.836	18.69
879.269	21.79
879.702	26.49
880.135	22.49
880.569	31.79
881.002	25.09
881.435	24.99
881.868	16.29
882.301	21.99
882.734	18.69
883.167	22.09
883.601	17.09
884.034	22.69
884.467	17.09
884.899	18.89
885.332	12.29
885.765	14.59
886.198	16.89
886.631	15.99
887.064	19.59
887.497	20.79
887.929	26.19
888.362	15.69
888.795	14.09
889.228	15.79
889.66	16.39
890.093	10.89
890.526	16.39
890.958	17.69
891.391	13.89
891.823	19.99
892.256	15.09
892.688	10.99
893.121	19.69
893.553	18.69
893.985	23.79
894.418	23.19
894.85	9.59
895.282	13.79
895.715	16.49
896.147	18.19
896.579	21.49
897.011	12.59
897.444	21.69
897.876	15.29
898.308	15.79
898.74	19.09
899.172	12.49
899.604	25.49
900.036	16.19
900.468	15.29
900.9	14.49
901.332	17.49
901.764	6.39
902.196	19.19
902.628	14.19
903.06	16.99
903.491	29.39
903.923	22.29
904.355	18.59
904.787	19.99
905.218	22.49
905.65	23.59
906.082	11.69
906.513	21.09
906.945	22.09
907.376	15.89
907.808	27.89
908.239	24.19
908.671	18.69
909.102	20.09
909.534	17.59
909.965	43.19
910.397	89.79
910.828	290.99
911.259	457.39
911.691	211.39
912.122	104.19
912.553	49.19
912.984	35.59
913.415	23.99
913.847	25.99
914.278	16.69
914.709	16.99
915.14	21.69
915.571	18.59
916.002	15.89
916.433	21.79
916.864	21.29
917.295	10.89
917.726	19.89
918.157	18.69
918.587	22.39
919.018	21.89
919.449	23.09
919.88	23.49
920.311	30.29
920.741	51.49
921.172	157.79
921.603	143.99
922.033	72.39
922.464	39.49
922.895	23.79
923.325	15.29
923.756	14.29
924.186	14.19
924.617	27.29
925.047	44.09
925.478	52.19
925.908	40.49
926.338	32.79
926.769	18.39
927.199	21.49
927.629	10.99
928.06	17.99
928.49	16.29
928.92	18.49
929.35	9.19
929.78	9.39
930.21	11.09
930.641	13.29
931.071	11.79
931.501	5.69
931.931	10.49
932.361	12.09
932.791	6.09
933.221	6.89
933.651	5.39
934.08	19.19
934.51	21.29
934.94	7.49
935.37	10.49
935.8	14.49
936.229	9.89
936.659	7.99
937.089	-3.21
937.519	13.09
937.948	19.79
938.378	12.79
938.807	5.29
939.237	6.29
939.666	11.39
940.096	-4.41
940.525	3.49
940.955	2.49
941.384	5.39
941.814	-1.01
942.243	-0.91
942.672	7.09
943.102	0.09
943.531	-0.71
943.96	0.89
944.39	4.59
944.819	-0.11
945.248	3.39
945.677	0.89
946.106	2.79
946.535	8.79
946.964	-2.51
947.393	4.99
947.822	2.79
948.251	2.39
948.68	6.49
949.109	5.79
949.538	8.49
949.967	4.49
950.396	7.29
950.825	-4.01
951.254	3.79
951.682	-5.21
952.111	4.69
952.54	9.59
952.969	-0.31
953.397	-5.71
953.826	-1.41
954.254	-0.21
954.683	5.99
955.112	-1.31
955.54	2.09
955.969	-2.61
956.397	-0.21
956.826	2.39
957.254	6.99
957.682	5.09
958.111	8.49
958.539	-8.11
958.967	5.49
959.396	-2.71
959.824	0.09
960.252	2.49
960.68	-2.61
961.109	-0.91
961.537	-8.01
961.965	1.39
962.393	4.69
962.821	-3.31
963.249	-1.31
963.677	10.99
964.105	6.09
964.533	38.19
964.961	40.39
965.389	13.09
965.817	4.89
966.245	2.79
966.672	0.79
967.1	-4.41
967.528	5.99
967.956	-1.31
968.383	-1.11
968.811	-1.41
969.239	2.29
969.666	-0.31
970.094	-1.21
970.522	2.69
970.949	0.29
971.377	1.99
971.804	-1.01
972.232	-1.61
972.659	-2.81
973.087	0.79
973.514	-1.11
973.941	-5.51
974.369	2.49
974.796	3.29
975.223	2.39
975.651	-4.91
976.078	6.89
976.505	0.79
976.932	2.29
977.359	14.59
977.786	9.19
978.214	4.69
978.641	-1.21
979.068	0.99
979.495	-4.01
979.922	2.49
980.349	1.29
980.776	3.79
981.202	4.09
981.629	2.39
982.056	5.69
982.483	-0.31
982.91	1.19
983.337	-2.01
983.763	3.39
984.19	-3.71
984.617	-0.01
985.043	-5.51
985.47	3.09
985.897	-4.21
986.323	-9.41
986.75	-1.71
987.176	-4.71
987.603	-1.71
988.029	-0.61
988.456	-4.01
988.882	4.49
989.308	-6.51
989.735	-2.91
990.161	2.59
990.587	-5.41
991.014	-2.21
991.44	13.19
991.866	-2.41
992.292	-2.01
992.719	-0.61
993.145	3.89
993.571	-5.11
993.997	-1.71
994.423	-0.41
994.849	-5.01
995.275	-0.41
995.701	-0.01
996.127	-4.81
996.553	1.39
996.979	-1.91
997.405	-2.11
997.83	-4.61
998.256	-6.61
998.682	-8.41
999.108	-4.51
999.534	4.29
999.959	-7.11
1000.385	-0.61
1000.811	-1.11
1001.236	-7.11
1001.662	-5.21
1002.087	-7.01
1002.513	-1.51
1002.938	4.59
1003.364	0.69
1003.789	6.69
1004.215	6.09
1004.64	-0.41
1005.066	7.59
1005.491	-2.21
1005.916	2.39
1006.342	-2.71
1006.767	-4.91
1007.192	1.29
1007.617	-5.51
1008.042	-3.11
1008.468	-7.51
1008.893	-2.01
1009.318	-1.81
1009.743	-1.31
1010.168	4.69
1010.593	4.59
1011.018	-6.71
1011.443	-1.21
1011.868	-0.21
1012.293	-2.71
1012.718	0.19
1013.143	3.89
1013.567	0.49
1013.992	-7.21
1014.417	-6.91
1014.842	6.89
1015.267	-0.91
1015.691	-3.01
1016.116	6.89
1016.541	-3.31
1016.965	0.59
1017.39	9.59
1017.814	-0.61
1018.239	6.59
1018.663	-9.11
1019.088	-11.21
1019.512	-2.61
1019.937	-3.01
1020.361	-3.71
1020.785	-7.01
1021.21	-2.01
1021.634	-3.91
1022.058	1.89
1022.483	0.49
1022.907	-1.61
1023.331	0.89
1023.755	-1.91
1024.179	-0.11
1024.604	-0.71
1025.028	-0.21
1025.452	-5.91
1025.876	-1.21
1026.3	5.79
1026.724	-14.01
1027.148	-3.41
1027.572	-5.21
1027.996	-9.41
1028.42	0.69
1028.843	-4.21
1029.267	-4.71
1029.691	-1.51
1030.115	-0.51
1030.539	-3.51
1030.962	-4.71
1031.386	-7.11
1031.81	1.19
1032.233	-0.31
1032.657	-0.51
1033.08	0.49
1033.504	-0.91
1033.927	-4.61
1034.351	-3.71
1034.774	-5.71
1035.198	0.99
1035.621	-4.01
1036.045	-4.91
1036.468	5.59
1036.891	-9.21
1037.315	-8.11
1037.738	-11.01
1038.161	2.39
1038.584	-2.01
1039.008	-0.61
1039.431	-2.31
1039.854	2.19
1040.277	-4.31
1040.7	-10.41
1041.123	-3.41
1041.546	-4.41
1041.969	-5.61
1042.392	-3.01
1042.815	-1.81
1043.238	2.39
1043.661	1.19
1044.084	-6.31
1044.507	-2.71
1044.93	-6.21
1045.352	-6.31
1045.775	-4.31
1046.198	-1.71
1046.621	1.09
1047.043	6.39
1047.466	10.39
1047.889	-4.31
1048.311	-2.71
1048.734	-5.51
1049.156	-2.61
1049.579	-2.61
1050.001	-0.31
1050.424	-0.61
1050.846	2.69
1051.269	-6.21
1051.691	-4.01
1052.113	-5.91
1052.536	-5.51
1052.958	-1.61
1053.38	-3.41
1053.802	-4.61
1054.225	2.39
1054.647	-7.31
1055.069	-7.11
1055.491	1.79
1055.913	-6.41
1056.335	-0.21
1056.757	-5.91
1057.179	-4.51
1057.601	-2.01
1058.023	-0.91
1058.445	-2.51
1058.867	-4.01
1059.289	-2.61
1059.711	-4.01
1060.133	-1.41
1060.555	-4.11
1060.976	-2.71
1061.398	-1.71
1061.82	-5.51
1062.241	-7.31
1062.663	-9.31
1063.085	-1.21
1063.506	-4.31
1063.928	-2.81
1064.35	-0.11
1064.771	-6.51
1065.193	0.29
1065.614	-12.61
1066.035	-5.31
1066.457	-4.21
1066.878	2.59
1067.3	-4.41
1067.721	-0.01
1068.142	-5.21
1068.564	-2.41
1068.985	-5.21
1069.406	-5.41
1069.827	-6.11
1070.248	3.59
1070.67	-5.01
1071.091	-3.41
1071.512	-3.51
1071.933	-8.01
1072.354	-7.21
1072.775	-0.61
1073.196	-9.41
1073.617	-6.01
1074.038	-7.31
1074.459	0.69
1074.88	-3.31
1075.3	-1.11
1075.721	-8.51
1076.142	2.79
1076.563	-2.41
1076.983	-7.41
1077.404	-0.31
1077.825	-11.61
1078.246	-9.31
1078.666	-7.11
1079.087	-0.71
1079.507	-7.31
1079.928	1.09
1080.348	-2.21
1080.769	-3.71
1081.189	-0.21
1081.61	-3.21
1082.03	-3.61
1082.451	-6.51
1082.871	-6.11
1083.291	-8.01
1083.711	-11.91
1084.132	-10.41
1084.552	-1.11
1084.972	3.89
1085.392	-8.61
1085.813	-6.41
1086.233	-6.71
1086.653	-5.11
1087.073	-4.11
1087.493	-5.41
1087.913	-5.71
1088.333	-4.21
1088.753	-7.11
1089.173	2.59
1089.593	-7.31
1090.013	-0.11
1090.433	1.29
1090.852	2.09
1091.272	-4.31
1091.692	-3.31
1092.112	-0.51
1092.531	-5.41
1092.951	-14.81
1093.371	-2.21
1093.79	-1.01
1094.21	-9.11
1094.63	-7.31
1095.049	-6.11
1095.469	0.09
1095.888	-3.61
1096.308	-1.11
1096.727	3.59
1097.146	0.59
1097.566	-1.31
1097.985	-3.51
1098.405	-2.61
1098.824	-9.71
1099.243	-10.31
1099.662	-10.81
1100.082	-1.61
1100.501	-1.21
1100.92	-3.51
1101.339	-1.01
1101.758	-5.31
