Data from 20171114-ORNL-Ar_H_NY_Subt18_08-08-31-216.txt Node
Date: Tue Nov 14 08:08:31 EST 2017
User: Ender
Spectrometer: HR+D1039
Trigger mode: 0
Integration Time (sec): 2.730000E-2
Scans to average: 10
Electric dark correction enabled: true
Nonlinearity correction enabled: false
Boxcar width: 0
XAxis mode: Wavelengths
Number of Pixels in Spectrum: 2048
>>>>>Begin Spectral Data<<<<<
187.836	1.77
188.309	1.77
188.782	1.77
189.255	3.87
189.728	-6.33
190.201	5.97
190.674	-1.43
191.147	5.67
191.619	-9.73
192.092	-1.63
192.565	-1.43
193.038	-2.43
193.511	2.37
193.984	5.27
194.456	-2.33
194.929	1.77
195.402	-2.93
195.874	1.57
196.347	-5.33
196.82	-15.73
197.292	7.97
197.765	3.77
198.237	-10.13
198.71	-5.63
199.182	-4.33
199.655	3.07
200.127	1.07
200.6	-3.03
201.072	-2.53
201.544	-6.03
202.017	-5.83
202.489	4.27
202.961	3.07
203.433	-2.83
203.906	-1.23
204.378	-9.23
204.85	-3.93
205.322	-9.23
205.794	-0.63
206.266	-7.33
206.739	-12.13
207.211	-1.43
207.683	-7.23
208.155	-7.83
208.627	-13.23
209.099	-6.83
209.57	-11.03
210.042	-2.33
210.514	-5.43
210.986	-0.93
211.458	-9.13
211.93	-1.83
212.402	-3.33
212.873	-8.23
213.345	-8.83
213.817	-14.53
214.288	-7.03
214.76	-13.23
215.232	-1.33
215.703	-4.23
216.175	-3.93
216.646	-1.83
217.118	-7.03
217.589	-3.43
218.061	-0.93
218.532	-3.23
219.004	-3.93
219.475	-5.93
219.946	-7.03
220.418	-6.03
220.889	-4.03
221.36	-7.13
221.832	-4.23
222.303	-6.33
222.774	-2.73
223.245	-8.63
223.717	-7.43
224.188	-0.73
224.659	-8.53
225.13	-10.13
225.601	-6.43
226.072	4.27
226.543	-5.23
227.014	1.67
227.485	-6.23
227.956	-1.13
228.427	-5.23
228.898	3.27
229.369	1.87
229.839	-6.73
230.31	-9.53
230.781	-3.43
231.252	-0.33
231.722	-9.83
232.193	4.97
232.664	-2.73
233.135	-3.73
233.605	-1.83
234.076	-8.53
234.546	-2.23
235.017	8.07
235.487	-0.83
235.958	-10.93
236.428	-8.83
236.899	-2.23
237.369	2.57
237.84	-2.93
238.31	-4.53
238.78	-7.13
239.251	-4.83
239.721	-5.23
240.191	-4.23
240.662	-4.33
241.132	-3.33
241.602	-6.33
242.072	1.17
242.542	1.97
243.013	-0.73
243.483	2.87
243.953	-3.43
244.423	-2.53
244.893	-8.23
245.363	0.67
245.833	3.87
246.303	-1.43
246.773	-0.53
247.243	1.87
247.712	-1.03
248.182	8.67
248.652	3.77
249.122	-11.43
249.592	-2.03
250.061	-0.43
250.531	6.47
251.001	4.57
251.471	6.67
251.94	5.07
252.41	6.97
252.879	-1.53
253.349	4.57
253.818	5.17
254.288	1.97
254.757	-0.53
255.227	-7.03
255.696	-4.53
256.166	1.07
256.635	1.67
257.105	2.87
257.574	-0.53
258.043	2.97
258.513	-1.33
258.982	4.27
259.451	3.97
259.92	4.97
260.389	3.37
260.859	3.57
261.328	1.07
261.797	4.77
262.266	-0.63
262.735	11.77
263.204	-2.63
263.673	1.47
264.142	0.97
264.611	-9.13
265.08	3.57
265.549	-4.03
266.018	5.47
266.487	-3.63
266.955	-4.33
267.424	-8.03
267.893	-0.93
268.362	-4.73
268.83	3.47
269.299	6.37
269.768	-1.03
270.236	2.37
270.705	-1.93
271.174	-0.73
271.642	2.97
272.111	1.27
272.579	5.37
273.048	4.57
273.516	4.07
273.985	3.87
274.453	11.77
274.922	8.07
275.39	5.57
275.858	-2.23
276.327	9.07
276.795	8.97
277.263	1.47
277.731	19.67
278.2	14.67
278.668	11.37
279.136	13.17
279.604	10.87
280.072	9.17
280.54	9.67
281.008	8.97
281.477	6.27
281.945	12.27
282.413	8.97
282.881	12.47
283.348	-2.03
283.816	10.27
284.284	9.47
284.752	19.27
285.22	8.57
285.688	6.27
286.156	15.47
286.623	13.57
287.091	12.07
287.559	11.87
288.026	7.77
288.494	13.57
288.962	1.37
289.429	6.47
289.897	15.47
290.364	11.17
290.832	13.27
291.3	12.77
291.767	14.57
292.234	14.47
292.702	11.07
293.169	19.27
293.637	19.47
294.104	11.87
294.571	10.97
295.039	10.07
295.506	10.97
295.973	12.67
296.44	9.27
296.908	17.37
297.375	13.97
297.842	14.47
298.309	13.77
298.776	8.77
299.243	13.37
299.71	6.57
300.177	13.27
300.644	15.57
301.111	12.57
301.578	23.17
302.045	15.27
302.512	14.77
302.979	23.67
303.446	12.97
303.913	17.67
304.379	14.97
304.846	23.77
305.313	18.17
305.78	22.87
306.246	20.77
306.713	21.87
307.18	27.17
307.646	21.57
308.113	26.57
308.579	17.87
309.046	23.37
309.512	23.97
309.979	15.77
310.445	22.77
310.912	18.37
311.378	31.17
311.845	23.07
312.311	27.67
312.777	28.57
313.244	25.17
313.71	34.67
314.176	20.17
314.642	25.67
315.109	26.57
315.575	30.17
316.041	32.57
316.507	25.97
316.973	33.27
317.439	28.07
317.905	28.77
318.371	33.37
318.837	35.77
319.303	34.77
319.769	31.47
320.235	25.37
320.701	29.37
321.167	30.07
321.633	35.37
322.099	32.77
322.564	41.87
323.03	36.67
323.496	34.37
323.962	36.97
324.427	30.47
324.893	37.07
325.359	33.97
325.824	40.37
326.29	35.07
326.755	41.27
327.221	39.07
327.686	37.17
328.152	39.57
328.617	40.77
329.083	44.47
329.548	45.67
330.014	44.47
330.479	34.67
330.944	40.47
331.41	37.47
331.875	43.57
332.34	37.67
332.805	41.87
333.271	43.17
333.736	33.97
334.201	47.17
334.666	45.87
335.131	54.07
335.596	45.67
336.061	47.47
336.526	39.97
336.991	46.37
337.456	53.97
337.921	47.17
338.386	43.97
338.851	39.57
339.316	43.47
339.781	44.47
340.246	52.77
340.711	44.97
341.175	47.17
341.64	47.77
342.105	49.37
342.569	55.07
343.034	57.47
343.499	53.67
343.963	43.47
344.428	59.27
344.893	58.07
345.357	58.37
345.822	53.67
346.286	61.47
346.751	68.67
347.215	68.67
347.679	70.57
348.144	90.97
348.608	78.47
349.073	66.87
349.537	66.87
350.001	77.67
350.465	79.37
350.93	80.67
351.394	80.97
351.858	66.37
352.322	82.77
352.786	87.37
353.25	100.37
353.715	111.37
354.179	97.37
354.643	116.07
355.107	123.57
355.571	107.07
356.035	96.77
356.498	107.17
356.962	111.67
357.426	119.67
357.89	109.87
358.354	96.27
358.818	78.97
359.281	79.97
359.745	75.07
360.209	71.87
360.673	75.07
361.136	77.77
361.6	82.27
362.064	85.27
362.527	81.17
362.991	86.07
363.454	81.27
363.918	74.67
364.381	74.47
364.845	81.07
365.308	87.87
365.772	87.17
366.235	85.27
366.698	82.97
367.162	88.17
367.625	84.67
368.088	85.07
368.552	90.57
369.015	87.67
369.478	96.77
369.941	97.27
370.404	93.07
370.867	99.67
371.331	102.77
371.794	106.07
372.257	96.27
372.72	109.07
373.183	108.37
373.646	97.77
374.109	94.47
374.572	104.77
375.035	103.37
375.497	100.77
375.96	106.87
376.423	106.27
376.886	108.07
377.349	114.97
377.811	106.87
378.274	106.47
378.737	106.67
379.199	117.07
379.662	111.87
380.125	111.07
380.587	108.77
381.05	123.27
381.512	118.27
381.975	126.17
382.437	117.17
382.9	115.67
383.362	125.37
383.825	133.37
384.287	130.17
384.75	125.97
385.212	126.67
385.674	128.17
386.136	135.57
386.599	123.47
387.061	125.77
387.523	117.27
387.985	135.27
388.447	137.37
388.91	132.17
389.372	133.57
389.834	134.17
390.296	135.57
390.758	138.17
391.22	144.47
391.682	156.77
392.144	165.27
392.606	163.37
393.068	145.07
393.529	153.57
393.991	148.37
394.453	133.07
394.915	137.37
395.377	145.97
395.838	147.17
396.3	145.67
396.762	138.57
397.224	136.57
397.685	137.27
398.147	139.57
398.608	139.87
399.07	134.57
399.531	140.27
399.993	147.47
400.454	157.27
400.916	154.77
401.377	148.37
401.839	157.87
402.3	160.37
402.762	162.87
403.223	179.27
403.684	173.47
404.145	166.67
404.607	164.67
405.068	168.67
405.529	173.77
405.99	194.87
406.451	174.77
406.913	180.37
407.374	168.47
407.835	172.17
408.296	170.27
408.757	171.37
409.218	194.07
409.679	192.37
410.14	181.97
410.601	183.47
411.062	183.37
411.522	188.27
411.983	186.87
412.444	179.17
412.905	185.27
413.366	190.67
413.826	199.07
414.287	230.07
414.748	278.97
415.208	256.17
415.669	227.77
416.13	221.77
416.59	215.37
417.051	232.77
417.511	233.27
417.972	250.17
418.432	256.27
418.893	302.77
419.353	270.17
419.814	211.67
420.274	195.47
420.734	186.07
421.195	199.47
421.655	207.27
422.115	212.27
422.576	200.47
423.036	205.07
423.496	225.57
423.956	227.87
424.416	242.47
424.876	274.97
425.336	272.07
425.797	273.07
426.257	265.97
426.717	255.37
427.177	247.47
427.637	232.47
428.097	245.47
428.556	253.07
429.016	282.57
429.476	273.27
429.936	279.37
430.396	291.37
430.856	301.17
431.315	322.37
431.775	352.77
432.235	396.77
432.694	367.47
433.154	373.57
433.614	408.37
434.073	351.17
434.533	296.57
434.993	276.97
435.452	288.47
435.912	303.67
436.371	294.97
436.83	293.77
437.29	276.27
437.749	262.17
438.209	255.27
438.668	292.27
439.127	299.47
439.587	275.57
440.046	264.77
440.505	275.57
440.964	289.47
441.424	339.57
441.883	326.07
442.342	275.57
442.801	240.97
443.26	235.67
443.719	237.77
444.178	233.77
444.637	225.77
445.096	239.47
445.555	236.57
446.014	241.07
446.473	246.87
446.932	251.27
447.391	238.57
447.849	236.17
448.308	228.77
448.767	235.47
449.226	249.77
449.685	247.87
450.143	271.37
450.602	250.57
451.061	239.77
451.519	250.47
451.978	253.17
452.436	247.37
452.895	253.17
453.353	264.27
453.812	255.47
454.27	254.87
454.729	257.47
455.187	258.27
455.646	264.67
456.104	261.47
456.562	279.37
457.021	287.17
457.479	280.47
457.937	294.37
458.395	284.77
458.854	271.97
459.312	272.67
459.77	295.97
460.228	269.17
460.686	259.97
461.144	259.67
461.602	257.37
462.06	258.07
462.518	270.07
462.976	264.77
463.434	277.07
463.892	271.97
464.35	285.37
464.808	309.17
465.266	285.47
465.724	287.07
466.181	289.77
466.639	292.07
467.097	296.27
467.555	314.57
468.012	324.37
468.47	324.37
468.928	346.37
469.385	357.17
469.843	367.57
470.3	360.47
470.758	378.87
471.215	404.57
471.673	431.67
472.13	438.57
472.588	448.27
473.045	399.57
473.503	400.37
473.96	421.47
474.417	429.47
474.875	455.87
475.332	497.27
475.789	482.37
476.246	491.37
476.704	509.07
477.161	532.47
477.618	542.87
478.075	585.17
478.532	638.47
478.989	714.87
479.446	829.07
479.903	786.17
480.36	821.77
480.817	862.67
481.274	967.97
481.731	1043.07
482.188	1121.17
482.645	1256.07
483.102	1356.27
483.558	1464.97
484.015	1493.27
484.472	1472.17
484.929	1446.07
485.385	1397.27
485.842	1376.77
486.299	1307.07
486.755	1279.97
487.212	1085.77
487.668	932.57
488.125	859.57
488.582	794.57
489.038	767.37
489.494	734.77
489.951	707.77
490.407	689.97
490.864	668.27
491.32	671.87
491.776	668.37
492.233	683.27
492.689	654.67
493.145	638.37
493.602	635.27
494.058	644.67
494.514	643.47
494.97	658.37
495.426	674.77
495.882	655.07
496.338	643.07
496.794	654.57
497.251	630.07
497.707	661.87
498.163	654.97
498.618	664.57
499.074	671.07
499.53	696.17
499.986	699.27
500.442	669.37
500.898	661.07
501.354	649.57
501.809	648.97
502.265	648.37
502.721	661.67
503.177	662.87
503.632	672.27
504.088	685.37
504.543	696.47
504.999	713.47
505.455	688.47
505.91	669.97
506.366	666.07
506.821	658.17
507.277	656.77
507.732	664.57
508.187	662.47
508.643	673.67
509.098	656.67
509.553	691.97
510.009	697.67
510.464	706.87
510.919	726.07
511.375	725.07
511.83	735.87
512.285	752.67
512.74	798.87
513.195	808.07
513.65	808.07
514.105	794.97
514.56	791.47
515.015	815.27
515.47	832.57
515.925	819.17
516.38	812.77
516.835	825.47
517.29	811.57
517.745	811.67
518.2	795.57
518.655	777.07
519.109	781.47
519.564	774.77
520.019	755.17
520.474	763.17
520.928	759.77
521.383	753.27
521.838	735.07
522.292	745.87
522.747	743.07
523.201	751.87
523.656	732.87
524.11	719.07
524.565	726.37
525.019	713.27
525.474	729.77
525.928	727.87
526.382	730.37
526.837	730.37
527.291	737.17
527.745	723.27
528.2	740.77
528.654	725.87
529.108	721.47
529.562	715.77
530.016	723.77
530.47	723.17
530.925	719.67
531.379	718.67
531.833	735.17
532.287	727.17
532.741	723.27
533.195	727.77
533.649	731.87
534.103	748.07
534.556	729.07
535.01	737.57
535.464	735.47
535.918	744.17
536.372	754.67
536.826	746.77
537.279	741.17
537.733	739.97
538.187	743.67
538.64	742.57
539.094	737.27
539.548	757.87
540.001	753.07
540.455	753.37
540.908	769.07
541.362	767.07
541.815	783.37
542.269	789.37
542.722	788.47
543.175	808.27
543.629	814.87
544.082	826.07
544.536	820.27
544.989	824.07
545.442	833.67
545.895	830.37
546.349	831.17
546.802	828.67
547.255	844.77
547.708	831.37
548.161	846.67
548.614	857.97
549.067	867.17
549.52	854.27
549.973	848.07
550.426	834.37
550.879	839.47
551.332	835.97
551.785	846.77
552.238	843.47
552.691	850.87
553.144	865.77
553.596	882.67
554.049	894.97
554.502	932.97
554.955	953.17
555.407	939.17
555.86	943.07
556.313	932.37
556.765	925.67
557.218	919.67
557.67	918.97
558.123	910.77
558.576	914.57
559.028	912.57
559.48	917.57
559.933	921.77
560.385	885.07
560.838	856.37
561.29	819.67
561.742	822.47
562.195	807.57
562.647	814.87
563.099	812.37
563.551	799.87
564.004	827.17
564.456	802.67
564.908	799.97
565.36	769.67
565.812	759.17
566.264	754.97
566.716	752.57
567.168	738.17
567.62	746.67
568.072	731.67
568.524	729.37
568.976	717.37
569.428	708.87
569.88	704.97
570.332	713.77
570.784	723.07
571.235	715.97
571.687	725.57
572.139	733.37
572.59	747.77
573.042	746.77
573.494	739.27
573.945	732.17
574.397	701.97
574.849	715.67
575.3	722.67
575.752	722.67
576.203	711.67
576.655	713.47
577.106	705.67
577.557	701.07
578.009	710.87
578.46	709.47
578.912	692.07
579.363	692.07
579.814	691.17
580.265	687.67
580.717	705.17
581.168	708.07
581.619	703.37
582.07	713.97
582.521	708.47
582.972	694.17
583.423	708.47
583.875	709.97
584.326	712.27
584.777	731.57
585.227	769.67
585.678	781.57
586.129	808.77
586.58	833.07
587.031	863.47
587.482	903.57
587.933	951.67
588.384	908.17
588.834	833.47
589.285	804.87
589.736	815.17
590.186	810.87
590.637	790.57
591.088	787.97
591.538	772.17
591.989	764.17
592.439	753.17
592.89	746.87
593.34	749.07
593.791	734.17
594.241	726.37
594.692	735.07
595.142	723.67
595.593	718.47
596.043	729.57
596.493	743.97
596.943	736.27
597.394	764.87
597.844	756.17
598.294	772.67
598.744	792.97
599.195	815.47
599.645	858.97
600.095	899.07
600.545	959.67
600.995	1012.27
601.445	1077.87
601.895	1135.37
602.345	1184.87
602.795	1154.47
603.245	1108.27
603.695	1060.37
604.145	1008.57
604.594	950.07
605.044	895.17
605.494	836.67
605.944	785.97
606.393	772.97
606.843	758.97
607.293	760.57
607.743	757.17
608.192	771.97
608.642	778.97
609.091	792.57
609.541	802.27
609.99	792.77
610.44	797.97
610.889	747.77
611.339	721.37
611.788	714.47
612.238	709.37
612.687	730.87
613.136	725.27
613.586	734.67
614.035	726.97
614.484	732.07
614.933	738.87
615.383	739.67
615.832	730.97
616.281	722.77
616.73	705.97
617.179	678.97
617.628	673.17
618.077	653.77
618.526	646.67
618.975	645.07
619.424	639.87
619.873	638.47
620.322	640.27
620.771	627.67
621.22	630.77
621.669	624.37
622.118	617.27
622.567	608.47
623.015	593.57
623.464	595.47
623.913	584.77
624.361	573.77
624.81	560.47
625.259	571.37
625.707	583.07
626.156	569.37
626.604	590.07
627.053	583.07
627.501	577.87
627.95	592.87
628.398	607.17
628.847	590.47
629.295	602.17
629.744	594.67
630.192	592.87
630.64	587.97
631.089	565.87
631.537	573.17
631.985	556.77
632.433	561.47
632.881	561.07
633.33	561.07
633.778	564.47
634.226	548.27
634.674	567.87
635.122	568.87
635.57	581.17
636.018	577.97
636.466	594.97
636.914	588.77
637.362	598.97
637.81	602.87
638.258	595.77
638.705	609.97
639.153	637.87
639.601	649.37
640.049	667.37
640.497	703.67
640.944	719.17
641.392	669.57
641.84	630.07
642.287	615.27
642.735	588.57
643.182	588.47
643.63	583.47
644.078	583.97
644.525	605.67
644.973	601.17
645.42	616.47
645.867	637.47
646.315	653.97
646.762	685.57
647.21	711.57
647.657	727.27
648.104	767.57
648.551	783.57
648.999	855.67
649.446	929.57
649.893	1006.07
650.34	1142.67
650.787	1378.27
651.234	1703.97
651.682	2201.17
652.129	2985.77
652.576	4245.67
653.023	6180.37
653.47	8285.87
653.917	10240.27
654.363	11743.97
654.81	12902.27
655.257	12183.57
655.704	8126.37
656.151	4889.07
656.598	3219.17
657.044	2305.37
657.491	1794.17
657.938	1454.47
658.385	1220.67
658.831	1064.47
659.278	965.27
659.724	857.77
660.171	804.07
660.618	729.47
661.064	688.77
661.511	680.57
661.957	662.67
662.404	659.37
662.85	665.67
663.296	647.17
663.743	584.17
664.189	553.27
664.635	548.87
665.082	543.57
665.528	553.27
665.974	547.27
666.42	536.37
666.867	519.97
667.313	499.27
667.759	489.67
668.205	478.47
668.651	467.37
669.097	467.47
669.543	467.97
669.989	460.17
670.435	466.37
670.881	455.77
671.327	471.67
671.773	493.87
672.219	511.47
672.665	572.07
673.11	612.87
673.556	662.77
674.002	689.87
674.448	694.17
674.893	577.17
675.339	501.77
675.785	459.47
676.23	438.67
676.676	406.27
677.122	400.27
677.567	400.97
678.013	382.47
678.458	374.37
678.904	381.37
679.349	356.37
679.794	365.67
680.24	372.97
680.685	370.47
681.131	364.47
681.576	370.77
682.021	371.37
682.466	370.47
682.912	363.77
683.357	367.97
683.802	402.97
684.247	437.77
684.692	483.97
685.137	521.27
685.583	564.37
686.028	589.67
686.473	544.77
686.918	465.47
687.363	437.07
687.807	407.87
688.252	384.17
688.697	369.37
689.142	354.27
689.587	354.07
690.032	350.87
690.477	361.37
690.921	370.07
691.366	408.97
691.811	431.47
692.255	448.97
692.7	485.77
693.145	537.17
693.589	751.27
694.034	1219.17
694.478	1642.57
694.923	1832.87
695.367	2365.57
695.812	1272.07
696.256	531.07
696.701	391.87
697.145	364.77
697.59	354.77
698.034	334.37
698.478	342.27
698.922	341.17
699.367	341.87
699.811	349.87
700.255	368.57
700.699	402.67
701.143	438.47
701.588	498.37
702.032	538.17
702.476	535.57
702.92	517.87
703.364	528.77
703.808	691.37
704.252	1132.17
704.696	1555.77
705.14	1748.17
705.584	2211.97
706.027	1123.77
706.471	553.47
706.915	415.37
707.359	380.27
707.803	342.77
708.246	327.67
708.69	325.67
709.134	333.07
709.577	326.87
710.021	341.27
710.465	323.07
710.908	308.97
711.352	315.27
711.795	333.17
712.239	373.77
712.682	407.97
713.126	433.57
713.569	471.77
714.012	372.17
714.456	318.07
714.899	314.07
715.342	288.37
715.786	270.07
716.229	274.77
716.672	269.97
717.115	257.17
717.558	265.07
718.002	264.97
718.445	278.67
718.888	305.87
719.331	305.57
719.774	324.97
720.217	313.27
720.66	297.97
721.103	280.07
721.546	271.17
721.989	263.17
722.432	243.97
722.874	249.37
723.317	243.27
723.76	244.77
724.203	271.47
724.645	338.77
725.088	475.67
725.531	602.27
725.974	666.57
726.416	576.07
726.859	322.97
727.301	258.97
727.744	251.27
728.187	248.87
728.629	255.77
729.071	254.47
729.514	274.67
729.956	282.87
730.399	301.97
730.841	296.77
731.283	285.17
731.726	272.57
732.168	282.37
732.61	284.37
733.053	297.47
733.495	327.87
733.937	372.77
734.379	426.27
734.821	455.17
735.263	587.17
735.705	909.87
736.148	1718.37
736.59	2757.07
737.032	3197.67
737.474	2606.17
737.916	855.57
738.357	452.37
738.799	348.97
739.241	315.97
739.683	300.97
740.125	309.67
740.567	321.87
741.008	335.97
741.45	339.57
741.892	338.37
742.334	368.87
742.775	382.27
743.217	358.27
743.658	289.97
744.1	269.47
744.542	288.77
744.983	335.67
745.425	369.47
745.866	363.37
746.307	297.47
746.749	291.17
747.19	352.07
747.632	492.97
748.073	974.97
748.514	2031.67
748.956	3033.87
749.397	3803.87
749.838	3136.77
750.279	3071.87
750.72	1590.97
751.162	591.97
751.603	340.97
752.044	260.87
752.485	225.07
752.926	229.17
753.367	211.57
753.808	204.77
754.249	205.27
754.69	193.47
755.131	189.97
755.572	191.87
756.013	192.77
756.453	198.97
756.894	191.87
757.335	196.67
757.776	208.97
758.216	204.37
758.657	207.37
759.098	210.77
759.538	239.37
759.979	289.57
760.42	401.47
760.86	781.57
761.301	2038.77
761.741	4775.27
762.182	6683.97
762.622	4740.27
763.063	1393.47
763.503	568.27
763.943	351.77
764.384	287.17
764.824	285.07
765.264	274.87
765.705	228.37
766.145	193.47
766.585	186.47
767.025	174.67
767.465	175.27
767.906	194.87
768.346	218.57
768.786	230.77
769.226	237.07
769.666	334.77
770.106	684.67
770.546	1692.27
770.986	2784.27
771.426	2473.97
771.866	839.47
772.306	342.87
772.745	218.57
773.185	174.17
773.625	162.57
774.065	161.67
774.505	172.87
774.944	222.57
775.384	409.27
775.824	666.67
776.263	637.07
776.703	310.57
777.142	174.77
777.582	140.47
778.021	125.77
778.461	134.37
778.9	125.97
779.34	129.57
779.779	119.47
780.219	117.87
780.658	111.37
781.097	117.87
781.537	109.77
781.976	113.07
782.415	113.57
782.855	104.27
783.294	105.17
783.733	113.17
784.172	116.57
784.611	110.07
785.05	112.47
785.489	114.57
785.928	124.17
786.367	128.47
786.806	123.27
787.245	138.87
787.684	142.07
788.123	152.07
788.562	144.57
789.001	130.27
789.44	127.87
789.879	123.17
790.317	128.77
790.756	135.37
791.195	136.87
791.634	148.07
792.072	217.17
792.511	396.37
792.95	1102.27
793.388	2238.87
793.827	1980.37
794.265	700.57
794.704	300.27
795.142	194.07
795.581	158.77
796.019	138.47
796.458	144.17
796.896	128.57
797.334	133.17
797.773	163.27
798.211	225.17
798.649	478.97
799.087	1107.77
799.526	1713.87
799.964	2136.87
800.402	2100.67
800.84	808.67
801.278	317.87
801.716	202.37
802.154	158.77
802.592	154.37
803.03	136.97
803.468	139.97
803.906	155.17
804.344	167.07
804.782	153.77
805.22	138.57
805.658	136.07
806.096	157.57
806.533	163.97
806.971	191.37
807.409	241.97
807.847	351.07
808.284	734.27
808.722	2037.37
809.16	3467.47
809.597	3417.57
810.035	5774.47
810.472	5968.97
810.91	2211.37
811.347	850.47
811.785	434.47
812.222	278.77
812.66	207.27
813.097	172.87
813.535	148.27
813.972	137.37
814.409	125.87
814.846	111.47
815.284	112.17
815.721	101.37
816.158	109.67
816.595	123.47
817.032	159.07
817.47	188.37
817.907	125.77
818.344	109.87
818.781	101.07
819.218	102.27
819.655	136.77
820.092	203.97
820.529	227.07
820.966	176.87
821.403	134.17
821.839	106.17
822.276	104.57
822.713	125.87
823.15	136.07
823.587	123.17
824.023	157.77
824.46	336.67
824.897	961.67
825.333	1402.67
825.77	611.87
826.206	244.47
826.643	144.07
827.08	104.77
827.516	88.97
827.953	82.77
828.389	81.57
828.825	72.17
829.262	71.47
829.698	65.27
830.135	65.37
830.571	66.57
831.007	73.07
831.443	66.77
831.88	66.07
832.316	64.57
832.752	61.47
833.188	67.17
833.624	63.97
834.06	71.77
834.497	65.07
834.933	75.97
835.369	75.87
835.805	69.97
836.241	75.77
836.677	79.07
837.112	93.47
837.548	111.97
837.984	140.17
838.42	217.17
838.856	540.47
839.292	1629.87
839.727	2406.87
840.163	1137.87
840.599	1009.37
841.034	2160.67
841.47	2193.47
841.906	827.97
842.341	353.77
842.777	213.47
843.212	222.67
843.648	208.87
844.083	122.47
844.519	91.37
844.954	78.77
845.39	59.47
845.825	60.37
846.261	60.57
846.696	59.77
847.131	57.07
847.566	60.47
848.002	51.57
848.437	59.87
848.872	61.07
849.307	65.37
849.742	93.87
850.177	196.97
850.613	608.27
851.048	918.57
851.483	401.77
851.918	156.97
852.353	85.37
852.788	64.67
853.223	54.17
853.657	54.27
854.092	44.67
854.527	43.97
854.962	41.67
855.397	47.47
855.832	46.57
856.266	41.37
856.701	42.97
857.136	39.57
857.57	43.07
858.005	51.57
858.44	61.47
858.874	43.97
859.309	57.87
859.743	41.97
860.178	49.07
860.612	45.97
861.047	52.67
861.481	73.27
861.915	74.07
862.35	54.77
862.784	33.07
863.218	39.57
863.653	35.57
864.087	50.07
864.521	53.67
864.955	75.37
865.39	162.57
865.824	179.87
866.258	121.77
866.692	180.87
867.126	188.67
867.56	109.47
867.994	56.47
868.428	37.47
868.862	47.97
869.296	54.27
869.73	62.87
870.164	56.47
870.598	50.37
871.031	38.77
871.465	32.57
871.899	31.07
872.333	27.27
872.766	26.77
873.2	20.57
873.634	27.27
874.067	29.37
874.501	24.67
874.935	34.07
875.368	32.07
875.802	29.07
876.235	27.47
876.669	29.07
877.102	21.87
877.535	29.77
877.969	28.27
878.402	23.87
878.836	17.47
879.269	26.97
879.702	23.27
880.135	15.97
880.569	18.87
881.002	25.27
881.435	19.07
881.868	24.07
882.301	19.37
882.734	18.57
883.167	26.87
883.601	18.67
884.034	27.27
884.467	11.27
884.899	13.97
885.332	21.67
885.765	17.57
886.198	16.87
886.631	22.87
887.064	20.87
887.497	20.57
887.929	25.87
888.362	15.17
888.795	12.47
889.228	18.97
889.66	17.87
890.093	18.17
890.526	20.57
890.958	13.97
891.391	13.97
891.823	21.67
892.256	15.77
892.688	13.17
893.121	19.37
893.553	16.27
893.985	15.57
894.418	21.47
894.85	13.17
895.282	15.87
895.715	12.67
896.147	13.07
896.579	24.97
897.011	11.77
897.444	17.17
897.876	11.67
898.308	18.17
898.74	14.97
899.172	15.47
899.604	26.57
900.036	21.47
900.468	14.47
900.9	14.67
901.332	20.97
901.764	11.97
902.196	19.57
902.628	16.67
903.06	14.17
903.491	27.47
903.923	26.67
904.355	23.77
904.787	26.37
905.218	30.67
905.65	21.37
906.082	12.47
906.513	8.87
906.945	17.37
907.376	17.97
907.808	21.87
908.239	20.07
908.671	18.07
909.102	16.57
909.534	28.47
909.965	47.47
910.397	99.27
910.828	341.47
911.259	491.27
911.691	226.07
912.122	109.37
912.553	54.27
912.984	32.17
913.415	20.27
913.847	21.47
914.278	15.87
914.709	11.17
915.14	19.67
915.571	17.67
916.002	12.77
916.433	17.57
916.864	11.17
917.295	14.37
917.726	23.17
918.157	14.47
918.587	28.27
919.018	22.97
919.449	23.27
919.88	20.67
920.311	34.37
920.741	49.97
921.172	177.97
921.603	158.37
922.033	74.17
922.464	51.27
922.895	18.07
923.325	19.47
923.756	14.47
924.186	10.97
924.617	20.37
925.047	25.17
925.478	24.87
925.908	27.37
926.338	18.27
926.769	10.17
927.199	15.47
927.629	6.57
928.06	12.87
928.49	18.27
928.92	8.97
929.35	10.07
929.78	10.07
930.21	6.97
930.641	2.07
931.071	15.37
931.501	5.77
931.931	12.47
932.361	12.07
932.791	0.57
933.221	4.07
933.651	1.37
934.08	16.87
934.51	34.07
934.94	12.37
935.37	8.57
935.8	6.17
936.229	3.07
936.659	8.47
937.089	0.47
937.519	8.67
937.948	28.67
938.378	14.07
938.807	6.47
939.237	1.37
939.666	9.87
940.096	-6.53
940.525	-2.13
940.955	-2.13
941.384	2.97
941.814	-4.23
942.243	-1.73
942.672	1.47
943.102	-6.03
943.531	-1.83
943.96	3.47
944.39	-0.03
944.819	3.07
945.248	3.07
945.677	1.97
946.106	1.37
946.535	1.97
946.964	-1.53
947.393	-0.93
947.822	1.67
948.251	-4.73
948.68	8.17
949.109	4.77
949.538	11.77
949.967	1.87
950.396	-4.13
950.825	-5.13
951.254	6.07
951.682	-5.73
952.111	1.87
952.54	9.37
952.969	-3.23
953.397	-7.73
953.826	-2.93
954.254	-5.93
954.683	-2.63
955.112	-0.43
955.54	-0.83
955.969	0.97
956.397	-3.23
956.826	-1.03
957.254	-2.03
957.682	-1.93
958.111	4.77
958.539	4.27
958.967	2.67
959.396	-3.73
959.824	1.37
960.252	0.17
960.68	-5.33
961.109	-0.93
961.537	-6.03
961.965	-0.23
962.393	0.27
962.821	0.77
963.249	-7.03
963.677	3.27
964.105	4.67
964.533	43.07
964.961	38.17
965.389	24.17
965.817	8.97
966.245	3.37
966.672	-1.03
967.1	-8.93
967.528	-2.03
967.956	-7.23
968.383	-0.23
968.811	-3.13
969.239	-0.43
969.666	-5.03
970.094	-1.43
970.522	-2.83
970.949	-1.73
971.377	-3.23
971.804	-2.13
972.232	-4.93
972.659	-6.53
973.087	-6.33
973.514	-3.43
973.941	-0.83
974.369	0.67
974.796	1.77
975.223	-4.63
975.651	-0.23
976.078	1.77
976.505	0.07
976.932	2.47
977.359	18.57
977.786	13.77
978.214	1.67
978.641	-8.43
979.068	-8.53
979.495	-5.53
979.922	-2.13
980.349	-0.53
980.776	6.77
981.202	-3.83
981.629	0.87
982.056	-0.93
982.483	-6.53
982.91	-4.23
983.337	-7.23
983.763	-1.03
984.19	-6.33
984.617	-4.33
985.043	-5.03
985.47	-4.73
985.897	1.77
986.323	-7.13
986.75	5.97
987.176	-1.63
987.603	3.87
988.029	1.47
988.456	-6.33
988.882	-1.23
989.308	-6.83
989.735	-4.43
990.161	-2.33
990.587	0.17
991.014	-2.53
991.44	6.57
991.866	0.57
992.292	-6.83
992.719	-5.23
993.145	-3.83
993.571	-10.33
993.997	-7.33
994.423	-2.83
994.849	-3.93
995.275	-3.03
995.701	2.47
996.127	-4.73
996.553	-1.43
996.979	-3.33
997.405	-5.33
997.83	-5.83
998.256	-0.93
998.682	-6.03
999.108	-11.73
999.534	0.57
999.959	-0.43
1000.385	-6.13
1000.811	-2.43
1001.236	-15.53
1001.662	-7.93
1002.087	-9.03
1002.513	-4.83
1002.938	2.57
1003.364	-2.03
1003.789	-3.93
1004.215	4.97
1004.64	-0.83
1005.066	-0.13
1005.491	0.57
1005.916	-5.83
1006.342	-1.83
1006.767	-8.83
1007.192	6.57
1007.617	-2.73
1008.042	-7.33
1008.468	-11.33
1008.893	-10.33
1009.318	-7.33
1009.743	-2.23
1010.168	2.87
1010.593	0.07
1011.018	-12.03
1011.443	-9.63
1011.868	2.57
1012.293	-10.43
1012.718	-10.13
1013.143	-7.73
1013.567	2.67
1013.992	-0.03
1014.417	-13.43
1014.842	1.07
1015.267	-4.73
1015.691	-3.43
1016.116	2.27
1016.541	-4.03
1016.965	0.07
1017.39	-3.73
1017.814	-3.83
1018.239	-1.73
1018.663	-12.33
1019.088	-12.93
1019.512	-2.73
1019.937	-2.33
1020.361	-7.63
1020.785	-5.03
1021.21	-0.33
1021.634	2.27
1022.058	0.17
1022.483	0.07
1022.907	-0.43
1023.331	-5.13
1023.755	-9.03
1024.179	-4.43
1024.604	-11.63
1025.028	-7.93
1025.452	-12.83
1025.876	-3.73
1026.3	-1.43
1026.724	-13.03
1027.148	-3.13
1027.572	-7.33
1027.996	-5.03
1028.42	-5.83
1028.843	-5.23
1029.267	-11.13
1029.691	-9.03
1030.115	-9.03
1030.539	-8.23
1030.962	-10.53
1031.386	-11.63
1031.81	0.97
1032.233	-1.33
1032.657	-4.13
1033.08	-5.83
1033.504	-3.63
1033.927	-5.63
1034.351	-5.03
1034.774	-3.03
1035.198	-1.63
1035.621	-8.03
1036.045	-8.33
1036.468	-0.53
1036.891	-13.23
1037.315	-8.33
1037.738	-9.93
1038.161	-1.93
1038.584	-6.73
1039.008	-10.03
1039.431	-4.43
1039.854	-6.03
1040.277	-8.73
1040.7	-15.33
1041.123	-2.63
1041.546	-14.73
1041.969	-5.73
1042.392	-5.53
1042.815	-5.63
1043.238	1.07
1043.661	-10.83
1044.084	-3.83
1044.507	-6.23
1044.93	-4.83
1045.352	-10.03
1045.775	-2.73
1046.198	-7.73
1046.621	-0.53
1047.043	-0.83
1047.466	-0.23
1047.889	-4.53
1048.311	-6.33
1048.734	-6.83
1049.156	-4.23
1049.579	-7.83
1050.001	-1.23
1050.424	-5.03
1050.846	-2.13
1051.269	1.67
1051.691	-6.23
1052.113	-10.43
1052.536	2.27
1052.958	-2.23
1053.38	-7.73
1053.802	-8.53
1054.225	-5.23
1054.647	-7.63
1055.069	-6.33
1055.491	-3.83
1055.913	-8.43
1056.335	-2.03
1056.757	-4.63
1057.179	-7.53
1057.601	-3.63
1058.023	-6.43
1058.445	-3.73
1058.867	-6.53
1059.289	-0.93
1059.711	-9.03
1060.133	-5.13
1060.555	-10.13
1060.976	-13.63
1061.398	-8.73
1061.82	-9.43
1062.241	-5.03
1062.663	-9.33
1063.085	-3.43
1063.506	-1.73
1063.928	-1.33
1064.35	-5.63
1064.771	-7.83
1065.193	-3.43
1065.614	-12.23
1066.035	-0.53
1066.457	-3.93
1066.878	-3.83
1067.3	-5.63
1067.721	-6.53
1068.142	-9.83
1068.564	-8.13
1068.985	-9.43
1069.406	-8.23
1069.827	-11.33
1070.248	-4.23
1070.67	-9.23
1071.091	-4.43
1071.512	-5.73
1071.933	-7.43
1072.354	-7.73
1072.775	-11.13
1073.196	-11.13
1073.617	-5.13
1074.038	-9.33
1074.459	-2.93
1074.88	-11.53
1075.3	1.27
1075.721	-0.83
1076.142	-3.53
1076.563	-2.33
1076.983	-8.13
1077.404	-10.33
1077.825	-15.23
1078.246	-10.03
1078.666	-12.93
1079.087	-6.43
1079.507	-9.83
1079.928	0.57
1080.348	-0.83
1080.769	-7.73
1081.189	-3.23
1081.61	-1.43
1082.03	-7.93
1082.451	-11.33
1082.871	-4.03
1083.291	-12.63
1083.711	-17.43
1084.132	-3.03
1084.552	-6.93
1084.972	-0.33
1085.392	-10.83
1085.813	-11.63
1086.233	-4.93
1086.653	-2.83
1087.073	1.47
1087.493	-9.13
1087.913	-8.13
1088.333	-4.53
1088.753	-7.83
1089.173	2.87
1089.593	-5.83
1090.013	-0.13
1090.433	-0.73
1090.852	-0.03
1091.272	-2.03
1091.692	-2.53
1092.112	-8.83
1092.531	-7.63
1092.951	-11.23
1093.371	-6.13
1093.79	-1.03
1094.21	-5.83
1094.63	-5.93
1095.049	-11.13
1095.469	-5.13
1095.888	-5.73
1096.308	-2.43
1096.727	-0.13
1097.146	-6.73
1097.566	1.07
1097.985	-2.13
1098.405	-1.43
1098.824	-5.33
1099.243	-9.43
1099.662	-10.73
1100.082	-6.13
1100.501	-2.73
1100.92	-9.33
1101.339	-5.93
1101.758	-5.23
