Data from 20171114-ORNL-Ar_H_NY_Subt18_08-05-12-490.txt Node
Date: Tue Nov 14 08:05:12 EST 2017
User: Ender
Spectrometer: HR+D1039
Trigger mode: 0
Integration Time (sec): 2.730000E-2
Scans to average: 10
Electric dark correction enabled: true
Nonlinearity correction enabled: false
Boxcar width: 0
XAxis mode: Wavelengths
Number of Pixels in Spectrum: 2048
>>>>>Begin Spectral Data<<<<<
187.836	-4.49
188.309	-4.49
188.782	-4.49
189.255	3.11
189.728	0.61
190.201	6.21
190.674	0.91
191.147	1.71
191.619	-11.99
192.092	1.11
192.565	9.21
193.038	-0.29
193.511	1.01
193.984	-1.39
194.456	-3.19
194.929	-1.79
195.402	-0.39
195.874	-0.39
196.347	-0.69
196.82	-6.19
197.292	0.51
197.765	-1.79
198.237	-2.89
198.71	4.11
199.182	2.81
199.655	7.81
200.127	8.21
200.6	-5.19
201.072	-1.29
201.544	-5.69
202.017	1.81
202.489	4.61
202.961	2.91
203.433	0.81
203.906	-10.59
204.378	-5.99
204.85	-5.29
205.322	-5.49
205.794	0.41
206.266	-2.79
206.739	-8.69
207.211	5.81
207.683	-9.49
208.155	-5.39
208.627	-5.89
209.099	-4.99
209.57	-7.29
210.042	-4.69
210.514	2.11
210.986	0.61
211.458	-1.29
211.93	-5.09
212.402	0.71
212.873	-6.59
213.345	-6.39
213.817	-8.29
214.288	-3.29
214.76	-12.59
215.232	-6.69
215.703	1.81
216.175	3.81
216.646	0.61
217.118	-3.79
217.589	-6.29
218.061	-2.69
218.532	-1.49
219.004	1.81
219.475	-0.89
219.946	2.11
220.418	-6.89
220.889	10.51
221.36	2.41
221.832	-3.79
222.303	-9.49
222.774	0.61
223.245	-5.99
223.717	-3.19
224.188	-2.59
224.659	-13.59
225.13	0.81
225.601	0.11
226.072	0.71
226.543	-0.79
227.014	2.91
227.485	0.51
227.956	-5.59
228.427	0.01
228.898	-5.09
229.369	5.31
229.839	-7.49
230.31	-4.89
230.781	7.71
231.252	2.81
231.722	-2.09
232.193	-3.79
232.664	2.31
233.135	4.21
233.605	-0.29
234.076	-3.29
234.546	0.31
235.017	2.81
235.487	-2.69
235.958	2.41
236.428	2.81
236.899	7.21
237.369	2.41
237.84	4.61
238.31	8.51
238.78	3.51
239.251	-1.09
239.721	6.71
240.191	7.81
240.662	3.71
241.132	3.31
241.602	-2.09
242.072	4.21
242.542	8.61
243.013	1.01
243.483	4.31
243.953	4.91
244.423	5.21
244.893	-2.49
245.363	3.11
245.833	2.11
246.303	-0.99
246.773	9.81
247.243	9.51
247.712	3.21
248.182	11.11
248.652	6.51
249.122	0.71
249.592	15.01
250.061	18.21
250.531	39.01
251.001	20.71
251.471	27.61
251.94	20.11
252.41	7.61
252.879	3.71
253.349	16.11
253.818	13.21
254.288	9.11
254.757	10.51
255.227	0.71
255.696	10.41
256.166	4.41
256.635	11.01
257.105	13.21
257.574	11.11
258.043	18.21
258.513	12.21
258.982	22.71
259.451	7.11
259.92	17.01
260.389	19.41
260.859	23.71
261.328	16.21
261.797	19.51
262.266	17.01
262.735	11.31
263.204	9.21
263.673	4.71
264.142	6.31
264.611	-2.99
265.08	0.81
265.549	0.31
266.018	-1.49
266.487	-2.89
266.955	-2.69
267.424	7.41
267.893	6.21
268.362	-0.19
268.83	4.21
269.299	14.41
269.768	9.31
270.236	9.21
270.705	8.31
271.174	5.21
271.642	6.91
272.111	13.81
272.579	21.51
273.048	24.11
273.516	34.41
273.985	27.21
274.453	22.41
274.922	17.31
275.39	12.91
275.858	10.51
276.327	14.21
276.795	18.61
277.263	12.81
277.731	34.61
278.2	56.31
278.668	67.01
279.136	47.51
279.604	25.61
280.072	17.41
280.54	12.81
281.008	13.71
281.477	11.71
281.945	17.71
282.413	17.81
282.881	20.41
283.348	8.51
283.816	15.41
284.284	24.71
284.752	15.21
285.22	14.61
285.688	15.01
286.156	22.21
286.623	45.71
287.091	55.11
287.559	28.31
288.026	23.81
288.494	18.41
288.962	5.21
289.429	13.51
289.897	25.11
290.364	15.31
290.832	15.21
291.3	16.61
291.767	21.61
292.234	22.71
292.702	19.11
293.169	26.51
293.637	19.81
294.104	19.91
294.571	12.81
295.039	17.51
295.506	19.91
295.973	16.71
296.44	17.01
296.908	17.41
297.375	26.11
297.842	26.81
298.309	17.91
298.776	18.21
299.243	18.51
299.71	12.41
300.177	24.01
300.644	32.71
301.111	24.11
301.578	26.21
302.045	25.51
302.512	30.01
302.979	23.11
303.446	30.51
303.913	24.91
304.379	19.11
304.846	33.81
305.313	29.21
305.78	26.61
306.246	36.31
306.713	30.61
307.18	32.31
307.646	32.11
308.113	35.81
308.579	26.81
309.046	35.11
309.512	26.01
309.979	20.71
310.445	33.11
310.912	32.11
311.378	29.01
311.845	26.61
312.311	39.31
312.777	33.11
313.244	33.81
313.71	37.31
314.176	27.91
314.642	32.11
315.109	36.81
315.575	38.61
316.041	37.21
316.507	37.51
316.973	36.11
317.439	40.11
317.905	43.61
318.371	38.71
318.837	39.41
319.303	33.11
319.769	38.01
320.235	36.21
320.701	38.61
321.167	37.51
321.633	35.91
322.099	39.01
322.564	51.51
323.03	39.31
323.496	43.11
323.962	48.61
324.427	39.11
324.893	46.31
325.359	38.11
325.824	38.71
326.29	37.61
326.755	43.81
327.221	45.51
327.686	43.61
328.152	46.01
328.617	43.71
329.083	53.21
329.548	54.91
330.014	58.61
330.479	46.51
330.944	44.81
331.41	44.31
331.875	50.61
332.34	46.31
332.805	48.31
333.271	53.21
333.736	45.51
334.201	62.01
334.666	52.41
335.131	56.81
335.596	52.81
336.061	48.21
336.526	50.41
336.991	55.81
337.456	64.51
337.921	50.31
338.386	47.01
338.851	53.21
339.316	46.11
339.781	51.41
340.246	52.11
340.711	51.71
341.175	50.81
341.64	45.51
342.105	51.91
342.569	60.51
343.034	63.71
343.499	53.41
343.963	52.81
344.428	65.81
344.893	60.61
345.357	62.61
345.822	64.51
346.286	65.81
346.751	77.01
347.215	63.11
347.679	76.51
348.144	99.91
348.608	86.51
349.073	73.61
349.537	79.61
350.001	83.61
350.465	89.81
350.93	87.31
351.394	86.41
351.858	78.71
352.322	93.91
352.786	92.71
353.25	103.41
353.715	119.41
354.179	103.71
354.643	128.51
355.107	128.41
355.571	107.31
356.035	106.81
356.498	123.91
356.962	125.51
357.426	132.91
357.89	125.51
358.354	95.61
358.818	92.41
359.281	88.71
359.745	81.21
360.209	78.31
360.673	71.11
361.136	85.51
361.6	94.61
362.064	87.51
362.527	85.01
362.991	92.81
363.454	86.61
363.918	81.31
364.381	78.01
364.845	83.11
365.308	97.11
365.772	93.11
366.235	89.61
366.698	82.31
367.162	89.41
367.625	96.01
368.088	91.91
368.552	92.31
369.015	84.41
369.478	98.41
369.941	99.91
370.404	93.31
370.867	106.21
371.331	109.21
371.794	118.71
372.257	112.21
372.72	117.11
373.183	112.01
373.646	107.71
374.109	102.41
374.572	112.81
375.035	111.01
375.497	113.61
375.96	107.61
376.423	105.31
376.886	122.51
377.349	112.31
377.811	102.51
378.274	106.11
378.737	109.31
379.199	114.81
379.662	113.81
380.125	122.51
380.587	118.81
381.05	127.61
381.512	131.71
381.975	141.11
382.437	131.61
382.9	133.91
383.362	141.21
383.825	142.51
384.287	146.81
384.75	147.31
385.212	143.91
385.674	140.41
386.136	137.21
386.599	122.71
387.061	137.91
387.523	129.71
387.985	129.81
388.447	147.81
388.91	142.31
389.372	160.21
389.834	149.71
390.296	148.81
390.758	158.31
391.22	173.01
391.682	209.91
392.144	292.31
392.606	228.81
393.068	163.61
393.529	168.81
393.991	153.21
394.453	149.41
394.915	154.41
395.377	190.21
395.838	216.91
396.3	156.71
396.762	140.21
397.224	129.51
397.685	129.21
398.147	128.71
398.608	132.81
399.07	129.71
399.531	139.51
399.993	143.41
400.454	154.31
400.916	144.21
401.377	148.81
401.839	154.81
402.3	155.51
402.762	168.41
403.223	181.91
403.684	183.11
404.145	163.51
404.607	163.11
405.068	165.51
405.529	174.31
405.99	192.41
406.451	177.61
406.913	172.21
407.374	161.91
407.835	161.31
408.296	168.11
408.757	168.41
409.218	190.61
409.679	175.11
410.14	178.61
410.601	178.11
411.062	186.01
411.522	189.41
411.983	196.01
412.444	174.51
412.905	174.31
413.366	190.51
413.826	194.41
414.287	217.81
414.748	259.01
415.208	247.21
415.669	207.51
416.13	207.61
416.59	196.11
417.051	218.21
417.511	219.51
417.972	236.51
418.432	248.11
418.893	290.51
419.353	257.01
419.814	200.51
420.274	186.21
420.734	184.51
421.195	198.01
421.655	195.61
422.115	196.11
422.576	192.91
423.036	195.81
423.496	206.51
423.956	216.21
424.416	228.51
424.876	271.11
425.336	259.11
425.797	259.41
426.257	249.91
426.717	237.81
427.177	236.41
427.637	230.41
428.097	234.81
428.556	252.81
429.016	263.51
429.476	262.21
429.936	272.81
430.396	275.31
430.856	297.11
431.315	308.61
431.775	349.21
432.235	384.71
432.694	356.11
433.154	361.61
433.614	390.61
434.073	337.91
434.533	287.21
434.993	265.91
435.452	284.81
435.912	298.51
436.371	285.11
436.83	283.81
437.29	270.71
437.749	246.51
438.209	246.71
438.668	274.41
439.127	281.01
439.587	266.31
440.046	253.11
440.505	261.31
440.964	283.81
441.424	322.71
441.883	315.81
442.342	259.81
442.801	226.01
443.26	220.61
443.719	212.91
444.178	219.31
444.637	212.91
445.096	225.31
445.555	215.01
446.014	224.21
446.473	227.81
446.932	227.41
447.391	220.01
447.849	222.51
448.308	217.81
448.767	220.31
449.226	235.31
449.685	232.51
450.143	246.61
450.602	238.51
451.061	227.51
451.519	232.11
451.978	232.01
452.436	235.91
452.895	244.21
453.353	254.61
453.812	242.81
454.27	241.61
454.729	237.11
455.187	242.21
455.646	241.51
456.104	249.31
456.562	256.31
457.021	261.21
457.479	261.21
457.937	277.11
458.395	263.01
458.854	243.61
459.312	256.61
459.77	271.01
460.228	252.41
460.686	240.71
461.144	245.01
461.602	245.41
462.06	244.41
462.518	252.11
462.976	251.31
463.434	253.91
463.892	258.11
464.35	277.71
464.808	292.81
465.266	273.71
465.724	270.61
466.181	267.61
466.639	263.71
467.097	289.21
467.555	295.81
468.012	302.31
468.47	308.51
468.928	318.91
469.385	335.71
469.843	354.01
470.3	342.41
470.758	353.41
471.215	386.11
471.673	408.71
472.13	395.91
472.588	419.51
473.045	379.91
473.503	377.61
473.96	382.01
474.417	400.51
474.875	432.91
475.332	478.61
475.789	463.31
476.246	470.61
476.704	493.51
477.161	507.01
477.618	516.21
478.075	542.71
478.532	607.01
478.989	690.61
479.446	804.21
479.903	772.51
480.36	814.51
480.817	862.21
481.274	963.21
481.731	1067.61
482.188	1157.41
482.645	1296.31
483.102	1407.91
483.558	1543.21
484.015	1608.81
484.472	1588.01
484.929	1523.91
485.385	1464.11
485.842	1441.51
486.299	1373.01
486.755	1302.71
487.212	1095.31
487.668	928.41
488.125	857.91
488.582	779.81
489.038	740.21
489.494	716.81
489.951	697.01
490.407	657.81
490.864	643.41
491.32	645.21
491.776	646.51
492.233	645.11
492.689	617.91
493.145	602.51
493.602	593.61
494.058	608.41
494.514	607.81
494.97	632.21
495.426	655.61
495.882	627.21
496.338	612.51
496.794	630.71
497.251	622.91
497.707	637.21
498.163	633.21
498.618	647.71
499.074	644.31
499.53	668.61
499.986	680.71
500.442	658.61
500.898	631.81
501.354	621.71
501.809	637.71
502.265	642.91
502.721	652.31
503.177	669.91
503.632	655.71
504.088	674.41
504.543	711.61
504.999	717.51
505.455	656.11
505.91	631.51
506.366	635.51
506.821	631.11
507.277	629.31
507.732	627.91
508.187	622.81
508.643	628.51
509.098	620.11
509.553	659.81
510.009	651.61
510.464	677.11
510.919	685.21
511.375	692.51
511.83	706.61
512.285	710.31
512.74	740.31
513.195	783.11
513.65	773.31
514.105	765.31
514.56	772.71
515.015	791.81
515.47	800.51
515.925	796.41
516.38	783.81
516.835	787.31
517.29	774.01
517.745	769.61
518.2	766.11
518.655	750.41
519.109	738.41
519.564	752.01
520.019	730.11
520.474	723.01
520.928	722.91
521.383	718.51
521.838	707.11
522.292	710.31
522.747	705.01
523.201	705.61
523.656	687.11
524.11	687.51
524.565	681.71
525.019	689.11
525.474	701.31
525.928	692.21
526.382	694.01
526.837	693.71
527.291	698.11
527.745	690.01
528.2	686.01
528.654	679.21
529.108	676.31
529.562	690.61
530.016	695.01
530.47	694.21
530.925	700.81
531.379	690.91
531.833	706.11
532.287	686.41
532.741	701.41
533.195	694.21
533.649	715.21
534.103	715.51
534.556	700.81
535.01	718.01
535.464	704.71
535.918	722.51
536.372	726.81
536.826	708.61
537.279	704.91
537.733	711.61
538.187	714.31
538.64	702.91
539.094	719.51
539.548	724.11
540.001	708.31
540.455	706.41
540.908	729.51
541.362	731.81
541.815	735.31
542.269	748.71
542.722	748.91
543.175	763.01
543.629	756.41
544.082	780.31
544.536	776.61
544.989	779.91
545.442	793.91
545.895	773.21
546.349	771.91
546.802	782.21
547.255	780.91
547.708	791.71
548.161	802.31
548.614	814.61
549.067	817.01
549.52	820.71
549.973	791.61
550.426	794.31
550.879	780.81
551.332	790.51
551.785	788.11
552.238	801.11
552.691	800.41
553.144	820.71
553.596	838.41
554.049	846.31
554.502	877.91
554.955	896.01
555.407	892.41
555.86	887.51
556.313	882.21
556.765	870.81
557.218	868.91
557.67	865.01
558.123	862.71
558.576	854.91
559.028	865.31
559.48	866.01
559.933	851.21
560.385	826.91
560.838	795.21
561.29	767.01
561.742	758.61
562.195	757.81
562.647	751.91
563.099	760.81
563.551	752.41
564.004	755.21
564.456	761.11
564.908	742.91
565.36	733.91
565.812	722.91
566.264	705.91
566.716	702.31
567.168	696.11
567.62	711.51
568.072	693.01
568.524	675.01
568.976	669.91
569.428	661.61
569.88	648.11
570.332	666.31
570.784	666.71
571.235	666.61
571.687	678.31
572.139	689.51
572.59	688.81
573.042	700.01
573.494	693.11
573.945	686.21
574.397	669.51
574.849	676.11
575.3	673.31
575.752	660.41
576.203	660.61
576.655	667.51
577.106	661.71
577.557	651.71
578.009	653.11
578.46	656.51
578.912	642.21
579.363	639.61
579.814	654.21
580.265	640.71
580.717	650.41
581.168	656.51
581.619	663.21
582.07	654.31
582.521	659.51
582.972	646.71
583.423	657.11
583.875	673.41
584.326	685.81
584.777	720.71
585.227	794.41
585.678	886.01
586.129	970.71
586.58	1037.71
587.031	1114.91
587.482	1266.01
587.933	1447.81
588.384	1247.21
588.834	942.21
589.285	790.31
589.736	762.91
590.186	758.31
590.637	745.81
591.088	721.91
591.538	702.31
591.989	703.31
592.439	709.01
592.89	693.51
593.34	676.41
593.791	683.61
594.241	685.41
594.692	686.01
595.142	674.71
595.593	667.51
596.043	685.71
596.493	680.31
596.943	692.91
597.394	699.31
597.844	685.01
598.294	709.11
598.744	721.81
599.195	743.81
599.645	789.71
600.095	819.61
600.545	877.71
600.995	936.81
601.445	984.61
601.895	1042.21
602.345	1100.61
602.795	1073.01
603.245	1029.01
603.695	970.01
604.145	923.81
604.594	883.01
605.044	826.41
605.494	767.51
605.944	739.31
606.393	718.21
606.843	699.81
607.293	700.71
607.743	713.51
608.192	716.31
608.642	722.41
609.091	725.71
609.541	735.51
609.99	732.91
610.44	739.11
610.889	696.51
611.339	673.61
611.788	655.71
612.238	659.91
612.687	688.21
613.136	688.41
613.586	703.71
614.035	707.81
614.484	714.91
614.933	728.31
615.383	713.11
615.832	710.91
616.281	693.71
616.73	660.61
617.179	626.91
617.628	613.01
618.077	610.11
618.526	601.81
618.975	590.81
619.424	589.91
619.873	583.51
620.322	588.61
620.771	578.81
621.22	574.41
621.669	564.21
622.118	568.61
622.567	551.41
623.015	546.61
623.464	547.11
623.913	543.91
624.361	521.91
624.81	518.41
625.259	526.91
625.707	525.91
626.156	529.31
626.604	537.81
627.053	537.91
627.501	528.21
627.95	542.41
628.398	555.61
628.847	546.71
629.295	548.11
629.744	541.41
630.192	542.71
630.64	546.21
631.089	531.21
631.537	537.11
631.985	556.81
632.433	575.51
632.881	572.01
633.33	625.51
633.778	595.21
634.226	531.51
634.674	544.81
635.122	545.21
635.57	560.31
636.018	593.21
636.466	554.01
636.914	521.71
637.362	539.81
637.81	549.61
638.258	545.41
638.705	541.91
639.153	576.21
639.601	583.41
640.049	603.81
640.497	635.91
640.944	646.31
641.392	591.51
641.84	571.61
642.287	550.01
642.735	537.11
643.182	538.61
643.63	543.11
644.078	538.81
644.525	549.31
644.973	561.71
645.42	570.71
645.867	593.91
646.315	598.51
646.762	621.51
647.21	653.51
647.657	672.61
648.104	710.21
648.551	726.21
648.999	783.41
649.446	857.21
649.893	944.91
650.34	1085.01
650.787	1312.21
651.234	1617.41
651.682	2095.91
652.129	2878.51
652.576	4116.41
653.023	6102.11
653.47	8391.01
653.917	10595.81
654.363	12349.51
654.81	13771.31
655.257	13153.41
655.704	8547.51
656.151	5046.81
656.598	3251.91
657.044	2309.31
657.491	1776.31
657.938	1422.61
658.385	1177.91
658.831	1016.11
659.278	921.01
659.724	799.41
660.171	746.01
660.618	681.71
661.064	639.61
661.511	628.41
661.957	616.81
662.404	603.11
662.85	611.11
663.296	587.01
663.743	528.11
664.189	505.71
664.635	502.31
665.082	495.71
665.528	496.51
665.974	480.71
666.42	472.61
666.867	471.11
667.313	453.91
667.759	446.31
668.205	447.31
668.651	455.61
669.097	466.31
669.543	467.31
669.989	447.21
670.435	420.61
670.881	424.11
671.327	418.91
671.773	437.91
672.219	455.01
672.665	500.61
673.11	539.81
673.556	576.21
674.002	624.51
674.448	613.11
674.893	504.71
675.339	442.01
675.785	416.41
676.23	394.01
676.676	371.11
677.122	354.21
677.567	344.41
678.013	335.71
678.458	332.51
678.904	342.81
679.349	328.71
679.794	327.31
680.24	324.21
680.685	325.41
681.131	325.81
681.576	319.91
682.021	323.71
682.466	330.91
682.912	322.51
683.357	329.31
683.802	360.21
684.247	374.61
684.692	424.31
685.137	468.21
685.583	491.51
686.028	517.51
686.473	484.51
686.918	414.41
687.363	384.71
687.807	364.11
688.252	339.81
688.697	324.81
689.142	303.61
689.587	297.81
690.032	304.41
690.477	326.31
690.921	329.21
691.366	356.71
691.811	373.01
692.255	397.61
692.7	424.81
693.145	471.41
693.589	637.01
694.034	1024.31
694.478	1405.81
694.923	1620.11
695.367	2133.91
695.812	1108.61
696.256	467.21
696.701	352.81
697.145	317.21
697.59	308.51
698.034	304.81
698.478	305.51
698.922	297.71
699.367	303.31
699.811	318.61
700.255	323.11
700.699	348.51
701.143	396.51
701.588	439.41
702.032	476.01
702.476	470.71
702.92	446.61
703.364	454.51
703.808	575.61
704.252	940.21
704.696	1332.61
705.14	1551.71
705.584	2001.71
706.027	986.81
706.471	481.11
706.915	373.31
707.359	323.61
707.803	292.91
708.246	288.01
708.69	281.71
709.134	291.81
709.577	291.51
710.021	297.41
710.465	281.61
710.908	276.81
711.352	270.11
711.795	296.81
712.239	322.21
712.682	356.71
713.126	381.71
713.569	434.81
714.012	356.21
714.456	301.61
714.899	280.81
715.342	256.11
715.786	244.91
716.229	241.51
716.672	240.71
717.115	237.41
717.558	232.51
718.002	221.01
718.445	238.41
718.888	266.11
719.331	271.11
719.774	282.61
720.217	276.81
720.66	270.41
721.103	247.11
721.546	242.41
721.989	231.51
722.432	214.41
722.874	220.61
723.317	208.31
723.76	218.41
724.203	242.71
724.645	288.91
725.088	405.01
725.531	530.71
725.974	590.71
726.416	517.71
726.859	289.71
727.301	227.81
727.744	213.81
728.187	216.41
728.629	226.71
729.071	223.71
729.514	244.11
729.956	248.71
730.399	251.11
730.841	270.51
731.283	250.01
731.726	246.01
732.168	235.81
732.61	246.41
733.053	259.21
733.495	282.61
733.937	319.51
734.379	363.61
734.821	396.81
735.263	494.51
735.705	747.81
736.148	1422.61
736.59	2339.81
737.032	2842.51
737.474	2324.81
737.916	747.61
738.357	388.41
738.799	292.51
739.241	278.91
739.683	264.41
740.125	269.01
740.567	279.31
741.008	290.81
741.45	288.61
741.892	293.71
742.334	315.51
742.775	328.81
743.217	315.61
743.658	247.41
744.1	231.01
744.542	243.81
744.983	283.01
745.425	310.71
745.866	319.11
746.307	265.31
746.749	261.31
747.19	298.41
747.632	407.01
748.073	784.51
748.514	1678.11
748.956	2607.11
749.397	3262.51
749.838	2708.01
750.279	2761.91
750.72	1395.91
751.162	510.31
751.603	302.41
752.044	229.81
752.485	201.01
752.926	193.41
753.367	182.61
753.808	177.71
754.249	178.81
754.69	173.21
755.131	164.31
755.572	168.91
756.013	165.51
756.453	163.41
756.894	171.21
757.335	179.11
757.776	180.51
758.216	182.01
758.657	185.81
759.098	184.31
759.538	206.11
759.979	242.91
760.42	338.01
760.86	629.21
761.301	1611.01
761.741	3987.31
762.182	6022.91
762.622	4253.81
763.063	1203.11
763.503	495.71
763.943	321.01
764.384	312.91
764.824	376.31
765.264	398.61
765.705	282.21
766.145	191.41
766.585	169.01
767.025	162.91
767.465	166.51
767.906	214.51
768.346	293.81
768.786	319.81
769.226	244.21
769.666	288.11
770.106	547.21
770.546	1373.91
770.986	2443.71
771.426	2216.01
771.866	726.11
772.306	301.91
772.745	187.71
773.185	154.71
773.625	164.51
774.065	155.31
774.505	182.51
774.944	280.81
775.384	606.41
775.824	1146.31
776.263	1128.61
776.703	466.81
777.142	199.81
777.582	148.31
778.021	129.01
778.461	124.91
778.9	128.61
779.34	125.41
779.779	110.41
780.219	106.51
780.658	100.21
781.097	105.81
781.537	105.91
781.976	97.21
782.415	103.41
782.855	94.91
783.294	101.11
783.733	101.31
784.172	104.51
784.611	96.11
785.05	91.91
785.489	105.21
785.928	112.81
786.367	108.21
786.806	111.01
787.245	120.31
787.684	125.21
788.123	131.91
788.562	127.91
789.001	118.01
789.44	108.71
789.879	103.81
790.317	108.01
790.756	122.51
791.195	113.51
791.634	132.31
792.072	185.51
792.511	328.61
792.95	891.51
793.388	1959.51
793.827	1809.61
794.265	626.81
794.704	252.71
795.142	169.21
795.581	139.41
796.019	126.01
796.458	120.91
796.896	110.21
797.334	122.91
797.773	143.01
798.211	196.01
798.649	392.91
799.087	921.21
799.526	1452.01
799.964	1823.41
800.402	1883.71
800.84	702.11
801.278	277.11
801.716	169.21
802.154	139.61
802.592	135.01
803.03	129.11
803.468	121.61
803.906	132.71
804.344	140.81
804.782	125.71
805.22	125.01
805.658	125.71
806.096	131.61
806.533	143.21
806.971	155.71
807.409	195.01
807.847	278.41
808.284	584.91
808.722	1680.31
809.16	3041.91
809.597	2805.51
810.035	4958.11
810.472	5445.61
810.91	1949.31
811.347	738.91
811.785	373.01
812.222	231.91
812.66	179.71
813.097	146.01
813.535	128.91
813.972	115.21
814.409	115.41
814.846	97.71
815.284	105.01
815.721	93.91
816.158	108.11
816.595	115.11
817.032	160.91
817.47	185.01
817.907	148.71
818.344	142.21
818.781	110.51
819.218	90.41
819.655	111.61
820.092	172.31
820.529	196.91
820.966	164.71
821.403	132.51
821.839	99.81
822.276	96.71
822.713	112.71
823.15	123.11
823.587	104.21
824.023	132.01
824.46	261.71
824.897	793.11
825.333	1250.81
825.77	539.11
826.206	218.51
826.643	123.31
827.08	90.81
827.516	72.31
827.953	72.21
828.389	77.01
828.825	65.31
829.262	69.51
829.698	56.51
830.135	52.91
830.571	62.31
831.007	61.81
831.443	61.61
831.88	61.81
832.316	60.41
832.752	56.51
833.188	56.41
833.624	59.71
834.06	64.41
834.497	62.01
834.933	67.11
835.369	70.71
835.805	65.91
836.241	66.31
836.677	70.11
837.112	73.81
837.548	89.61
837.984	119.71
838.42	181.01
838.856	442.41
839.292	1364.81
839.727	2141.21
840.163	995.41
840.599	828.11
841.034	1853.01
841.47	2001.11
841.906	723.01
842.341	306.81
842.777	212.41
843.212	288.71
843.648	298.61
844.083	138.61
844.519	95.41
844.954	74.01
845.39	58.01
845.825	52.41
846.261	52.81
846.696	52.21
847.131	51.01
847.566	52.81
848.002	53.41
848.437	51.21
848.872	56.21
849.307	56.51
849.742	74.61
850.177	155.21
850.613	496.91
851.048	822.21
851.483	346.41
851.918	133.51
852.353	83.41
852.788	56.01
853.223	52.21
853.657	55.61
854.092	47.21
854.527	35.51
854.962	39.11
855.397	42.51
855.832	44.31
856.266	37.11
856.701	38.11
857.136	29.51
857.57	39.11
858.005	43.11
858.44	60.61
858.874	42.41
859.309	47.61
859.743	42.11
860.178	40.81
860.612	37.31
861.047	51.61
861.481	59.51
861.915	66.61
862.35	44.41
862.784	34.51
863.218	37.91
863.653	32.01
864.087	45.61
864.521	50.81
864.955	65.31
865.39	140.41
865.824	166.71
866.258	101.51
866.692	149.01
867.126	164.51
867.56	100.31
867.994	49.51
868.428	41.21
868.862	45.51
869.296	51.21
869.73	55.41
870.164	50.71
870.598	41.31
871.031	35.51
871.465	22.11
871.899	32.71
872.333	22.61
872.766	23.91
873.2	27.41
873.634	26.81
874.067	23.01
874.501	22.21
874.935	34.61
875.368	30.21
875.802	25.31
876.235	17.11
876.669	24.61
877.102	16.51
877.535	21.91
877.969	18.31
878.402	19.41
878.836	19.01
879.269	18.71
879.702	20.91
880.135	24.31
880.569	26.61
881.002	25.11
881.435	14.11
881.868	14.11
882.301	25.31
882.734	19.21
883.167	24.51
883.601	23.41
884.034	20.91
884.467	15.61
884.899	25.11
885.332	18.71
885.765	14.81
886.198	13.91
886.631	15.81
887.064	16.41
887.497	14.71
887.929	26.01
888.362	15.81
888.795	13.31
889.228	22.71
889.66	21.51
890.093	18.71
890.526	15.91
890.958	8.61
891.391	22.31
891.823	23.11
892.256	13.41
892.688	11.21
893.121	14.21
893.553	12.41
893.985	21.21
894.418	17.51
894.85	7.91
895.282	16.71
895.715	16.41
896.147	20.21
896.579	20.91
897.011	14.71
897.444	14.81
897.876	9.51
898.308	14.41
898.74	18.81
899.172	18.21
899.604	19.01
900.036	19.01
900.468	20.11
900.9	17.01
901.332	18.11
901.764	12.51
902.196	15.91
902.628	11.01
903.06	18.81
903.491	27.31
903.923	19.31
904.355	19.21
904.787	21.21
905.218	18.71
905.65	16.51
906.082	11.71
906.513	10.31
906.945	18.11
907.376	8.51
907.808	21.11
908.239	17.31
908.671	26.71
909.102	18.91
909.534	24.71
909.965	46.91
910.397	83.61
910.828	288.31
911.259	437.31
911.691	198.81
912.122	100.81
912.553	52.91
912.984	31.71
913.415	22.71
913.847	23.41
914.278	15.31
914.709	14.31
915.14	19.51
915.571	16.31
916.002	6.91
916.433	15.81
916.864	11.71
917.295	17.91
917.726	20.81
918.157	13.51
918.587	29.51
919.018	20.71
919.449	13.91
919.88	18.71
920.311	29.81
920.741	42.91
921.172	152.11
921.603	142.01
922.033	65.61
922.464	42.81
922.895	19.01
923.325	21.31
923.756	17.71
924.186	11.01
924.617	33.41
925.047	35.91
925.478	51.31
925.908	44.51
926.338	27.11
926.769	13.51
927.199	18.71
927.629	12.11
928.06	17.11
928.49	12.51
928.92	14.51
929.35	15.61
929.78	13.11
930.21	6.71
930.641	8.11
931.071	6.41
931.501	2.01
931.931	6.51
932.361	8.21
932.791	6.21
933.221	4.91
933.651	7.41
934.08	20.91
934.51	25.31
934.94	12.61
935.37	12.31
935.8	7.41
936.229	9.01
936.659	10.71
937.089	1.31
937.519	10.31
937.948	21.21
938.378	17.21
938.807	9.11
939.237	5.91
939.666	9.91
940.096	0.11
940.525	3.11
940.955	-0.59
941.384	2.81
941.814	-3.49
942.243	-1.19
942.672	3.51
943.102	-2.19
943.531	3.41
943.96	1.31
944.39	5.31
944.819	2.21
945.248	-1.79
945.677	1.71
946.106	3.71
946.535	4.51
946.964	2.51
947.393	5.81
947.822	-0.69
948.251	0.21
948.68	0.81
949.109	3.81
949.538	8.61
949.967	-0.59
950.396	8.11
950.825	1.21
951.254	2.51
951.682	-9.99
952.111	4.71
952.54	5.51
952.969	-0.29
953.397	-3.39
953.826	3.01
954.254	-9.09
954.683	3.91
955.112	-2.69
955.54	2.51
955.969	2.21
956.397	2.61
956.826	-4.09
957.254	3.21
957.682	5.21
958.111	1.31
958.539	-1.39
958.967	3.31
959.396	0.51
959.824	2.21
960.252	-0.39
960.68	-5.39
961.109	-3.69
961.537	-5.69
961.965	-0.29
962.393	-0.09
962.821	-3.99
963.249	0.01
963.677	3.61
964.105	2.51
964.533	37.11
964.961	37.21
965.389	22.21
965.817	11.11
966.245	-2.09
966.672	4.81
967.1	-7.59
967.528	2.41
967.956	-6.19
968.383	-0.19
968.811	-4.79
969.239	-4.89
969.666	-4.29
970.094	0.01
970.522	-0.09
970.949	-0.99
971.377	-0.29
971.804	-4.69
972.232	-4.59
972.659	-3.39
973.087	-1.89
973.514	-7.19
973.941	-2.39
974.369	1.61
974.796	-4.29
975.223	-5.19
975.651	1.11
976.078	4.01
976.505	-0.89
976.932	6.11
977.359	14.91
977.786	13.71
978.214	4.71
978.641	-1.69
979.068	-1.89
979.495	-1.69
979.922	-2.79
980.349	-4.39
980.776	7.61
981.202	-3.89
981.629	4.11
982.056	6.01
982.483	-7.99
982.91	5.21
983.337	-9.29
983.763	7.41
984.19	-3.09
984.617	-4.89
985.043	-2.99
985.47	-1.19
985.897	-3.39
986.323	-5.39
986.75	2.21
987.176	-6.09
987.603	0.71
988.029	-2.69
988.456	-2.29
988.882	3.81
989.308	-4.39
989.735	-1.69
990.161	1.41
990.587	-1.49
991.014	0.01
991.44	8.11
991.866	-4.49
992.292	-1.39
992.719	0.31
993.145	8.11
993.571	-13.19
993.997	-2.89
994.423	1.51
994.849	-0.79
995.275	4.91
995.701	2.01
996.127	1.01
996.553	1.51
996.979	-3.49
997.405	0.41
997.83	-2.49
998.256	-1.59
998.682	-7.69
999.108	-4.69
999.534	2.71
999.959	1.31
1000.385	-4.69
1000.811	0.61
1001.236	-6.99
1001.662	2.41
1002.087	-4.69
1002.513	2.01
1002.938	-2.09
1003.364	-6.09
1003.789	0.41
1004.215	4.01
1004.64	0.41
1005.066	7.41
1005.491	0.01
1005.916	-1.89
1006.342	-1.79
1006.767	-8.29
1007.192	1.01
1007.617	-4.29
1008.042	-9.39
1008.468	-1.29
1008.893	-2.79
1009.318	-6.99
1009.743	0.21
1010.168	4.31
1010.593	-1.29
1011.018	-7.19
1011.443	5.61
1011.868	3.81
1012.293	-5.99
1012.718	-10.09
1013.143	0.71
1013.567	2.91
1013.992	-3.29
1014.417	-9.79
1014.842	-1.29
1015.267	-2.29
1015.691	-5.09
1016.116	4.71
1016.541	-0.39
1016.965	0.51
1017.39	1.51
1017.814	3.01
1018.239	-3.69
1018.663	-1.49
1019.088	-7.49
1019.512	-4.09
1019.937	-1.69
1020.361	-5.49
1020.785	-10.39
1021.21	-3.29
1021.634	-3.99
1022.058	-0.69
1022.483	1.31
1022.907	-0.99
1023.331	-1.99
1023.755	-7.19
1024.179	-3.99
1024.604	2.01
1025.028	1.51
1025.452	-10.09
1025.876	-5.69
1026.3	-2.79
1026.724	-14.19
1027.148	-3.39
1027.572	-7.29
1027.996	-6.69
1028.42	4.11
1028.843	-4.19
1029.267	-0.79
1029.691	-2.19
1030.115	-5.39
1030.539	-4.89
1030.962	-7.89
1031.386	-6.99
1031.81	3.31
1032.233	-0.09
1032.657	-3.89
1033.08	-2.09
1033.504	-1.39
1033.927	-6.19
1034.351	1.91
1034.774	-4.49
1035.198	-1.99
1035.621	-6.19
1036.045	-4.99
1036.468	1.21
1036.891	-10.49
1037.315	-0.79
1037.738	-8.59
1038.161	2.71
1038.584	-5.19
1039.008	0.81
1039.431	-4.99
1039.854	-4.89
1040.277	-7.69
1040.7	-9.79
1041.123	0.01
1041.546	-8.19
1041.969	-4.29
1042.392	-8.99
1042.815	-2.89
1043.238	-4.59
1043.661	1.41
1044.084	-10.89
1044.507	-3.29
1044.93	-6.39
1045.352	-6.99
1045.775	-4.09
1046.198	-2.89
1046.621	-6.09
1047.043	0.41
1047.466	3.31
1047.889	-2.59
1048.311	-3.69
1048.734	-1.79
1049.156	0.21
1049.579	-2.19
1050.001	-5.99
1050.424	-2.29
1050.846	-7.19
1051.269	-1.89
1051.691	-4.59
1052.113	-5.19
1052.536	-0.39
1052.958	0.51
1053.38	-6.49
1053.802	-7.39
1054.225	-2.69
1054.647	-10.39
1055.069	-0.79
1055.491	1.71
1055.913	-10.39
1056.335	5.11
1056.757	-5.29
1057.179	-6.49
1057.601	-6.59
1058.023	-7.19
1058.445	-3.89
1058.867	-7.79
1059.289	-4.89
1059.711	-3.99
1060.133	-1.19
1060.555	-2.99
1060.976	-3.39
1061.398	-0.59
1061.82	-5.09
1062.241	-3.69
1062.663	-6.49
1063.085	-6.49
1063.506	0.91
1063.928	-7.99
1064.35	-1.79
1064.771	-7.79
1065.193	-7.39
1065.614	-5.79
1066.035	-4.89
1066.457	-0.69
1066.878	-2.49
1067.3	0.21
1067.721	-4.89
1068.142	-6.89
1068.564	-2.79
1068.985	-5.79
1069.406	-3.49
1069.827	-5.49
1070.248	-0.19
1070.67	-7.89
1071.091	-2.49
1071.512	-2.79
1071.933	-3.89
1072.354	-5.49
1072.775	-6.69
1073.196	-8.89
1073.617	-5.39
1074.038	-4.49
1074.459	-3.39
1074.88	-0.69
1075.3	-5.69
1075.721	-7.89
1076.142	3.31
1076.563	-2.69
1076.983	-10.09
1077.404	-7.79
1077.825	-7.79
1078.246	-7.49
1078.666	-10.89
1079.087	-1.99
1079.507	-5.09
1079.928	-1.89
1080.348	1.01
1080.769	-3.49
1081.189	3.91
1081.61	-0.69
1082.03	-4.09
1082.451	-9.99
1082.871	-0.49
1083.291	-6.39
1083.711	-5.69
1084.132	-5.29
1084.552	-4.89
1084.972	-2.89
1085.392	-8.19
1085.813	-8.09
1086.233	-5.99
1086.653	-4.99
1087.073	3.31
1087.493	-13.09
1087.913	-2.79
1088.333	-0.59
1088.753	-3.69
1089.173	4.21
1089.593	-1.39
1090.013	1.61
1090.433	1.51
1090.852	-0.39
1091.272	-2.39
1091.692	-5.19
1092.112	-3.49
1092.531	-5.49
1092.951	-12.59
1093.371	-2.49
1093.79	6.41
1094.21	-4.49
1094.63	-7.79
1095.049	-9.69
1095.469	-6.19
1095.888	-0.49
1096.308	-0.19
1096.727	2.91
1097.146	-7.39
1097.566	2.21
1097.985	-8.09
1098.405	-3.59
1098.824	-2.69
1099.243	-4.19
1099.662	-8.19
1100.082	-6.29
1100.501	9.31
1100.92	-4.49
1101.339	-1.79
1101.758	-8.49
