Data from 20171114-ORNL-Ar_H_NY_Subt18_08-06-12-818.txt Node
Date: Tue Nov 14 08:06:12 EST 2017
User: Ender
Spectrometer: HR+D1039
Trigger mode: 0
Integration Time (sec): 2.730000E-2
Scans to average: 10
Electric dark correction enabled: true
Nonlinearity correction enabled: false
Boxcar width: 0
XAxis mode: Wavelengths
Number of Pixels in Spectrum: 2048
>>>>>Begin Spectral Data<<<<<
187.836	-0.91
188.309	-0.91
188.782	-0.91
189.255	-1.21
189.728	0.09
190.201	6.49
190.674	-2.81
191.147	6.89
191.619	-8.11
192.092	1.19
192.565	0.09
193.038	-0.01
193.511	0.39
193.984	-1.61
194.456	-6.51
194.929	4.39
195.402	2.89
195.874	-1.31
196.347	0.79
196.82	-4.21
197.292	1.89
197.765	-1.11
198.237	-7.31
198.71	0.89
199.182	-0.51
199.655	-1.01
200.127	-1.51
200.6	1.39
201.072	-0.61
201.544	-0.41
202.017	-4.01
202.489	4.89
202.961	0.39
203.433	-9.41
203.906	-16.11
204.378	-9.31
204.85	-1.21
205.322	-8.41
205.794	-1.11
206.266	-5.11
206.739	-4.81
207.211	0.09
207.683	-6.41
208.155	-4.81
208.627	-4.01
209.099	-8.01
209.57	-10.41
210.042	-7.11
210.514	0.69
210.986	-1.41
211.458	-8.01
211.93	0.69
212.402	-4.81
212.873	-9.41
213.345	-7.71
213.817	-10.21
214.288	-2.91
214.76	-12.41
215.232	-2.21
215.703	-7.21
216.175	-5.21
216.646	-12.11
217.118	-8.21
217.589	-0.51
218.061	-4.81
218.532	-3.51
219.004	3.79
219.475	-4.21
219.946	-5.81
220.418	-7.91
220.889	-0.71
221.36	0.69
221.832	-6.91
222.303	-5.61
222.774	4.59
223.245	-9.51
223.717	-5.61
224.188	-3.41
224.659	-8.01
225.13	-3.21
225.601	-5.21
226.072	1.59
226.543	-8.41
227.014	0.29
227.485	-5.21
227.956	-0.91
228.427	-4.71
228.898	-2.41
229.369	4.69
229.839	-4.71
230.31	-2.91
230.781	-2.11
231.252	-2.51
231.722	-6.51
232.193	3.39
232.664	-1.21
233.135	-0.71
233.605	0.89
234.076	-4.01
234.546	0.49
235.017	6.09
235.487	1.09
235.958	-5.71
236.428	-2.01
236.899	2.29
237.369	1.79
237.84	-2.21
238.31	3.29
238.78	3.19
239.251	-2.51
239.721	12.19
240.191	-1.61
240.662	-2.01
241.132	-1.21
241.602	-8.31
242.072	-1.81
242.542	4.09
243.013	4.69
243.483	5.79
243.953	6.19
244.423	-5.81
244.893	-2.01
245.363	1.09
245.833	-1.41
246.303	0.19
246.773	11.49
247.243	7.09
247.712	3.49
248.182	7.69
248.652	7.79
249.122	0.69
249.592	12.49
250.061	22.69
250.531	34.89
251.001	22.19
251.471	22.89
251.94	19.19
252.41	10.49
252.879	6.89
253.349	15.39
253.818	8.19
254.288	1.99
254.757	6.09
255.227	5.09
255.696	2.39
256.166	5.99
256.635	8.09
257.105	7.19
257.574	3.09
258.043	9.19
258.513	16.29
258.982	14.49
259.451	7.19
259.92	16.49
260.389	13.09
260.859	15.29
261.328	14.19
261.797	16.99
262.266	9.19
262.735	9.29
263.204	5.99
263.673	1.89
264.142	6.29
264.611	-5.51
265.08	-1.21
265.549	-1.61
266.018	7.59
266.487	-2.71
266.955	-5.31
267.424	1.79
267.893	9.29
268.362	-1.11
268.83	6.69
269.299	9.99
269.768	4.59
270.236	9.49
270.705	6.69
271.174	2.89
271.642	10.69
272.111	7.89
272.579	15.19
273.048	30.39
273.516	34.39
273.985	31.89
274.453	29.49
274.922	19.89
275.39	16.79
275.858	4.69
276.327	10.89
276.795	25.09
277.263	14.59
277.731	31.69
278.2	56.19
278.668	61.09
279.136	50.89
279.604	20.49
280.072	13.89
280.54	13.39
281.008	12.69
281.477	13.69
281.945	9.79
282.413	10.69
282.881	15.79
283.348	10.59
283.816	17.09
284.284	18.49
284.752	23.49
285.22	16.59
285.688	22.29
286.156	20.29
286.623	47.69
287.091	57.89
287.559	26.39
288.026	12.89
288.494	11.39
288.962	14.79
289.429	8.89
289.897	17.59
290.364	13.29
290.832	16.69
291.3	14.89
291.767	15.59
292.234	20.49
292.702	11.09
293.169	17.49
293.637	24.99
294.104	21.59
294.571	12.89
295.039	17.79
295.506	16.99
295.973	16.59
296.44	16.59
296.908	22.59
297.375	18.59
297.842	20.79
298.309	18.49
298.776	13.99
299.243	24.89
299.71	17.79
300.177	22.69
300.644	25.69
301.111	20.89
301.578	17.99
302.045	21.89
302.512	16.49
302.979	26.59
303.446	27.09
303.913	21.89
304.379	20.89
304.846	27.09
305.313	27.09
305.78	24.79
306.246	27.79
306.713	28.49
307.18	25.19
307.646	32.69
308.113	31.49
308.579	20.49
309.046	29.29
309.512	25.69
309.979	19.99
310.445	30.29
310.912	27.49
311.378	30.99
311.845	33.09
312.311	24.99
312.777	30.39
313.244	32.39
313.71	36.19
314.176	31.89
314.642	24.39
315.109	31.09
315.575	38.09
316.041	42.49
316.507	37.89
316.973	43.49
317.439	36.39
317.905	38.59
318.371	37.79
318.837	39.49
319.303	36.39
319.769	33.79
320.235	34.49
320.701	34.29
321.167	36.49
321.633	33.89
322.099	45.99
322.564	45.09
323.03	41.59
323.496	35.79
323.962	46.49
324.427	36.19
324.893	43.99
325.359	34.39
325.824	35.59
326.29	37.49
326.755	39.79
327.221	39.09
327.686	44.39
328.152	44.79
328.617	43.09
329.083	46.99
329.548	48.99
330.014	47.49
330.479	36.29
330.944	43.89
331.41	39.79
331.875	47.19
332.34	41.19
332.805	49.19
333.271	50.09
333.736	47.79
334.201	59.39
334.666	53.79
335.131	53.89
335.596	57.29
336.061	56.99
336.526	43.69
336.991	49.59
337.456	57.69
337.921	51.39
338.386	45.39
338.851	43.79
339.316	46.29
339.781	40.79
340.246	50.19
340.711	51.29
341.175	50.69
341.64	49.29
342.105	55.09
342.569	57.69
343.034	61.09
343.499	60.69
343.963	58.99
344.428	68.89
344.893	64.79
345.357	65.29
345.822	61.19
346.286	70.79
346.751	79.99
347.215	71.39
347.679	74.19
348.144	100.89
348.608	85.29
349.073	71.49
349.537	80.89
350.001	81.99
350.465	87.49
350.93	81.69
351.394	85.29
351.858	80.59
352.322	92.39
352.786	93.29
353.25	105.59
353.715	111.39
354.179	102.39
354.643	126.69
355.107	130.19
355.571	110.09
356.035	109.29
356.498	120.39
356.962	137.19
357.426	133.69
357.89	120.19
358.354	92.29
358.818	90.49
359.281	84.99
359.745	76.59
360.209	83.89
360.673	75.09
361.136	82.39
361.6	85.79
362.064	80.39
362.527	90.79
362.991	90.49
363.454	89.19
363.918	85.19
364.381	80.89
364.845	86.89
365.308	92.79
365.772	94.49
366.235	90.09
366.698	82.39
367.162	88.09
367.625	91.19
368.088	91.19
368.552	90.69
369.015	94.39
369.478	104.29
369.941	100.19
370.404	102.89
370.867	112.29
371.331	107.09
371.794	122.19
372.257	108.79
372.72	120.79
373.183	119.29
373.646	109.79
374.109	108.79
374.572	115.49
375.035	113.59
375.497	110.09
375.96	106.69
376.423	109.89
376.886	119.19
377.349	111.49
377.811	111.19
378.274	110.29
378.737	110.59
379.199	113.89
379.662	122.19
380.125	119.69
380.587	124.59
381.05	133.89
381.512	131.79
381.975	142.39
382.437	132.79
382.9	132.49
383.362	133.79
383.825	148.59
384.287	149.89
384.75	147.79
385.212	150.79
385.674	147.69
386.136	147.49
386.599	127.69
387.061	132.59
387.523	128.69
387.985	142.89
388.447	148.89
388.91	152.09
389.372	164.19
389.834	156.29
390.296	158.69
390.758	162.09
391.22	165.69
391.682	215.59
392.144	310.29
392.606	239.89
393.068	170.09
393.529	181.09
393.991	161.19
394.453	151.79
394.915	157.29
395.377	203.49
395.838	221.29
396.3	165.09
396.762	148.89
397.224	139.09
397.685	134.59
398.147	141.09
398.608	136.89
399.07	138.79
399.531	139.49
399.993	146.59
400.454	158.69
400.916	150.29
401.377	155.49
401.839	161.09
402.3	152.99
402.762	178.99
403.223	184.99
403.684	179.19
404.145	167.29
404.607	168.99
405.068	168.59
405.529	173.19
405.99	198.59
406.451	182.59
406.913	174.89
407.374	174.79
407.835	169.99
408.296	172.09
408.757	182.19
409.218	193.89
409.679	196.39
410.14	174.89
410.601	184.79
411.062	190.59
411.522	201.79
411.983	202.79
412.444	180.29
412.905	192.79
413.366	190.79
413.826	202.59
414.287	226.99
414.748	272.29
415.208	261.59
415.669	222.29
416.13	217.99
416.59	211.19
417.051	221.99
417.511	225.29
417.972	235.79
418.432	257.49
418.893	305.69
419.353	260.79
419.814	203.59
420.274	192.59
420.734	185.09
421.195	211.89
421.655	202.69
422.115	200.89
422.576	205.09
423.036	202.19
423.496	218.19
423.956	220.29
424.416	240.39
424.876	278.69
425.336	277.19
425.797	267.29
426.257	264.89
426.717	256.49
427.177	240.89
427.637	230.49
428.097	247.59
428.556	253.99
429.016	281.69
429.476	279.09
429.936	285.89
430.396	291.99
430.856	305.79
431.315	334.99
431.775	373.89
432.235	396.79
432.694	362.29
433.154	383.29
433.614	412.79
434.073	353.79
434.533	298.29
434.993	285.49
435.452	302.79
435.912	306.89
436.371	301.19
436.83	292.49
437.29	280.09
437.749	259.99
438.209	259.79
438.668	274.59
439.127	304.99
439.587	276.69
440.046	256.89
440.505	275.09
440.964	291.09
441.424	336.89
441.883	328.09
442.342	268.79
442.801	234.99
443.26	233.69
443.719	234.59
444.178	222.39
444.637	217.59
445.096	222.19
445.555	229.59
446.014	236.69
446.473	239.39
446.932	243.59
447.391	237.99
447.849	235.09
448.308	227.39
448.767	235.09
449.226	248.59
449.685	241.59
450.143	254.79
450.602	245.49
451.061	237.39
451.519	244.69
451.978	242.99
452.436	238.99
452.895	248.59
453.353	258.59
453.812	254.19
454.27	256.59
454.729	257.09
455.187	250.59
455.646	253.69
456.104	262.69
456.562	269.49
457.021	276.29
457.479	272.39
457.937	280.09
458.395	276.69
458.854	261.79
459.312	266.69
459.77	286.79
460.228	267.49
460.686	251.89
461.144	258.49
461.602	252.09
462.06	250.69
462.518	265.49
462.976	257.89
463.434	267.19
463.892	275.99
464.35	287.59
464.808	292.29
465.266	276.99
465.724	281.39
466.181	283.69
466.639	281.99
467.097	293.69
467.555	309.29
468.012	313.09
468.47	320.29
468.928	338.99
469.385	362.59
469.843	367.09
470.3	361.79
470.758	385.79
471.215	396.89
471.673	428.19
472.13	423.09
472.588	428.39
473.045	384.89
473.503	386.99
473.96	405.89
474.417	419.39
474.875	445.89
475.332	492.69
475.789	478.79
476.246	478.49
476.704	502.19
477.161	532.19
477.618	541.99
478.075	578.79
478.532	636.49
478.989	713.99
479.446	832.99
479.903	795.19
480.36	839.29
480.817	899.99
481.274	998.39
481.731	1112.29
482.188	1207.99
482.645	1342.29
483.102	1468.09
483.558	1608.39
484.015	1656.69
484.472	1630.69
484.929	1569.99
485.385	1532.09
485.842	1481.19
486.299	1420.89
486.755	1358.79
487.212	1143.09
487.668	964.29
488.125	885.39
488.582	814.69
489.038	767.49
489.494	741.89
489.951	709.99
490.407	689.79
490.864	668.59
491.32	661.89
491.776	665.29
492.233	667.29
492.689	632.89
493.145	632.19
493.602	625.19
494.058	633.69
494.514	637.79
494.97	666.29
495.426	667.49
495.882	644.19
496.338	636.39
496.794	635.59
497.251	646.69
497.707	664.09
498.163	660.39
498.618	662.59
499.074	677.99
499.53	703.09
499.986	696.79
500.442	684.89
500.898	653.69
501.354	655.09
501.809	660.89
502.265	666.49
502.721	686.09
503.177	694.59
503.632	689.29
504.088	706.09
504.543	739.09
504.999	727.29
505.455	694.69
505.91	655.49
506.366	650.29
506.821	650.49
507.277	643.49
507.732	650.99
508.187	648.19
508.643	665.99
509.098	654.29
509.553	675.19
510.009	691.09
510.464	695.09
510.919	708.59
511.375	724.39
511.83	735.39
512.285	748.99
512.74	779.59
513.195	817.89
513.65	796.39
514.105	796.29
514.56	789.79
515.015	811.19
515.47	841.29
515.925	827.09
516.38	814.19
516.835	817.29
517.29	805.29
517.745	795.29
518.2	796.69
518.655	771.49
519.109	751.89
519.564	767.09
520.019	755.39
520.474	750.19
520.928	748.19
521.383	744.99
521.838	725.39
522.292	730.29
522.747	736.79
523.201	727.19
523.656	719.39
524.11	712.79
524.565	707.09
525.019	720.49
525.474	728.99
525.928	729.39
526.382	725.29
526.837	721.39
527.291	721.69
527.745	718.99
528.2	723.09
528.654	707.09
529.108	703.19
529.562	705.29
530.016	706.99
530.47	721.39
530.925	712.99
531.379	723.09
531.833	726.59
532.287	727.69
532.741	726.49
533.195	718.69
533.649	734.29
534.103	742.59
534.556	725.29
535.01	727.79
535.464	727.39
535.918	740.29
536.372	738.69
536.826	738.39
537.279	723.29
537.733	729.09
538.187	730.99
538.64	739.19
539.094	737.09
539.548	752.49
540.001	739.19
540.455	751.99
540.908	762.89
541.362	761.39
541.815	756.29
542.269	782.79
542.722	789.69
543.175	784.79
543.629	798.29
544.082	812.29
544.536	820.99
544.989	808.99
545.442	818.99
545.895	801.19
546.349	819.89
546.802	815.09
547.255	824.09
547.708	829.49
548.161	847.29
548.614	841.09
549.067	854.39
549.52	837.19
549.973	830.69
550.426	826.59
550.879	819.09
551.332	819.49
551.785	826.19
552.238	823.49
552.691	836.69
553.144	845.99
553.596	869.69
554.049	896.59
554.502	914.79
554.955	936.19
555.407	930.29
555.86	922.79
556.313	918.49
556.765	907.49
557.218	897.69
557.67	897.49
558.123	896.89
558.576	897.29
559.028	904.99
559.48	908.09
559.933	890.89
560.385	862.49
560.838	824.79
561.29	796.49
561.742	793.49
562.195	787.59
562.647	785.59
563.099	802.79
563.551	797.49
564.004	798.59
564.456	793.99
564.908	779.69
565.36	759.89
565.812	761.79
566.264	745.29
566.716	747.49
567.168	734.99
567.62	745.59
568.072	734.19
568.524	713.69
568.976	715.39
569.428	694.59
569.88	674.79
570.332	694.29
570.784	702.19
571.235	707.19
571.687	715.49
572.139	722.79
572.59	728.89
573.042	725.69
573.494	725.09
573.945	728.49
574.397	704.59
574.849	711.09
575.3	703.39
575.752	701.59
576.203	695.99
576.655	704.99
577.106	682.79
577.557	675.89
578.009	684.19
578.46	684.79
578.912	685.69
579.363	680.39
579.814	688.19
580.265	681.29
580.717	684.49
581.168	687.99
581.619	699.39
582.07	695.69
582.521	693.89
582.972	688.69
583.423	699.99
583.875	704.69
584.326	715.09
584.777	759.19
585.227	838.59
585.678	938.19
586.129	1015.49
586.58	1100.09
587.031	1187.99
587.482	1345.89
587.933	1529.79
588.384	1329.39
588.834	991.69
589.285	821.29
589.736	794.19
590.186	788.39
590.637	787.99
591.088	758.99
591.538	753.99
591.989	749.99
592.439	744.99
592.89	732.79
593.34	726.49
593.791	728.79
594.241	719.19
594.692	727.69
595.142	720.69
595.593	712.89
596.043	728.59
596.493	730.59
596.943	725.59
597.394	729.69
597.844	724.39
598.294	746.59
598.744	760.49
599.195	792.39
599.645	832.79
600.095	879.99
600.545	942.79
600.995	971.89
601.445	1037.59
601.895	1103.99
602.345	1150.59
602.795	1131.09
603.245	1073.99
603.695	1021.39
604.145	986.89
604.594	922.39
605.044	871.89
605.494	805.49
605.944	767.09
606.393	745.19
606.843	737.49
607.293	738.29
607.743	743.49
608.192	755.99
608.642	771.49
609.091	780.89
609.541	784.79
609.99	776.19
610.44	783.29
610.889	724.89
611.339	710.89
611.788	697.99
612.238	712.39
612.687	724.19
613.136	735.79
613.586	752.09
614.035	740.89
614.484	763.29
614.933	774.39
615.383	769.39
615.832	746.99
616.281	728.79
616.73	708.49
617.179	677.39
617.628	665.29
618.077	640.39
618.526	641.49
618.975	627.29
619.424	631.59
619.873	618.29
620.322	635.19
620.771	622.69
621.22	607.99
621.669	595.19
622.118	592.69
622.567	583.39
623.015	574.99
623.464	573.99
623.913	571.89
624.361	565.59
624.81	550.69
625.259	564.39
625.707	570.49
626.156	563.29
626.604	573.59
627.053	568.59
627.501	566.59
627.95	575.49
628.398	576.99
628.847	578.29
629.295	578.59
629.744	577.99
630.192	578.29
630.64	576.99
631.089	576.89
631.537	584.59
631.985	599.79
632.433	610.89
632.881	609.09
633.33	677.09
633.778	654.99
634.226	577.89
634.674	570.39
635.122	584.29
635.57	603.39
636.018	630.99
636.466	596.79
636.914	568.39
637.362	573.59
637.81	578.69
638.258	582.49
638.705	589.99
639.153	611.69
639.601	623.79
640.049	648.49
640.497	676.59
640.944	692.19
641.392	648.19
641.84	618.99
642.287	595.99
642.735	573.99
643.182	587.89
643.63	582.09
644.078	586.29
644.525	600.89
644.973	605.49
645.42	602.89
645.867	631.09
646.315	648.49
646.762	661.79
647.21	708.49
647.657	725.79
648.104	760.59
648.551	791.79
648.999	860.49
649.446	928.19
649.893	1018.59
650.34	1177.69
650.787	1410.79
651.234	1741.99
651.682	2268.99
652.129	3131.39
652.576	4512.59
653.023	6635.19
653.47	9125.99
653.917	11357.59
654.363	13168.69
654.81	14512.09
655.257	13815.29
655.704	9052.19
656.151	5344.39
656.598	3475.69
657.044	2456.99
657.491	1892.99
657.938	1500.89
658.385	1252.99
658.831	1100.59
659.278	961.09
659.724	866.29
660.171	801.59
660.618	727.79
661.064	695.79
661.511	673.59
661.957	661.59
662.404	641.79
662.85	661.59
663.296	637.89
663.743	561.19
664.189	546.39
664.635	530.09
665.082	532.99
665.528	530.59
665.974	527.49
666.42	510.89
666.867	501.59
667.313	496.29
667.759	482.69
668.205	477.09
668.651	489.69
669.097	490.89
669.543	509.09
669.989	475.89
670.435	451.89
670.881	454.09
671.327	446.79
671.773	473.89
672.219	489.49
672.665	546.79
673.11	588.39
673.556	626.99
674.002	666.19
674.448	654.19
674.893	559.49
675.339	475.19
675.785	430.59
676.23	417.19
676.676	400.09
677.122	380.09
677.567	363.29
678.013	363.59
678.458	362.29
678.904	367.49
679.349	347.99
679.794	356.89
680.24	347.69
680.685	350.69
681.131	340.59
681.576	355.19
682.021	352.39
682.466	352.19
682.912	348.69
683.357	351.49
683.802	380.69
684.247	412.59
684.692	452.49
685.137	491.19
685.583	535.09
686.028	566.99
686.473	522.89
686.918	445.39
687.363	414.09
687.807	395.89
688.252	364.39
688.697	342.89
689.142	339.09
689.587	333.69
690.032	327.59
690.477	337.09
690.921	350.19
691.366	375.39
691.811	400.49
692.255	429.79
692.7	460.69
693.145	497.49
693.589	692.19
694.034	1123.29
694.478	1525.99
694.923	1742.39
695.367	2267.99
695.812	1187.29
696.256	495.49
696.701	377.09
697.145	346.59
697.59	337.79
698.034	327.89
698.478	337.59
698.922	329.59
699.367	337.69
699.811	340.29
700.255	359.99
700.699	387.79
701.143	424.09
701.588	474.59
702.032	509.59
702.476	505.29
702.92	492.19
703.364	487.09
703.808	635.89
704.252	1016.99
704.696	1447.49
705.14	1660.89
705.584	2149.99
706.027	1060.29
706.471	527.89
706.915	400.29
707.359	348.39
707.803	328.79
708.246	311.39
708.69	310.09
709.134	314.09
709.577	308.99
710.021	316.59
710.465	304.29
710.908	303.29
711.352	302.19
711.795	310.59
712.239	345.09
712.682	392.69
713.126	415.99
713.569	457.79
714.012	362.79
714.456	322.09
714.899	293.49
715.342	279.69
715.786	264.89
716.229	260.79
716.672	261.19
717.115	243.19
717.558	249.39
718.002	253.39
718.445	261.59
718.888	286.69
719.331	296.69
719.774	306.09
720.217	296.19
720.66	275.39
721.103	268.89
721.546	254.59
721.989	253.29
722.432	231.79
722.874	237.89
723.317	222.49
723.76	236.59
724.203	256.79
724.645	315.39
725.088	443.59
725.531	572.09
725.974	656.39
726.416	547.59
726.859	298.89
727.301	245.79
727.744	233.99
728.187	231.19
728.629	240.59
729.071	236.29
729.514	259.99
729.956	272.49
730.399	275.49
730.841	281.19
731.283	276.39
731.726	261.39
732.168	257.39
732.61	259.99
733.053	280.29
733.495	313.89
733.937	349.89
734.379	394.09
734.821	437.19
735.263	538.09
735.705	816.49
736.148	1549.09
736.59	2557.89
737.032	3061.89
737.474	2465.59
737.916	794.49
738.357	429.49
738.799	325.69
739.241	294.79
739.683	283.29
740.125	297.49
740.567	292.49
741.008	309.99
741.45	308.99
741.892	321.09
742.334	340.69
742.775	354.49
743.217	338.99
743.658	268.09
744.1	251.59
744.542	257.39
744.983	302.99
745.425	336.39
745.866	347.49
746.307	283.19
746.749	279.69
747.19	319.79
747.632	448.39
748.073	856.59
748.514	1840.19
748.956	2825.29
749.397	3540.79
749.838	2943.99
750.279	2946.89
750.72	1488.09
751.162	533.19
751.603	309.59
752.044	251.69
752.485	221.49
752.926	210.49
753.367	200.79
753.808	191.49
754.249	188.59
754.69	188.39
755.131	180.69
755.572	176.69
756.013	182.79
756.453	181.39
756.894	191.89
757.335	189.19
757.776	198.19
758.216	197.79
758.657	201.29
759.098	201.39
759.538	222.39
759.979	268.49
760.42	372.39
760.86	678.39
761.301	1780.09
761.741	4354.79
762.182	6397.09
762.622	4501.49
763.063	1286.79
763.503	534.29
763.943	347.49
764.384	334.09
764.824	398.39
765.264	440.99
765.705	297.79
766.145	210.39
766.585	182.89
767.025	184.09
767.465	187.89
767.906	243.59
768.346	324.39
768.786	344.99
769.226	268.19
769.666	319.39
770.106	614.29
770.546	1514.79
770.986	2628.49
771.426	2375.59
771.866	782.49
772.306	319.99
772.745	206.79
773.185	170.49
773.625	164.99
774.065	157.09
774.505	195.49
774.944	303.99
775.384	657.69
775.824	1211.09
776.263	1187.29
776.703	493.69
777.142	226.39
777.582	149.39
778.021	133.69
778.461	143.89
778.9	139.19
779.34	126.99
779.779	116.59
780.219	114.69
780.658	106.19
781.097	109.19
781.537	114.89
781.976	110.69
782.415	109.89
782.855	101.79
783.294	102.79
783.733	104.39
784.172	99.79
784.611	101.09
785.05	113.19
785.489	111.29
785.928	117.39
786.367	120.09
786.806	121.69
787.245	133.59
787.684	135.89
788.123	145.29
788.562	138.99
789.001	127.79
789.44	119.29
789.879	116.29
790.317	121.19
790.756	127.09
791.195	128.69
791.634	148.59
792.072	201.69
792.511	357.99
792.95	991.89
793.388	2128.19
793.827	1938.79
794.265	676.99
794.704	279.79
795.142	183.69
795.581	151.19
796.019	135.59
796.458	127.79
796.896	119.19
797.334	129.29
797.773	154.99
798.211	215.99
798.649	425.69
799.087	1018.59
799.526	1572.29
799.964	1989.59
800.402	1989.39
800.84	750.79
801.278	288.59
801.716	188.09
802.154	149.59
802.592	138.39
803.03	137.69
803.468	129.39
803.906	142.69
804.344	144.79
804.782	142.29
805.22	136.19
805.658	122.79
806.096	146.29
806.533	154.79
806.971	177.29
807.409	219.29
807.847	316.69
808.284	652.09
808.722	1830.19
809.16	3264.39
809.597	3069.49
810.035	5344.29
810.472	5707.19
810.91	2056.19
811.347	781.49
811.785	398.89
812.222	255.49
812.66	195.99
813.097	167.69
813.535	137.29
813.972	122.69
814.409	122.49
814.846	106.79
815.284	110.29
815.721	101.09
816.158	104.49
816.595	119.89
817.032	174.49
817.47	201.39
817.907	175.49
818.344	152.59
818.781	117.39
819.218	94.89
819.655	119.99
820.092	176.59
820.529	213.59
820.966	170.59
821.403	129.29
821.839	110.39
822.276	98.79
822.713	116.29
823.15	141.49
823.587	119.39
824.023	139.69
824.46	297.69
824.897	875.69
825.333	1348.09
825.77	573.29
826.206	227.19
826.643	134.89
827.08	102.19
827.516	85.79
827.953	74.99
828.389	79.79
828.825	77.99
829.262	68.49
829.698	72.69
830.135	63.79
830.571	58.29
831.007	66.09
831.443	59.29
831.88	62.49
832.316	63.09
832.752	68.69
833.188	70.79
833.624	66.69
834.06	69.09
834.497	68.29
834.933	72.59
835.369	76.29
835.805	64.99
836.241	75.29
836.677	71.39
837.112	88.19
837.548	98.49
837.984	132.39
838.42	194.59
838.856	486.99
839.292	1488.79
839.727	2278.09
840.163	1059.29
840.599	898.89
841.034	1991.59
841.47	2117.29
841.906	759.09
842.341	327.59
842.777	222.29
843.212	309.09
843.648	311.19
844.083	152.29
844.519	95.99
844.954	75.09
845.39	55.99
845.825	54.89
846.261	59.69
846.696	54.39
847.131	53.79
847.566	58.79
848.002	51.49
848.437	53.99
848.872	59.89
849.307	60.79
849.742	74.99
850.177	173.09
850.613	542.99
851.048	874.59
851.483	382.09
851.918	156.99
852.353	83.09
852.788	55.99
853.223	54.09
853.657	55.39
854.092	49.49
854.527	44.59
854.962	37.49
855.397	39.29
855.832	50.29
856.266	44.29
856.701	40.59
857.136	31.99
857.57	45.59
858.005	49.79
858.44	59.29
858.874	42.99
859.309	57.29
859.743	38.19
860.178	44.29
860.612	47.09
861.047	53.49
861.481	67.89
861.915	62.29
862.35	50.99
862.784	33.29
863.218	36.09
863.653	32.49
864.087	41.99
864.521	52.99
864.955	66.59
865.39	151.89
865.824	177.19
866.258	116.19
866.692	159.69
867.126	173.19
867.56	100.29
867.994	53.99
868.428	39.99
868.862	47.19
869.296	54.89
869.73	59.59
870.164	54.89
870.598	50.89
871.031	40.29
871.465	35.39
871.899	32.49
872.333	27.09
872.766	25.79
873.2	23.49
873.634	25.19
874.067	25.89
874.501	23.59
874.935	34.49
875.368	27.79
875.802	26.39
876.235	20.79
876.669	26.59
877.102	16.19
877.535	26.19
877.969	24.99
878.402	19.19
878.836	17.69
879.269	22.99
879.702	24.59
880.135	20.49
880.569	23.99
881.002	28.29
881.435	13.79
881.868	16.99
882.301	16.19
882.734	19.29
883.167	22.19
883.601	20.09
884.034	17.69
884.467	14.89
884.899	20.69
885.332	18.89
885.765	14.39
886.198	20.09
886.631	18.79
887.064	15.79
887.497	25.99
887.929	23.29
888.362	18.79
888.795	14.99
889.228	19.19
889.66	17.19
890.093	15.09
890.526	15.29
890.958	18.29
891.391	19.99
891.823	24.49
892.256	17.49
892.688	18.59
893.121	10.49
893.553	17.69
893.985	16.59
894.418	17.49
894.85	13.29
895.282	13.39
895.715	16.09
896.147	19.79
896.579	21.29
897.011	14.09
897.444	16.09
897.876	9.99
898.308	10.69
898.74	17.09
899.172	11.69
899.604	19.59
900.036	20.69
900.468	18.09
900.9	16.89
901.332	23.59
901.764	10.89
902.196	23.99
902.628	18.79
903.06	14.09
903.491	25.09
903.923	18.79
904.355	19.09
904.787	29.09
905.218	17.39
905.65	20.69
906.082	11.09
906.513	15.49
906.945	14.39
907.376	20.19
907.808	22.99
908.239	18.99
908.671	18.49
909.102	24.69
909.534	26.79
909.965	51.59
910.397	89.09
910.828	304.99
911.259	470.89
911.691	214.19
912.122	104.89
912.553	54.29
912.984	35.39
913.415	26.09
913.847	24.49
914.278	14.39
914.709	17.09
915.14	21.69
915.571	17.89
916.002	13.89
916.433	16.79
916.864	16.69
917.295	11.79
917.726	22.79
918.157	18.69
918.587	29.69
919.018	23.59
919.449	22.99
919.88	23.99
920.311	32.69
920.741	43.79
921.172	168.59
921.603	148.69
922.033	77.19
922.464	46.19
922.895	25.19
923.325	22.19
923.756	13.19
924.186	15.89
924.617	27.49
925.047	43.19
925.478	49.89
925.908	45.09
926.338	23.39
926.769	16.19
927.199	21.69
927.629	9.99
928.06	17.39
928.49	9.79
928.92	17.09
929.35	14.39
929.78	11.99
930.21	8.09
930.641	11.89
931.071	9.19
931.501	4.29
931.931	7.39
932.361	7.79
932.791	2.49
933.221	7.69
933.651	4.99
934.08	13.09
934.51	26.89
934.94	9.49
935.37	9.59
935.8	13.39
936.229	5.19
936.659	7.39
937.089	4.49
937.519	17.59
937.948	23.69
938.378	13.59
938.807	3.99
939.237	1.39
939.666	3.39
940.096	-9.81
940.525	5.69
940.955	1.09
941.384	-1.11
941.814	-8.91
942.243	-0.51
942.672	5.99
943.102	-4.21
943.531	1.79
943.96	4.49
944.39	3.59
944.819	-1.21
945.248	0.09
945.677	2.59
946.106	-1.11
946.535	6.99
946.964	4.59
947.393	7.49
947.822	0.49
948.251	3.69
948.68	5.09
949.109	2.09
949.538	7.29
949.967	6.19
950.396	1.19
950.825	0.39
951.254	3.29
951.682	-2.21
952.111	-1.41
952.54	0.89
952.969	-6.21
953.397	-2.41
953.826	-3.91
954.254	-0.91
954.683	1.89
955.112	-0.11
955.54	1.19
955.969	3.69
956.397	1.99
956.826	-4.21
957.254	3.89
957.682	0.99
958.111	5.69
958.539	-0.01
958.967	0.49
959.396	-1.51
959.824	2.29
960.252	5.79
960.68	-4.21
961.109	-3.21
961.537	-4.01
961.965	4.19
962.393	-0.51
962.821	-2.11
963.249	-1.81
963.677	8.99
964.105	4.29
964.533	45.69
964.961	39.59
965.389	23.99
965.817	3.89
966.245	-0.11
966.672	-1.41
967.1	-9.11
967.528	-3.41
967.956	0.59
968.383	2.39
968.811	-3.81
969.239	-2.61
969.666	-1.61
970.094	-0.31
970.522	0.59
970.949	-4.51
971.377	-4.01
971.804	1.09
972.232	2.09
972.659	-1.11
973.087	-7.01
973.514	-3.51
973.941	-1.01
974.369	8.39
974.796	1.09
975.223	1.59
975.651	-1.91
976.078	-0.51
976.505	-1.81
976.932	-0.31
977.359	13.09
977.786	18.69
978.214	5.69
978.641	-2.51
979.068	0.39
979.495	-7.71
979.922	0.69
980.349	-0.31
980.776	5.39
981.202	1.69
981.629	6.59
982.056	11.69
982.483	-5.91
982.91	-0.61
983.337	-2.51
983.763	0.99
984.19	-8.51
984.617	-0.41
985.043	-9.31
985.47	-7.01
985.897	-2.61
986.323	-9.91
986.75	6.69
987.176	-2.41
987.603	-4.21
988.029	-4.41
988.456	-4.81
988.882	1.09
989.308	-2.41
989.735	-3.51
990.161	-0.31
990.587	-6.11
991.014	-4.11
991.44	5.69
991.866	-7.71
992.292	-9.51
992.719	-2.11
993.145	2.29
993.571	-5.41
993.997	-3.61
994.423	-2.91
994.849	-7.01
995.275	-4.31
995.701	0.39
996.127	-3.01
996.553	1.39
996.979	-4.81
997.405	-1.91
997.83	-9.31
998.256	-4.91
998.682	-4.11
999.108	-6.81
999.534	-3.01
999.959	1.99
1000.385	-7.81
1000.811	1.69
1001.236	-8.61
1001.662	-10.01
1002.087	-12.61
1002.513	-0.11
1002.938	-3.61
1003.364	-1.61
1003.789	-1.31
1004.215	3.29
1004.64	-1.01
1005.066	2.09
1005.491	0.99
1005.916	2.39
1006.342	-1.61
1006.767	-10.61
1007.192	8.49
1007.617	-7.21
1008.042	-2.41
1008.468	-6.51
1008.893	-1.21
1009.318	-3.81
1009.743	-0.01
1010.168	0.69
1010.593	3.59
1011.018	-4.81
1011.443	0.59
1011.868	7.89
1012.293	-4.41
1012.718	-2.21
1013.143	0.19
1013.567	-1.01
1013.992	3.39
1014.417	-13.21
1014.842	-2.21
1015.267	-12.41
1015.691	-7.11
1016.116	3.99
1016.541	-0.81
1016.965	2.59
1017.39	3.99
1017.814	-0.31
1018.239	-0.51
1018.663	-9.01
1019.088	-14.11
1019.512	-1.31
1019.937	1.99
1020.361	-4.91
1020.785	-10.61
1021.21	-4.11
1021.634	-0.41
1022.058	1.19
1022.483	8.69
1022.907	-2.31
1023.331	-3.11
1023.755	-9.81
1024.179	-0.91
1024.604	-9.11
1025.028	-7.61
1025.452	-6.51
1025.876	-3.61
1026.3	-3.61
1026.724	-6.81
1027.148	-9.61
1027.572	-10.81
1027.996	5.69
1028.42	0.79
1028.843	-0.31
1029.267	-9.31
1029.691	-4.01
1030.115	-8.81
1030.539	-8.91
1030.962	-8.01
1031.386	-7.31
1031.81	-4.31
1032.233	1.09
1032.657	-7.61
1033.08	1.89
1033.504	-3.81
1033.927	-1.41
1034.351	-6.11
1034.774	-9.51
1035.198	5.39
1035.621	-10.21
1036.045	-4.21
1036.468	-1.01
1036.891	-7.91
1037.315	-11.31
1037.738	-10.71
1038.161	3.19
1038.584	-9.81
1039.008	-2.21
1039.431	-3.81
1039.854	-6.21
1040.277	-12.51
1040.7	-11.71
1041.123	-2.81
1041.546	-6.91
1041.969	-4.41
1042.392	-6.91
1042.815	-7.41
1043.238	-3.71
1043.661	4.09
1044.084	-4.81
1044.507	-9.01
1044.93	-9.51
1045.352	-4.21
1045.775	-0.91
1046.198	-4.21
1046.621	-3.01
1047.043	2.59
1047.466	5.59
1047.889	-7.41
1048.311	-4.21
1048.734	-6.91
1049.156	-6.71
1049.579	-4.31
1050.001	-7.61
1050.424	-0.81
1050.846	-9.31
1051.269	-0.71
1051.691	-8.81
1052.113	-5.71
1052.536	0.69
1052.958	-2.41
1053.38	-2.01
1053.802	-9.91
1054.225	0.09
1054.647	-8.11
1055.069	-5.31
1055.491	-0.21
1055.913	-3.11
1056.335	-7.61
1056.757	-8.91
1057.179	-9.41
1057.601	-12.11
1058.023	-8.11
1058.445	-1.11
1058.867	-5.01
1059.289	-4.51
1059.711	-7.51
1060.133	-3.41
1060.555	-4.11
1060.976	0.39
1061.398	-1.51
1061.82	-7.71
1062.241	-3.71
1062.663	-7.81
1063.085	-7.81
1063.506	1.39
1063.928	-1.31
1064.35	-1.11
1064.771	-6.91
1065.193	-1.11
1065.614	-12.21
1066.035	-0.11
1066.457	-0.01
1066.878	-1.71
1067.3	-2.61
1067.721	-6.61
1068.142	-3.31
1068.564	-4.11
1068.985	-5.61
1069.406	-9.71
1069.827	-5.11
1070.248	-4.51
1070.67	-9.01
1071.091	-10.51
1071.512	-6.21
1071.933	-11.81
1072.354	-6.21
1072.775	-3.21
1073.196	-7.71
1073.617	-2.71
1074.038	-2.31
1074.459	-9.81
1074.88	-11.31
1075.3	-4.91
1075.721	-9.91
1076.142	5.49
1076.563	-4.21
1076.983	-10.91
1077.404	-4.01
1077.825	-7.41
1078.246	-2.01
1078.666	-7.91
1079.087	-8.01
1079.507	-3.31
1079.928	-2.31
1080.348	-7.11
1080.769	-3.11
1081.189	-5.31
1081.61	-5.31
1082.03	-9.21
1082.451	-1.11
1082.871	-3.71
1083.291	-3.81
1083.711	-12.61
1084.132	-4.01
1084.552	-2.61
1084.972	-3.31
1085.392	-7.01
1085.813	-7.91
1086.233	-10.01
1086.653	-7.41
1087.073	-1.61
1087.493	-12.21
1087.913	-8.31
1088.333	-6.91
1088.753	-6.11
1089.173	1.59
1089.593	-6.31
1090.013	-2.61
1090.433	-4.51
1090.852	-1.01
1091.272	0.99
1091.692	-5.61
1092.112	-7.01
1092.531	-9.61
1092.951	-11.81
1093.371	-5.01
1093.79	0.29
1094.21	-1.81
1094.63	-8.01
1095.049	-8.61
1095.469	-4.91
1095.888	-8.81
1096.308	-2.31
1096.727	0.79
1097.146	-3.51
1097.566	-5.11
1097.985	-3.61
1098.405	-5.51
1098.824	-7.71
1099.243	-4.51
1099.662	-7.61
1100.082	0.59
1100.501	-0.81
1100.92	-10.31
1101.339	-8.01
1101.758	-7.71
