Data from 20171114-ORNL-Ar_H_NY_Subt18_08-06-26-739.txt Node
Date: Tue Nov 14 08:06:26 EST 2017
User: Ender
Spectrometer: HR+D1039
Trigger mode: 0
Integration Time (sec): 2.730000E-2
Scans to average: 10
Electric dark correction enabled: true
Nonlinearity correction enabled: false
Boxcar width: 0
XAxis mode: Wavelengths
Number of Pixels in Spectrum: 2048
>>>>>Begin Spectral Data<<<<<
187.836	-3.81
188.309	-3.81
188.782	-3.81
189.255	1.39
189.728	-2.21
190.201	5.29
190.674	1.19
191.147	1.89
191.619	-1.11
192.092	-0.91
192.565	4.09
193.038	2.39
193.511	7.89
193.984	-1.71
194.456	-8.01
194.929	-1.91
195.402	-2.81
195.874	-1.71
196.347	3.89
196.82	-7.11
197.292	2.89
197.765	2.69
198.237	-5.11
198.71	2.79
199.182	-2.01
199.655	0.19
200.127	2.49
200.6	1.59
201.072	0.89
201.544	4.59
202.017	3.19
202.489	6.49
202.961	-1.71
203.433	-1.81
203.906	-5.21
204.378	-0.31
204.85	2.89
205.322	-3.21
205.794	-4.41
206.266	-2.71
206.739	-4.61
207.211	5.39
207.683	-9.71
208.155	-2.21
208.627	-2.01
209.099	-3.61
209.57	-4.71
210.042	0.89
210.514	3.09
210.986	-0.31
211.458	-6.11
211.93	-1.51
212.402	6.39
212.873	-7.71
213.345	-9.71
213.817	-11.31
214.288	2.29
214.76	-3.71
215.232	0.89
215.703	-2.21
216.175	-2.41
216.646	-1.61
217.118	-6.31
217.589	3.49
218.061	2.19
218.532	-3.31
219.004	3.59
219.475	-3.71
219.946	3.39
220.418	-3.41
220.889	0.59
221.36	-1.71
221.832	-1.61
222.303	-0.11
222.774	-1.01
223.245	-11.91
223.717	-7.11
224.188	-3.41
224.659	-6.91
225.13	-3.71
225.601	-1.31
226.072	5.19
226.543	-1.01
227.014	-1.51
227.485	2.89
227.956	-4.51
228.427	1.79
228.898	-0.11
229.369	6.49
229.839	-1.41
230.31	-9.71
230.781	3.69
231.252	0.59
231.722	-5.91
232.193	1.29
232.664	2.19
233.135	2.69
233.605	3.89
234.076	-7.11
234.546	1.19
235.017	6.79
235.487	0.99
235.958	-0.91
236.428	-5.91
236.899	7.59
237.369	1.39
237.84	-5.71
238.31	4.59
238.78	2.19
239.251	5.09
239.721	10.19
240.191	3.39
240.662	2.09
241.132	5.79
241.602	-3.61
242.072	1.19
242.542	7.99
243.013	4.09
243.483	6.59
243.953	7.39
244.423	2.89
244.893	-6.91
245.363	7.39
245.833	7.59
246.303	-3.61
246.773	6.19
247.243	5.49
247.712	7.59
248.182	5.79
248.652	11.59
249.122	0.89
249.592	10.39
250.061	21.29
250.531	35.29
251.001	17.19
251.471	22.69
251.94	20.09
252.41	9.19
252.879	7.79
253.349	12.39
253.818	12.89
254.288	6.39
254.757	8.19
255.227	5.29
255.696	6.79
256.166	10.19
256.635	6.69
257.105	6.99
257.574	5.39
258.043	10.39
258.513	11.89
258.982	19.89
259.451	14.79
259.92	18.39
260.389	7.89
260.859	22.59
261.328	10.29
261.797	15.19
262.266	6.69
262.735	9.89
263.204	5.59
263.673	6.99
264.142	11.69
264.611	-1.11
265.08	6.59
265.549	-0.51
266.018	7.29
266.487	0.39
266.955	4.59
267.424	1.79
267.893	5.69
268.362	2.39
268.83	3.09
269.299	11.49
269.768	7.59
270.236	9.69
270.705	7.99
271.174	1.79
271.642	13.79
272.111	9.19
272.579	20.69
273.048	24.99
273.516	30.89
273.985	27.29
274.453	20.19
274.922	23.29
275.39	10.89
275.858	8.09
276.327	12.99
276.795	21.39
277.263	9.79
277.731	29.29
278.2	54.29
278.668	58.99
279.136	48.09
279.604	20.39
280.072	24.19
280.54	16.89
281.008	12.19
281.477	16.69
281.945	14.69
282.413	21.99
282.881	13.39
283.348	12.99
283.816	13.29
284.284	15.29
284.752	19.29
285.22	17.09
285.688	15.69
286.156	20.59
286.623	41.89
287.091	53.99
287.559	35.79
288.026	22.59
288.494	16.09
288.962	9.59
289.429	14.69
289.897	19.89
290.364	16.89
290.832	19.89
291.3	14.89
291.767	17.69
292.234	17.99
292.702	21.69
293.169	18.89
293.637	24.59
294.104	19.09
294.571	9.09
295.039	12.79
295.506	16.49
295.973	13.59
296.44	17.29
296.908	24.69
297.375	14.79
297.842	22.69
298.309	16.19
298.776	18.09
299.243	26.39
299.71	15.89
300.177	26.79
300.644	24.69
301.111	21.89
301.578	27.69
302.045	16.19
302.512	20.39
302.979	27.79
303.446	25.89
303.913	18.29
304.379	23.49
304.846	28.39
305.313	26.79
305.78	22.09
306.246	26.79
306.713	25.39
307.18	31.49
307.646	28.49
308.113	23.99
308.579	27.49
309.046	30.89
309.512	26.69
309.979	17.99
310.445	33.59
310.912	29.09
311.378	33.99
311.845	27.49
312.311	31.79
312.777	34.09
313.244	27.79
313.71	39.99
314.176	29.19
314.642	37.59
315.109	34.49
315.575	40.99
316.041	40.59
316.507	35.29
316.973	39.19
317.439	38.49
317.905	33.79
318.371	39.69
318.837	33.89
319.303	38.29
319.769	40.19
320.235	28.19
320.701	33.89
321.167	44.19
321.633	36.09
322.099	40.09
322.564	44.69
323.03	37.99
323.496	35.39
323.962	39.99
324.427	34.19
324.893	40.99
325.359	39.29
325.824	45.79
326.29	41.39
326.755	43.29
327.221	41.39
327.686	40.39
328.152	47.69
328.617	47.39
329.083	54.99
329.548	53.59
330.014	50.29
330.479	48.89
330.944	44.19
331.41	39.69
331.875	45.49
332.34	46.49
332.805	49.59
333.271	51.89
333.736	44.49
334.201	55.29
334.666	54.49
335.131	56.49
335.596	56.59
336.061	50.69
336.526	45.59
336.991	57.59
337.456	59.99
337.921	48.79
338.386	49.59
338.851	49.79
339.316	51.99
339.781	48.79
340.246	53.19
340.711	51.29
341.175	58.29
341.64	49.39
342.105	52.49
342.569	61.39
343.034	66.99
343.499	59.09
343.963	51.89
344.428	66.99
344.893	60.89
345.357	61.39
345.822	68.79
346.286	62.59
346.751	71.69
347.215	71.09
347.679	77.09
348.144	98.59
348.608	80.49
349.073	75.59
349.537	80.49
350.001	83.39
350.465	86.49
350.93	85.69
351.394	84.59
351.858	79.99
352.322	92.59
352.786	86.79
353.25	105.59
353.715	106.99
354.179	102.79
354.643	123.09
355.107	127.89
355.571	110.39
356.035	104.99
356.498	128.09
356.962	126.69
357.426	136.49
357.89	118.79
358.354	92.69
358.818	82.09
359.281	85.89
359.745	82.59
360.209	80.79
360.673	84.49
361.136	81.59
361.6	84.89
362.064	82.79
362.527	88.79
362.991	89.89
363.454	85.49
363.918	79.69
364.381	88.99
364.845	85.99
365.308	94.09
365.772	88.49
366.235	83.29
366.698	86.79
367.162	89.59
367.625	89.99
368.088	91.89
368.552	88.69
369.015	94.59
369.478	102.39
369.941	102.79
370.404	93.69
370.867	100.69
371.331	114.29
371.794	118.29
372.257	113.79
372.72	117.49
373.183	116.89
373.646	113.49
374.109	108.19
374.572	109.99
375.035	108.89
375.497	108.29
375.96	108.69
376.423	105.89
376.886	112.49
377.349	115.59
377.811	110.69
378.274	108.29
378.737	106.69
379.199	121.59
379.662	118.89
380.125	127.69
380.587	126.49
381.05	124.39
381.512	130.89
381.975	137.59
382.437	132.79
382.9	128.19
383.362	132.79
383.825	148.39
384.287	150.39
384.75	138.29
385.212	139.79
385.674	142.39
386.136	139.59
386.599	132.19
387.061	135.29
387.523	137.29
387.985	143.39
388.447	149.09
388.91	144.59
389.372	163.89
389.834	154.29
390.296	147.99
390.758	159.59
391.22	169.69
391.682	213.89
392.144	291.19
392.606	234.99
393.068	165.99
393.529	171.89
393.991	153.69
394.453	144.99
394.915	156.99
395.377	193.59
395.838	219.19
396.3	154.99
396.762	145.99
397.224	136.69
397.685	139.99
398.147	133.99
398.608	137.99
399.07	131.59
399.531	140.89
399.993	144.69
400.454	152.09
400.916	149.89
401.377	151.79
401.839	156.19
402.3	154.99
402.762	169.69
403.223	189.39
403.684	174.79
404.145	166.69
404.607	162.79
405.068	173.29
405.529	175.59
405.99	191.39
406.451	181.09
406.913	178.39
407.374	169.19
407.835	167.39
408.296	170.49
408.757	181.69
409.218	196.79
409.679	181.59
410.14	179.59
410.601	181.39
411.062	196.09
411.522	192.79
411.983	199.29
412.444	180.79
412.905	184.79
413.366	187.49
413.826	197.59
414.287	220.59
414.748	263.39
415.208	254.29
415.669	216.99
416.13	206.09
416.59	205.59
417.051	219.89
417.511	220.59
417.972	243.69
418.432	252.19
418.893	296.49
419.353	266.19
419.814	203.79
420.274	195.89
420.734	186.39
421.195	203.39
421.655	201.29
422.115	202.89
422.576	204.39
423.036	200.69
423.496	207.19
423.956	216.89
424.416	230.29
424.876	266.89
425.336	264.99
425.797	269.39
426.257	261.89
426.717	247.79
427.177	240.89
427.637	225.89
428.097	243.59
428.556	252.49
429.016	283.69
429.476	270.99
429.936	285.39
430.396	287.19
430.856	297.49
431.315	322.69
431.775	364.69
432.235	395.59
432.694	355.19
433.154	375.89
433.614	402.59
434.073	350.19
434.533	292.09
434.993	282.09
435.452	292.69
435.912	306.89
436.371	293.09
436.83	291.09
437.29	268.39
437.749	248.99
438.209	253.79
438.668	276.79
439.127	295.29
439.587	278.89
440.046	259.09
440.505	275.39
440.964	287.09
441.424	329.49
441.883	319.29
442.342	268.79
442.801	235.79
443.26	226.89
443.719	224.99
444.178	223.99
444.637	220.39
445.096	228.99
445.555	234.19
446.014	230.29
446.473	234.29
446.932	244.69
447.391	235.59
447.849	233.59
448.308	231.39
448.767	222.99
449.226	241.19
449.685	242.19
450.143	249.79
450.602	243.79
451.061	236.39
451.519	249.79
451.978	236.69
452.436	244.09
452.895	246.19
453.353	255.09
453.812	247.49
454.27	242.79
454.729	252.09
455.187	248.59
455.646	253.19
456.104	253.29
456.562	269.69
457.021	273.99
457.479	266.99
457.937	278.19
458.395	270.39
458.854	250.29
459.312	268.19
459.77	283.19
460.228	263.59
460.686	254.79
461.144	253.49
461.602	243.39
462.06	251.39
462.518	260.39
462.976	261.09
463.434	262.99
463.892	277.99
464.35	287.19
464.808	295.29
465.266	273.39
465.724	271.99
466.181	283.69
466.639	280.69
467.097	297.69
467.555	311.09
468.012	312.89
468.47	324.99
468.928	337.49
469.385	352.09
469.843	364.49
470.3	360.09
470.758	369.29
471.215	399.09
471.673	413.29
472.13	415.49
472.588	431.29
473.045	384.09
473.503	385.39
473.96	408.49
474.417	415.79
474.875	445.99
475.332	484.79
475.789	472.49
476.246	482.29
476.704	495.19
477.161	522.19
477.618	539.29
478.075	569.89
478.532	628.99
478.989	713.99
479.446	827.49
479.903	793.39
480.36	820.09
480.817	873.49
481.274	983.79
481.731	1081.79
482.188	1186.49
482.645	1305.69
483.102	1419.39
483.558	1566.39
484.015	1613.09
484.472	1586.19
484.929	1546.89
485.385	1486.39
485.842	1445.69
486.299	1386.89
486.755	1309.69
487.212	1118.49
487.668	952.39
488.125	854.99
488.582	796.19
489.038	764.19
489.494	729.89
489.951	704.39
490.407	682.39
490.864	667.39
491.32	667.59
491.776	655.79
492.233	662.29
492.689	626.49
493.145	621.99
493.602	611.89
494.058	629.89
494.514	637.69
494.97	659.49
495.426	656.99
495.882	638.99
496.338	622.09
496.794	642.69
497.251	633.89
497.707	648.69
498.163	651.09
498.618	646.39
499.074	659.89
499.53	692.39
499.986	686.49
500.442	680.59
500.898	646.79
501.354	646.09
501.809	653.79
502.265	661.39
502.721	677.79
503.177	682.29
503.632	682.89
504.088	691.89
504.543	728.19
504.999	731.39
505.455	677.89
505.91	644.89
506.366	648.59
506.821	647.99
507.277	639.69
507.732	642.39
508.187	645.99
508.643	650.09
509.098	656.89
509.553	678.89
510.009	679.79
510.464	691.09
510.919	704.99
511.375	700.19
511.83	717.69
512.285	730.59
512.74	774.69
513.195	795.49
513.65	797.19
514.105	780.39
514.56	788.09
515.015	812.89
515.47	837.39
515.925	810.89
516.38	809.49
516.835	805.29
517.29	806.79
517.745	793.79
518.2	788.39
518.655	769.49
519.109	764.79
519.564	749.69
520.019	752.19
520.474	736.39
520.928	745.09
521.383	728.39
521.838	737.19
522.292	730.79
522.747	730.99
523.201	714.79
523.656	712.29
524.11	698.79
524.565	705.59
525.019	705.89
525.474	715.69
525.928	720.49
526.382	710.89
526.837	719.29
527.291	710.99
527.745	715.59
528.2	706.19
528.654	711.39
529.108	710.39
529.562	704.89
530.016	713.59
530.47	707.09
530.925	710.49
531.379	715.59
531.833	721.19
532.287	718.39
532.741	713.09
533.195	720.49
533.649	737.09
534.103	742.09
534.556	716.39
535.01	720.89
535.464	727.79
535.918	736.99
536.372	740.99
536.826	731.49
537.279	722.99
537.733	727.39
538.187	732.59
538.64	727.09
539.094	737.69
539.548	739.29
540.001	742.09
540.455	741.79
540.908	752.89
541.362	767.49
541.815	760.49
542.269	767.79
542.722	779.99
543.175	781.49
543.629	787.49
544.082	801.19
544.536	803.79
544.989	800.89
545.442	813.49
545.895	797.19
546.349	804.09
546.802	799.39
547.255	809.99
547.708	819.79
548.161	831.49
548.614	848.99
549.067	843.29
549.52	842.59
549.973	838.89
550.426	830.69
550.879	803.69
551.332	817.69
551.785	822.39
552.238	826.99
552.691	841.59
553.144	852.29
553.596	866.49
554.049	883.39
554.502	912.09
554.955	931.79
555.407	923.89
555.86	902.79
556.313	913.49
556.765	903.09
557.218	895.09
557.67	902.99
558.123	895.09
558.576	898.49
559.028	891.99
559.48	894.99
559.933	889.49
560.385	850.79
560.838	832.69
561.29	799.59
561.742	808.39
562.195	778.09
562.647	780.99
563.099	789.79
563.551	788.49
564.004	799.79
564.456	788.19
564.908	775.99
565.36	763.49
565.812	750.99
566.264	739.89
566.716	741.59
567.168	727.19
567.62	744.49
568.072	719.39
568.524	711.49
568.976	701.99
569.428	690.59
569.88	679.99
570.332	694.49
570.784	696.99
571.235	692.89
571.687	717.79
572.139	715.89
572.59	716.69
573.042	721.69
573.494	724.99
573.945	729.19
574.397	693.49
574.849	703.79
575.3	695.39
575.752	695.99
576.203	686.29
576.655	695.69
577.106	688.69
577.557	679.79
578.009	684.39
578.46	682.89
578.912	672.69
579.363	678.69
579.814	682.29
580.265	677.79
580.717	678.79
581.168	684.49
581.619	693.59
582.07	690.19
582.521	685.69
582.972	681.49
583.423	695.09
583.875	692.09
584.326	710.29
584.777	761.09
585.227	833.89
585.678	914.19
586.129	1005.59
586.58	1084.49
587.031	1149.69
587.482	1308.89
587.933	1481.69
588.384	1288.29
588.834	970.39
589.285	819.69
589.736	791.09
590.186	792.39
590.637	780.69
591.088	759.09
591.538	745.99
591.989	747.49
592.439	741.99
592.89	735.59
593.34	731.09
593.791	722.09
594.241	714.99
594.692	722.09
595.142	717.69
595.593	705.99
596.043	714.19
596.493	726.19
596.943	723.69
597.394	720.39
597.844	732.39
598.294	747.09
598.744	761.59
599.195	792.39
599.645	841.09
600.095	874.59
600.545	923.09
600.995	971.09
601.445	1037.59
601.895	1111.59
602.345	1150.89
602.795	1121.19
603.245	1090.49
603.695	1032.29
604.145	975.79
604.594	916.29
605.044	864.99
605.494	813.59
605.944	769.29
606.393	761.29
606.843	731.19
607.293	747.89
607.743	743.99
608.192	749.19
608.642	764.49
609.091	775.89
609.541	782.29
609.99	776.89
610.44	772.79
610.889	725.79
611.339	711.19
611.788	695.29
612.238	715.69
612.687	725.39
613.136	734.49
613.586	751.09
614.035	744.79
614.484	764.29
614.933	758.59
615.383	760.69
615.832	746.59
616.281	728.49
616.73	694.69
617.179	677.99
617.628	662.59
618.077	640.59
618.526	629.69
618.975	622.09
619.424	630.09
619.873	628.99
620.322	627.49
620.771	616.69
621.22	617.49
621.669	604.69
622.118	599.79
622.567	591.69
623.015	583.89
623.464	580.09
623.913	575.29
624.361	561.39
624.81	562.09
625.259	567.59
625.707	564.09
626.156	566.69
626.604	575.99
627.053	577.59
627.501	571.69
627.95	578.39
628.398	583.89
628.847	571.39
629.295	586.19
629.744	582.19
630.192	579.79
630.64	575.99
631.089	572.79
631.537	590.69
631.985	585.99
632.433	605.49
632.881	614.09
633.33	660.39
633.778	635.59
634.226	563.99
634.674	571.29
635.122	585.29
635.57	605.09
636.018	636.79
636.466	594.29
636.914	569.69
637.362	585.49
637.81	586.79
638.258	580.19
638.705	584.99
639.153	614.39
639.601	627.19
640.049	653.39
640.497	675.09
640.944	696.49
641.392	658.19
641.84	628.79
642.287	597.39
642.735	578.19
643.182	581.49
643.63	574.19
644.078	578.49
644.525	603.19
644.973	607.19
645.42	614.59
645.867	629.59
646.315	646.29
646.762	667.09
647.21	698.79
647.657	724.89
648.104	751.79
648.551	782.49
648.999	851.49
649.446	930.99
649.893	999.29
650.34	1174.29
650.787	1402.09
651.234	1757.09
651.682	2259.99
652.129	3117.39
652.576	4463.49
653.023	6563.59
653.47	9017.69
653.917	11229.29
654.363	13010.29
654.81	14310.79
655.257	13622.09
655.704	8921.79
656.151	5271.09
656.598	3432.29
657.044	2432.69
657.491	1878.29
657.938	1498.49
658.385	1256.19
658.831	1092.29
659.278	972.39
659.724	870.59
660.171	790.39
660.618	733.49
661.064	706.69
661.511	675.29
661.957	665.49
662.404	658.09
662.85	655.69
663.296	634.09
663.743	563.19
664.189	543.69
664.635	540.79
665.082	527.99
665.528	534.59
665.974	527.29
666.42	518.59
666.867	511.29
667.313	497.79
667.759	485.19
668.205	485.19
668.651	493.69
669.097	486.09
669.543	508.89
669.989	479.09
670.435	454.39
670.881	451.29
671.327	456.69
671.773	473.29
672.219	502.19
672.665	548.19
673.11	591.69
673.556	638.59
674.002	679.09
674.448	665.99
674.893	555.99
675.339	479.49
675.785	443.99
676.23	424.59
676.676	393.09
677.122	393.09
677.567	378.79
678.013	372.29
678.458	366.29
678.904	371.69
679.349	353.39
679.794	351.19
680.24	352.09
680.685	347.19
681.131	355.69
681.576	351.49
682.021	362.09
682.466	361.29
682.912	351.29
683.357	355.89
683.802	385.79
684.247	404.49
684.692	458.79
685.137	515.29
685.583	540.29
686.028	571.29
686.473	525.39
686.918	437.29
687.363	420.99
687.807	397.89
688.252	366.19
688.697	359.69
689.142	337.89
689.587	341.49
690.032	330.69
690.477	347.49
690.921	352.99
691.366	385.59
691.811	407.19
692.255	434.59
692.7	461.99
693.145	504.89
693.589	690.59
694.034	1134.19
694.478	1542.89
694.923	1741.99
695.367	2270.49
695.812	1194.69
696.256	502.29
696.701	365.69
697.145	342.09
697.59	334.69
698.034	325.69
698.478	331.39
698.922	321.99
699.367	328.19
699.811	339.09
700.255	365.79
700.699	386.19
701.143	433.49
701.588	475.39
702.032	520.89
702.476	516.99
702.92	499.29
703.364	496.89
703.808	643.19
704.252	1043.89
704.696	1442.09
705.14	1672.99
705.584	2146.39
706.027	1056.09
706.471	522.99
706.915	394.19
707.359	352.59
707.803	321.79
708.246	317.99
708.69	313.39
709.134	321.39
709.577	311.29
710.021	326.49
710.465	313.69
710.908	299.29
711.352	306.29
711.795	316.59
712.239	354.29
712.682	389.39
713.126	421.49
713.569	477.89
714.012	374.79
714.456	319.79
714.899	304.99
715.342	279.79
715.786	258.89
716.229	258.79
716.672	256.79
717.115	255.59
717.558	254.39
718.002	256.19
718.445	264.29
718.888	290.49
719.331	295.99
719.774	312.89
720.217	309.49
720.66	280.69
721.103	263.69
721.546	252.89
721.989	252.09
722.432	235.29
722.874	244.89
723.317	236.89
723.76	242.09
724.203	265.19
724.645	324.29
725.088	450.99
725.531	583.29
725.974	645.69
726.416	552.59
726.859	313.79
727.301	258.49
727.744	239.89
728.187	233.09
728.629	240.89
729.071	241.79
729.514	265.99
729.956	271.79
730.399	284.09
730.841	292.39
731.283	274.39
731.726	270.79
732.168	264.19
732.61	268.49
733.053	289.79
733.495	311.19
733.937	352.69
734.379	405.49
734.821	437.79
735.263	541.39
735.705	827.89
736.148	1568.59
736.59	2554.09
737.032	3045.89
737.474	2460.19
737.916	809.89
738.357	428.69
738.799	329.39
739.241	303.59
739.683	285.69
740.125	294.49
740.567	297.09
741.008	323.09
741.45	319.09
741.892	321.99
742.334	344.49
742.775	363.19
743.217	343.09
743.658	274.49
744.1	259.99
744.542	255.59
744.983	317.09
745.425	338.19
745.866	338.49
746.307	285.09
746.749	284.29
747.19	329.19
747.632	462.29
748.073	871.29
748.514	1850.29
748.956	2831.09
749.397	3548.09
749.838	2969.69
750.279	2951.19
750.72	1491.29
751.162	549.09
751.603	325.39
752.044	256.69
752.485	224.29
752.926	213.49
753.367	202.59
753.808	196.59
754.249	194.29
754.69	189.79
755.131	183.69
755.572	187.09
756.013	179.49
756.453	189.49
756.894	184.59
757.335	191.69
757.776	199.79
758.216	190.79
758.657	203.69
759.098	207.09
759.538	232.59
759.979	261.99
760.42	378.49
760.86	702.39
761.301	1808.19
761.741	4388.39
762.182	6432.49
762.622	4501.49
763.063	1299.79
763.503	536.09
763.943	356.69
764.384	338.19
764.824	399.29
765.264	425.99
765.705	304.69
766.145	207.59
766.585	188.09
767.025	181.29
767.465	192.39
767.906	242.59
768.346	323.09
768.786	337.49
769.226	256.79
769.666	322.69
770.106	613.89
770.546	1546.49
770.986	2642.59
771.426	2365.39
771.866	788.59
772.306	328.99
772.745	213.69
773.185	169.79
773.625	172.69
774.065	163.09
774.505	195.09
774.944	301.99
775.384	649.39
775.824	1186.79
776.263	1144.39
776.703	497.09
777.142	216.69
777.582	157.89
778.021	136.39
778.461	151.99
778.9	141.29
779.34	136.49
779.779	118.09
780.219	117.29
780.658	114.29
781.097	108.69
781.537	117.79
781.976	112.39
782.415	110.89
782.855	106.49
783.294	109.29
783.733	108.09
784.172	114.69
784.611	112.29
785.05	112.49
785.489	115.69
785.928	119.29
786.367	123.99
786.806	123.69
787.245	126.39
787.684	134.19
788.123	146.69
788.562	135.39
789.001	130.39
789.44	121.39
789.879	118.99
790.317	118.69
790.756	135.79
791.195	133.89
791.634	144.19
792.072	203.59
792.511	368.49
792.95	1007.89
793.388	2134.99
793.827	1937.59
794.265	678.69
794.704	280.99
795.142	188.19
795.581	147.99
796.019	137.69
796.458	128.19
796.896	122.39
797.334	130.79
797.773	160.79
798.211	220.99
798.649	432.59
799.087	1014.79
799.526	1581.49
799.964	1995.09
800.402	2022.29
800.84	758.09
801.278	300.19
801.716	189.59
802.154	158.09
802.592	152.09
803.03	145.39
803.468	142.19
803.906	141.19
804.344	146.29
804.782	149.19
805.22	143.29
805.658	131.99
806.096	153.39
806.533	157.59
806.971	178.09
807.409	216.19
807.847	313.89
808.284	660.59
808.722	1852.59
809.16	3271.29
809.597	3097.99
810.035	5374.89
810.472	5753.29
810.91	2077.39
811.347	797.69
811.785	405.89
812.222	252.59
812.66	188.99
813.097	166.29
813.535	147.29
813.972	130.19
814.409	121.49
814.846	118.19
815.284	117.69
815.721	103.79
816.158	107.49
816.595	117.29
817.032	180.09
817.47	202.69
817.907	175.99
818.344	153.49
818.781	126.59
819.218	102.69
819.655	127.69
820.092	187.39
820.529	216.49
820.966	178.79
821.403	138.89
821.839	115.09
822.276	97.19
822.713	128.49
823.15	140.49
823.587	119.89
824.023	142.59
824.46	289.99
824.897	887.69
825.333	1350.89
825.77	580.79
826.206	234.19
826.643	134.59
827.08	99.49
827.516	89.49
827.953	82.89
828.389	85.19
828.825	71.29
829.262	72.19
829.698	66.19
830.135	70.39
830.571	62.69
831.007	65.69
831.443	72.19
831.88	67.79
832.316	68.09
832.752	63.99
833.188	66.89
833.624	68.39
834.06	66.99
834.497	73.49
834.933	73.89
835.369	80.99
835.805	71.59
836.241	72.19
836.677	86.89
837.112	99.39
837.548	110.09
837.984	134.69
838.42	201.29
838.856	489.79
839.292	1505.69
839.727	2292.19
840.163	1064.59
840.599	914.39
841.034	2018.59
841.47	2122.19
841.906	771.99
842.341	336.09
842.777	233.49
843.212	323.99
843.648	304.29
844.083	153.99
844.519	101.39
844.954	82.99
845.39	67.09
845.825	55.79
846.261	58.59
846.696	61.29
847.131	60.49
847.566	58.09
848.002	52.49
848.437	57.39
848.872	62.49
849.307	59.69
849.742	90.39
850.177	183.99
850.613	549.19
851.048	875.09
851.483	383.29
851.918	160.19
852.353	90.29
852.788	60.69
853.223	61.59
853.657	52.19
854.092	47.89
854.527	44.79
854.962	40.49
855.397	46.39
855.832	47.89
856.266	46.79
856.701	35.49
857.136	48.49
857.57	49.99
858.005	52.99
858.44	64.19
858.874	47.89
859.309	59.89
859.743	47.59
860.178	43.79
860.612	47.99
861.047	56.19
861.481	74.59
861.915	73.99
862.35	50.89
862.784	38.29
863.218	41.29
863.653	37.99
864.087	51.89
864.521	56.39
864.955	68.19
865.39	155.49
865.824	178.79
866.258	115.99
866.692	166.39
867.126	177.29
867.56	107.79
867.994	58.39
868.428	40.99
868.862	45.59
869.296	57.89
869.73	58.19
870.164	53.09
870.598	48.99
871.031	38.99
871.465	38.59
871.899	37.79
872.333	21.09
872.766	26.49
873.2	24.79
873.634	29.29
874.067	30.39
874.501	28.79
874.935	37.79
875.368	37.39
875.802	33.99
876.235	26.69
876.669	25.39
877.102	19.59
877.535	26.19
877.969	23.59
878.402	25.89
878.836	24.69
879.269	28.29
879.702	23.19
880.135	28.49
880.569	22.49
881.002	22.19
881.435	18.19
881.868	20.79
882.301	22.19
882.734	21.89
883.167	26.09
883.601	18.19
884.034	24.49
884.467	16.29
884.899	25.49
885.332	14.29
885.765	19.49
886.198	19.79
886.631	16.89
887.064	23.09
887.497	26.89
887.929	23.09
888.362	19.79
888.795	16.89
889.228	17.39
889.66	24.89
890.093	18.89
890.526	21.49
890.958	20.19
891.391	14.99
891.823	25.19
892.256	15.49
892.688	15.39
893.121	13.09
893.553	18.69
893.985	23.99
894.418	22.09
894.85	13.39
895.282	11.09
895.715	18.39
896.147	14.09
896.579	20.19
897.011	15.69
897.444	16.19
897.876	15.49
898.308	22.89
898.74	15.69
899.172	16.69
899.604	25.59
900.036	23.99
900.468	20.79
900.9	18.09
901.332	21.29
901.764	13.09
902.196	15.99
902.628	20.29
903.06	18.59
903.491	39.19
903.923	26.69
904.355	20.49
904.787	26.49
905.218	26.19
905.65	26.09
906.082	16.69
906.513	15.49
906.945	19.79
907.376	21.29
907.808	18.99
908.239	26.69
908.671	14.09
909.102	24.09
909.534	31.39
909.965	46.99
910.397	95.49
910.828	316.19
911.259	470.49
911.691	215.99
912.122	111.39
912.553	53.29
912.984	39.59
913.415	29.79
913.847	26.79
914.278	21.49
914.709	17.79
915.14	27.39
915.571	15.39
916.002	12.49
916.433	18.99
916.864	20.39
917.295	16.29
917.726	28.19
918.157	20.39
918.587	28.59
919.018	19.49
919.449	27.09
919.88	23.19
920.311	32.79
920.741	46.89
921.172	170.49
921.603	148.79
922.033	72.09
922.464	47.79
922.895	30.89
923.325	22.89
923.756	17.99
924.186	17.79
924.617	34.09
925.047	39.79
925.478	57.59
925.908	46.99
926.338	28.19
926.769	18.49
927.199	25.79
927.629	8.39
928.06	17.59
928.49	17.89
928.92	11.29
929.35	12.59
929.78	17.69
930.21	9.29
930.641	16.69
931.071	13.89
931.501	10.39
931.931	15.39
932.361	6.69
932.791	0.99
933.221	5.19
933.651	11.49
934.08	18.39
934.51	35.79
934.94	5.49
935.37	12.69
935.8	12.59
936.229	8.89
936.659	9.69
937.089	6.49
937.519	21.99
937.948	25.09
938.378	21.59
938.807	8.19
939.237	7.09
939.666	7.79
940.096	0.69
940.525	4.69
940.955	4.69
941.384	5.29
941.814	-6.41
942.243	2.39
942.672	5.69
943.102	-3.01
943.531	1.39
943.96	8.29
944.39	2.79
944.819	7.49
945.248	4.79
945.677	0.09
946.106	6.09
946.535	8.79
946.964	6.79
947.393	6.09
947.822	5.49
948.251	-2.11
948.68	7.39
949.109	6.79
949.538	6.39
949.967	2.39
950.396	-2.71
950.825	2.79
951.254	6.99
951.682	-6.71
952.111	8.89
952.54	6.79
952.969	-3.31
953.397	-0.31
953.826	4.19
954.254	-5.01
954.683	8.69
955.112	6.09
955.54	3.69
955.969	3.19
956.397	1.89
956.826	4.59
957.254	6.39
957.682	3.69
958.111	4.59
958.539	6.09
958.967	4.19
959.396	5.69
959.824	9.19
960.252	6.29
960.68	-0.51
961.109	4.29
961.537	-1.81
961.965	3.69
962.393	4.59
962.821	0.29
963.249	5.59
963.677	6.09
964.105	10.79
964.533	41.59
964.961	43.39
965.389	27.49
965.817	13.59
966.245	0.19
966.672	-2.41
967.1	-4.61
967.528	3.59
967.956	4.09
968.383	3.59
968.811	3.19
969.239	5.79
969.666	-1.51
970.094	0.79
970.522	1.79
970.949	3.39
971.377	-2.21
971.804	-0.71
972.232	1.09
972.659	2.39
973.087	0.79
973.514	3.59
973.941	1.89
974.369	5.69
974.796	11.79
975.223	2.79
975.651	1.09
976.078	5.99
976.505	2.29
976.932	4.29
977.359	24.49
977.786	16.89
978.214	-2.91
978.641	-1.31
979.068	-4.31
979.495	-0.91
979.922	0.19
980.349	2.49
980.776	8.49
981.202	4.59
981.629	-0.11
982.056	2.39
982.483	1.39
982.91	2.19
983.337	-6.21
983.763	3.19
984.19	-3.71
984.617	-1.21
985.043	-6.91
985.47	-1.11
985.897	-0.51
986.323	-2.41
986.75	4.79
987.176	-0.01
987.603	0.19
988.029	-2.01
988.456	-0.21
988.882	1.09
989.308	-1.21
989.735	-5.01
990.161	3.69
990.587	-2.51
991.014	3.59
991.44	6.89
991.866	0.19
992.292	-4.91
992.719	1.49
993.145	7.19
993.571	-7.51
993.997	3.19
994.423	-3.11
994.849	-0.51
995.275	7.49
995.701	3.89
996.127	-4.01
996.553	5.19
996.979	-5.61
997.405	-2.81
997.83	-3.51
998.256	-4.61
998.682	-2.11
999.108	-7.71
999.534	0.29
999.959	0.19
1000.385	1.09
1000.811	-0.11
1001.236	-2.61
1001.662	-7.31
1002.087	-4.21
1002.513	-3.31
1002.938	1.39
1003.364	-0.41
1003.789	-0.41
1004.215	-0.81
1004.64	3.69
1005.066	4.09
1005.491	1.59
1005.916	-1.61
1006.342	0.99
1006.767	-4.11
1007.192	6.19
1007.617	-2.61
1008.042	-2.31
1008.468	-4.11
1008.893	-4.41
1009.318	2.09
1009.743	-0.71
1010.168	3.09
1010.593	2.59
1011.018	-4.91
1011.443	-1.31
1011.868	2.89
1012.293	-6.41
1012.718	-3.51
1013.143	2.49
1013.567	5.79
1013.992	-5.81
1014.417	-14.71
1014.842	2.99
1015.267	-3.71
1015.691	-2.81
1016.116	5.49
1016.541	7.39
1016.965	4.69
1017.39	3.09
1017.814	1.29
1018.239	3.79
1018.663	-2.01
1019.088	-11.71
1019.512	-0.61
1019.937	-2.31
1020.361	-4.41
1020.785	-10.01
1021.21	-0.81
1021.634	2.29
1022.058	2.49
1022.483	2.79
1022.907	0.99
1023.331	2.79
1023.755	-3.01
1024.179	-2.11
1024.604	-8.21
1025.028	-0.71
1025.452	0.09
1025.876	1.89
1026.3	0.89
1026.724	-6.51
1027.148	0.99
1027.572	-6.11
1027.996	-0.41
1028.42	-1.61
1028.843	1.19
1029.267	-4.51
1029.691	-3.31
1030.115	-0.71
1030.539	-7.91
1030.962	-6.81
1031.386	-6.21
1031.81	1.89
1032.233	2.19
1032.657	3.59
1033.08	-0.61
1033.504	-0.01
1033.927	-6.81
1034.351	-1.21
1034.774	-1.71
1035.198	-2.01
1035.621	-4.91
1036.045	-7.41
1036.468	-0.81
1036.891	-11.61
1037.315	-4.81
1037.738	-3.11
1038.161	3.99
1038.584	-7.41
1039.008	-9.81
1039.431	1.49
1039.854	-0.51
1040.277	-6.81
1040.7	-4.21
1041.123	5.49
1041.546	-6.81
1041.969	-1.21
1042.392	-1.11
1042.815	-0.41
1043.238	0.99
1043.661	2.49
1044.084	-6.51
1044.507	-5.41
1044.93	-7.31
1045.352	0.79
1045.775	1.39
1046.198	-5.21
1046.621	-6.41
1047.043	0.59
1047.466	9.59
1047.889	0.09
1048.311	-2.81
1048.734	-8.61
1049.156	-6.71
1049.579	3.39
1050.001	3.09
1050.424	-6.11
1050.846	-1.01
1051.269	-2.51
1051.691	-8.01
1052.113	-6.21
1052.536	-1.51
1052.958	-3.41
1053.38	-1.81
1053.802	-10.21
1054.225	5.99
1054.647	-5.81
1055.069	-0.71
1055.491	3.79
1055.913	-3.91
1056.335	-2.61
1056.757	-4.41
1057.179	-5.21
1057.601	-1.31
1058.023	-2.01
1058.445	-1.01
1058.867	-9.81
1059.289	-0.41
1059.711	-4.41
1060.133	2.59
1060.555	-2.31
1060.976	-4.81
1061.398	-7.81
1061.82	-7.71
1062.241	1.09
1062.663	-0.91
1063.085	-3.21
1063.506	-0.11
1063.928	-4.91
1064.35	0.79
1064.771	-10.41
1065.193	1.59
1065.614	-2.81
1066.035	3.39
1066.457	-6.41
1066.878	4.09
1067.3	-4.91
1067.721	1.29
1068.142	-2.91
1068.564	-7.11
1068.985	-3.61
1069.406	-5.61
1069.827	-5.71
1070.248	2.39
1070.67	-8.81
1071.091	-7.91
1071.512	-4.31
1071.933	-7.01
1072.354	-8.71
1072.775	-3.31
1073.196	-6.91
1073.617	6.19
1074.038	-4.31
1074.459	-2.21
1074.88	-9.21
1075.3	2.49
1075.721	-1.01
1076.142	4.79
1076.563	0.29
1076.983	-7.51
1077.404	-6.31
1077.825	-12.21
1078.246	-4.71
1078.666	-8.01
1079.087	-5.11
1079.507	-9.41
1079.928	-0.21
1080.348	-0.21
1080.769	-2.21
1081.189	6.59
1081.61	-3.81
1082.03	-4.61
1082.451	-6.81
1082.871	-6.01
1083.291	-1.71
1083.711	-11.01
1084.132	-6.81
1084.552	-4.21
1084.972	-3.31
1085.392	-7.71
1085.813	-1.01
1086.233	-8.51
1086.653	0.09
1087.073	-0.81
1087.493	-4.11
1087.913	-9.41
1088.333	-11.21
1088.753	-5.11
1089.173	-1.21
1089.593	-2.81
1090.013	-1.01
1090.433	-0.11
1090.852	0.59
1091.272	-2.81
1091.692	0.39
1092.112	-2.21
1092.531	-3.71
1092.951	-13.11
1093.371	0.99
1093.79	1.89
1094.21	-4.81
1094.63	-6.71
1095.049	-4.81
1095.469	-0.81
1095.888	2.79
1096.308	3.19
1096.727	9.49
1097.146	1.39
1097.566	2.59
1097.985	1.39
1098.405	-4.91
1098.824	-4.31
1099.243	-2.41
1099.662	-8.21
1100.082	-5.11
1100.501	-2.61
1100.92	-6.51
1101.339	-4.61
1101.758	-3.21
