Data from 20171114-ORNL-Ar_H_NY_Subt18_08-05-55-347.txt Node
Date: Tue Nov 14 08:05:55 EST 2017
User: Ender
Spectrometer: HR+D1039
Trigger mode: 0
Integration Time (sec): 2.730000E-2
Scans to average: 10
Electric dark correction enabled: true
Nonlinearity correction enabled: false
Boxcar width: 0
XAxis mode: Wavelengths
Number of Pixels in Spectrum: 2048
>>>>>Begin Spectral Data<<<<<
187.836	-8.09
188.309	-8.09
188.782	-8.09
189.255	3.11
189.728	2.71
190.201	7.51
190.674	-1.19
191.147	1.61
191.619	-8.99
192.092	1.01
192.565	5.21
193.038	3.91
193.511	3.51
193.984	-1.59
194.456	-0.89
194.929	-1.49
195.402	-3.59
195.874	-2.79
196.347	-1.69
196.82	-6.29
197.292	-0.69
197.765	-4.39
198.237	-6.79
198.71	-0.19
199.182	-0.79
199.655	2.41
200.127	6.31
200.6	-0.59
201.072	-0.79
201.544	-7.89
202.017	-1.09
202.489	2.21
202.961	-7.49
203.433	-2.19
203.906	-10.79
204.378	-8.69
204.85	-6.29
205.322	-9.49
205.794	-0.19
206.266	-5.69
206.739	-9.19
207.211	0.51
207.683	-8.29
208.155	-1.59
208.627	-6.59
209.099	-5.39
209.57	-13.49
210.042	-5.09
210.514	-3.59
210.986	3.61
211.458	-8.19
211.93	-0.79
212.402	2.31
212.873	-5.39
213.345	-10.29
213.817	-16.79
214.288	-8.29
214.76	-7.79
215.232	-1.39
215.703	-5.79
216.175	-4.39
216.646	-2.99
217.118	-9.29
217.589	-5.59
218.061	-2.29
218.532	-2.79
219.004	-5.49
219.475	-3.29
219.946	-2.19
220.418	-7.09
220.889	2.41
221.36	6.51
221.832	-2.69
222.303	-9.39
222.774	0.91
223.245	-3.69
223.717	-6.79
224.188	-5.79
224.659	-5.59
225.13	-3.49
225.601	-3.19
226.072	-2.19
226.543	-6.89
227.014	2.11
227.485	1.21
227.956	-2.19
228.427	-4.39
228.898	2.11
229.369	2.41
229.839	-2.29
230.31	-5.69
230.781	3.61
231.252	-5.59
231.722	-1.49
232.193	-6.29
232.664	-1.49
233.135	2.61
233.605	-1.69
234.076	-5.79
234.546	0.41
235.017	8.31
235.487	3.91
235.958	0.81
236.428	-2.39
236.899	3.61
237.369	3.51
237.84	0.91
238.31	5.91
238.78	0.01
239.251	-1.29
239.721	0.81
240.191	-0.39
240.662	0.61
241.132	0.41
241.602	2.11
242.072	-6.29
242.542	5.41
243.013	3.31
243.483	6.51
243.953	4.91
244.423	-3.09
244.893	-5.89
245.363	2.01
245.833	-0.39
246.303	-0.39
246.773	4.61
247.243	-0.89
247.712	-1.49
248.182	0.11
248.652	2.91
249.122	-3.99
249.592	15.71
250.061	20.71
250.531	31.51
251.001	15.01
251.471	20.51
251.94	20.91
252.41	8.41
252.879	-2.99
253.349	7.31
253.818	8.51
254.288	5.91
254.757	2.81
255.227	1.91
255.696	3.71
256.166	3.21
256.635	15.41
257.105	6.31
257.574	7.71
258.043	14.71
258.513	12.31
258.982	16.91
259.451	9.11
259.92	9.91
260.389	14.31
260.859	15.11
261.328	6.81
261.797	20.31
262.266	13.31
262.735	10.41
263.204	6.71
263.673	-2.19
264.142	7.11
264.611	0.21
265.08	-0.69
265.549	2.41
266.018	8.91
266.487	-1.29
266.955	-1.79
267.424	0.61
267.893	7.31
268.362	-1.29
268.83	5.91
269.299	6.01
269.768	5.71
270.236	2.01
270.705	0.81
271.174	7.81
271.642	1.31
272.111	10.31
272.579	17.51
273.048	23.21
273.516	28.21
273.985	29.21
274.453	28.91
274.922	17.91
275.39	7.51
275.858	3.11
276.327	12.51
276.795	17.31
277.263	13.11
277.731	31.81
278.2	57.31
278.668	60.81
279.136	54.71
279.604	17.81
280.072	14.01
280.54	8.71
281.008	10.71
281.477	19.51
281.945	14.41
282.413	16.41
282.881	17.31
283.348	7.81
283.816	15.91
284.284	15.41
284.752	18.21
285.22	16.81
285.688	17.21
286.156	18.81
286.623	47.81
287.091	52.21
287.559	30.61
288.026	20.01
288.494	16.71
288.962	11.51
289.429	12.11
289.897	22.11
290.364	15.81
290.832	16.21
291.3	16.31
291.767	22.61
292.234	22.31
292.702	14.01
293.169	20.31
293.637	21.11
294.104	24.91
294.571	10.41
295.039	19.41
295.506	8.21
295.973	21.51
296.44	17.91
296.908	14.01
297.375	26.81
297.842	26.31
298.309	22.81
298.776	11.21
299.243	22.01
299.71	18.31
300.177	25.61
300.644	25.21
301.111	29.41
301.578	22.91
302.045	18.71
302.512	29.51
302.979	28.41
303.446	31.11
303.913	15.91
304.379	24.11
304.846	34.31
305.313	25.41
305.78	25.41
306.246	29.71
306.713	30.51
307.18	24.51
307.646	29.11
308.113	25.71
308.579	26.41
309.046	24.91
309.512	25.91
309.979	25.61
310.445	28.01
310.912	30.51
311.378	42.51
311.845	35.61
312.311	27.01
312.777	41.41
313.244	38.81
313.71	32.61
314.176	32.81
314.642	29.11
315.109	34.01
315.575	36.01
316.041	35.91
316.507	27.81
316.973	41.61
317.439	33.31
317.905	39.61
318.371	34.51
318.837	38.51
319.303	40.51
319.769	37.11
320.235	44.01
320.701	30.01
321.167	39.31
321.633	35.31
322.099	45.51
322.564	40.31
323.03	39.91
323.496	36.01
323.962	39.61
324.427	36.81
324.893	42.61
325.359	35.01
325.824	38.51
326.29	38.21
326.755	36.81
327.221	42.71
327.686	47.71
328.152	48.61
328.617	44.61
329.083	47.81
329.548	53.61
330.014	55.01
330.479	47.31
330.944	49.71
331.41	48.91
331.875	47.11
332.34	45.41
332.805	45.01
333.271	52.41
333.736	52.41
334.201	56.41
334.666	56.01
335.131	53.11
335.596	51.01
336.061	51.91
336.526	51.81
336.991	47.61
337.456	56.31
337.921	56.01
338.386	37.91
338.851	43.01
339.316	46.81
339.781	46.61
340.246	52.91
340.711	48.51
341.175	51.01
341.64	43.11
342.105	51.31
342.569	59.71
343.034	60.01
343.499	55.41
343.963	58.71
344.428	66.11
344.893	59.81
345.357	64.11
345.822	64.21
346.286	73.41
346.751	73.21
347.215	65.31
347.679	75.31
348.144	102.51
348.608	91.91
349.073	77.61
349.537	75.81
350.001	80.01
350.465	97.41
350.93	83.61
351.394	85.61
351.858	77.31
352.322	97.81
352.786	86.61
353.25	103.51
353.715	113.71
354.179	100.11
354.643	124.61
355.107	129.61
355.571	106.01
356.035	105.11
356.498	123.41
356.962	126.01
357.426	133.31
357.89	122.61
358.354	89.51
358.818	88.91
359.281	77.51
359.745	77.41
360.209	80.91
360.673	76.81
361.136	86.11
361.6	84.51
362.064	81.71
362.527	83.91
362.991	94.21
363.454	77.01
363.918	75.71
364.381	79.91
364.845	84.81
365.308	92.11
365.772	89.21
366.235	85.91
366.698	83.51
367.162	86.21
367.625	84.41
368.088	88.61
368.552	88.31
369.015	89.51
369.478	96.91
369.941	104.61
370.404	91.61
370.867	104.71
371.331	110.91
371.794	123.01
372.257	117.41
372.72	117.61
373.183	117.01
373.646	99.81
374.109	105.51
374.572	110.71
375.035	106.41
375.497	111.51
375.96	107.41
376.423	102.31
376.886	111.31
377.349	116.31
377.811	106.31
378.274	112.91
378.737	108.61
379.199	106.51
379.662	105.81
380.125	118.91
380.587	120.11
381.05	118.41
381.512	127.91
381.975	139.31
382.437	129.81
382.9	127.71
383.362	136.71
383.825	141.11
384.287	145.21
384.75	138.61
385.212	138.81
385.674	146.31
386.136	142.71
386.599	130.81
387.061	131.31
387.523	126.01
387.985	133.21
388.447	153.51
388.91	137.41
389.372	155.81
389.834	155.71
390.296	148.11
390.758	151.71
391.22	164.01
391.682	213.11
392.144	285.81
392.606	228.51
393.068	166.01
393.529	169.11
393.991	157.81
394.453	150.31
394.915	153.41
395.377	192.51
395.838	214.61
396.3	159.51
396.762	147.11
397.224	135.41
397.685	134.51
398.147	137.01
398.608	125.31
399.07	127.81
399.531	144.31
399.993	144.81
400.454	151.01
400.916	150.01
401.377	152.21
401.839	149.31
402.3	154.91
402.762	166.31
403.223	181.91
403.684	173.21
404.145	165.21
404.607	161.71
405.068	165.81
405.529	173.21
405.99	190.41
406.451	176.61
406.913	171.51
407.374	167.71
407.835	165.91
408.296	171.31
408.757	175.81
409.218	190.71
409.679	180.21
410.14	179.91
410.601	176.21
411.062	185.31
411.522	191.01
411.983	199.41
412.444	170.71
412.905	182.11
413.366	186.11
413.826	201.81
414.287	222.81
414.748	268.31
415.208	246.31
415.669	211.61
416.13	202.71
416.59	207.71
417.051	213.21
417.511	219.41
417.972	239.51
418.432	248.91
418.893	287.41
419.353	248.31
419.814	198.81
420.274	186.21
420.734	182.21
421.195	205.41
421.655	198.11
422.115	198.01
422.576	197.51
423.036	203.11
423.496	211.61
423.956	219.21
424.416	233.91
424.876	272.21
425.336	267.81
425.797	272.41
426.257	262.31
426.717	241.71
427.177	236.71
427.637	230.51
428.097	245.51
428.556	254.21
429.016	270.01
429.476	260.51
429.936	271.61
430.396	283.01
430.856	296.31
431.315	316.01
431.775	355.01
432.235	389.61
432.694	351.11
433.154	368.91
433.614	397.01
434.073	340.51
434.533	288.51
434.993	279.41
435.452	290.31
435.912	303.91
436.371	293.51
436.83	290.51
437.29	280.91
437.749	254.31
438.209	246.11
438.668	281.01
439.127	293.31
439.587	268.61
440.046	253.01
440.505	264.61
440.964	289.31
441.424	327.01
441.883	313.41
442.342	262.11
442.801	223.41
443.26	226.81
443.719	218.71
444.178	221.51
444.637	209.91
445.096	225.41
445.555	226.61
446.014	234.01
446.473	227.11
446.932	228.21
447.391	226.21
447.849	237.71
448.308	226.11
448.767	218.71
449.226	234.01
449.685	234.91
450.143	257.41
450.602	239.61
451.061	233.71
451.519	238.01
451.978	234.51
452.436	235.21
452.895	246.91
453.353	263.61
453.812	250.31
454.27	241.31
454.729	247.61
455.187	244.31
455.646	253.11
456.104	254.11
456.562	262.71
457.021	270.81
457.479	268.31
457.937	281.71
458.395	262.71
458.854	253.21
459.312	263.11
459.77	282.11
460.228	262.11
460.686	243.21
461.144	251.01
461.602	244.91
462.06	255.51
462.518	260.51
462.976	266.21
463.434	265.41
463.892	274.41
464.35	281.61
464.808	298.01
465.266	280.31
465.724	272.31
466.181	281.21
466.639	277.61
467.097	303.31
467.555	303.51
468.012	308.91
468.47	323.31
468.928	328.61
469.385	347.71
469.843	354.21
470.3	362.61
470.758	369.51
471.215	394.11
471.673	418.81
472.13	414.01
472.588	426.61
473.045	381.51
473.503	389.81
473.96	400.01
474.417	408.41
474.875	442.31
475.332	483.51
475.789	470.81
476.246	479.91
476.704	511.31
477.161	525.51
477.618	540.01
478.075	575.81
478.532	636.81
478.989	704.81
479.446	825.31
479.903	787.01
480.36	823.81
480.817	876.71
481.274	985.11
481.731	1096.21
482.188	1192.21
482.645	1320.31
483.102	1426.11
483.558	1579.21
484.015	1625.21
484.472	1600.91
484.929	1541.11
485.385	1491.91
485.842	1447.01
486.299	1386.81
486.755	1328.21
487.212	1125.51
487.668	944.21
488.125	872.11
488.582	791.51
489.038	761.11
489.494	728.91
489.951	709.11
490.407	684.11
490.864	668.11
491.32	659.91
491.776	661.71
492.233	662.01
492.689	636.31
493.145	616.71
493.602	614.01
494.058	634.51
494.514	639.41
494.97	654.31
495.426	658.21
495.882	631.71
496.338	624.91
496.794	637.11
497.251	637.21
497.707	664.01
498.163	662.21
498.618	663.91
499.074	670.51
499.53	696.41
499.986	702.61
500.442	675.51
500.898	658.01
501.354	641.71
501.809	651.31
502.265	669.91
502.721	685.01
503.177	683.61
503.632	686.11
504.088	691.91
504.543	724.51
504.999	722.31
505.455	682.61
505.91	643.41
506.366	648.91
506.821	645.31
507.277	642.41
507.732	639.21
508.187	633.81
508.643	655.41
509.098	650.81
509.553	664.51
510.009	677.61
510.464	689.11
510.919	706.21
511.375	713.11
511.83	732.21
512.285	749.71
512.74	784.51
513.195	807.91
513.65	794.01
514.105	792.01
514.56	799.11
515.015	809.21
515.47	834.61
515.925	813.01
516.38	806.01
516.835	818.41
517.29	810.71
517.745	793.41
518.2	787.71
518.655	775.21
519.109	761.81
519.564	765.71
520.019	758.11
520.474	746.21
520.928	758.71
521.383	743.71
521.838	735.21
522.292	729.61
522.747	728.31
523.201	722.71
523.656	719.51
524.11	712.81
524.565	709.21
525.019	705.51
525.474	723.91
525.928	723.61
526.382	727.01
526.837	725.01
527.291	724.31
527.745	716.21
528.2	723.31
528.654	713.81
529.108	708.41
529.562	709.71
530.016	703.51
530.47	702.61
530.925	706.41
531.379	718.81
531.833	714.71
532.287	715.81
532.741	723.41
533.195	733.71
533.649	737.81
534.103	739.11
534.556	727.71
535.01	735.51
535.464	724.01
535.918	747.91
536.372	742.41
536.826	740.81
537.279	725.61
537.733	733.51
538.187	733.91
538.64	731.41
539.094	737.81
539.548	747.41
540.001	747.81
540.455	740.01
540.908	754.31
541.362	753.81
541.815	773.31
542.269	778.91
542.722	774.51
543.175	794.31
543.629	795.51
544.082	799.91
544.536	803.81
544.989	811.11
545.442	814.81
545.895	811.31
546.349	819.61
546.802	812.11
547.255	809.11
547.708	838.01
548.161	834.21
548.614	844.01
549.067	849.01
549.52	843.31
549.973	830.61
550.426	833.71
550.879	806.11
551.332	830.21
551.785	835.71
552.238	824.71
552.691	834.81
553.144	853.11
553.596	870.71
554.049	889.31
554.502	911.71
554.955	934.91
555.407	933.81
555.86	938.71
556.313	916.91
556.765	921.61
557.218	923.11
557.67	903.21
558.123	902.71
558.576	900.61
559.028	902.81
559.48	911.81
559.933	897.81
560.385	852.41
560.838	828.61
561.29	817.61
561.742	807.91
562.195	797.51
562.647	777.71
563.099	794.51
563.551	786.11
564.004	798.81
564.456	789.21
564.908	781.81
565.36	771.81
565.812	755.51
566.264	747.51
566.716	740.11
567.168	728.91
567.62	739.91
568.072	728.01
568.524	706.91
568.976	708.61
569.428	698.61
569.88	690.71
570.332	701.21
570.784	706.11
571.235	702.81
571.687	714.11
572.139	718.51
572.59	727.11
573.042	733.81
573.494	735.81
573.945	711.81
574.397	713.41
574.849	706.01
575.3	719.21
575.752	690.91
576.203	691.61
576.655	695.11
577.106	690.51
577.557	680.01
578.009	693.01
578.46	684.01
578.912	671.91
579.363	677.31
579.814	690.61
580.265	683.91
580.717	689.21
581.168	681.11
581.619	698.71
582.07	697.91
582.521	685.91
582.972	684.61
583.423	697.81
583.875	701.51
584.326	717.81
584.777	755.01
585.227	835.81
585.678	900.41
586.129	1001.71
586.58	1060.51
587.031	1141.81
587.482	1284.21
587.933	1450.81
588.384	1274.21
588.834	964.01
589.285	810.41
589.736	803.11
590.186	782.01
590.637	786.41
591.088	765.51
591.538	751.71
591.989	743.91
592.439	733.01
592.89	729.51
593.34	729.11
593.791	726.61
594.241	716.91
594.692	721.11
595.142	708.91
595.593	709.71
596.043	720.71
596.493	730.01
596.943	726.01
597.394	731.01
597.844	729.41
598.294	741.11
598.744	764.31
599.195	787.71
599.645	833.01
600.095	877.11
600.545	929.31
600.995	983.51
601.445	1044.61
601.895	1110.81
602.345	1153.51
602.795	1128.31
603.245	1094.41
603.695	1031.21
604.145	974.41
604.594	917.21
605.044	878.41
605.494	818.91
605.944	775.51
606.393	759.01
606.843	739.31
607.293	750.71
607.743	746.71
608.192	766.61
608.642	783.21
609.091	772.81
609.541	787.41
609.99	780.81
610.44	774.71
610.889	732.61
611.339	714.01
611.788	703.91
612.238	715.81
612.687	720.21
613.136	726.21
613.586	738.21
614.035	737.71
614.484	765.01
614.933	764.11
615.383	747.31
615.832	741.11
616.281	735.61
616.73	691.51
617.179	671.91
617.628	653.91
618.077	639.71
618.526	632.51
618.975	632.61
619.424	631.41
619.873	621.21
620.322	629.01
620.771	615.31
621.22	603.71
621.669	604.21
622.118	600.11
622.567	599.61
623.015	585.81
623.464	575.01
623.913	570.41
624.361	554.61
624.81	559.11
625.259	565.11
625.707	560.41
626.156	560.01
626.604	575.31
627.053	564.81
627.501	573.71
627.95	568.51
628.398	588.01
628.847	577.11
629.295	573.31
629.744	579.51
630.192	571.81
630.64	572.81
631.089	571.41
631.537	575.21
631.985	590.41
632.433	606.31
632.881	607.91
633.33	646.31
633.778	637.41
634.226	567.11
634.674	576.81
635.122	579.71
635.57	600.11
636.018	622.31
636.466	584.41
636.914	559.41
637.362	568.01
637.81	578.01
638.258	582.71
638.705	586.41
639.153	609.01
639.601	622.81
640.049	644.11
640.497	682.61
640.944	696.61
641.392	653.71
641.84	622.91
642.287	588.71
642.735	574.11
643.182	571.41
643.63	571.31
644.078	577.51
644.525	593.91
644.973	595.81
645.42	608.01
645.867	624.51
646.315	641.91
646.762	659.51
647.21	686.71
647.657	711.81
648.104	747.41
648.551	762.11
648.999	831.81
649.446	918.71
649.893	1011.31
650.34	1160.71
650.787	1381.11
651.234	1705.51
651.682	2230.01
652.129	3039.81
652.576	4346.31
653.023	6471.41
653.47	8844.51
653.917	11094.51
654.363	12816.31
654.81	14194.71
655.257	13506.81
655.704	8859.41
656.151	5260.31
656.598	3417.71
657.044	2404.81
657.491	1857.01
657.938	1494.91
658.385	1247.41
658.831	1074.71
659.278	970.91
659.724	860.51
660.171	797.71
660.618	732.21
661.064	694.31
661.511	687.21
661.957	658.61
662.404	642.41
662.85	654.21
663.296	630.21
663.743	567.01
664.189	546.21
664.635	533.11
665.082	528.71
665.528	526.41
665.974	512.51
666.42	513.11
666.867	513.31
667.313	496.51
667.759	484.61
668.205	475.11
668.651	471.01
669.097	484.31
669.543	492.11
669.989	470.41
670.435	459.21
670.881	453.81
671.327	447.91
671.773	461.11
672.219	486.91
672.665	551.01
673.11	587.21
673.556	632.01
674.002	681.91
674.448	649.31
674.893	552.01
675.339	479.11
675.785	443.01
676.23	419.11
676.676	391.61
677.122	388.31
677.567	380.31
678.013	365.01
678.458	360.91
678.904	363.61
679.349	345.01
679.794	349.11
680.24	343.81
680.685	342.21
681.131	343.01
681.576	349.41
682.021	349.81
682.466	345.51
682.912	351.11
683.357	348.91
683.802	379.51
684.247	402.91
684.692	454.21
685.137	494.31
685.583	539.31
686.028	565.51
686.473	513.31
686.918	446.81
687.363	417.21
687.807	392.51
688.252	361.91
688.697	349.21
689.142	332.81
689.587	336.01
690.032	322.11
690.477	345.61
690.921	354.11
691.366	385.91
691.811	403.81
692.255	432.91
692.7	449.21
693.145	495.31
693.589	682.61
694.034	1104.91
694.478	1516.91
694.923	1731.11
695.367	2263.01
695.812	1199.21
696.256	493.11
696.701	372.71
697.145	338.21
697.59	323.21
698.034	320.01
698.478	322.71
698.922	332.21
699.367	324.21
699.811	339.01
700.255	358.31
700.699	375.61
701.143	420.31
701.588	470.91
702.032	516.81
702.476	511.01
702.92	486.51
703.364	479.01
703.808	626.81
704.252	1007.51
704.696	1436.81
705.14	1672.11
705.584	2129.31
706.027	1066.01
706.471	521.11
706.915	393.21
707.359	342.71
707.803	321.01
708.246	312.01
708.69	309.41
709.134	312.11
709.577	313.51
710.021	308.71
710.465	305.21
710.908	300.51
711.352	293.81
711.795	312.41
712.239	352.21
712.682	385.81
713.126	419.41
713.569	461.81
714.012	371.21
714.456	313.81
714.899	295.41
715.342	276.81
715.786	260.21
716.229	253.91
716.672	259.91
717.115	245.11
717.558	245.81
718.002	252.11
718.445	255.21
718.888	280.81
719.331	286.01
719.774	306.81
720.217	302.21
720.66	279.91
721.103	262.51
721.546	248.41
721.989	239.21
722.432	230.81
722.874	237.21
723.317	229.91
723.76	234.81
724.203	257.41
724.645	312.91
725.088	436.81
725.531	565.11
725.974	643.81
726.416	541.31
726.859	304.71
727.301	241.41
727.744	230.71
728.187	228.51
728.629	231.41
729.071	234.21
729.514	257.71
729.956	269.71
730.399	281.61
730.841	284.01
731.283	270.71
731.726	259.51
732.168	253.11
732.61	268.81
733.053	276.71
733.495	306.31
733.937	347.81
734.379	393.21
734.821	431.61
735.263	527.61
735.705	817.01
736.148	1540.31
736.59	2527.81
737.032	3047.51
737.474	2472.91
737.916	802.51
738.357	421.51
738.799	326.81
739.241	297.71
739.683	283.01
740.125	284.11
740.567	299.91
741.008	309.51
741.45	314.11
741.892	315.51
742.334	342.41
742.775	355.91
743.217	338.91
743.658	268.31
744.1	246.51
744.542	255.41
744.983	305.51
745.425	342.91
745.866	334.11
746.307	282.01
746.749	277.41
747.19	313.41
747.632	444.71
748.073	854.01
748.514	1833.51
748.956	2806.51
749.397	3517.71
749.838	2920.21
750.279	2967.81
750.72	1490.41
751.162	531.01
751.603	317.81
752.044	245.21
752.485	217.81
752.926	204.21
753.367	203.41
753.808	187.81
754.249	187.21
754.69	186.31
755.131	181.31
755.572	174.31
756.013	175.81
756.453	185.31
756.894	191.81
757.335	187.51
757.776	194.41
758.216	196.91
758.657	194.41
759.098	199.01
759.538	222.51
759.979	255.91
760.42	359.31
760.86	682.91
761.301	1757.01
761.741	4331.01
762.182	6404.71
762.622	4511.41
763.063	1290.21
763.503	528.41
763.943	342.81
764.384	327.51
764.824	395.71
765.264	421.81
765.705	296.21
766.145	202.41
766.585	185.61
767.025	178.41
767.465	179.11
767.906	236.71
768.346	298.51
768.786	325.91
769.226	254.21
769.666	310.21
770.106	604.81
770.546	1511.71
770.986	2623.71
771.426	2375.11
771.866	783.21
772.306	330.71
772.745	209.11
773.185	178.11
773.625	169.71
774.065	161.01
774.505	192.41
774.944	282.81
775.384	616.01
775.824	1119.51
776.263	1094.31
776.703	476.71
777.142	210.41
777.582	151.91
778.021	129.61
778.461	139.11
778.9	137.21
779.34	129.31
779.779	124.61
780.219	106.91
780.658	109.01
781.097	109.91
781.537	114.81
781.976	109.21
782.415	104.01
782.855	107.01
783.294	98.91
783.733	102.21
784.172	109.11
784.611	100.21
785.05	106.41
785.489	109.61
785.928	111.91
786.367	122.61
786.806	117.91
787.245	128.01
787.684	126.61
788.123	143.71
788.562	136.61
789.001	122.31
789.44	116.81
789.879	111.81
790.317	116.11
790.756	127.01
791.195	126.91
791.634	145.91
792.072	198.11
792.511	352.01
792.95	970.01
793.388	2109.01
793.827	1943.11
794.265	669.11
794.704	280.31
795.142	187.31
795.581	151.01
796.019	141.81
796.458	124.51
796.896	120.01
797.334	130.01
797.773	147.81
798.211	211.91
798.649	424.41
799.087	987.11
799.526	1574.51
799.964	1976.21
800.402	1993.21
800.84	744.71
801.278	299.01
801.716	181.51
802.154	148.71
802.592	142.71
803.03	141.61
803.468	133.31
803.906	139.41
804.344	148.51
804.782	139.61
805.22	133.71
805.658	125.81
806.096	141.21
806.533	151.01
806.971	171.41
807.409	205.91
807.847	302.11
808.284	632.81
808.722	1810.21
809.16	3261.51
809.597	3044.31
810.035	5299.31
810.472	5758.91
810.91	2073.21
811.347	784.11
811.785	391.21
812.222	251.71
812.66	192.61
813.097	167.91
813.535	140.71
813.972	126.01
814.409	120.21
814.846	101.91
815.284	108.71
815.721	99.71
816.158	108.51
816.595	120.51
817.032	174.21
817.47	189.41
817.907	164.41
818.344	138.31
818.781	111.01
819.218	96.31
819.655	121.01
820.092	183.01
820.529	216.61
820.966	170.41
821.403	131.31
821.839	97.31
822.276	101.01
822.713	123.91
823.15	134.41
823.587	114.71
824.023	140.81
824.46	287.51
824.897	881.41
825.333	1350.61
825.77	586.31
826.206	225.81
826.643	133.81
827.08	96.21
827.516	81.41
827.953	77.41
828.389	72.91
828.825	73.21
829.262	70.41
829.698	62.61
830.135	58.41
830.571	61.51
831.007	56.81
831.443	62.91
831.88	59.61
832.316	63.41
832.752	61.11
833.188	64.51
833.624	60.81
834.06	66.31
834.497	71.01
834.933	69.21
835.369	71.61
835.805	71.31
836.241	73.21
836.677	81.71
837.112	91.31
837.548	95.41
837.984	133.51
838.42	195.31
838.856	480.61
839.292	1475.61
839.727	2276.11
840.163	1066.61
840.599	892.21
841.034	1980.51
841.47	2108.81
841.906	771.91
842.341	334.21
842.777	220.91
843.212	296.71
843.648	293.01
844.083	152.61
844.519	91.41
844.954	70.51
845.39	57.11
845.825	58.11
846.261	54.01
846.696	55.71
847.131	54.11
847.566	61.21
848.002	50.01
848.437	48.41
848.872	59.21
849.307	58.21
849.742	80.91
850.177	170.51
850.613	536.61
851.048	859.01
851.483	377.11
851.918	146.11
852.353	85.71
852.788	62.91
853.223	57.51
853.657	52.21
854.092	53.41
854.527	40.51
854.962	38.01
855.397	45.01
855.832	47.81
856.266	46.11
856.701	42.71
857.136	37.11
857.57	37.21
858.005	43.81
858.44	55.01
858.874	45.01
859.309	51.61
859.743	40.11
860.178	48.11
860.612	45.01
861.047	54.91
861.481	65.11
861.915	73.11
862.35	44.71
862.784	33.71
863.218	35.41
863.653	30.31
864.087	42.31
864.521	52.71
864.955	77.31
865.39	147.21
865.824	176.51
866.258	110.61
866.692	155.01
867.126	164.41
867.56	102.21
867.994	51.61
868.428	38.11
868.862	40.91
869.296	53.01
869.73	55.21
870.164	48.01
870.598	42.41
871.031	38.91
871.465	29.91
871.899	26.41
872.333	25.41
872.766	27.21
873.2	23.61
873.634	27.31
874.067	22.91
874.501	23.41
874.935	31.01
875.368	27.91
875.802	23.51
876.235	26.01
876.669	15.11
877.102	16.61
877.535	27.01
877.969	18.51
878.402	20.91
878.836	21.61
879.269	20.41
879.702	20.31
880.135	17.31
880.569	23.61
881.002	29.71
881.435	17.91
881.868	14.11
882.301	24.21
882.734	13.31
883.167	21.51
883.601	19.41
884.034	22.51
884.467	10.41
884.899	23.01
885.332	16.41
885.765	15.11
886.198	14.81
886.631	14.71
887.064	22.11
887.497	23.71
887.929	20.51
888.362	13.01
888.795	11.61
889.228	17.11
889.66	26.41
890.093	22.71
890.526	17.91
890.958	19.41
891.391	19.21
891.823	21.61
892.256	13.31
892.688	7.41
893.121	17.21
893.553	10.51
893.985	19.31
894.418	16.01
894.85	17.31
895.282	18.41
895.715	16.11
896.147	14.71
896.579	16.51
897.011	15.11
897.444	10.01
897.876	11.31
898.308	15.41
898.74	10.81
899.172	10.21
899.604	19.81
900.036	17.61
900.468	15.71
900.9	13.71
901.332	16.71
901.764	11.51
902.196	20.81
902.628	18.51
903.06	19.11
903.491	29.31
903.923	24.81
904.355	21.31
904.787	25.41
905.218	28.61
905.65	21.31
906.082	9.81
906.513	13.51
906.945	16.41
907.376	14.41
907.808	21.61
908.239	14.51
908.671	20.71
909.102	22.31
909.534	23.91
909.965	48.21
910.397	92.31
910.828	310.91
911.259	466.01
911.691	216.81
912.122	99.41
912.553	52.51
912.984	29.51
913.415	25.21
913.847	23.51
914.278	11.91
914.709	14.51
915.14	16.41
915.571	19.91
916.002	8.41
916.433	14.51
916.864	21.41
917.295	11.01
917.726	18.01
918.157	13.41
918.587	26.61
919.018	25.11
919.449	19.71
919.88	22.51
920.311	28.61
920.741	44.01
921.172	160.21
921.603	149.21
922.033	71.41
922.464	41.81
922.895	22.61
923.325	16.81
923.756	15.81
924.186	17.01
924.617	23.31
925.047	39.61
925.478	48.81
925.908	38.31
926.338	25.51
926.769	22.81
927.199	21.91
927.629	10.81
928.06	16.01
928.49	8.51
928.92	16.81
929.35	12.61
929.78	10.61
930.21	6.11
930.641	6.71
931.071	6.81
931.501	5.11
931.931	4.31
932.361	6.21
932.791	-0.59
933.221	3.71
933.651	7.11
934.08	11.41
934.51	31.51
934.94	16.61
935.37	9.81
935.8	5.21
936.229	12.01
936.659	12.01
937.089	-5.29
937.519	12.51
937.948	17.81
938.378	19.91
938.807	7.61
939.237	-0.49
939.666	4.01
940.096	-4.59
940.525	7.01
940.955	3.81
941.384	2.11
941.814	-10.39
942.243	3.31
942.672	2.21
943.102	-6.29
943.531	-4.39
943.96	3.51
944.39	4.21
944.819	-0.59
945.248	2.81
945.677	-3.59
946.106	6.21
946.535	2.71
946.964	-2.79
947.393	0.71
947.822	4.81
948.251	1.21
948.68	-4.99
949.109	5.61
949.538	7.31
949.967	1.21
950.396	1.01
950.825	-1.79
951.254	1.21
951.682	-7.49
952.111	-3.89
952.54	2.91
952.969	-9.89
953.397	-6.29
953.826	5.11
954.254	-0.99
954.683	4.21
955.112	-9.19
955.54	2.01
955.969	-0.19
956.397	-1.89
956.826	-2.29
957.254	5.31
957.682	4.61
958.111	0.71
958.539	-4.69
958.967	3.21
959.396	-0.69
959.824	5.11
960.252	3.21
960.68	-4.99
961.109	-8.09
961.537	-2.19
961.965	-1.09
962.393	-2.19
962.821	-2.99
963.249	0.71
963.677	6.11
964.105	1.91
964.533	46.41
964.961	42.91
965.389	18.31
965.817	7.91
966.245	4.81
966.672	0.71
967.1	-4.69
967.528	-1.09
967.956	-6.69
968.383	6.01
968.811	-5.99
969.239	-4.29
969.666	-6.59
970.094	1.61
970.522	-0.89
970.949	-0.89
971.377	-7.29
971.804	-0.39
972.232	-3.99
972.659	-2.09
973.087	-3.59
973.514	-5.99
973.941	-6.79
974.369	3.81
974.796	0.61
975.223	-1.39
975.651	-9.29
976.078	-0.89
976.505	3.21
976.932	4.61
977.359	10.31
977.786	12.41
978.214	-1.29
978.641	-1.89
979.068	6.31
979.495	-4.19
979.922	-0.49
980.349	-10.39
980.776	6.51
981.202	-4.59
981.629	7.01
982.056	3.91
982.483	0.91
982.91	3.91
983.337	-5.99
983.763	-1.29
984.19	-3.69
984.617	-1.69
985.043	-6.39
985.47	-3.59
985.897	-6.99
986.323	-5.59
986.75	3.01
987.176	-0.69
987.603	-4.59
988.029	-1.69
988.456	0.81
988.882	2.01
989.308	-8.39
989.735	-5.79
990.161	-6.39
990.587	-13.79
991.014	-9.59
991.44	10.71
991.866	-2.89
992.292	-3.99
992.719	-0.29
993.145	7.71
993.571	-11.39
993.997	-4.19
994.423	-10.39
994.849	-6.99
995.275	-1.09
995.701	-3.39
996.127	-2.69
996.553	-1.99
996.979	-4.49
997.405	-4.89
997.83	-1.09
998.256	-9.69
998.682	-3.99
999.108	-6.79
999.534	-2.29
999.959	-2.19
1000.385	-6.19
1000.811	3.61
1001.236	-9.79
1001.662	-12.39
1002.087	-6.79
1002.513	1.01
1002.938	1.41
1003.364	-1.19
1003.789	-0.89
1004.215	-1.19
1004.64	4.01
1005.066	3.41
1005.491	0.31
1005.916	-2.79
1006.342	-0.09
1006.767	-4.49
1007.192	2.21
1007.617	-6.99
1008.042	-2.89
1008.468	-7.09
1008.893	-10.69
1009.318	0.01
1009.743	-2.99
1010.168	0.41
1010.593	-0.99
1011.018	-8.09
1011.443	-2.39
1011.868	-1.99
1012.293	-5.49
1012.718	-7.39
1013.143	3.91
1013.567	-1.19
1013.992	-2.79
1014.417	-17.89
1014.842	-2.39
1015.267	-4.29
1015.691	-3.59
1016.116	3.91
1016.541	-3.79
1016.965	3.01
1017.39	3.81
1017.814	-6.19
1018.239	0.21
1018.663	-9.09
1019.088	-14.39
1019.512	-4.19
1019.937	-0.39
1020.361	-2.99
1020.785	-9.09
1021.21	-8.69
1021.634	-0.49
1022.058	-3.69
1022.483	0.61
1022.907	0.41
1023.331	-5.89
1023.755	-4.59
1024.179	-3.59
1024.604	-7.09
1025.028	-3.99
1025.452	-3.29
1025.876	-0.69
1026.3	-1.39
1026.724	-8.19
1027.148	-8.19
1027.572	-11.29
1027.996	-1.89
1028.42	1.61
1028.843	-5.09
1029.267	-6.89
1029.691	-5.89
1030.115	-4.29
1030.539	-9.69
1030.962	-9.59
1031.386	-12.69
1031.81	-2.19
1032.233	-0.09
1032.657	-7.59
1033.08	-1.89
1033.504	-6.79
1033.927	-9.79
1034.351	-5.29
1034.774	-1.89
1035.198	1.81
1035.621	-2.79
1036.045	-6.79
1036.468	-0.89
1036.891	-9.09
1037.315	-11.79
1037.738	-9.49
1038.161	-4.79
1038.584	-2.39
1039.008	-7.09
1039.431	-7.19
1039.854	-0.69
1040.277	-5.09
1040.7	-7.69
1041.123	-0.79
1041.546	-4.09
1041.969	-4.29
1042.392	-6.39
1042.815	-2.49
1043.238	-0.89
1043.661	0.31
1044.084	-7.59
1044.507	-10.39
1044.93	-8.39
1045.352	-10.49
1045.775	-6.89
1046.198	-2.49
1046.621	-2.89
1047.043	-2.59
1047.466	4.61
1047.889	-1.79
1048.311	-3.49
1048.734	-5.99
1049.156	-1.39
1049.579	-4.59
1050.001	-2.59
1050.424	0.41
1050.846	-5.99
1051.269	-4.69
1051.691	-9.89
1052.113	0.61
1052.536	-5.09
1052.958	2.41
1053.38	-3.09
1053.802	-7.19
1054.225	-2.19
1054.647	-8.49
1055.069	-9.09
1055.491	-0.29
1055.913	-8.89
1056.335	0.31
1056.757	-1.69
1057.179	-5.19
1057.601	-5.19
1058.023	-2.59
1058.445	-4.29
1058.867	-9.89
1059.289	-6.59
1059.711	-4.99
1060.133	-4.09
1060.555	-0.69
1060.976	-9.79
1061.398	-4.49
1061.82	-3.19
1062.241	-6.59
1062.663	-4.89
1063.085	-4.49
1063.506	-1.49
1063.928	-9.59
1064.35	0.01
1064.771	-9.89
1065.193	-0.69
1065.614	-7.49
1066.035	-2.19
1066.457	1.41
1066.878	-3.39
1067.3	-6.99
1067.721	-3.39
1068.142	-5.39
1068.564	-6.09
1068.985	-4.29
1069.406	-6.69
1069.827	-8.39
1070.248	-2.79
1070.67	-13.59
1071.091	-8.79
1071.512	-6.39
1071.933	-3.19
1072.354	-8.29
1072.775	-0.09
1073.196	-12.79
1073.617	-4.89
1074.038	-7.49
1074.459	-1.39
1074.88	-7.49
1075.3	0.01
1075.721	-2.29
1076.142	0.61
1076.563	-4.79
1076.983	-9.79
1077.404	-11.49
1077.825	-13.49
1078.246	-9.49
1078.666	-7.39
1079.087	1.91
1079.507	-4.39
1079.928	-4.09
1080.348	-6.99
1080.769	-9.19
1081.189	-7.29
1081.61	0.01
1082.03	-9.79
1082.451	-10.59
1082.871	-13.29
1083.291	-6.49
1083.711	-7.69
1084.132	-5.59
1084.552	-9.79
1084.972	-1.39
1085.392	-7.09
1085.813	-17.99
1086.233	-6.99
1086.653	-7.39
1087.073	-5.59
1087.493	-2.59
1087.913	-7.89
1088.333	-9.19
1088.753	3.31
1089.173	1.81
1089.593	-7.19
1090.013	-1.49
1090.433	-2.69
1090.852	-5.99
1091.272	0.11
1091.692	3.41
1092.112	-5.49
1092.531	-9.29
1092.951	-12.99
1093.371	-3.39
1093.79	3.01
1094.21	-6.39
1094.63	0.51
1095.049	-4.39
1095.469	-7.49
1095.888	-5.19
1096.308	-3.79
1096.727	-0.09
1097.146	-4.69
1097.566	-2.39
1097.985	-4.89
1098.405	-4.89
1098.824	-5.79
1099.243	-3.49
1099.662	-9.99
1100.082	-3.79
1100.501	-2.19
1100.92	-10.39
1101.339	-3.99
1101.758	-7.59
