Data from 20171114-ORNL-Ar_H_NY_Subt18_08-07-19-697.txt Node
Date: Tue Nov 14 08:07:19 EST 2017
User: Ender
Spectrometer: HR+D1039
Trigger mode: 0
Integration Time (sec): 2.730000E-2
Scans to average: 10
Electric dark correction enabled: true
Nonlinearity correction enabled: false
Boxcar width: 0
XAxis mode: Wavelengths
Number of Pixels in Spectrum: 2048
>>>>>Begin Spectral Data<<<<<
187.836	-4.23
188.309	-4.23
188.782	-4.23
189.255	-3.03
189.728	-2.23
190.201	7.67
190.674	6.97
191.147	-1.93
191.619	-5.93
192.092	-2.13
192.565	2.57
193.038	-1.13
193.511	5.77
193.984	2.57
194.456	-0.43
194.929	-1.43
195.402	-2.83
195.874	-0.23
196.347	-3.13
196.82	-7.63
197.292	9.07
197.765	-1.23
198.237	-3.53
198.71	2.67
199.182	0.87
199.655	2.67
200.127	1.07
200.6	-5.33
201.072	0.47
201.544	-2.03
202.017	-1.33
202.489	2.07
202.961	-5.53
203.433	-1.63
203.906	-7.73
204.378	-1.73
204.85	-7.93
205.322	-13.73
205.794	-7.23
206.266	-3.73
206.739	-14.43
207.211	4.37
207.683	-6.53
208.155	-3.33
208.627	-6.93
209.099	-5.53
209.57	-5.33
210.042	-9.03
210.514	-8.73
210.986	-3.83
211.458	-10.63
211.93	-10.43
212.402	3.17
212.873	-4.43
213.345	-10.83
213.817	-14.63
214.288	-2.03
214.76	-4.73
215.232	-0.73
215.703	-3.63
216.175	-10.43
216.646	-7.43
217.118	-10.43
217.589	-9.33
218.061	-4.03
218.532	-2.13
219.004	-7.13
219.475	-5.23
219.946	-4.93
220.418	-2.43
220.889	0.67
221.36	-2.83
221.832	-4.73
222.303	-6.83
222.774	0.27
223.245	-10.23
223.717	-6.53
224.188	-10.83
224.659	-7.53
225.13	-8.03
225.601	-0.43
226.072	-4.33
226.543	-3.93
227.014	4.77
227.485	-2.23
227.956	-6.13
228.427	-6.93
228.898	-2.13
229.369	-1.23
229.839	-2.53
230.31	-9.33
230.781	4.17
231.252	-6.23
231.722	-7.33
232.193	-5.83
232.664	-2.13
233.135	-4.33
233.605	-3.73
234.076	-6.53
234.546	-4.83
235.017	-0.73
235.487	-6.63
235.958	-6.93
236.428	-7.53
236.899	-2.53
237.369	2.87
237.84	-8.63
238.31	-3.53
238.78	-8.13
239.251	-7.63
239.721	-6.43
240.191	0.17
240.662	-4.23
241.132	-0.13
241.602	-4.93
242.072	-0.93
242.542	4.27
243.013	-1.93
243.483	-2.63
243.953	-7.13
244.423	-7.73
244.893	-7.13
245.363	1.87
245.833	-3.13
246.303	-2.53
246.773	3.47
247.243	-2.23
247.712	3.77
248.182	6.37
248.652	0.07
249.122	-14.23
249.592	-0.23
250.061	1.17
250.531	4.57
251.001	-7.33
251.471	5.07
251.94	4.37
252.41	-2.03
252.879	-7.43
253.349	4.07
253.818	4.07
254.288	-4.13
254.757	1.17
255.227	-0.63
255.696	1.77
256.166	-2.33
256.635	-0.73
257.105	0.47
257.574	-0.83
258.043	0.07
258.513	-10.23
258.982	1.87
259.451	-2.03
259.92	-1.33
260.389	-0.73
260.859	3.07
261.328	0.17
261.797	5.67
262.266	-3.73
262.735	6.17
263.204	2.17
263.673	-4.33
264.142	4.57
264.611	-11.63
265.08	-10.73
265.549	-2.43
266.018	-2.83
266.487	-10.23
266.955	-4.33
267.424	3.57
267.893	7.87
268.362	1.87
268.83	4.87
269.299	5.37
269.768	-2.13
270.236	-1.93
270.705	0.97
271.174	1.47
271.642	6.07
272.111	-1.23
272.579	5.37
273.048	-0.03
273.516	1.87
273.985	5.27
274.453	5.37
274.922	5.37
275.39	3.77
275.858	-2.83
276.327	6.77
276.795	11.47
277.263	-3.43
277.731	8.57
278.2	5.27
278.668	-0.03
279.136	4.87
279.604	5.57
280.072	4.07
280.54	7.17
281.008	0.37
281.477	5.17
281.945	5.87
282.413	8.97
282.881	8.47
283.348	-0.03
283.816	7.97
284.284	5.87
284.752	16.47
285.22	9.37
285.688	9.67
286.156	8.37
286.623	11.77
287.091	2.37
287.559	3.37
288.026	5.27
288.494	15.87
288.962	4.47
289.429	3.17
289.897	14.77
290.364	7.47
290.832	13.37
291.3	5.97
291.767	11.37
292.234	12.07
292.702	3.07
293.169	8.97
293.637	14.67
294.104	13.57
294.571	-1.63
295.039	7.87
295.506	6.27
295.973	13.27
296.44	11.27
296.908	7.07
297.375	1.07
297.842	12.17
298.309	4.27
298.776	9.67
299.243	10.97
299.71	4.17
300.177	16.37
300.644	6.67
301.111	10.97
301.578	13.57
302.045	9.87
302.512	16.07
302.979	8.97
303.446	17.27
303.913	9.17
304.379	17.97
304.846	15.57
305.313	20.57
305.78	15.47
306.246	15.27
306.713	20.47
307.18	11.77
307.646	19.37
308.113	12.97
308.579	15.17
309.046	15.87
309.512	21.47
309.979	12.17
310.445	20.27
310.912	20.27
311.378	23.17
311.845	20.67
312.311	24.97
312.777	23.67
313.244	26.57
313.71	28.47
314.176	23.47
314.642	20.67
315.109	16.57
315.575	22.17
316.041	32.77
316.507	21.27
316.973	24.47
317.439	23.37
317.905	24.87
318.371	26.97
318.837	28.57
319.303	23.57
319.769	21.47
320.235	23.57
320.701	23.97
321.167	28.97
321.633	18.37
322.099	28.77
322.564	26.37
323.03	29.37
323.496	24.07
323.962	28.67
324.427	23.87
324.893	27.77
325.359	28.07
325.824	25.67
326.29	31.97
326.755	31.17
327.221	32.77
327.686	26.07
328.152	38.57
328.617	32.77
329.083	37.87
329.548	46.07
330.014	34.07
330.479	33.97
330.944	32.57
331.41	37.77
331.875	39.17
332.34	37.57
332.805	26.97
333.271	41.67
333.736	32.67
334.201	45.17
334.666	41.07
335.131	44.57
335.596	35.67
336.061	38.97
336.526	34.77
336.991	33.77
337.456	47.87
337.921	45.97
338.386	31.57
338.851	43.47
339.316	42.67
339.781	37.17
340.246	45.47
340.711	35.37
341.175	42.67
341.64	38.07
342.105	48.07
342.569	48.57
343.034	45.87
343.499	48.47
343.963	44.07
344.428	56.47
344.893	49.67
345.357	50.37
345.822	53.77
346.286	53.37
346.751	57.37
347.215	52.67
347.679	59.57
348.144	76.57
348.608	67.27
349.073	60.87
349.537	63.77
350.001	64.77
350.465	73.17
350.93	62.67
351.394	68.47
351.858	62.37
352.322	72.87
352.786	71.27
353.25	86.17
353.715	92.07
354.179	88.67
354.643	103.27
355.107	101.17
355.571	88.97
356.035	81.07
356.498	95.87
356.962	92.07
357.426	99.37
357.89	94.87
358.354	74.67
358.818	74.57
359.281	72.87
359.745	67.27
360.209	65.07
360.673	68.97
361.136	70.37
361.6	72.97
362.064	71.47
362.527	79.87
362.991	75.77
363.454	67.67
363.918	65.17
364.381	70.37
364.845	79.37
365.308	76.97
365.772	84.87
366.235	73.37
366.698	75.57
367.162	82.47
367.625	79.17
368.088	89.17
368.552	84.17
369.015	76.67
369.478	77.87
369.941	87.17
370.404	81.47
370.867	87.57
371.331	93.67
371.794	103.27
372.257	88.97
372.72	90.07
373.183	99.77
373.646	91.07
374.109	84.67
374.572	87.87
375.035	85.77
375.497	91.57
375.96	105.27
376.423	93.97
376.886	103.47
377.349	102.87
377.811	95.07
378.274	93.87
378.737	95.27
379.199	106.17
379.662	103.27
380.125	100.27
380.587	97.27
381.05	105.07
381.512	108.77
381.975	120.97
382.437	112.27
382.9	108.07
383.362	112.77
383.825	116.07
384.287	121.77
384.75	111.67
385.212	114.27
385.674	126.77
386.136	128.47
386.599	112.27
387.061	122.17
387.523	115.67
387.985	116.97
388.447	130.17
388.91	119.47
389.372	122.87
389.834	124.37
390.296	118.67
390.758	128.57
391.22	132.87
391.682	135.57
392.144	149.17
392.606	138.27
393.068	134.57
393.529	146.67
393.991	137.07
394.453	132.27
394.915	133.27
395.377	130.87
395.838	132.57
396.3	136.67
396.762	133.47
397.224	130.07
397.685	128.27
398.147	128.67
398.608	129.27
399.07	126.27
399.531	133.17
399.993	139.57
400.454	154.67
400.916	147.77
401.377	144.67
401.839	151.67
402.3	154.67
402.762	163.17
403.223	168.77
403.684	162.77
404.145	163.47
404.607	165.17
405.068	162.77
405.529	167.77
405.99	184.27
406.451	173.57
406.913	168.37
407.374	163.77
407.835	159.67
408.296	167.07
408.757	168.77
409.218	175.87
409.679	171.87
410.14	170.47
410.601	174.77
411.062	180.07
411.522	176.27
411.983	172.87
412.444	174.87
412.905	176.97
413.366	185.27
413.826	205.47
414.287	220.37
414.748	268.87
415.208	258.17
415.669	213.67
416.13	206.47
416.59	204.97
417.051	215.87
417.511	224.77
417.972	248.97
418.432	254.37
418.893	295.57
419.353	256.37
419.814	203.57
420.274	192.27
420.734	185.27
421.195	199.27
421.655	200.27
422.115	203.27
422.576	208.17
423.036	209.47
423.496	215.57
423.956	229.17
424.416	240.57
424.876	277.27
425.336	265.97
425.797	268.87
426.257	265.47
426.717	240.77
427.177	236.77
427.637	219.87
428.097	243.47
428.556	249.07
429.016	275.37
429.476	265.07
429.936	271.77
430.396	270.07
430.856	294.07
431.315	311.27
431.775	346.87
432.235	382.47
432.694	352.67
433.154	364.37
433.614	381.57
434.073	328.17
434.533	286.17
434.993	269.37
435.452	280.67
435.912	298.67
436.371	287.97
436.83	280.57
437.29	274.37
437.749	252.87
438.209	253.87
438.668	273.17
439.127	281.07
439.587	260.87
440.046	251.07
440.505	260.77
440.964	280.37
441.424	327.37
441.883	309.37
442.342	263.57
442.801	234.57
443.26	240.07
443.719	233.27
444.178	235.77
444.637	223.47
445.096	238.07
445.555	234.37
446.014	238.07
446.473	234.17
446.932	254.57
447.391	239.57
447.849	239.17
448.308	232.37
448.767	233.87
449.226	250.97
449.685	249.97
450.143	263.67
450.602	255.57
451.061	243.27
451.519	248.37
451.978	248.37
452.436	241.67
452.895	254.97
453.353	265.57
453.812	251.67
454.27	252.57
454.729	253.77
455.187	246.37
455.646	255.17
456.104	258.07
456.562	278.57
457.021	284.57
457.479	266.77
457.937	283.77
458.395	279.57
458.854	256.97
459.312	266.07
459.77	285.27
460.228	275.77
460.686	263.27
461.144	271.77
461.602	261.97
462.06	261.87
462.518	266.57
462.976	276.07
463.434	272.27
463.892	274.77
464.35	291.67
464.808	302.77
465.266	283.17
465.724	286.37
466.181	295.87
466.639	285.87
467.097	306.57
467.555	318.57
468.012	318.07
468.47	333.37
468.928	347.87
469.385	360.07
469.843	371.77
470.3	366.07
470.758	384.57
471.215	399.07
471.673	424.77
472.13	418.77
472.588	438.07
473.045	402.07
473.503	392.07
473.96	416.37
474.417	431.77
474.875	450.77
475.332	495.57
475.789	483.77
476.246	488.27
476.704	511.57
477.161	529.57
477.618	538.77
478.075	575.57
478.532	630.87
478.989	709.87
479.446	814.17
479.903	780.47
480.36	820.87
480.817	867.17
481.274	948.57
481.731	1052.77
482.188	1133.07
482.645	1243.57
483.102	1334.17
483.558	1464.37
484.015	1498.47
484.472	1479.57
484.929	1443.27
485.385	1388.37
485.842	1357.37
486.299	1311.27
486.755	1266.77
487.212	1080.77
487.668	937.17
488.125	855.97
488.582	797.77
489.038	769.17
489.494	729.27
489.951	695.97
490.407	692.27
490.864	666.67
491.32	670.27
491.776	674.17
492.233	683.97
492.689	639.27
493.145	637.17
493.602	637.57
494.058	646.57
494.514	647.17
494.97	666.17
495.426	678.17
495.882	654.27
496.338	638.57
496.794	648.47
497.251	653.57
497.707	658.47
498.163	660.47
498.618	666.07
499.074	671.07
499.53	698.37
499.986	686.97
500.442	677.47
500.898	655.37
501.354	647.87
501.809	651.37
502.265	660.37
502.721	664.47
503.177	669.47
503.632	670.07
504.088	680.17
504.543	698.47
504.999	725.47
505.455	676.87
505.91	667.77
506.366	671.47
506.821	681.17
507.277	664.17
507.732	671.57
508.187	668.97
508.643	669.57
509.098	672.17
509.553	696.57
510.009	710.27
510.464	710.77
510.919	735.47
511.375	741.37
511.83	750.97
512.285	760.07
512.74	803.27
513.195	823.57
513.65	813.97
514.105	806.77
514.56	812.27
515.015	829.97
515.47	835.17
515.925	818.57
516.38	817.07
516.835	847.47
517.29	821.27
517.745	823.37
518.2	802.67
518.655	792.47
519.109	800.97
519.564	784.57
520.019	776.07
520.474	768.17
520.928	761.57
521.383	753.27
521.838	744.97
522.292	757.17
522.747	749.57
523.201	744.07
523.656	736.07
524.11	744.67
524.565	743.07
525.019	737.37
525.474	734.47
525.928	731.47
526.382	736.27
526.837	732.47
527.291	745.57
527.745	736.27
528.2	751.27
528.654	741.87
529.108	731.67
529.562	721.67
530.016	728.57
530.47	732.97
530.925	732.67
531.379	722.37
531.833	749.07
532.287	738.27
532.741	734.27
533.195	745.27
533.649	742.47
534.103	755.97
534.556	744.27
535.01	747.27
535.464	741.77
535.918	760.57
536.372	760.17
536.826	756.37
537.279	744.87
537.733	742.77
538.187	748.47
538.64	755.47
539.094	765.17
539.548	765.27
540.001	762.27
540.455	759.97
540.908	763.77
541.362	770.37
541.815	779.87
542.269	801.67
542.722	795.87
543.175	819.27
543.629	814.77
544.082	833.97
544.536	839.77
544.989	833.57
545.442	843.87
545.895	834.17
546.349	839.37
546.802	837.67
547.255	839.37
547.708	856.47
548.161	864.27
548.614	864.57
549.067	874.07
549.52	860.07
549.973	855.07
550.426	844.27
550.879	838.47
551.332	843.37
551.785	858.27
552.238	861.37
552.691	862.17
553.144	886.37
553.596	907.27
554.049	918.57
554.502	944.97
554.955	954.47
555.407	967.07
555.86	947.07
556.313	946.67
556.765	935.97
557.218	927.47
557.67	915.07
558.123	935.27
558.576	928.07
559.028	930.47
559.48	932.87
559.933	925.77
560.385	890.27
560.838	856.57
561.29	844.67
561.742	837.57
562.195	812.57
562.647	816.57
563.099	817.37
563.551	824.07
564.004	827.37
564.456	820.47
564.908	803.27
565.36	784.87
565.812	767.37
566.264	763.47
566.716	752.67
567.168	749.97
567.62	748.17
568.072	740.07
568.524	734.67
568.976	733.87
569.428	714.07
569.88	711.27
570.332	719.67
570.784	726.37
571.235	720.07
571.687	736.37
572.139	749.67
572.59	747.97
573.042	742.17
573.494	762.07
573.945	749.67
574.397	724.47
574.849	730.87
575.3	728.17
575.752	715.47
576.203	719.47
576.655	720.57
577.106	715.87
577.557	695.67
578.009	711.27
578.46	700.17
578.912	694.27
579.363	696.67
579.814	696.57
580.265	702.87
580.717	697.07
581.168	701.77
581.619	704.47
582.07	713.77
582.521	709.27
582.972	700.07
583.423	707.77
583.875	706.07
584.326	718.57
584.777	731.87
585.227	757.97
585.678	754.37
586.129	777.07
586.58	801.97
587.031	825.07
587.482	843.87
587.933	879.37
588.384	857.57
588.834	823.97
589.285	811.57
589.736	807.67
590.186	810.07
590.637	805.37
591.088	782.37
591.538	777.87
591.989	770.57
592.439	767.67
592.89	749.27
593.34	743.87
593.791	743.57
594.241	736.47
594.692	732.97
595.142	719.27
595.593	736.87
596.043	736.87
596.493	745.07
596.943	739.17
597.394	752.57
597.844	753.87
598.294	771.67
598.744	797.57
599.195	821.77
599.645	877.47
600.095	903.87
600.545	952.07
600.995	1014.17
601.445	1064.07
601.895	1139.27
602.345	1186.67
602.795	1177.07
603.245	1120.77
603.695	1062.47
604.145	1006.47
604.594	960.17
605.044	902.97
605.494	838.37
605.944	787.17
606.393	771.37
606.843	761.37
607.293	763.17
607.743	761.77
608.192	768.07
608.642	794.77
609.091	788.57
609.541	796.07
609.99	790.87
610.44	793.07
610.889	743.47
611.339	720.17
611.788	706.37
612.238	710.17
612.687	726.47
613.136	725.77
613.586	740.17
614.035	722.07
614.484	749.37
614.933	738.87
615.383	741.97
615.832	736.97
616.281	733.77
616.73	697.87
617.179	680.57
617.628	668.07
618.077	657.07
618.526	645.07
618.975	641.77
619.424	641.47
619.873	640.47
620.322	639.57
620.771	631.67
621.22	632.07
621.669	615.67
622.118	607.27
622.567	607.67
623.015	585.17
623.464	589.07
623.913	583.07
624.361	574.17
624.81	574.57
625.259	574.67
625.707	585.37
626.156	585.47
626.604	590.87
627.053	589.47
627.501	585.67
627.95	595.07
628.398	609.17
628.847	596.37
629.295	593.47
629.744	601.77
630.192	595.97
630.64	583.97
631.089	570.37
631.537	565.67
631.985	555.67
632.433	553.77
632.881	549.07
633.33	555.97
633.778	545.87
634.226	539.97
634.674	564.57
635.122	559.17
635.57	567.27
636.018	582.57
636.466	581.57
636.914	573.27
637.362	589.47
637.81	600.17
638.258	600.67
638.705	599.27
639.153	641.17
639.601	645.77
640.049	661.97
640.497	694.37
640.944	724.77
641.392	671.07
641.84	635.97
642.287	607.27
642.735	585.07
643.182	585.67
643.63	582.17
644.078	582.57
644.525	592.47
644.973	604.17
645.42	611.17
645.867	631.27
646.315	649.67
646.762	675.07
647.21	694.87
647.657	721.77
648.104	766.97
648.551	776.07
648.999	842.97
649.446	913.77
649.893	993.57
650.34	1138.07
650.787	1342.37
651.234	1649.17
651.682	2140.07
652.129	2918.17
652.576	4098.27
653.023	6019.87
653.47	8126.67
653.917	10124.17
654.363	11627.87
654.81	12841.87
655.257	12145.27
655.704	8034.77
656.151	4840.57
656.598	3183.17
657.044	2284.57
657.491	1762.57
657.938	1416.57
658.385	1197.17
658.831	1054.27
659.278	953.17
659.724	848.87
660.171	785.77
660.618	731.27
661.064	698.67
661.511	672.77
661.957	665.17
662.404	648.47
662.85	664.97
663.296	633.37
663.743	584.27
664.189	558.47
664.635	540.17
665.082	546.27
665.528	549.47
665.974	531.67
666.42	526.57
666.867	522.27
667.313	502.77
667.759	487.97
668.205	470.27
668.651	464.37
669.097	471.17
669.543	455.27
669.989	461.17
670.435	462.37
670.881	460.97
671.327	467.17
671.773	488.17
672.219	509.77
672.665	567.47
673.11	603.67
673.556	656.47
674.002	710.67
674.448	682.17
674.893	572.17
675.339	495.57
675.785	466.97
676.23	443.07
676.676	407.47
677.122	394.67
677.567	383.27
678.013	378.87
678.458	374.37
678.904	371.57
679.349	368.37
679.794	372.67
680.24	366.57
680.685	368.47
681.131	370.17
681.576	371.57
682.021	365.07
682.466	360.57
682.912	351.87
683.357	361.47
683.802	398.57
684.247	434.27
684.692	476.47
685.137	522.97
685.583	569.97
686.028	592.97
686.473	547.17
686.918	474.37
687.363	441.27
687.807	412.57
688.252	382.27
688.697	365.77
689.142	352.77
689.587	347.97
690.032	341.07
690.477	362.47
690.921	367.57
691.366	399.77
691.811	418.87
692.255	446.07
692.7	483.47
693.145	528.57
693.589	742.57
694.034	1206.37
694.478	1636.17
694.923	1838.07
695.367	2395.27
695.812	1260.37
696.256	524.67
696.701	391.97
697.145	361.27
697.59	339.77
698.034	341.17
698.478	342.67
698.922	334.97
699.367	340.27
699.811	354.77
700.255	361.47
700.699	399.67
701.143	442.77
701.588	500.07
702.032	527.37
702.476	533.67
702.92	518.17
703.364	527.17
703.808	678.97
704.252	1106.47
704.696	1544.77
705.14	1767.27
705.584	2248.17
706.027	1127.77
706.471	549.57
706.915	420.27
707.359	364.07
707.803	336.17
708.246	315.27
708.69	324.97
709.134	327.37
709.577	322.47
710.021	329.07
710.465	316.57
710.908	312.17
711.352	313.97
711.795	325.37
712.239	362.57
712.682	398.07
713.126	429.77
713.569	473.17
714.012	371.87
714.456	317.67
714.899	304.17
715.342	286.37
715.786	265.27
716.229	265.27
716.672	267.97
717.115	266.97
717.558	262.77
718.002	264.57
718.445	279.37
718.888	297.27
719.331	306.87
719.774	320.87
720.217	315.77
720.66	300.27
721.103	277.27
721.546	268.67
721.989	263.37
722.432	239.67
722.874	246.07
723.317	242.37
723.76	249.57
724.203	270.17
724.645	336.17
725.088	467.47
725.531	590.57
725.974	674.07
726.416	577.57
726.859	326.67
727.301	246.67
727.744	246.37
728.187	243.17
728.629	247.57
729.071	249.77
729.514	271.27
729.956	290.37
730.399	300.37
730.841	308.07
731.283	292.67
731.726	277.27
732.168	278.17
732.61	284.67
733.053	296.17
733.495	335.37
733.937	367.67
734.379	420.47
734.821	460.77
735.263	577.17
735.705	902.07
736.148	1693.57
736.59	2757.87
737.032	3220.67
737.474	2615.27
737.916	859.27
738.357	457.27
738.799	346.67
739.241	318.67
739.683	293.27
740.125	314.57
740.567	316.97
741.008	324.77
741.45	332.57
741.892	340.57
742.334	357.97
742.775	380.47
743.217	363.97
743.658	285.17
744.1	268.67
744.542	280.97
744.983	336.97
745.425	362.57
745.866	362.67
746.307	298.87
746.749	294.27
747.19	345.27
747.632	482.07
748.073	953.47
748.514	1996.77
748.956	3032.97
749.397	3796.07
749.838	3158.27
750.279	3135.57
750.72	1599.77
751.162	584.17
751.603	336.77
752.044	266.47
752.485	227.57
752.926	211.37
753.367	212.67
753.808	208.57
754.249	204.27
754.69	193.37
755.131	191.17
755.572	183.67
756.013	192.17
756.453	190.27
756.894	194.07
757.335	198.87
757.776	200.07
758.216	210.67
758.657	208.97
759.098	208.67
759.538	238.87
759.979	290.37
760.42	400.17
760.86	752.87
761.301	1964.97
761.741	4758.57
762.182	6794.17
762.622	4816.87
763.063	1393.77
763.503	562.57
763.943	345.47
764.384	285.37
764.824	259.57
765.264	234.27
765.705	218.07
766.145	191.07
766.585	184.07
767.025	176.97
767.465	165.17
767.906	173.77
768.346	193.47
768.786	205.27
769.226	224.97
769.666	328.07
770.106	667.27
770.546	1667.47
770.986	2810.27
771.426	2491.27
771.866	833.67
772.306	349.57
772.745	220.57
773.185	173.97
773.625	168.47
774.065	150.47
774.505	160.47
774.944	220.97
775.384	374.07
775.824	603.87
776.263	584.57
776.703	281.97
777.142	166.27
777.582	138.27
778.021	126.87
778.461	135.87
778.9	128.27
779.34	131.27
779.779	121.47
780.219	118.77
780.658	111.17
781.097	112.17
781.537	115.77
781.976	108.77
782.415	113.97
782.855	114.77
783.294	104.97
783.733	106.67
784.172	115.37
784.611	103.27
785.05	114.97
785.489	116.57
785.928	125.17
786.367	123.37
786.806	122.17
787.245	131.47
787.684	139.47
788.123	156.57
788.562	138.27
789.001	132.17
789.44	125.67
789.879	120.57
790.317	120.97
790.756	135.97
791.195	127.37
791.634	154.37
792.072	215.67
792.511	396.67
792.95	1075.27
793.388	2243.07
793.827	2002.47
794.265	704.67
794.704	296.77
795.142	187.67
795.581	155.17
796.019	143.57
796.458	133.07
796.896	125.77
797.334	137.77
797.773	164.37
798.211	238.37
798.649	471.27
799.087	1088.07
799.526	1702.67
799.964	2146.47
800.402	2130.37
800.84	808.57
801.278	316.97
801.716	195.77
802.154	162.27
802.592	151.67
803.03	142.77
803.468	140.57
803.906	149.47
804.344	147.77
804.782	144.37
805.22	139.97
805.658	141.37
806.096	150.37
806.533	158.77
806.971	181.77
807.409	235.27
807.847	346.07
808.284	716.87
808.722	2019.17
809.16	3502.87
809.597	3371.27
810.035	5801.37
810.472	6100.77
810.91	2215.47
811.347	865.07
811.785	435.57
812.222	273.97
812.66	205.47
813.097	169.17
813.535	152.97
813.972	142.47
814.409	127.77
814.846	106.77
815.284	116.17
815.721	108.87
816.158	107.37
816.595	118.97
817.032	166.97
817.47	189.77
817.907	124.97
818.344	102.07
818.781	102.97
819.218	98.07
819.655	135.57
820.092	205.17
820.529	226.67
820.966	180.27
821.403	138.37
821.839	107.47
822.276	98.47
822.713	128.27
823.15	142.37
823.587	129.47
824.023	158.27
824.46	323.87
824.897	963.27
825.333	1438.67
825.77	625.57
826.206	247.07
826.643	143.77
827.08	107.27
827.516	86.97
827.953	80.47
828.389	82.17
828.825	66.77
829.262	68.37
829.698	69.47
830.135	63.67
830.571	60.57
831.007	63.17
831.443	67.87
831.88	71.87
832.316	60.67
832.752	68.57
833.188	68.37
833.624	69.17
834.06	74.47
834.497	72.67
834.933	74.57
835.369	77.07
835.805	67.77
836.241	79.17
836.677	81.77
837.112	94.17
837.548	111.97
837.984	149.17
838.42	214.77
838.856	527.87
839.292	1632.67
839.727	2434.97
840.163	1130.17
840.599	994.27
841.034	2157.57
841.47	2250.57
841.906	829.67
842.341	342.07
842.777	204.87
843.212	212.07
843.648	198.07
844.083	115.57
844.519	84.67
844.954	70.17
845.39	57.77
845.825	59.27
846.261	58.87
846.696	55.27
847.131	52.07
847.566	59.17
848.002	51.57
848.437	48.77
848.872	65.27
849.307	67.77
849.742	90.27
850.177	190.87
850.613	601.87
851.048	929.57
851.483	398.77
851.918	163.97
852.353	83.87
852.788	57.37
853.223	59.27
853.657	57.07
854.092	47.87
854.527	45.77
854.962	48.27
855.397	47.97
855.832	53.67
856.266	43.37
856.701	43.87
857.136	43.57
857.57	44.27
858.005	55.37
858.44	57.27
858.874	43.97
859.309	57.27
859.743	39.27
860.178	51.37
860.612	50.67
861.047	51.07
861.481	72.97
861.915	79.67
862.35	54.07
862.784	34.77
863.218	37.87
863.653	37.87
864.087	46.87
864.521	61.37
864.955	72.47
865.39	158.37
865.824	182.67
866.258	120.77
866.692	175.77
867.126	196.87
867.56	110.97
867.994	53.97
868.428	41.27
868.862	52.37
869.296	61.07
869.73	59.87
870.164	58.37
870.598	50.77
871.031	41.07
871.465	29.27
871.899	28.97
872.333	25.17
872.766	24.87
873.2	28.47
873.634	24.57
874.067	22.77
874.501	32.27
874.935	32.57
875.368	31.37
875.802	28.17
876.235	18.27
876.669	20.27
877.102	23.97
877.535	27.07
877.969	23.57
878.402	22.67
878.836	21.97
879.269	19.57
879.702	26.07
880.135	22.97
880.569	24.37
881.002	22.57
881.435	15.37
881.868	18.47
882.301	21.57
882.734	18.47
883.167	24.07
883.601	18.17
884.034	17.97
884.467	14.87
884.899	17.27
885.332	19.27
885.765	17.77
886.198	16.47
886.631	17.27
887.064	19.47
887.497	24.37
887.929	25.27
888.362	17.37
888.795	12.07
889.228	15.77
889.66	26.77
890.093	17.17
890.526	18.37
890.958	14.17
891.391	19.27
891.823	19.07
892.256	17.57
892.688	14.17
893.121	12.67
893.553	13.27
893.985	23.27
894.418	22.47
894.85	11.57
895.282	18.47
895.715	16.47
896.147	13.17
896.579	17.47
897.011	14.47
897.444	19.47
897.876	17.87
898.308	19.87
898.74	4.67
899.172	10.47
899.604	23.37
900.036	19.47
900.468	15.57
900.9	8.07
901.332	16.07
901.764	18.17
902.196	18.17
902.628	19.07
903.06	20.97
903.491	26.17
903.923	23.27
904.355	19.07
904.787	28.57
905.218	23.07
905.65	18.17
906.082	16.97
906.513	14.77
906.945	16.87
907.376	13.37
907.808	24.07
908.239	19.07
908.671	16.67
909.102	24.37
909.534	22.67
909.965	50.47
910.397	99.97
910.828	333.77
911.259	503.97
911.691	224.37
912.122	107.67
912.553	54.77
912.984	28.77
913.415	23.17
913.847	22.57
914.278	12.67
914.709	10.27
915.14	18.17
915.571	17.77
916.002	13.27
916.433	17.37
916.864	18.27
917.295	13.37
917.726	20.97
918.157	14.27
918.587	26.47
919.018	22.57
919.449	23.97
919.88	29.17
920.311	38.97
920.741	54.37
921.172	171.37
921.603	162.97
922.033	74.77
922.464	44.37
922.895	23.77
923.325	18.97
923.756	13.27
924.186	13.87
924.617	12.67
925.047	16.17
925.478	28.77
925.908	20.67
926.338	14.37
926.769	9.77
927.199	22.67
927.629	6.87
928.06	16.27
928.49	14.67
928.92	14.17
929.35	8.97
929.78	9.07
930.21	4.57
930.641	7.97
931.071	10.67
931.501	5.87
931.931	5.77
932.361	6.77
932.791	5.17
933.221	2.77
933.651	4.37
934.08	18.67
934.51	26.97
934.94	12.27
935.37	6.37
935.8	7.07
936.229	10.57
936.659	8.47
937.089	-1.03
937.519	15.27
937.948	24.57
938.378	19.47
938.807	11.27
939.237	2.07
939.666	4.37
940.096	-4.33
940.525	4.77
940.955	3.07
941.384	4.07
941.814	-0.83
942.243	-7.73
942.672	7.07
943.102	-4.33
943.531	0.27
943.96	7.17
944.39	0.37
944.819	0.97
945.248	1.87
945.677	0.77
946.106	0.07
946.535	2.67
946.964	-0.43
947.393	-0.23
947.822	-5.43
948.251	-4.33
948.68	5.27
949.109	1.77
949.538	9.07
949.967	-2.13
950.396	4.17
950.825	-2.13
951.254	2.87
951.682	-7.93
952.111	1.37
952.54	6.97
952.969	-3.53
953.397	-7.63
953.826	1.47
954.254	-4.23
954.683	-2.03
955.112	2.57
955.54	-0.13
955.969	-0.43
956.397	3.97
956.826	-2.03
957.254	4.47
957.682	0.57
958.111	2.67
958.539	-5.23
958.967	1.87
959.396	2.57
959.824	-5.63
960.252	2.87
960.68	-7.03
961.109	-1.93
961.537	-2.93
961.965	3.47
962.393	3.87
962.821	-5.63
963.249	4.07
963.677	5.17
964.105	7.37
964.533	46.27
964.961	42.27
965.389	16.57
965.817	6.87
966.245	2.47
966.672	3.37
967.1	-10.83
967.528	1.17
967.956	-1.93
968.383	1.17
968.811	-5.83
969.239	-3.13
969.666	-1.83
970.094	-0.13
970.522	-0.83
970.949	0.17
971.377	-5.23
971.804	-0.43
972.232	-4.23
972.659	3.17
973.087	-2.83
973.514	-10.83
973.941	-1.43
974.369	4.37
974.796	-0.73
975.223	-3.03
975.651	-4.23
976.078	3.37
976.505	-6.83
976.932	4.27
977.359	12.57
977.786	14.67
978.214	3.07
978.641	-6.53
979.068	-0.73
979.495	-4.73
979.922	1.87
980.349	-5.63
980.776	4.47
981.202	6.17
981.629	5.17
982.056	7.37
982.483	-2.23
982.91	0.07
983.337	-3.03
983.763	5.57
984.19	-8.23
984.617	-1.63
985.043	-8.53
985.47	-6.23
985.897	-6.43
986.323	-13.23
986.75	0.67
987.176	-4.13
987.603	-2.23
988.029	2.37
988.456	-8.13
988.882	-0.73
989.308	-9.13
989.735	-8.03
990.161	1.67
990.587	-6.73
991.014	-3.73
991.44	6.57
991.866	-6.23
992.292	-4.83
992.719	-0.03
993.145	1.17
993.571	-11.43
993.997	-7.43
994.423	-5.83
994.849	-0.83
995.275	1.47
995.701	-2.73
996.127	-2.13
996.553	0.47
996.979	-9.63
997.405	-5.23
997.83	-5.23
998.256	-1.83
998.682	-3.93
999.108	-7.43
999.534	-0.93
999.959	-9.23
1000.385	-4.33
1000.811	-2.53
1001.236	-2.53
1001.662	-11.23
1002.087	-6.33
1002.513	-2.73
1002.938	1.47
1003.364	-3.73
1003.789	-3.63
1004.215	2.57
1004.64	-6.63
1005.066	-0.23
1005.491	1.07
1005.916	-0.53
1006.342	-2.33
1006.767	-6.13
1007.192	3.07
1007.617	-4.63
1008.042	-3.23
1008.468	-9.63
1008.893	-5.43
1009.318	-4.63
1009.743	-5.33
1010.168	0.07
1010.593	-3.13
1011.018	-7.83
1011.443	0.17
1011.868	-2.53
1012.293	-1.83
1012.718	-4.33
1013.143	0.77
1013.567	-4.43
1013.992	-4.63
1014.417	-10.73
1014.842	6.67
1015.267	-1.73
1015.691	-8.73
1016.116	6.47
1016.541	-4.83
1016.965	0.27
1017.39	4.77
1017.814	-9.13
1018.239	-5.13
1018.663	-4.63
1019.088	-9.13
1019.512	-3.23
1019.937	-7.03
1020.361	-7.93
1020.785	-9.93
1021.21	-2.73
1021.634	-7.73
1022.058	1.87
1022.483	2.07
1022.907	-1.43
1023.331	-2.23
1023.755	-4.63
1024.179	-7.43
1024.604	-8.33
1025.028	0.57
1025.452	-9.93
1025.876	-2.73
1026.3	-3.03
1026.724	-7.53
1027.148	-9.93
1027.572	-5.23
1027.996	-7.13
1028.42	-7.53
1028.843	-2.73
1029.267	-6.23
1029.691	-5.73
1030.115	-9.83
1030.539	-11.83
1030.962	-7.63
1031.386	-12.33
1031.81	-5.63
1032.233	1.17
1032.657	-0.83
1033.08	-0.43
1033.504	-5.03
1033.927	-8.13
1034.351	-1.53
1034.774	-9.43
1035.198	-3.23
1035.621	-4.93
1036.045	-7.43
1036.468	1.87
1036.891	-9.83
1037.315	-11.13
1037.738	-10.03
1038.161	-3.13
1038.584	-7.03
1039.008	-7.43
1039.431	-3.73
1039.854	-5.13
1040.277	-5.03
1040.7	-16.43
1041.123	-1.03
1041.546	-10.33
1041.969	-1.63
1042.392	-3.73
1042.815	1.67
1043.238	-0.43
1043.661	-1.33
1044.084	-7.33
1044.507	-7.03
1044.93	-0.83
1045.352	-9.83
1045.775	-3.43
1046.198	-4.53
1046.621	-5.93
1047.043	-10.03
1047.466	2.77
1047.889	-12.33
1048.311	-6.93
1048.734	-7.43
1049.156	-3.43
1049.579	-4.93
1050.001	-5.83
1050.424	-0.13
1050.846	-2.53
1051.269	-5.33
1051.691	-8.13
1052.113	-5.43
1052.536	-1.53
1052.958	-7.63
1053.38	-3.63
1053.802	-7.13
1054.225	-0.13
1054.647	-9.73
1055.069	-4.33
1055.491	4.57
1055.913	-5.93
1056.335	-0.43
1056.757	-10.63
1057.179	-12.23
1057.601	-6.53
1058.023	-5.13
1058.445	-3.83
1058.867	0.07
1059.289	-2.93
1059.711	-7.33
1060.133	-0.53
1060.555	-7.43
1060.976	-8.43
1061.398	-11.43
1061.82	-5.13
1062.241	-0.73
1062.663	-5.73
1063.085	-3.03
1063.506	-2.43
1063.928	-5.33
1064.35	-5.53
1064.771	-11.53
1065.193	-3.53
1065.614	-4.43
1066.035	-2.73
1066.457	-4.53
1066.878	-1.13
1067.3	-2.53
1067.721	0.87
1068.142	0.97
1068.564	-4.73
1068.985	-3.73
1069.406	-2.43
1069.827	-11.83
1070.248	-5.33
1070.67	-4.43
1071.091	-4.53
1071.512	-8.53
1071.933	-9.33
1072.354	-8.53
1072.775	-10.23
1073.196	-11.43
1073.617	-6.53
1074.038	-9.73
1074.459	-4.13
1074.88	-4.33
1075.3	-0.63
1075.721	-7.53
1076.142	-0.63
1076.563	-5.03
1076.983	-9.93
1077.404	-8.73
1077.825	-11.43
1078.246	-7.23
1078.666	-11.33
1079.087	-5.83
1079.507	-7.33
1079.928	-2.73
1080.348	-5.83
1080.769	-6.43
1081.189	1.27
1081.61	-3.73
1082.03	-10.13
1082.451	-0.23
1082.871	-1.83
1083.291	-11.03
1083.711	-4.33
1084.132	-11.23
1084.552	-6.73
1084.972	-0.53
1085.392	-7.63
1085.813	-10.43
1086.233	-8.43
1086.653	-10.13
1087.073	1.57
1087.493	-3.13
1087.913	-12.03
1088.333	-3.43
1088.753	-4.33
1089.173	-1.83
1089.593	-2.63
1090.013	-3.93
1090.433	0.97
1090.852	-6.13
1091.272	-4.83
1091.692	-7.63
1092.112	-8.83
1092.531	-10.93
1092.951	-7.23
1093.371	-0.73
1093.79	2.17
1094.21	-4.63
1094.63	-3.83
1095.049	-8.13
1095.469	-6.63
1095.888	-0.73
1096.308	-2.83
1096.727	3.97
1097.146	-8.23
1097.566	-0.83
1097.985	-6.43
1098.405	-5.13
1098.824	-6.93
1099.243	-9.23
1099.662	-9.13
1100.082	-1.63
1100.501	-4.53
1100.92	-5.33
1101.339	-4.03
1101.758	0.07
