Data from 20171114-ORNL-Ar_H_NY_Subt18_08-04-02-062.txt Node
Date: Tue Nov 14 08:04:02 EST 2017
User: Ender
Spectrometer: HR+D1039
Trigger mode: 0
Integration Time (sec): 2.730000E-2
Scans to average: 10
Electric dark correction enabled: true
Nonlinearity correction enabled: false
Boxcar width: 0
XAxis mode: Wavelengths
Number of Pixels in Spectrum: 2048
>>>>>Begin Spectral Data<<<<<
187.836	-1.73
188.309	-1.73
188.782	-1.73
189.255	-0.52
189.728	-5.02
190.201	2.88
190.674	2.88
191.147	1.38
191.619	-10.52
192.092	4.68
192.565	5.88
193.038	1.98
193.511	2.08
193.984	6.27
194.456	-2.82
194.929	-1.02
195.402	-2.83
195.874	-3.52
196.347	1.08
196.82	-5.02
197.292	4.17
197.765	-4.82
198.237	-8.92
198.71	0.57
199.182	-4.52
199.655	4.27
200.127	3.77
200.6	-0.62
201.072	-4.12
201.544	-5.42
202.017	0.18
202.489	9.77
202.961	-6.32
203.433	-4.73
203.906	-4.92
204.378	-5.92
204.85	-2.33
205.322	-7.62
205.794	1.88
206.266	-5.62
206.739	-4.32
207.211	2.48
207.683	-9.82
208.155	-7.23
208.627	-6.73
209.099	-7.52
209.57	-12.02
210.042	-9.12
210.514	-3.02
210.986	2.18
211.458	-9.02
211.93	-2.73
212.402	-4.42
212.873	-4.62
213.345	-9.32
213.817	-11.23
214.288	-3.73
214.76	-13.02
215.232	-1.52
215.703	-0.52
216.175	-3.92
216.646	-9.52
217.118	-4.42
217.589	-7.32
218.061	-6.43
218.532	-1.42
219.004	-2.23
219.475	-1.42
219.946	-0.23
220.418	-4.22
220.889	2.58
221.36	1.58
221.832	-1.83
222.303	-12.12
222.774	3.18
223.245	-9.02
223.717	-4.23
224.188	-10.42
224.659	-10.02
225.13	-9.12
225.601	-0.43
226.072	-4.52
226.543	-6.23
227.014	-4.52
227.485	0.17
227.956	-3.42
228.427	-4.22
228.898	-0.82
229.369	3.48
229.839	-4.52
230.31	-3.52
230.781	1.38
231.252	-2.73
231.722	-2.02
232.193	-1.12
232.664	-0.72
233.135	-2.62
233.605	0.38
234.076	-4.02
234.546	0.07
235.017	0.68
235.487	-7.12
235.958	-5.02
236.428	0.88
236.899	-4.22
237.369	2.38
237.84	0.38
238.31	11.27
238.78	-0.82
239.251	-2.12
239.721	-0.62
240.191	0.98
240.662	-0.62
241.132	-1.62
241.602	-0.12
242.072	-0.32
242.542	2.58
243.013	-3.92
243.483	4.28
243.953	4.88
244.423	-1.42
244.893	-4.92
245.363	0.77
245.833	-0.92
246.303	-0.02
246.773	5.48
247.243	3.38
247.712	3.17
248.182	6.17
248.652	3.17
249.122	-4.12
249.592	9.58
250.061	15.68
250.531	25.38
251.001	8.48
251.471	17.77
251.94	15.67
252.41	3.48
252.879	2.08
253.349	14.48
253.818	4.48
254.288	5.08
254.757	1.78
255.227	-2.12
255.696	-3.33
256.166	5.28
256.635	5.78
257.105	5.58
257.574	3.77
258.043	8.88
258.513	6.48
258.982	6.18
259.451	3.77
259.92	6.98
260.389	3.28
260.859	9.58
261.328	6.18
261.797	9.88
262.266	4.48
262.735	12.38
263.204	5.77
263.673	-5.42
264.142	6.48
264.611	-5.92
265.08	-2.62
265.549	0.88
266.018	3.28
266.487	-2.02
266.955	0.08
267.424	0.98
267.893	2.38
268.362	-4.02
268.83	3.68
269.299	5.48
269.768	4.27
270.236	9.58
270.705	-1.23
271.174	1.18
271.642	4.17
272.111	8.68
272.579	12.57
273.048	15.07
273.516	12.88
273.985	10.68
274.453	14.68
274.922	14.17
275.39	7.67
275.858	-2.12
276.327	6.58
276.795	11.08
277.263	2.88
277.731	21.38
278.2	30.67
278.668	31.78
279.136	21.98
279.604	3.88
280.072	8.98
280.54	7.38
281.008	4.77
281.477	2.88
281.945	2.27
282.413	10.88
282.881	7.58
283.348	-0.42
283.816	10.48
284.284	8.17
284.752	11.98
285.22	5.18
285.688	6.07
286.156	11.18
286.623	31.77
287.091	31.68
287.559	14.98
288.026	7.18
288.494	9.27
288.962	-1.42
289.429	8.98
289.897	12.68
290.364	7.58
290.832	10.18
291.3	4.08
291.767	8.28
292.234	11.77
292.702	5.98
293.169	12.28
293.637	22.38
294.104	8.77
294.571	3.57
295.039	6.08
295.506	10.18
295.973	16.67
296.44	9.78
296.908	3.28
297.375	8.27
297.842	9.88
298.309	15.48
298.776	5.68
299.243	13.17
299.71	6.08
300.177	14.08
300.644	12.08
301.111	11.88
301.578	14.08
302.045	7.28
302.512	14.08
302.979	21.18
303.446	19.48
303.913	7.18
304.379	12.88
304.846	19.68
305.313	15.08
305.78	14.57
306.246	12.27
306.713	17.67
307.18	18.58
307.646	25.88
308.113	16.48
308.579	17.58
309.046	15.08
309.512	22.18
309.979	11.77
310.445	22.38
310.912	19.27
311.378	21.27
311.845	20.98
312.311	18.98
312.777	25.48
313.244	19.58
313.71	30.18
314.176	26.28
314.642	22.68
315.109	19.88
315.575	25.58
316.041	29.08
316.507	17.27
316.973	24.98
317.439	23.18
317.905	23.88
318.371	23.18
318.837	21.78
319.303	26.17
319.769	25.08
320.235	20.48
320.701	26.48
321.167	26.27
321.633	28.78
322.099	23.67
322.564	34.38
323.03	31.88
323.496	28.98
323.962	29.68
324.427	32.88
324.893	32.17
325.359	26.17
325.824	27.58
326.29	28.08
326.755	26.07
327.221	32.27
327.686	23.18
328.152	32.88
328.617	33.38
329.083	34.88
329.548	40.77
330.014	37.38
330.479	30.57
330.944	34.48
331.41	30.88
331.875	33.98
332.34	39.28
332.805	34.98
333.271	34.18
333.736	28.77
334.201	44.28
334.666	37.17
335.131	46.98
335.596	40.48
336.061	38.77
336.526	31.57
336.991	39.58
337.456	45.68
337.921	37.48
338.386	35.38
338.851	36.17
339.316	39.88
339.781	38.98
340.246	42.28
340.711	42.08
341.175	36.98
341.64	31.28
342.105	35.98
342.569	43.48
343.034	46.67
343.499	43.98
343.963	41.38
344.428	51.08
344.893	50.38
345.357	50.08
345.822	49.48
346.286	52.58
346.751	61.18
347.215	53.27
347.679	50.18
348.144	71.98
348.608	61.28
349.073	54.58
349.537	61.68
350.001	61.77
350.465	68.58
350.93	63.38
351.394	62.78
351.858	64.08
352.322	64.78
352.786	68.28
353.25	71.17
353.715	81.58
354.179	81.67
354.643	91.68
355.107	88.68
355.571	81.48
356.035	78.58
356.498	90.08
356.962	93.57
357.426	99.67
357.89	85.88
358.354	71.17
358.818	67.08
359.281	60.08
359.745	67.18
360.209	65.68
360.673	65.18
361.136	68.98
361.6	70.77
362.064	68.28
362.527	72.27
362.991	73.08
363.454	65.88
363.918	62.68
364.381	57.17
364.845	67.48
365.308	64.88
365.772	69.58
366.235	74.08
366.698	73.27
367.162	69.67
367.625	69.67
368.088	79.27
368.552	78.08
369.015	83.78
369.478	81.78
369.941	86.08
370.404	80.27
370.867	84.17
371.331	86.88
371.794	95.48
372.257	91.58
372.72	93.48
373.183	98.48
373.646	87.48
374.109	90.38
374.572	95.27
375.035	93.08
375.497	91.17
375.96	90.28
376.423	83.48
376.886	96.28
377.349	94.88
377.811	88.28
378.274	90.48
378.737	85.77
379.199	95.98
379.662	96.48
380.125	95.38
380.587	99.98
381.05	104.68
381.512	111.67
381.975	109.27
382.437	111.98
382.9	102.88
383.362	108.38
383.825	116.38
384.287	123.77
384.75	117.08
385.212	116.27
385.674	117.98
386.136	120.28
386.599	106.48
387.061	114.18
387.523	117.18
387.985	117.17
388.447	133.77
388.91	123.18
389.372	134.88
389.834	135.88
390.296	117.38
390.758	123.48
391.22	141.98
391.682	165.98
392.144	236.08
392.606	187.17
393.068	136.08
393.529	145.17
393.991	128.68
394.453	131.48
394.915	137.67
395.377	164.38
395.838	184.08
396.3	134.27
396.762	124.48
397.224	124.48
397.685	112.27
398.147	116.68
398.608	113.98
399.07	119.78
399.531	116.98
399.993	125.08
400.454	126.58
400.916	131.27
401.377	125.48
401.839	135.67
402.3	136.17
402.762	146.48
403.223	163.58
403.684	152.57
404.145	139.67
404.607	144.77
405.068	138.67
405.529	148.78
405.99	154.98
406.451	153.57
406.913	145.98
407.374	143.58
407.835	144.68
408.296	144.28
408.757	150.98
409.218	162.17
409.679	160.98
410.14	157.78
410.601	166.77
411.062	165.68
411.522	168.48
411.983	162.98
412.444	162.98
412.905	166.08
413.366	156.38
413.826	166.27
414.287	191.78
414.748	235.58
415.208	221.18
415.669	198.68
416.13	192.88
416.59	181.57
417.051	196.88
417.511	204.57
417.972	213.88
418.432	228.38
418.893	262.48
419.353	230.98
419.814	178.98
420.274	159.57
420.734	163.57
421.195	177.38
421.655	179.98
422.115	170.77
422.576	170.27
423.036	183.18
423.496	183.38
423.956	195.18
424.416	211.48
424.876	240.68
425.336	236.98
425.797	239.57
426.257	233.18
426.717	216.77
427.177	208.38
427.637	202.88
428.097	205.87
428.556	218.88
429.016	244.78
429.476	236.07
429.936	234.88
430.396	236.47
430.856	252.18
431.315	270.57
431.775	301.77
432.235	330.78
432.694	306.57
433.154	311.08
433.614	326.37
434.073	288.57
434.533	241.68
434.993	238.08
435.452	241.67
435.912	251.57
436.371	255.68
436.83	243.68
437.29	235.77
437.749	212.78
438.209	211.28
438.668	227.08
439.127	246.38
439.587	227.27
440.046	212.58
440.505	223.18
440.964	230.07
441.424	251.38
441.883	250.98
442.342	220.08
442.801	193.98
443.26	191.67
443.719	197.58
444.178	193.67
444.637	186.18
445.096	200.18
445.555	202.97
446.014	206.38
446.473	202.38
446.932	206.38
447.391	201.08
447.849	202.07
448.308	189.78
448.767	200.68
449.226	209.27
449.685	212.08
450.143	214.17
450.602	210.37
451.061	195.28
451.519	205.08
451.978	206.17
452.436	205.28
452.895	214.98
453.353	214.18
453.812	208.68
454.27	213.28
454.729	206.77
455.187	210.67
455.646	215.18
456.104	217.17
456.562	221.68
457.021	235.58
457.479	219.58
457.937	229.38
458.395	225.18
458.854	213.28
459.312	219.28
459.77	228.17
460.228	224.18
460.686	211.97
461.144	216.08
461.602	219.98
462.06	217.88
462.518	224.98
462.976	231.48
463.434	228.48
463.892	231.78
464.35	242.98
464.808	249.48
465.266	240.98
465.724	237.98
466.181	241.08
466.639	236.88
467.097	256.28
467.555	267.17
468.012	261.47
468.47	274.67
468.928	284.27
469.385	302.18
469.843	303.67
470.3	297.88
470.758	313.98
471.215	327.08
471.673	339.47
472.13	339.48
472.588	359.98
473.045	319.68
473.503	329.48
473.96	341.08
474.417	350.08
474.875	369.18
475.332	406.48
475.789	398.77
476.246	401.68
476.704	417.07
477.161	431.17
477.618	454.08
478.075	483.08
478.532	520.88
478.989	580.67
479.446	664.18
479.903	672.48
480.36	698.88
480.817	745.98
481.274	834.67
481.731	925.88
482.188	997.07
482.645	1129.47
483.102	1215.88
483.558	1326.88
484.015	1380.07
484.472	1381.78
484.929	1332.28
485.385	1290.87
485.842	1243.97
486.299	1188.17
486.755	1117.08
487.212	946.07
487.668	821.98
488.125	746.97
488.582	687.98
489.038	663.38
489.494	616.77
489.951	595.38
490.407	583.48
490.864	565.98
491.32	566.88
491.776	549.88
492.233	550.77
492.689	521.48
493.145	513.98
493.602	526.58
494.058	532.97
494.514	524.48
494.97	541.88
495.426	559.78
495.882	539.48
496.338	536.38
496.794	540.48
497.251	537.17
497.707	549.27
498.163	542.67
498.618	543.48
499.074	551.08
499.53	569.77
499.986	573.37
500.442	556.48
500.898	540.57
501.354	537.87
501.809	536.87
502.265	544.98
502.721	561.98
503.177	567.08
503.632	569.47
504.088	573.18
504.543	597.38
504.999	597.88
505.455	563.27
505.91	545.58
506.366	551.58
506.821	542.87
507.277	536.57
507.732	533.37
508.187	530.67
508.643	545.58
509.098	547.28
509.553	553.98
510.009	567.27
510.464	572.47
510.919	587.58
511.375	592.18
511.83	601.87
512.285	620.18
512.74	640.28
513.195	651.98
513.65	651.48
514.105	660.87
514.56	662.18
515.015	667.48
515.47	694.67
515.925	671.48
516.38	678.58
516.835	677.08
517.29	677.98
517.745	675.27
518.2	651.57
518.655	645.18
519.109	641.08
519.564	632.27
520.019	619.88
520.474	619.08
520.928	622.77
521.383	605.27
521.838	601.78
522.292	601.38
522.747	607.67
523.201	598.27
523.656	597.78
524.11	587.18
524.565	594.67
525.019	584.18
525.474	581.67
525.928	586.68
526.382	585.38
526.837	591.78
527.291	593.88
527.745	585.18
528.2	597.07
528.654	583.98
529.108	572.67
529.562	585.38
530.016	577.48
530.47	581.78
530.925	582.97
531.379	590.98
531.833	592.07
532.287	583.77
532.741	588.27
533.195	573.98
533.649	596.08
534.103	609.48
534.556	589.98
535.01	586.98
535.464	585.58
535.918	592.58
536.372	596.77
536.826	592.27
537.279	582.68
537.733	597.17
538.187	589.97
538.64	596.18
539.094	598.38
539.548	607.88
540.001	599.68
540.455	600.57
540.908	616.88
541.362	612.78
541.815	614.08
542.269	629.87
542.722	633.47
543.175	632.08
543.629	619.57
544.082	650.88
544.536	647.28
544.989	647.38
545.442	649.47
545.895	653.87
546.349	657.58
546.802	655.98
547.255	652.08
547.708	670.67
548.161	666.37
548.614	672.18
549.067	684.78
549.52	676.67
549.973	659.88
550.426	675.57
550.879	655.97
551.332	656.38
551.785	662.08
552.238	644.88
552.691	668.68
553.144	678.27
553.596	690.77
554.049	700.08
554.502	733.97
554.955	747.87
555.407	741.97
555.86	725.28
556.313	721.08
556.765	715.77
557.218	719.38
557.67	719.57
558.123	707.87
558.576	709.97
559.028	704.38
559.48	726.18
559.933	709.08
560.385	680.07
560.838	663.18
561.29	642.97
561.742	619.27
562.195	615.08
562.647	609.58
563.099	626.87
563.551	627.28
564.004	634.37
564.456	624.88
564.908	615.68
565.36	600.17
565.812	598.77
566.264	581.48
566.716	583.68
567.168	568.68
567.62	571.18
568.072	560.38
568.524	557.18
568.976	547.98
569.428	540.98
569.88	544.08
570.332	547.88
570.784	539.07
571.235	537.38
571.687	549.98
572.139	556.18
572.59	558.27
573.042	573.57
573.494	565.18
573.945	556.07
574.397	544.38
574.849	535.47
575.3	539.48
575.752	537.88
576.203	546.27
576.655	545.37
577.106	529.17
577.557	525.18
578.009	532.08
578.46	523.07
578.912	518.27
579.363	521.78
579.814	529.57
580.265	509.48
580.717	515.58
581.168	523.28
581.619	533.08
582.07	535.48
582.521	530.87
582.972	530.57
583.423	529.07
583.875	530.08
584.326	550.98
584.777	579.57
585.227	642.38
585.678	713.97
586.129	773.38
586.58	833.48
587.031	906.08
587.482	1042.77
587.933	1204.07
588.384	1028.47
588.834	767.08
589.285	632.18
589.736	602.08
590.186	604.48
590.637	599.67
591.088	583.77
591.538	580.17
591.989	566.48
592.439	562.57
592.89	557.27
593.34	547.88
593.791	539.98
594.241	548.98
594.692	545.28
595.142	534.67
595.593	536.08
596.043	541.07
596.493	542.67
596.943	552.18
597.394	558.88
597.844	554.78
598.294	561.48
598.744	570.28
599.195	593.08
599.645	628.78
600.095	650.77
600.545	707.27
600.995	744.57
601.445	786.68
601.895	843.48
602.345	869.58
602.795	864.38
603.245	811.77
603.695	773.07
604.145	745.67
604.594	693.18
605.044	669.28
605.494	617.68
605.944	567.58
606.393	568.57
606.843	549.67
607.293	559.08
607.743	555.08
608.192	561.18
608.642	564.67
609.091	585.58
609.541	588.28
609.99	585.27
610.44	571.98
610.889	543.08
611.339	522.77
611.788	515.98
612.238	521.57
612.687	539.57
613.136	546.88
613.586	555.77
614.035	556.27
614.484	563.38
614.933	575.67
615.383	559.58
615.832	557.88
616.281	534.68
616.73	521.28
617.179	518.98
617.628	482.68
618.077	478.97
618.526	469.18
618.975	470.77
619.424	466.27
619.873	470.58
620.322	463.38
620.771	453.48
621.22	456.27
621.669	446.58
622.118	436.57
622.567	435.98
623.015	428.08
623.464	428.88
623.913	419.68
624.361	413.87
624.81	410.67
625.259	413.98
625.707	411.68
626.156	411.28
626.604	425.48
627.053	418.98
627.501	413.68
627.95	431.27
628.398	430.98
628.847	430.27
629.295	416.08
629.744	426.68
630.192	418.88
630.64	414.18
631.089	417.87
631.537	420.17
631.985	430.67
632.433	430.38
632.881	436.77
633.33	464.98
633.778	444.08
634.226	405.68
634.674	414.18
635.122	426.48
635.57	426.98
636.018	445.67
636.466	424.88
636.914	412.17
637.362	424.98
637.81	429.57
638.258	432.27
638.705	431.67
639.153	451.38
639.601	456.88
640.049	472.77
640.497	501.57
640.944	511.38
641.392	470.38
641.84	446.98
642.287	434.38
642.735	419.57
643.182	419.68
643.63	418.78
644.078	417.88
644.525	440.18
644.973	432.38
645.42	441.27
645.867	454.58
646.315	468.77
646.762	476.68
647.21	509.68
647.657	523.87
648.104	554.97
648.551	556.98
648.999	599.08
649.446	656.98
649.893	725.77
650.34	832.27
650.787	994.67
651.234	1228.18
651.682	1592.17
652.129	2162.97
652.576	3092.47
653.023	4608.57
653.47	6452.07
653.917	8119.17
654.363	9575.08
654.81	10869.77
655.257	10376.48
655.704	6690.68
656.151	3912.17
656.598	2527.78
657.044	1772.27
657.491	1374.07
657.938	1088.97
658.385	920.18
658.831	784.68
659.278	708.97
659.724	618.98
660.171	578.18
660.618	529.78
661.064	493.77
661.511	461.88
661.957	462.57
662.404	442.28
662.85	445.98
663.296	437.78
663.743	399.68
664.189	388.18
664.635	393.97
665.082	383.38
665.528	378.38
665.974	371.97
666.42	363.38
666.867	362.28
667.313	336.67
667.759	343.57
668.205	341.68
668.651	341.77
669.097	350.57
669.543	358.18
669.989	341.78
670.435	327.68
670.881	315.18
671.327	324.08
671.773	344.77
672.219	348.37
672.665	390.27
673.11	419.18
673.556	452.67
674.002	487.17
674.448	474.77
674.893	399.78
675.339	342.68
675.785	320.67
676.23	307.38
676.676	279.08
677.122	270.38
677.567	263.58
678.013	262.88
678.458	258.88
678.904	261.48
679.349	242.48
679.794	255.28
680.24	250.38
680.685	246.17
681.131	243.97
681.576	256.37
682.021	251.28
682.466	248.27
682.912	245.48
683.357	246.17
683.802	270.48
684.247	293.77
684.692	327.07
685.137	349.88
685.583	388.47
686.028	406.87
686.473	383.48
686.918	320.57
687.363	301.57
687.807	282.07
688.252	258.38
688.697	259.07
689.142	244.67
689.587	235.27
690.032	234.07
690.477	237.18
690.921	250.27
691.366	276.28
691.811	288.38
692.255	309.88
692.7	330.58
693.145	352.58
693.589	487.27
694.034	779.47
694.478	1092.48
694.923	1283.47
695.367	1716.78
695.812	885.07
696.256	364.68
696.701	265.48
697.145	250.38
697.59	234.07
698.034	223.87
698.478	235.58
698.922	241.68
699.367	234.28
699.811	242.97
700.255	255.48
700.699	277.67
701.143	302.08
701.588	334.68
702.032	378.28
702.476	371.58
702.92	351.77
703.364	349.77
703.808	445.37
704.252	707.28
704.696	1017.48
705.14	1232.07
705.584	1591.38
706.027	772.37
706.471	370.48
706.915	285.57
707.359	251.88
707.803	218.57
708.246	219.18
708.69	221.98
709.134	220.08
709.577	223.28
710.021	223.07
710.465	222.38
710.908	212.17
711.352	214.28
711.795	216.18
712.239	250.58
712.682	273.48
713.126	292.77
713.569	333.38
714.012	269.48
714.456	233.58
714.899	211.38
715.342	196.27
715.786	185.17
716.229	184.77
716.672	187.48
717.115	175.08
717.558	182.38
718.002	174.98
718.445	189.98
718.888	202.07
719.331	208.68
719.774	212.67
720.217	214.67
720.66	198.38
721.103	186.88
721.546	178.88
721.989	179.67
722.432	159.68
722.874	169.38
723.317	163.78
723.76	159.98
724.203	185.17
724.645	220.58
725.088	303.68
725.531	398.88
725.974	478.18
726.416	402.07
726.859	215.88
727.301	172.58
727.744	169.08
728.187	157.68
728.629	168.27
729.071	170.68
729.514	179.08
729.956	193.38
730.399	201.58
730.841	206.88
731.283	193.58
731.726	190.38
732.168	182.67
732.61	187.67
733.053	202.08
733.495	219.38
733.937	248.98
734.379	285.07
734.821	302.48
735.263	381.57
735.705	572.97
736.148	1091.97
736.59	1835.47
737.032	2289.47
737.474	1865.87
737.916	588.98
738.357	306.58
738.799	228.67
739.241	207.97
739.683	193.18
740.125	206.88
740.567	209.88
741.008	226.48
741.45	231.98
741.892	229.28
742.334	251.27
742.775	259.77
743.217	245.48
743.658	194.07
744.1	178.68
744.542	185.38
744.983	216.88
745.425	250.48
745.866	257.78
746.307	201.88
746.749	198.28
747.19	233.98
747.632	316.08
748.073	590.27
748.514	1296.67
748.956	2045.38
749.397	2595.78
749.838	2153.07
750.279	2221.47
750.72	1109.58
751.162	399.28
751.603	230.18
752.044	179.18
752.485	153.18
752.926	153.98
753.367	144.48
753.808	134.07
754.249	132.48
754.69	128.58
755.131	131.28
755.572	126.48
756.013	127.17
756.453	124.68
756.894	131.78
757.335	136.58
757.776	138.08
758.216	145.17
758.657	143.58
759.098	144.28
759.538	156.88
759.979	185.27
760.42	253.98
760.86	480.97
761.301	1257.07
761.741	3134.28
762.182	4939.98
762.622	3496.77
763.063	974.18
763.503	391.18
763.943	246.18
764.384	236.07
764.824	295.68
765.264	322.08
765.705	220.48
766.145	144.58
766.585	133.48
767.025	126.98
767.465	128.67
767.906	173.58
768.346	231.38
768.786	254.48
769.226	185.17
769.666	223.07
770.106	419.98
770.546	1081.58
770.986	1967.67
771.426	1794.77
771.866	582.38
772.306	229.08
772.745	149.98
773.185	122.17
773.625	120.48
774.065	110.88
774.505	142.17
774.944	200.27
775.384	446.38
775.824	852.58
776.263	853.38
776.703	357.07
777.142	153.08
777.582	107.77
778.021	98.38
778.461	99.08
778.9	101.98
779.34	101.18
779.779	84.18
780.219	76.08
780.658	73.48
781.097	82.58
781.537	84.18
781.976	72.38
782.415	72.17
782.855	71.18
783.294	67.88
783.733	76.48
784.172	79.27
784.611	76.58
785.05	82.88
785.489	80.38
785.928	87.48
786.367	89.88
786.806	84.88
787.245	94.77
787.684	93.88
788.123	103.77
788.562	95.38
789.001	88.38
789.44	80.68
789.879	81.08
790.317	75.18
790.756	94.38
791.195	83.58
791.634	100.78
792.072	142.78
792.511	247.38
792.95	690.77
793.388	1570.27
793.827	1491.67
794.265	493.97
794.704	199.58
795.142	134.58
795.581	114.77
796.019	100.18
796.458	90.08
796.896	85.28
797.334	89.18
797.773	104.18
798.211	149.98
798.649	299.87
799.087	710.08
799.526	1143.97
799.964	1453.88
800.402	1542.47
800.84	563.48
801.278	211.17
801.716	132.98
802.154	112.38
802.592	108.28
803.03	99.58
803.468	95.48
803.906	98.88
804.344	104.38
804.782	100.58
805.22	94.67
805.658	86.48
806.096	101.88
806.533	110.98
806.971	118.57
807.409	155.17
807.847	223.68
808.284	453.38
808.722	1323.47
809.16	2460.97
809.597	2257.48
810.035	4047.57
810.472	4576.88
810.91	1604.47
811.347	587.58
811.785	296.98
812.222	187.38
812.66	145.38
813.097	121.77
813.535	104.77
813.972	89.78
814.409	90.88
814.846	72.88
815.284	76.18
815.721	74.38
816.158	78.08
816.595	82.98
817.032	125.07
817.47	141.58
817.907	119.98
818.344	105.27
818.781	79.18
819.218	70.88
819.655	91.18
820.092	141.48
820.529	160.48
820.966	132.48
821.403	96.88
821.839	78.28
822.276	72.88
822.713	88.88
823.15	96.78
823.587	87.98
824.023	103.58
824.46	199.58
824.897	623.58
825.333	1027.68
825.77	440.68
826.206	166.88
826.643	97.58
827.08	75.28
827.516	53.18
827.953	52.88
828.389	54.67
828.825	48.58
829.262	51.67
829.698	45.68
830.135	42.28
830.571	39.88
831.007	45.38
831.443	42.18
831.88	46.68
832.316	43.67
832.752	49.68
833.188	47.98
833.624	40.38
834.06	47.78
834.497	49.38
834.933	54.08
835.369	53.58
835.805	47.38
836.241	54.17
836.677	54.08
837.112	57.27
837.548	72.27
837.984	93.88
838.42	136.98
838.856	342.88
839.292	1095.88
839.727	1776.67
840.163	796.88
840.599	657.58
841.034	1511.57
841.47	1659.28
841.906	586.77
842.341	244.88
842.777	164.68
843.212	221.98
843.648	224.07
844.083	105.27
844.519	72.08
844.954	54.18
845.39	43.58
845.825	38.58
846.261	39.08
846.696	40.18
847.131	36.68
847.566	41.77
848.002	36.88
848.437	37.58
848.872	42.38
849.307	40.98
849.742	53.38
850.177	126.48
850.613	404.88
851.048	659.98
851.483	281.88
851.918	114.38
852.353	63.48
852.788	41.27
853.223	35.67
853.657	38.57
854.092	36.48
854.527	25.17
854.962	24.38
855.397	37.48
855.832	38.18
856.266	31.38
856.701	25.78
857.136	26.48
857.57	32.38
858.005	37.68
858.44	45.68
858.874	28.08
859.309	36.88
859.743	26.38
860.178	31.07
860.612	32.58
861.047	39.38
861.481	51.88
861.915	52.18
862.35	34.48
862.784	15.88
863.218	22.18
863.653	24.38
864.087	29.67
864.521	34.38
864.955	46.58
865.39	105.77
865.824	125.98
866.258	84.58
866.692	120.18
867.126	140.27
867.56	82.07
867.994	34.77
868.428	26.38
868.862	35.98
869.296	48.38
869.73	45.48
870.164	40.08
870.598	34.18
871.031	26.88
871.465	20.98
871.899	25.38
872.333	16.48
872.766	18.98
873.2	8.88
873.634	20.88
874.067	24.88
874.501	17.07
874.935	23.07
875.368	21.38
875.802	17.27
876.235	15.98
876.669	16.18
877.102	9.28
877.535	18.38
877.969	18.28
878.402	24.38
878.836	12.08
879.269	18.48
879.702	14.98
880.135	16.07
880.569	16.88
881.002	18.18
881.435	13.27
881.868	16.48
882.301	17.48
882.734	13.98
883.167	19.08
883.601	12.48
884.034	17.27
884.467	9.08
884.899	13.18
885.332	8.28
885.765	7.78
886.198	10.17
886.631	14.27
887.064	5.88
887.497	15.48
887.929	17.38
888.362	5.58
888.795	5.17
889.228	15.98
889.66	14.88
890.093	10.88
890.526	8.48
890.958	12.58
891.391	15.88
891.823	15.38
892.256	11.58
892.688	5.98
893.121	7.58
893.553	10.08
893.985	17.67
894.418	15.27
894.85	9.78
895.282	13.98
895.715	8.98
896.147	14.18
896.579	17.67
897.011	5.88
897.444	12.98
897.876	9.98
898.308	10.77
898.74	11.78
899.172	4.68
899.604	15.88
900.036	13.88
900.468	11.18
900.9	11.77
901.332	8.77
901.764	12.77
902.196	15.68
902.628	16.88
903.06	13.48
903.491	17.98
903.923	13.77
904.355	15.68
904.787	19.08
905.218	19.08
905.65	9.17
906.082	7.48
906.513	10.88
906.945	7.48
907.376	8.48
907.808	14.98
908.239	14.58
908.671	11.38
909.102	16.88
909.534	22.18
909.965	38.78
910.397	71.07
910.828	228.88
911.259	368.27
911.691	167.77
912.122	78.78
912.553	38.48
912.984	27.78
913.415	20.78
913.847	21.27
914.278	10.98
914.709	8.08
915.14	12.48
915.571	12.68
916.002	14.88
916.433	17.98
916.864	12.88
917.295	6.17
917.726	18.98
918.157	14.88
918.587	18.48
919.018	10.78
919.449	15.68
919.88	19.67
920.311	25.08
920.741	35.27
921.172	121.28
921.603	116.48
922.033	49.67
922.464	31.98
922.895	14.77
923.325	21.48
923.756	12.67
924.186	15.38
924.617	18.48
925.047	29.58
925.478	32.08
925.908	27.27
926.338	18.58
926.769	11.38
927.199	16.48
927.629	7.98
928.06	15.68
928.49	12.68
928.92	8.48
929.35	9.48
929.78	6.88
930.21	4.57
930.641	4.08
931.071	9.68
931.501	1.78
931.931	2.78
932.361	7.18
932.791	3.18
933.221	5.38
933.651	-0.02
934.08	12.67
934.51	21.68
934.94	6.48
935.37	7.58
935.8	11.27
936.229	3.98
936.659	15.48
937.089	3.08
937.519	12.08
937.948	23.67
938.378	12.98
938.807	2.98
939.237	6.38
939.666	1.28
940.096	-2.52
940.525	4.67
940.955	0.68
941.384	7.18
941.814	-4.52
942.243	-3.92
942.672	6.48
943.102	-4.02
943.531	-1.32
943.96	2.88
944.39	-2.43
944.819	-1.43
945.248	5.18
945.677	4.77
946.106	3.48
946.535	8.57
946.964	-2.82
947.393	3.18
947.822	0.58
948.251	-5.52
948.68	3.28
949.109	3.88
949.538	3.68
949.967	3.08
950.396	0.38
950.825	-2.43
951.254	1.28
951.682	-6.42
952.111	4.38
952.54	-0.02
952.969	-7.12
953.397	-3.83
953.826	3.17
954.254	-6.73
954.683	-2.12
955.112	-5.52
955.54	0.78
955.969	3.38
956.397	-0.22
956.826	-4.82
957.254	3.38
957.682	-1.62
958.111	5.38
958.539	-0.22
958.967	-0.62
959.396	2.88
959.824	5.18
960.252	3.77
960.68	-6.73
961.109	-1.93
961.537	-1.92
961.965	0.17
962.393	-4.02
962.821	-5.92
963.249	0.48
963.677	1.78
964.105	1.98
964.533	30.18
964.961	36.17
965.389	14.48
965.817	5.77
966.245	5.88
966.672	-0.02
967.1	-3.72
967.528	-2.93
967.956	-3.22
968.383	-0.33
968.811	-4.12
969.239	1.38
969.666	1.38
970.094	1.98
970.522	1.68
970.949	-3.12
971.377	-3.82
971.804	-6.72
972.232	-3.42
972.659	0.78
973.087	-2.62
973.514	-1.52
973.941	-7.23
974.369	0.17
974.796	-0.52
975.223	-6.23
975.651	0.98
976.078	1.58
976.505	1.17
976.932	4.08
977.359	8.17
977.786	15.98
978.214	-0.62
978.641	-1.52
979.068	-5.62
979.495	-9.73
979.922	1.38
980.349	-4.42
980.776	3.58
981.202	1.88
981.629	2.98
982.056	-3.02
982.483	-5.92
982.91	-0.72
983.337	-5.32
983.763	4.67
984.19	-4.83
984.617	-1.62
985.043	-8.92
985.47	-1.62
985.897	0.18
986.323	-9.52
986.75	4.28
987.176	1.48
987.603	-3.83
988.029	1.17
988.456	-1.33
988.882	7.88
989.308	-5.12
989.735	-7.62
990.161	1.27
990.587	-12.33
991.014	0.88
991.44	4.08
991.866	-0.82
992.292	-3.92
992.719	-2.52
993.145	-0.42
993.571	-4.52
993.997	-1.62
994.423	-4.02
994.849	-6.43
995.275	3.08
995.701	5.58
996.127	-2.52
996.553	0.98
996.979	3.18
997.405	1.78
997.83	-5.33
998.256	-8.83
998.682	-5.22
999.108	-9.33
999.534	-0.62
999.959	-0.32
1000.385	-3.42
1000.811	-0.33
1001.236	-6.02
1001.662	-6.82
1002.087	-8.22
1002.513	-2.93
1002.938	2.08
1003.364	-2.72
1003.789	3.78
1004.215	5.18
1004.64	-1.33
1005.066	2.48
1005.491	2.28
1005.916	-0.12
1006.342	-3.12
1006.767	-7.12
1007.192	1.28
1007.617	-4.12
1008.042	-2.32
1008.468	-6.42
1008.893	-1.62
1009.318	-2.32
1009.743	-6.02
1010.168	-2.73
1010.593	2.27
1011.018	-4.92
1011.443	-4.73
1011.868	0.98
1012.293	-4.12
1012.718	-9.82
1013.143	1.07
1013.567	3.68
1013.992	-4.82
1014.417	-10.12
1014.842	2.67
1015.267	-4.92
1015.691	-0.92
1016.116	7.58
1016.541	-0.52
1016.965	1.27
1017.39	-2.33
1017.814	1.98
1018.239	-3.23
1018.663	-8.73
1019.088	-9.02
1019.512	-7.02
1019.937	1.27
1020.361	-3.62
1020.785	-3.12
1021.21	-1.32
1021.634	-2.32
1022.058	-1.02
1022.483	6.08
1022.907	-2.62
1023.331	-6.72
1023.755	-4.33
1024.179	-4.82
1024.604	-9.02
1025.028	-3.23
1025.452	-3.73
1025.876	-2.52
1026.3	4.27
1026.724	-7.73
1027.148	-1.92
1027.572	-8.32
1027.996	1.18
1028.42	0.57
1028.843	-2.43
1029.267	-8.02
1029.691	-5.12
1030.115	-7.42
1030.539	-3.23
1030.962	-3.83
1031.386	-12.32
1031.81	1.98
1032.233	-0.82
1032.657	-0.82
1033.08	-4.42
1033.504	3.07
1033.927	-1.12
1034.351	6.18
1034.774	2.48
1035.198	-3.23
1035.621	-1.82
1036.045	-6.92
1036.468	2.67
1036.891	-2.83
1037.315	-8.33
1037.738	-10.02
1038.161	2.57
1038.584	-7.23
1039.008	-5.52
1039.431	1.48
1039.854	-0.43
1040.277	-11.82
1040.7	-10.02
1041.123	4.17
1041.546	-6.72
1041.969	-1.82
1042.392	2.17
1042.815	-4.33
1043.238	2.27
1043.661	0.77
1044.084	-6.52
1044.507	-6.12
1044.93	-5.12
1045.352	-7.52
1045.775	-3.93
1046.198	-10.42
1046.621	-5.52
1047.043	-2.42
1047.466	6.08
1047.889	-3.52
1048.311	-2.62
1048.734	-1.82
1049.156	-2.52
1049.579	-4.43
1050.001	-3.52
1050.424	0.77
1050.846	-7.23
1051.269	-3.22
1051.691	-6.52
1052.113	-4.52
1052.536	0.28
1052.958	-1.12
1053.38	1.17
1053.802	-7.92
1054.225	0.48
1054.647	-7.62
1055.069	-5.83
1055.491	4.68
1055.913	-9.02
1056.335	-0.23
1056.757	-4.42
1057.179	-4.83
1057.601	-5.12
1058.023	-5.32
1058.445	-2.43
1058.867	-7.73
1059.289	-1.33
1059.711	-3.62
1060.133	-5.73
1060.555	-6.62
1060.976	-8.42
1061.398	-6.02
1061.82	-7.42
1062.241	-8.33
1062.663	-6.02
1063.085	1.18
1063.506	4.38
1063.928	-3.02
1064.35	-0.72
1064.771	-8.62
1065.193	-6.43
1065.614	-12.73
1066.035	-1.52
1066.457	-7.62
1066.878	4.68
1067.3	0.08
1067.721	-5.12
1068.142	-3.33
1068.564	-2.12
1068.985	-0.83
1069.406	-4.12
1069.827	-3.42
1070.248	0.98
1070.67	-7.73
1071.091	-7.02
1071.512	-4.02
1071.933	-6.92
1072.354	-5.82
1072.775	-3.92
1073.196	-2.12
1073.617	-2.73
1074.038	-4.22
1074.459	4.28
1074.88	-10.12
1075.3	-4.73
1075.721	-5.33
1076.142	-3.52
1076.563	-2.12
1076.983	-10.42
1077.404	-2.52
1077.825	-8.22
1078.246	-2.02
1078.666	-7.12
1079.087	-4.52
1079.507	-6.23
1079.928	-4.12
1080.348	2.68
1080.769	-4.12
1081.189	-1.02
1081.61	-1.92
1082.03	-3.62
1082.451	-2.73
1082.871	-2.82
1083.291	-5.02
1083.711	-4.52
1084.132	-3.12
1084.552	2.58
1084.972	3.18
1085.392	-7.52
1085.813	-10.82
1086.233	-6.12
1086.653	-7.22
1087.073	-4.02
1087.493	-12.02
1087.913	-5.52
1088.333	-2.42
1088.753	-2.73
1089.173	-2.33
1089.593	-6.12
1090.013	1.58
1090.433	-5.12
1090.852	-5.73
1091.272	0.27
1091.692	-1.42
1092.112	-2.62
1092.531	-7.62
1092.951	-10.22
1093.371	-0.93
1093.79	-2.92
1094.21	-3.62
1094.63	-1.92
1095.049	-6.72
1095.469	-1.32
1095.888	0.08
1096.308	4.27
1096.727	0.08
1097.146	-6.52
1097.566	-1.52
1097.985	-4.92
1098.405	-0.72
1098.824	-7.92
1099.243	-3.92
1099.662	-5.42
1100.082	-6.92
1100.501	-5.12
1100.92	-9.83
1101.339	-2.33
1101.758	0.18
