Data from 20171114-ORNL-Ar_H_NY_Subt18_08-08-39-406.txt Node
Date: Tue Nov 14 08:08:39 EST 2017
User: Ender
Spectrometer: HR+D1039
Trigger mode: 0
Integration Time (sec): 2.730000E-2
Scans to average: 10
Electric dark correction enabled: true
Nonlinearity correction enabled: false
Boxcar width: 0
XAxis mode: Wavelengths
Number of Pixels in Spectrum: 2048
>>>>>Begin Spectral Data<<<<<
187.836	-1.09
188.309	-1.09
188.782	-1.09
189.255	1.51
189.728	-3.79
190.201	4.21
190.674	5.61
191.147	4.41
191.619	-9.69
192.092	6.01
192.565	4.01
193.038	-1.69
193.511	-4.19
193.984	0.21
194.456	-0.39
194.929	0.01
195.402	-4.19
195.874	-0.99
196.347	-1.59
196.82	-5.89
197.292	7.11
197.765	-1.09
198.237	-9.79
198.71	5.71
199.182	-5.89
199.655	0.61
200.127	-1.09
200.6	2.11
201.072	-1.29
201.544	0.41
202.017	1.31
202.489	2.91
202.961	5.01
203.433	-2.59
203.906	-4.19
204.378	-7.29
204.85	-4.29
205.322	-6.89
205.794	-4.79
206.266	-8.29
206.739	-9.29
207.211	5.51
207.683	-8.99
208.155	-3.39
208.627	-7.19
209.099	-2.49
209.57	-3.09
210.042	-3.29
210.514	0.31
210.986	-2.59
211.458	-6.59
211.93	3.01
212.402	3.31
212.873	-7.89
213.345	-9.29
213.817	-12.49
214.288	-8.39
214.76	-8.99
215.232	-5.99
215.703	5.41
216.175	-3.99
216.646	-4.19
217.118	-5.19
217.589	2.71
218.061	1.61
218.532	-1.29
219.004	-3.39
219.475	-3.09
219.946	0.11
220.418	-4.79
220.889	3.81
221.36	-2.49
221.832	-7.79
222.303	-9.29
222.774	1.21
223.245	-7.89
223.717	-4.79
224.188	0.11
224.659	-10.39
225.13	-8.89
225.601	-6.29
226.072	-0.79
226.543	-1.49
227.014	0.71
227.485	-1.59
227.956	-7.79
228.427	0.91
228.898	8.31
229.369	6.21
229.839	-0.39
230.31	-0.29
230.781	0.11
231.252	0.21
231.722	-2.89
232.193	-4.69
232.664	1.61
233.135	1.91
233.605	-0.79
234.076	-4.19
234.546	-0.89
235.017	-1.09
235.487	2.81
235.958	-3.39
236.428	-2.09
236.899	-1.99
237.369	-4.09
237.84	-3.39
238.31	-3.19
238.78	-4.29
239.251	-4.19
239.721	0.11
240.191	-4.49
240.662	-1.99
241.132	-5.99
241.602	-3.89
242.072	-0.79
242.542	5.21
243.013	-3.29
243.483	1.21
243.953	0.01
244.423	-4.89
244.893	-5.29
245.363	-0.69
245.833	5.21
246.303	-3.19
246.773	6.91
247.243	0.91
247.712	2.51
248.182	2.11
248.652	3.01
249.122	-7.39
249.592	-1.79
250.061	6.21
250.531	9.21
251.001	1.11
251.471	6.81
251.94	10.11
252.41	4.71
252.879	-6.49
253.349	4.11
253.818	6.61
254.288	6.11
254.757	2.71
255.227	-7.79
255.696	1.11
256.166	6.11
256.635	5.41
257.105	2.91
257.574	-4.49
258.043	4.21
258.513	-1.29
258.982	5.41
259.451	-0.99
259.92	1.51
260.389	5.01
260.859	13.01
261.328	0.91
261.797	1.41
262.266	5.51
262.735	7.51
263.204	-0.29
263.673	-0.49
264.142	6.21
264.611	-4.39
265.08	1.81
265.549	-1.59
266.018	4.61
266.487	-4.19
266.955	-4.39
267.424	-5.29
267.893	3.51
268.362	5.51
268.83	3.21
269.299	11.41
269.768	6.91
270.236	-0.39
270.705	-2.79
271.174	1.11
271.642	2.41
272.111	-2.29
272.579	6.71
273.048	2.61
273.516	0.01
273.985	5.91
274.453	1.51
274.922	13.61
275.39	8.11
275.858	0.11
276.327	6.41
276.795	15.91
277.263	1.01
277.731	12.21
278.2	17.31
278.668	17.71
279.136	14.41
279.604	0.71
280.072	12.51
280.54	8.71
281.008	5.11
281.477	11.91
281.945	9.91
282.413	6.41
282.881	10.61
283.348	4.21
283.816	8.31
284.284	8.01
284.752	17.11
285.22	8.61
285.688	14.41
286.156	8.31
286.623	17.81
287.091	15.01
287.559	6.81
288.026	10.21
288.494	15.61
288.962	5.01
289.429	3.91
289.897	13.41
290.364	12.01
290.832	8.81
291.3	8.01
291.767	19.41
292.234	20.01
292.702	8.51
293.169	14.81
293.637	18.21
294.104	21.81
294.571	7.41
295.039	6.81
295.506	8.71
295.973	13.21
296.44	9.41
296.908	11.81
297.375	8.01
297.842	13.61
298.309	8.81
298.776	9.91
299.243	14.91
299.71	7.71
300.177	13.91
300.644	11.91
301.111	18.21
301.578	13.81
302.045	13.91
302.512	20.81
302.979	19.31
303.446	20.21
303.913	13.01
304.379	20.11
304.846	22.91
305.313	17.51
305.78	14.21
306.246	21.41
306.713	17.11
307.18	17.41
307.646	21.51
308.113	26.11
308.579	9.91
309.046	15.01
309.512	20.01
309.979	13.91
310.445	20.71
310.912	24.31
311.378	23.81
311.845	27.91
312.311	24.61
312.777	22.01
313.244	25.91
313.71	32.91
314.176	22.41
314.642	24.01
315.109	19.01
315.575	24.51
316.041	29.51
316.507	27.31
316.973	27.61
317.439	25.71
317.905	26.31
318.371	26.81
318.837	28.71
319.303	25.11
319.769	30.51
320.235	25.81
320.701	22.51
321.167	26.81
321.633	27.31
322.099	27.41
322.564	35.21
323.03	38.71
323.496	32.91
323.962	37.71
324.427	30.41
324.893	35.81
325.359	32.01
325.824	30.51
326.29	26.31
326.755	28.81
327.221	34.81
327.686	32.41
328.152	40.11
328.617	33.11
329.083	36.21
329.548	36.31
330.014	43.71
330.479	33.31
330.944	36.11
331.41	35.71
331.875	40.61
332.34	38.01
332.805	35.91
333.271	38.31
333.736	33.91
334.201	40.81
334.666	41.41
335.131	42.71
335.596	42.81
336.061	47.01
336.526	35.91
336.991	39.11
337.456	47.91
337.921	45.91
338.386	38.91
338.851	36.81
339.316	40.91
339.781	48.51
340.246	53.41
340.711	35.31
341.175	41.31
341.64	38.81
342.105	41.71
342.569	49.91
343.034	52.51
343.499	51.41
343.963	49.41
344.428	53.71
344.893	51.01
345.357	50.61
345.822	53.41
346.286	59.51
346.751	67.81
347.215	56.41
347.679	62.31
348.144	77.51
348.608	69.51
349.073	68.81
349.537	65.31
350.001	70.11
350.465	74.01
350.93	70.61
351.394	71.11
351.858	59.21
352.322	77.81
352.786	77.01
353.25	89.21
353.715	94.31
354.179	87.21
354.643	104.41
355.107	106.61
355.571	93.01
356.035	86.21
356.498	102.61
356.962	102.41
357.426	114.91
357.89	100.31
358.354	80.41
358.818	78.01
359.281	65.81
359.745	63.51
360.209	69.21
360.673	71.21
361.136	65.11
361.6	77.21
362.064	73.81
362.527	75.51
362.991	77.31
363.454	73.81
363.918	68.01
364.381	67.91
364.845	75.61
365.308	78.21
365.772	81.01
366.235	80.41
366.698	76.61
367.162	76.91
367.625	78.31
368.088	77.91
368.552	79.91
369.015	83.11
369.478	82.41
369.941	88.51
370.404	85.11
370.867	95.01
371.331	86.41
371.794	105.61
372.257	87.91
372.72	96.51
373.183	100.21
373.646	91.01
374.109	92.91
374.572	94.21
375.035	89.41
375.497	95.31
375.96	97.51
376.423	93.81
376.886	99.81
377.349	102.91
377.811	94.81
378.274	94.71
378.737	99.81
379.199	101.41
379.662	102.31
380.125	103.11
380.587	108.81
381.05	103.51
381.512	107.71
381.975	119.61
382.437	117.81
382.9	114.11
383.362	119.01
383.825	125.81
384.287	124.11
384.75	109.61
385.212	121.91
385.674	126.01
386.136	121.61
386.599	117.11
387.061	122.21
387.523	120.61
387.985	125.31
388.447	127.81
388.91	115.21
389.372	127.51
389.834	133.81
390.296	118.31
390.758	135.51
391.22	137.61
391.682	154.21
392.144	175.01
392.606	153.51
393.068	144.51
393.529	150.81
393.991	141.21
394.453	125.41
394.915	129.01
395.377	146.11
395.838	150.21
396.3	135.51
396.762	137.41
397.224	132.41
397.685	125.31
398.147	124.71
398.608	127.31
399.07	124.61
399.531	130.81
399.993	141.91
400.454	153.61
400.916	138.41
401.377	137.41
401.839	150.11
402.3	147.91
402.762	157.91
403.223	167.01
403.684	159.11
404.145	156.01
404.607	161.21
405.068	162.11
405.529	167.31
405.99	180.11
406.451	170.71
406.913	168.51
407.374	153.91
407.835	158.91
408.296	157.51
408.757	158.31
409.218	176.91
409.679	173.01
410.14	168.31
410.601	170.91
411.062	170.91
411.522	180.11
411.983	175.61
412.444	175.01
412.905	174.81
413.366	180.81
413.826	187.81
414.287	212.61
414.748	256.61
415.208	246.51
415.669	210.61
416.13	201.61
416.59	208.41
417.051	216.01
417.511	214.71
417.972	240.31
418.432	250.71
418.893	288.01
419.353	253.31
419.814	201.21
420.274	180.41
420.734	174.61
421.195	191.31
421.655	190.51
422.115	192.31
422.576	190.01
423.036	196.51
423.496	206.21
423.956	214.21
424.416	229.41
424.876	265.31
425.336	261.61
425.797	262.31
426.257	240.71
426.717	234.51
427.177	226.51
427.637	216.41
428.097	230.41
428.556	236.51
429.016	256.91
429.476	249.21
429.936	267.81
430.396	266.41
430.856	283.71
431.315	299.21
431.775	328.31
432.235	374.81
432.694	340.61
433.154	340.51
433.614	384.31
434.073	330.41
434.533	275.41
434.993	261.61
435.452	278.71
435.912	291.21
436.371	285.31
436.83	281.21
437.29	258.81
437.749	246.21
438.209	245.51
438.668	272.61
439.127	283.41
439.587	258.31
440.046	245.31
440.505	255.41
440.964	280.11
441.424	317.41
441.883	306.91
442.342	262.51
442.801	228.31
443.26	220.71
443.719	231.01
444.178	224.21
444.637	214.51
445.096	221.41
445.555	224.81
446.014	225.61
446.473	227.61
446.932	234.81
447.391	231.21
447.849	227.71
448.308	220.81
448.767	228.51
449.226	235.61
449.685	238.01
450.143	243.31
450.602	242.41
451.061	231.31
451.519	235.91
451.978	239.61
452.436	232.31
452.895	242.31
453.353	247.61
453.812	243.21
454.27	240.81
454.729	245.21
455.187	248.21
455.646	244.51
456.104	248.61
456.562	259.21
457.021	267.01
457.479	259.51
457.937	276.61
458.395	267.31
458.854	253.71
459.312	256.01
459.77	278.51
460.228	265.91
460.686	244.71
461.144	258.91
461.602	252.91
462.06	244.61
462.518	256.41
462.976	249.91
463.434	258.91
463.892	262.81
464.35	283.81
464.808	293.21
465.266	266.01
465.724	263.11
466.181	275.01
466.639	274.61
467.097	297.01
467.555	298.21
468.012	300.41
468.47	315.81
468.928	327.01
469.385	344.61
469.843	350.91
470.3	353.01
470.758	370.51
471.215	385.51
471.673	410.71
472.13	406.91
472.588	415.71
473.045	371.11
473.503	382.91
473.96	398.91
474.417	417.71
474.875	437.01
475.332	481.51
475.789	458.51
476.246	470.71
476.704	489.01
477.161	504.01
477.618	526.81
478.075	556.11
478.532	623.21
478.989	681.51
479.446	796.81
479.903	750.51
480.36	780.31
480.817	823.11
481.274	918.41
481.731	1015.21
482.188	1080.31
482.645	1202.81
483.102	1289.01
483.558	1402.01
484.015	1462.01
484.472	1427.41
484.929	1381.01
485.385	1337.51
485.842	1307.11
486.299	1272.11
486.755	1238.01
487.212	1043.91
487.668	890.31
488.125	819.61
488.582	746.91
489.038	724.71
489.494	697.11
489.951	678.91
490.407	661.71
490.864	636.41
491.32	632.81
491.776	641.81
492.233	647.11
492.689	605.71
493.145	609.11
493.602	598.71
494.058	619.81
494.514	605.01
494.97	633.41
495.426	643.01
495.882	617.51
496.338	602.41
496.794	615.41
497.251	606.71
497.707	627.11
498.163	629.21
498.618	637.71
499.074	637.91
499.53	663.81
499.986	667.41
500.442	648.41
500.898	621.01
501.354	611.91
501.809	620.91
502.265	625.91
502.721	642.21
503.177	657.11
503.632	648.61
504.088	654.91
504.543	665.81
504.999	695.81
505.455	651.71
505.91	638.01
506.366	631.91
506.821	632.01
507.277	633.11
507.732	626.41
508.187	638.11
508.643	636.71
509.098	644.41
509.553	672.01
510.009	667.41
510.464	668.51
510.919	701.11
511.375	698.01
511.83	719.41
512.285	730.71
512.74	754.21
513.195	771.91
513.65	764.01
514.105	757.21
514.56	769.61
515.015	786.81
515.47	799.91
515.925	787.81
516.38	791.21
516.835	783.31
517.29	778.81
517.745	777.31
518.2	768.51
518.655	749.31
519.109	746.91
519.564	740.51
520.019	731.91
520.474	735.71
520.928	732.21
521.383	729.01
521.838	717.71
522.292	716.11
522.747	709.31
523.201	716.91
523.656	707.71
524.11	705.71
524.565	696.41
525.019	683.41
525.474	697.01
525.928	707.21
526.382	702.71
526.837	698.41
527.291	713.81
527.745	706.51
528.2	701.71
528.654	692.71
529.108	689.21
529.562	690.31
530.016	688.61
530.47	698.61
530.925	684.41
531.379	693.61
531.833	705.71
532.287	697.71
532.741	706.21
533.195	712.81
533.649	711.91
534.103	723.51
534.556	707.01
535.01	710.41
535.464	708.31
535.918	724.41
536.372	721.11
536.826	719.61
537.279	711.01
537.733	719.11
538.187	723.71
538.64	719.01
539.094	727.81
539.548	736.51
540.001	727.91
540.455	719.01
540.908	732.71
541.362	744.51
541.815	750.31
542.269	766.61
542.722	764.41
543.175	769.11
543.629	780.51
544.082	786.71
544.536	788.51
544.989	795.51
545.442	800.41
545.895	804.11
546.349	807.21
546.802	805.41
547.255	804.11
547.708	817.61
548.161	813.71
548.614	828.81
549.067	843.61
549.52	826.61
549.973	816.11
550.426	814.91
550.879	809.71
551.332	809.71
551.785	813.81
552.238	824.51
552.691	824.21
553.144	848.91
553.596	857.21
554.049	868.71
554.502	905.01
554.955	921.21
555.407	913.41
555.86	906.51
556.313	909.61
556.765	895.71
557.218	885.11
557.67	885.71
558.123	883.51
558.576	881.31
559.028	878.31
559.48	887.11
559.933	875.81
560.385	854.01
560.838	826.41
561.29	794.91
561.742	791.31
562.195	783.91
562.647	770.91
563.099	782.11
563.551	779.81
564.004	789.41
564.456	769.91
564.908	759.81
565.36	751.11
565.812	743.41
566.264	733.11
566.716	730.11
567.168	716.41
567.62	716.51
568.072	711.31
568.524	703.81
568.976	699.11
569.428	692.91
569.88	687.41
570.332	689.11
570.784	690.41
571.235	697.71
571.687	699.21
572.139	716.81
572.59	727.01
573.042	722.11
573.494	716.01
573.945	711.71
574.397	702.81
574.849	699.11
575.3	709.31
575.752	693.91
576.203	688.11
576.655	681.11
577.106	679.81
577.557	672.61
578.009	680.11
578.46	671.01
578.912	675.91
579.363	669.71
579.814	675.31
580.265	674.91
580.717	675.61
581.168	680.81
581.619	688.11
582.07	691.81
582.521	677.21
582.972	693.01
583.423	688.81
583.875	692.91
584.326	696.91
584.777	720.31
585.227	746.91
585.678	770.71
586.129	806.41
586.58	829.91
587.031	862.51
587.482	925.61
587.933	976.31
588.384	930.31
588.834	831.91
589.285	789.31
589.736	793.01
590.186	779.31
590.637	776.71
591.088	756.11
591.538	745.11
591.989	739.11
592.439	750.11
592.89	729.71
593.34	722.81
593.791	723.41
594.241	710.01
594.692	708.11
595.142	703.41
595.593	707.91
596.043	713.21
596.493	720.21
596.943	713.11
597.394	734.81
597.844	723.91
598.294	741.11
598.744	762.61
599.195	793.11
599.645	841.01
600.095	878.61
600.545	939.71
600.995	988.51
601.445	1043.51
601.895	1101.81
602.345	1147.91
602.795	1128.11
603.245	1086.71
603.695	1024.71
604.145	980.61
604.594	925.81
605.044	884.91
605.494	814.01
605.944	763.11
606.393	759.61
606.843	735.81
607.293	749.21
607.743	740.11
608.192	750.41
608.642	774.51
609.091	770.11
609.541	789.51
609.99	772.71
610.44	777.51
610.889	728.21
611.339	708.01
611.788	695.41
612.238	700.01
612.687	714.51
613.136	721.61
613.586	727.01
614.035	718.61
614.484	720.21
614.933	724.91
615.383	720.21
615.832	725.01
616.281	712.01
616.73	679.71
617.179	670.51
617.628	649.81
618.077	635.21
618.526	632.11
618.975	621.31
619.424	626.91
619.873	632.81
620.322	625.71
620.771	609.51
621.22	612.11
621.669	605.51
622.118	589.51
622.567	592.11
623.015	583.21
623.464	574.21
623.913	575.41
624.361	552.41
624.81	556.21
625.259	561.91
625.707	565.61
626.156	562.31
626.604	584.81
627.053	576.21
627.501	575.21
627.95	581.31
628.398	589.61
628.847	577.21
629.295	583.51
629.744	585.51
630.192	580.81
630.64	573.51
631.089	562.91
631.537	562.81
631.985	556.41
632.433	553.21
632.881	558.81
633.33	563.91
633.778	563.71
634.226	551.21
634.674	556.91
635.122	561.01
635.57	570.21
636.018	579.91
636.466	575.91
636.914	564.51
637.362	579.81
637.81	584.71
638.258	587.81
638.705	596.91
639.153	620.41
639.601	623.61
640.049	644.51
640.497	680.81
640.944	713.51
641.392	654.41
641.84	623.91
642.287	593.51
642.735	577.81
643.182	572.31
643.63	572.91
644.078	584.91
644.525	595.21
644.973	603.21
645.42	598.71
645.867	620.41
646.315	642.81
646.762	667.61
647.21	702.71
647.657	714.81
648.104	744.91
648.551	765.01
648.999	818.51
649.446	907.01
649.893	985.61
650.34	1149.01
650.787	1348.21
651.234	1656.51
651.682	2147.61
652.129	2931.71
652.576	4168.21
653.023	6034.21
653.47	8205.41
653.917	10095.41
654.363	11605.61
654.81	12715.01
655.257	12044.91
655.704	7981.41
656.151	4810.51
656.598	3167.61
657.044	2276.01
657.491	1762.11
657.938	1422.01
658.385	1202.21
658.831	1039.81
659.278	947.51
659.724	851.71
660.171	776.71
660.618	717.61
661.064	692.71
661.511	664.31
661.957	662.21
662.404	642.91
662.85	660.01
663.296	635.31
663.743	570.11
664.189	543.71
664.635	545.11
665.082	539.91
665.528	533.21
665.974	532.71
666.42	518.81
666.867	518.91
667.313	489.01
667.759	479.31
668.205	471.01
668.651	454.61
669.097	462.11
669.543	455.61
669.989	456.71
670.435	461.91
670.881	454.51
671.327	459.91
671.773	479.51
672.219	496.51
672.665	563.31
673.11	601.41
673.556	651.11
674.002	686.11
674.448	672.31
674.893	570.41
675.339	490.81
675.785	457.81
676.23	434.61
676.676	408.91
677.122	400.01
677.567	378.41
678.013	379.31
678.458	371.81
678.904	370.21
679.349	354.81
679.794	363.11
680.24	357.01
680.685	361.31
681.131	356.51
681.576	359.31
682.021	365.21
682.466	355.21
682.912	363.11
683.357	363.41
683.802	393.71
684.247	417.11
684.692	469.51
685.137	517.01
685.583	549.41
686.028	573.31
686.473	534.91
686.918	463.01
687.363	428.41
687.807	407.71
688.252	373.51
688.697	374.41
689.142	350.21
689.587	345.61
690.032	344.81
690.477	364.31
690.921	367.01
691.366	394.81
691.811	413.11
692.255	439.51
692.7	482.31
693.145	526.41
693.589	736.81
694.034	1198.31
694.478	1603.61
694.923	1786.51
695.367	2313.91
695.812	1234.71
696.256	515.81
696.701	383.51
697.145	356.71
697.59	340.61
698.034	324.21
698.478	329.71
698.922	331.81
699.367	322.51
699.811	348.11
700.255	364.01
700.699	399.91
701.143	435.41
701.588	492.91
702.032	524.51
702.476	526.31
702.92	512.81
703.364	516.31
703.808	676.51
704.252	1113.01
704.696	1525.31
705.14	1721.11
705.584	2185.11
706.027	1092.71
706.471	538.81
706.915	409.71
707.359	367.91
707.803	331.71
708.246	317.41
708.69	318.51
709.134	318.21
709.577	318.41
710.021	322.01
710.465	309.61
710.908	312.81
711.352	310.81
711.795	326.71
712.239	378.51
712.682	407.21
713.126	430.71
713.569	465.51
714.012	369.91
714.456	314.41
714.899	303.91
715.342	284.81
715.786	269.91
716.229	270.31
716.672	258.41
717.115	253.21
717.558	253.11
718.002	265.01
718.445	263.81
718.888	292.51
719.331	304.31
719.774	321.31
720.217	318.81
720.66	298.61
721.103	275.61
721.546	262.41
721.989	255.81
722.432	235.81
722.874	250.71
723.317	238.41
723.76	240.41
724.203	264.81
724.645	326.31
725.088	480.81
725.531	593.61
725.974	669.61
726.416	557.71
726.859	307.01
727.301	256.11
727.744	241.01
728.187	241.41
728.629	250.11
729.071	257.51
729.514	268.31
729.956	284.01
730.399	290.11
730.841	299.51
731.283	279.21
731.726	274.91
732.168	267.91
732.61	275.61
733.053	302.01
733.495	327.51
733.937	372.71
734.379	413.81
734.821	457.01
735.263	577.21
735.705	908.21
736.148	1696.71
736.59	2701.31
737.032	3102.41
737.474	2557.81
737.916	843.21
738.357	440.51
738.799	338.71
739.241	308.91
739.683	298.11
740.125	302.51
740.567	307.31
741.008	324.01
741.45	332.81
741.892	335.71
742.334	368.71
742.775	371.11
743.217	352.31
743.658	276.31
744.1	262.71
744.542	274.61
744.983	335.31
745.425	364.01
745.866	356.91
746.307	295.01
746.749	294.01
747.19	335.31
747.632	490.31
748.073	960.31
748.514	2006.91
748.956	2967.61
749.397	3732.11
749.838	3084.41
750.279	3021.21
750.72	1552.51
751.162	580.31
751.603	344.21
752.044	262.31
752.485	235.71
752.926	227.01
753.367	208.01
753.808	206.91
754.249	210.31
754.69	192.81
755.131	192.41
755.572	190.31
756.013	187.51
756.453	193.41
756.894	193.11
757.335	200.21
757.776	199.61
758.216	207.21
758.657	202.11
759.098	208.31
759.538	234.21
759.979	282.71
760.42	403.71
760.86	770.21
761.301	2008.41
761.741	4718.01
762.182	6539.31
762.622	4646.71
763.063	1375.31
763.503	561.61
763.943	340.61
764.384	294.51
764.824	290.91
765.264	291.71
765.705	237.71
766.145	199.51
766.585	186.51
767.025	162.31
767.465	171.41
767.906	196.61
768.346	230.21
768.786	242.11
769.226	240.81
769.666	334.11
770.106	671.11
770.546	1677.01
770.986	2706.51
771.426	2419.01
771.866	822.51
772.306	349.71
772.745	216.11
773.185	176.51
773.625	166.31
774.065	162.61
774.505	169.61
774.944	226.61
775.384	424.51
775.824	691.21
776.263	659.41
776.703	316.31
777.142	174.21
777.582	148.71
778.021	129.21
778.461	128.51
778.9	134.21
779.34	120.41
779.779	116.01
780.219	116.21
780.658	109.91
781.097	111.21
781.537	115.01
781.976	114.41
782.415	111.81
782.855	110.41
783.294	104.71
783.733	107.01
784.172	110.31
784.611	111.71
785.05	111.91
785.489	109.31
785.928	126.21
786.367	137.11
786.806	130.71
787.245	132.91
787.684	140.01
788.123	155.91
788.562	140.21
789.001	133.41
789.44	125.71
789.879	120.91
790.317	126.11
790.756	134.61
791.195	130.91
791.634	153.91
792.072	224.21
792.511	393.31
792.95	1083.11
793.388	2214.81
793.827	1935.11
794.265	693.71
794.704	292.31
795.142	195.81
795.581	156.51
796.019	136.31
796.458	132.11
796.896	125.71
797.334	136.81
797.773	165.21
798.211	232.11
798.649	470.41
799.087	1078.71
799.526	1657.41
799.964	2109.11
800.402	2051.11
800.84	799.01
801.278	320.21
801.716	194.81
802.154	162.51
802.592	152.51
803.03	157.61
803.468	134.11
803.906	151.81
804.344	161.81
804.782	147.11
805.22	139.71
805.658	141.71
806.096	157.51
806.533	164.61
806.971	179.71
807.409	226.01
807.847	345.61
808.284	722.11
808.722	2001.41
809.16	3410.81
809.597	3337.11
810.035	5681.01
810.472	5835.11
810.91	2162.11
811.347	836.61
811.785	426.01
812.222	275.41
812.66	205.91
813.097	172.81
813.535	147.71
813.972	136.61
814.409	127.41
814.846	112.81
815.284	112.41
815.721	104.01
816.158	104.21
816.595	113.31
817.032	163.11
817.47	183.61
817.907	132.01
818.344	109.81
818.781	94.01
819.218	98.81
819.655	126.81
820.092	200.71
820.529	220.21
820.966	180.81
821.403	128.41
821.839	106.21
822.276	108.81
822.713	125.51
823.15	141.41
823.587	130.71
824.023	155.01
824.46	326.31
824.897	950.51
825.333	1387.11
825.77	600.31
826.206	236.41
826.643	138.51
827.08	103.51
827.516	85.41
827.953	79.21
828.389	83.51
828.825	74.11
829.262	70.91
829.698	75.01
830.135	60.61
830.571	66.61
831.007	68.21
831.443	71.41
831.88	65.51
832.316	66.51
832.752	67.81
833.188	68.21
833.624	65.41
834.06	71.81
834.497	74.31
834.933	76.01
835.369	78.01
835.805	74.71
836.241	81.61
836.677	86.11
837.112	86.01
837.548	116.41
837.984	144.01
838.42	209.71
838.856	542.11
839.292	1588.91
839.727	2349.61
840.163	1118.21
840.599	1001.51
841.034	2134.71
841.47	2176.01
841.906	808.71
842.341	349.91
842.777	213.11
843.212	229.41
843.648	207.81
844.083	120.01
844.519	90.91
844.954	76.71
845.39	62.11
845.825	62.81
846.261	60.51
846.696	60.51
847.131	56.01
847.566	60.01
848.002	49.91
848.437	56.31
848.872	58.71
849.307	61.51
849.742	89.61
850.177	197.81
850.613	584.11
851.048	892.81
851.483	390.21
851.918	166.71
852.353	94.11
852.788	59.51
853.223	53.31
853.657	56.71
854.092	53.91
854.527	40.81
854.962	43.11
855.397	43.11
855.832	49.21
856.266	43.91
856.701	39.31
857.136	38.61
857.57	43.81
858.005	49.41
858.44	61.91
858.874	46.11
859.309	58.61
859.743	49.81
860.178	49.01
860.612	46.01
861.047	56.11
861.481	73.41
861.915	73.21
862.35	59.51
862.784	33.41
863.218	37.71
863.653	40.81
864.087	51.61
864.521	51.41
864.955	69.71
865.39	160.11
865.824	176.01
866.258	115.41
866.692	174.11
867.126	189.81
867.56	112.31
867.994	51.31
868.428	37.11
868.862	46.01
869.296	59.91
869.73	64.31
870.164	55.01
870.598	51.61
871.031	38.11
871.465	39.31
871.899	33.31
872.333	25.01
872.766	24.71
873.2	26.61
873.634	36.01
874.067	30.41
874.501	22.01
874.935	36.51
875.368	35.71
875.802	31.91
876.235	21.71
876.669	23.61
877.102	26.31
877.535	25.71
877.969	23.11
878.402	25.51
878.836	19.51
879.269	26.61
879.702	28.51
880.135	21.91
880.569	22.51
881.002	27.41
881.435	24.61
881.868	18.61
882.301	26.81
882.734	20.31
883.167	23.31
883.601	21.31
884.034	26.81
884.467	17.01
884.899	14.61
885.332	22.21
885.765	17.01
886.198	21.81
886.631	23.41
887.064	26.01
887.497	19.21
887.929	34.91
888.362	13.91
888.795	16.41
889.228	17.61
889.66	19.31
890.093	22.81
890.526	18.11
890.958	18.01
891.391	15.31
891.823	24.61
892.256	15.11
892.688	17.51
893.121	14.91
893.553	22.31
893.985	24.61
894.418	17.61
894.85	17.91
895.282	16.01
895.715	20.31
896.147	16.81
896.579	23.11
897.011	13.71
897.444	13.41
897.876	12.41
898.308	22.91
898.74	12.31
899.172	12.91
899.604	23.61
900.036	18.61
900.468	17.51
900.9	13.41
901.332	18.71
901.764	14.21
902.196	28.51
902.628	21.01
903.06	15.01
903.491	36.61
903.923	23.91
904.355	24.11
904.787	28.31
905.218	19.11
905.65	20.21
906.082	8.11
906.513	15.31
906.945	13.61
907.376	11.61
907.808	19.51
908.239	20.71
908.671	20.51
909.102	23.61
909.534	26.21
909.965	47.01
910.397	101.71
910.828	324.81
911.259	477.91
911.691	219.31
912.122	110.31
912.553	51.11
912.984	37.41
913.415	23.31
913.847	20.51
914.278	22.91
914.709	15.41
915.14	17.81
915.571	13.11
916.002	14.01
916.433	13.71
916.864	16.21
917.295	17.51
917.726	20.41
918.157	19.21
918.587	30.21
919.018	22.11
919.449	25.91
919.88	22.81
920.311	31.51
920.741	51.21
921.172	170.41
921.603	150.81
922.033	81.31
922.464	46.31
922.895	25.21
923.325	18.51
923.756	14.01
924.186	13.81
924.617	24.11
925.047	19.51
925.478	28.71
925.908	30.11
926.338	15.81
926.769	11.81
927.199	16.91
927.629	7.81
928.06	17.81
928.49	14.41
928.92	16.01
929.35	14.51
929.78	16.31
930.21	10.71
930.641	11.71
931.071	10.01
931.501	2.21
931.931	6.61
932.361	10.21
932.791	7.01
933.221	4.51
933.651	3.81
934.08	17.61
934.51	29.81
934.94	13.51
935.37	7.91
935.8	11.21
936.229	4.61
936.659	10.91
937.089	6.11
937.519	16.31
937.948	23.21
938.378	20.91
938.807	6.61
939.237	4.21
939.666	6.11
940.096	-3.19
940.525	3.61
940.955	0.91
941.384	4.71
941.814	-7.99
942.243	-5.39
942.672	5.71
943.102	1.91
943.531	4.61
943.96	5.31
944.39	1.51
944.819	-1.29
945.248	2.91
945.677	2.41
946.106	7.01
946.535	7.41
946.964	5.21
947.393	6.31
947.822	4.11
948.251	-4.89
948.68	0.61
949.109	7.71
949.538	7.61
949.967	5.31
950.396	1.21
950.825	0.01
951.254	4.51
951.682	-8.79
952.111	6.21
952.54	8.71
952.969	-7.09
953.397	-1.29
953.826	4.51
954.254	-2.79
954.683	-0.09
955.112	-0.79
955.54	-2.69
955.969	5.11
956.397	2.51
956.826	-2.39
957.254	2.71
957.682	4.11
958.111	3.11
958.539	-1.09
958.967	2.21
959.396	3.61
959.824	6.71
960.252	1.51
960.68	-11.69
961.109	-6.79
961.537	-4.09
961.965	1.11
962.393	-1.69
962.821	-5.79
963.249	0.81
963.677	5.01
964.105	7.31
964.533	48.51
964.961	40.31
965.389	21.41
965.817	7.41
966.245	9.81
966.672	1.01
967.1	-6.69
967.528	-4.29
967.956	-1.29
968.383	-0.19
968.811	-3.89
969.239	-1.89
969.666	-6.09
970.094	2.81
970.522	-0.49
970.949	5.21
971.377	-7.49
971.804	-4.29
972.232	-5.69
972.659	-1.49
973.087	-4.69
973.514	-0.19
973.941	-4.09
974.369	6.41
974.796	-2.59
975.223	1.11
975.651	-5.69
976.078	1.41
976.505	-0.19
976.932	2.51
977.359	14.41
977.786	15.41
978.214	3.51
978.641	0.71
979.068	-5.29
979.495	-3.89
979.922	0.81
980.349	-3.19
980.776	6.51
981.202	-0.79
981.629	-1.19
982.056	6.31
982.483	-1.09
982.91	5.21
983.337	-6.79
983.763	3.31
984.19	-2.49
984.617	-3.09
985.043	-6.19
985.47	0.31
985.897	-1.59
986.323	-7.59
986.75	6.81
987.176	-4.69
987.603	0.01
988.029	2.11
988.456	1.61
988.882	0.31
989.308	0.21
989.735	-0.59
990.161	3.11
990.587	-5.19
991.014	-1.59
991.44	10.11
991.866	1.21
992.292	-3.99
992.719	-0.59
993.145	5.31
993.571	-5.69
993.997	0.51
994.423	-0.09
994.849	-2.59
995.275	6.41
995.701	0.11
996.127	-7.59
996.553	1.51
996.979	2.31
997.405	2.11
997.83	-4.79
998.256	-6.99
998.682	-10.69
999.108	-6.59
999.534	1.11
999.959	-5.29
1000.385	-2.29
1000.811	-1.19
1001.236	-9.49
1001.662	-8.09
1002.087	-7.49
1002.513	-0.59
1002.938	2.31
1003.364	-3.49
1003.789	3.71
1004.215	5.51
1004.64	1.31
1005.066	2.41
1005.491	2.11
1005.916	4.71
1006.342	-8.29
1006.767	-4.19
1007.192	5.21
1007.617	-5.19
1008.042	-5.49
1008.468	-0.99
1008.893	-2.19
1009.318	2.71
1009.743	-0.69
1010.168	6.31
1010.593	3.51
1011.018	-2.99
1011.443	-5.79
1011.868	-2.09
1012.293	-4.99
1012.718	-6.79
1013.143	-2.09
1013.567	2.81
1013.992	-0.39
1014.417	-11.49
1014.842	-3.39
1015.267	-9.19
1015.691	-6.79
1016.116	2.71
1016.541	0.41
1016.965	8.91
1017.39	0.01
1017.814	-2.69
1018.239	2.61
1018.663	-7.99
1019.088	-9.69
1019.512	2.41
1019.937	-3.29
1020.361	-1.89
1020.785	-7.19
1021.21	-2.99
1021.634	0.21
1022.058	0.11
1022.483	0.91
1022.907	-6.09
1023.331	-9.29
1023.755	0.71
1024.179	-2.69
1024.604	-3.39
1025.028	0.01
1025.452	-4.39
1025.876	-0.59
1026.3	-3.49
1026.724	-7.99
1027.148	-5.09
1027.572	-7.69
1027.996	-0.29
1028.42	-0.59
1028.843	-5.49
1029.267	-5.19
1029.691	0.31
1030.115	-1.89
1030.539	-6.89
1030.962	-5.99
1031.386	-6.79
1031.81	0.91
1032.233	-0.29
1032.657	-6.79
1033.08	-4.29
1033.504	-6.39
1033.927	0.01
1034.351	1.01
1034.774	-3.29
1035.198	-4.69
1035.621	-0.49
1036.045	-5.39
1036.468	2.21
1036.891	-8.39
1037.315	-4.29
1037.738	-10.79
1038.161	2.81
1038.584	-7.79
1039.008	-6.39
1039.431	1.41
1039.854	-6.39
1040.277	-6.79
1040.7	-12.19
1041.123	-1.29
1041.546	-6.19
1041.969	-5.19
1042.392	-4.09
1042.815	4.31
1043.238	-1.69
1043.661	5.81
1044.084	-6.59
1044.507	-3.19
1044.93	-6.19
1045.352	-2.09
1045.775	2.11
1046.198	-4.39
1046.621	1.71
1047.043	-5.29
1047.466	9.71
1047.889	0.51
1048.311	-8.29
1048.734	-5.09
1049.156	-0.89
1049.579	-0.39
1050.001	-4.99
1050.424	-4.79
1050.846	-4.59
1051.269	2.11
1051.691	-7.99
1052.113	-6.99
1052.536	-3.29
1052.958	-7.19
1053.38	-7.19
1053.802	-9.89
1054.225	6.11
1054.647	-7.49
1055.069	-4.09
1055.491	-1.19
1055.913	-1.89
1056.335	0.11
1056.757	-0.39
1057.179	-6.79
1057.601	-3.59
1058.023	2.61
1058.445	-8.19
1058.867	-0.69
1059.289	-1.19
1059.711	-4.19
1060.133	-6.59
1060.555	-3.69
1060.976	-5.29
1061.398	-5.79
1061.82	-10.59
1062.241	-6.99
1062.663	-9.29
1063.085	-1.49
1063.506	-1.49
1063.928	-3.49
1064.35	-3.99
1064.771	-11.19
1065.193	-3.19
1065.614	-11.89
1066.035	-1.89
1066.457	-5.99
1066.878	0.21
1067.3	-3.49
1067.721	-5.29
1068.142	-5.49
1068.564	1.91
1068.985	-4.29
1069.406	-8.09
1069.827	-5.39
1070.248	-3.49
1070.67	-9.59
1071.091	-5.99
1071.512	-4.49
1071.933	-5.89
1072.354	-7.69
1072.775	-6.19
1073.196	-9.79
1073.617	-6.59
1074.038	-12.89
1074.459	-6.69
1074.88	-3.79
1075.3	0.71
1075.721	-3.29
1076.142	3.11
1076.563	-2.19
1076.983	-9.09
1077.404	-6.19
1077.825	-10.29
1078.246	-7.19
1078.666	-9.49
1079.087	-9.29
1079.507	-5.39
1079.928	0.21
1080.348	0.01
1080.769	-8.39
1081.189	-2.89
1081.61	-9.59
1082.03	-6.49
1082.451	-3.49
1082.871	-3.79
1083.291	-5.49
1083.711	-9.59
1084.132	-3.49
1084.552	0.01
1084.972	-0.19
1085.392	-15.69
1085.813	-12.29
1086.233	-11.99
1086.653	-5.59
1087.073	-2.19
1087.493	-6.09
1087.913	-8.79
1088.333	-9.59
1088.753	-0.59
1089.173	-1.99
1089.593	-8.09
1090.013	4.31
1090.433	6.11
1090.852	-1.39
1091.272	-7.69
1091.692	-1.89
1092.112	-7.29
1092.531	-7.89
1092.951	-8.09
1093.371	-2.19
1093.79	4.81
1094.21	-6.99
1094.63	-2.59
1095.049	-0.59
1095.469	-3.39
1095.888	-4.59
1096.308	1.01
1096.727	3.31
1097.146	-4.59
1097.566	-0.09
1097.985	0.81
1098.405	-6.09
1098.824	-5.89
1099.243	-9.19
1099.662	-8.59
1100.082	-3.29
1100.501	1.01
1100.92	-8.89
1101.339	0.01
1101.758	-4.09
