Data from 20171114-ORNL-Ar_H_NY_Subt18_08-09-26-144.txt Node
Date: Tue Nov 14 08:09:26 EST 2017
User: Ender
Spectrometer: HR+D1039
Trigger mode: 0
Integration Time (sec): 2.730000E-2
Scans to average: 10
Electric dark correction enabled: true
Nonlinearity correction enabled: false
Boxcar width: 0
XAxis mode: Wavelengths
Number of Pixels in Spectrum: 2048
>>>>>Begin Spectral Data<<<<<
187.836	-8.21
188.309	-8.21
188.782	-8.21
189.255	3.79
189.728	2.19
190.201	5.79
190.674	0.89
191.147	-1.11
191.619	-8.71
192.092	-2.61
192.565	7.19
193.038	2.09
193.511	1.29
193.984	1.09
194.456	-4.91
194.929	2.39
195.402	-3.11
195.874	1.99
196.347	-5.21
196.82	-2.81
197.292	6.09
197.765	0.29
198.237	-14.51
198.71	-0.11
199.182	0.19
199.655	1.19
200.127	5.69
200.6	-4.21
201.072	-4.31
201.544	-4.31
202.017	-3.91
202.489	2.29
202.961	-2.61
203.433	-3.01
203.906	-5.51
204.378	-6.21
204.85	-6.41
205.322	-11.31
205.794	-3.31
206.266	-3.61
206.739	-11.31
207.211	-0.51
207.683	-12.01
208.155	-7.81
208.627	-12.81
209.099	-5.21
209.57	-12.01
210.042	-10.41
210.514	-9.51
210.986	-4.11
211.458	-14.41
211.93	-4.51
212.402	-0.51
212.873	-10.01
213.345	-11.71
213.817	-10.71
214.288	-9.41
214.76	-10.91
215.232	-4.11
215.703	-4.01
216.175	-7.91
216.646	-4.71
217.118	-5.71
217.589	-6.01
218.061	-4.11
218.532	-3.71
219.004	-4.91
219.475	-1.81
219.946	-6.11
220.418	-8.91
220.889	-0.81
221.36	-0.51
221.832	-6.91
222.303	-8.91
222.774	-5.41
223.245	-13.51
223.717	-8.71
224.188	-4.71
224.659	-8.51
225.13	-12.91
225.601	-4.41
226.072	-0.81
226.543	-4.41
227.014	-0.81
227.485	-5.71
227.956	-9.21
228.427	-4.11
228.898	-4.61
229.369	0.89
229.839	-4.71
230.31	-9.91
230.781	-0.61
231.252	-3.51
231.722	-9.61
232.193	-6.01
232.664	-6.71
233.135	-8.61
233.605	-7.91
234.076	-5.61
234.546	-5.31
235.017	-0.21
235.487	-0.31
235.958	-6.61
236.428	-6.71
236.899	-3.21
237.369	-3.61
237.84	-7.11
238.31	-4.01
238.78	-5.11
239.251	-7.41
239.721	-6.21
240.191	-6.31
240.662	-7.71
241.132	-7.31
241.602	-10.21
242.072	-3.11
242.542	1.49
243.013	-2.11
243.483	2.19
243.953	-4.01
244.423	-1.71
244.893	-8.21
245.363	0.49
245.833	0.09
246.303	-9.91
246.773	0.39
247.243	-2.51
247.712	-4.51
248.182	-5.21
248.652	-0.21
249.122	-14.01
249.592	-6.51
250.061	-0.21
250.531	9.59
251.001	-2.41
251.471	-1.51
251.94	4.09
252.41	-3.71
252.879	-12.81
253.349	6.09
253.818	2.49
254.288	-0.71
254.757	-5.71
255.227	-5.31
255.696	0.39
256.166	0.29
256.635	-3.81
257.105	2.29
257.574	1.19
258.043	-2.71
258.513	-5.51
258.982	-2.11
259.451	-9.51
259.92	-7.21
260.389	-0.71
260.859	10.69
261.328	5.09
261.797	-3.91
262.266	-2.81
262.735	1.19
263.204	-5.31
263.673	-6.81
264.142	-8.61
264.611	-8.81
265.08	-6.51
265.549	-5.91
266.018	-2.91
266.487	-4.61
266.955	-7.21
267.424	-3.01
267.893	2.29
268.362	-5.31
268.83	-4.41
269.299	5.19
269.768	-2.81
270.236	-1.61
270.705	-3.41
271.174	-5.51
271.642	0.49
272.111	-1.11
272.579	-1.21
273.048	0.89
273.516	-0.61
273.985	0.09
274.453	2.39
274.922	4.69
275.39	5.19
275.858	-6.81
276.327	2.69
276.795	5.79
277.263	2.49
277.731	5.79
278.2	9.79
278.668	-0.41
279.136	6.89
279.604	-3.71
280.072	6.09
280.54	6.59
281.008	1.39
281.477	2.89
281.945	6.69
282.413	10.89
282.881	5.59
283.348	-4.01
283.816	3.39
284.284	6.79
284.752	10.29
285.22	3.99
285.688	1.09
286.156	0.09
286.623	8.49
287.091	6.09
287.559	0.39
288.026	8.69
288.494	2.19
288.962	-3.41
289.429	-0.51
289.897	13.79
290.364	6.29
290.832	9.19
291.3	10.19
291.767	8.09
292.234	16.99
292.702	0.69
293.169	6.89
293.637	13.89
294.104	9.49
294.571	-0.91
295.039	-0.01
295.506	5.29
295.973	5.29
296.44	6.39
296.908	7.99
297.375	10.39
297.842	11.49
298.309	7.29
298.776	1.99
299.243	4.59
299.71	6.99
300.177	16.69
300.644	9.79
301.111	6.09
301.578	11.79
302.045	0.09
302.512	14.89
302.979	11.79
303.446	8.89
303.913	7.59
304.379	11.09
304.846	15.69
305.313	12.19
305.78	13.79
306.246	17.09
306.713	12.89
307.18	11.59
307.646	11.59
308.113	16.49
308.579	11.79
309.046	13.19
309.512	13.29
309.979	13.69
310.445	19.39
310.912	22.89
311.378	14.49
311.845	16.39
312.311	23.99
312.777	21.59
313.244	20.49
313.71	21.99
314.176	17.49
314.642	16.09
315.109	18.79
315.575	23.39
316.041	22.79
316.507	16.89
316.973	26.49
317.439	22.49
317.905	26.39
318.371	23.19
318.837	21.59
319.303	20.79
319.769	19.39
320.235	20.09
320.701	22.79
321.167	28.99
321.633	18.09
322.099	20.09
322.564	29.99
323.03	26.49
323.496	23.99
323.962	28.29
324.427	25.89
324.893	29.39
325.359	27.69
325.824	23.29
326.29	19.69
326.755	24.19
327.221	27.39
327.686	26.19
328.152	28.19
328.617	29.89
329.083	33.49
329.548	31.69
330.014	31.99
330.479	27.49
330.944	32.29
331.41	34.29
331.875	38.99
332.34	31.59
332.805	25.29
333.271	34.79
333.736	27.69
334.201	34.89
334.666	38.39
335.131	37.49
335.596	39.19
336.061	32.59
336.526	30.19
336.991	33.59
337.456	43.59
337.921	41.49
338.386	30.89
338.851	38.39
339.316	37.29
339.781	39.49
340.246	43.59
340.711	30.59
341.175	43.69
341.64	29.69
342.105	39.39
342.569	48.59
343.034	38.09
343.499	45.39
343.963	36.49
344.428	49.59
344.893	45.09
345.357	50.09
345.822	45.49
346.286	48.89
346.751	58.09
347.215	47.49
347.679	56.89
348.144	64.69
348.608	57.89
349.073	50.99
349.537	59.79
350.001	53.49
350.465	65.99
350.93	55.39
351.394	65.99
351.858	52.79
352.322	66.79
352.786	66.09
353.25	72.09
353.715	86.79
354.179	71.49
354.643	93.59
355.107	88.89
355.571	79.29
356.035	73.99
356.498	84.39
356.962	88.39
357.426	94.99
357.89	88.09
358.354	68.79
358.818	67.09
359.281	59.69
359.745	57.79
360.209	55.99
360.673	52.99
361.136	62.99
361.6	70.39
362.064	63.39
362.527	70.19
362.991	75.69
363.454	67.19
363.918	61.99
364.381	57.99
364.845	67.69
365.308	74.89
365.772	70.29
366.235	69.69
366.698	61.49
367.162	70.39
367.625	68.19
368.088	70.29
368.552	69.89
369.015	72.69
369.478	78.79
369.941	82.09
370.404	77.49
370.867	84.99
371.331	88.89
371.794	89.19
372.257	85.59
372.72	93.09
373.183	91.99
373.646	73.19
374.109	80.29
374.572	83.39
375.035	86.39
375.497	85.49
375.96	88.89
376.423	92.69
376.886	91.99
377.349	91.59
377.811	88.29
378.274	92.29
378.737	88.09
379.199	97.29
379.662	95.29
380.125	99.19
380.587	93.49
381.05	94.19
381.512	97.19
381.975	110.69
382.437	106.69
382.9	105.59
383.362	103.69
383.825	114.99
384.287	109.89
384.75	104.19
385.212	106.99
385.674	117.39
386.136	115.99
386.599	111.59
387.061	108.69
387.523	100.79
387.985	113.09
388.447	118.69
388.91	110.69
389.372	116.19
389.834	119.59
390.296	110.49
390.758	116.49
391.22	127.19
391.682	131.79
392.144	144.79
392.606	136.49
393.068	134.19
393.529	136.49
393.991	124.69
394.453	121.49
394.915	123.49
395.377	134.39
395.838	128.99
396.3	128.79
396.762	127.29
397.224	129.49
397.685	122.69
398.147	123.09
398.608	127.89
399.07	124.79
399.531	136.49
399.993	138.19
400.454	141.19
400.916	145.29
401.377	136.39
401.839	139.79
402.3	141.19
402.762	161.49
403.223	167.69
403.684	159.19
404.145	151.39
404.607	144.39
405.068	145.49
405.529	165.49
405.99	177.99
406.451	162.79
406.913	161.59
407.374	156.29
407.835	154.79
408.296	159.69
408.757	167.19
409.218	175.19
409.679	169.19
410.14	158.99
410.601	163.29
411.062	171.99
411.522	178.19
411.983	170.69
412.444	174.19
412.905	171.09
413.366	177.19
413.826	187.79
414.287	215.69
414.748	253.89
415.208	237.79
415.669	207.19
416.13	206.79
416.59	195.39
417.051	212.99
417.511	213.69
417.972	232.69
418.432	247.99
418.893	288.39
419.353	250.19
419.814	190.99
420.274	179.29
420.734	174.89
421.195	187.79
421.655	188.19
422.115	185.69
422.576	191.39
423.036	198.29
423.496	203.19
423.956	211.69
424.416	219.29
424.876	262.39
425.336	255.39
425.797	255.49
426.257	245.09
426.717	227.99
427.177	228.39
427.637	219.99
428.097	229.89
428.556	233.09
429.016	261.19
429.476	253.89
429.936	262.99
430.396	269.39
430.856	281.49
431.315	299.89
431.775	329.59
432.235	365.99
432.694	335.09
433.154	344.89
433.614	364.19
434.073	314.29
434.533	275.99
434.993	261.29
435.452	273.99
435.912	276.19
436.371	263.49
436.83	263.59
437.29	256.79
437.749	241.99
438.209	234.99
438.668	270.69
439.127	270.99
439.587	256.89
440.046	233.99
440.505	255.69
440.964	263.89
441.424	306.79
441.883	298.99
442.342	257.79
442.801	226.39
443.26	218.29
443.719	224.89
444.178	224.19
444.637	210.79
445.096	220.39
445.555	227.79
446.014	229.69
446.473	229.49
446.932	237.99
447.391	226.89
447.849	235.19
448.308	222.69
448.767	225.49
449.226	238.79
449.685	241.49
450.143	249.19
450.602	240.29
451.061	223.09
451.519	227.79
451.978	234.59
452.436	238.69
452.895	236.99
453.353	254.59
453.812	239.09
454.27	241.59
454.729	240.39
455.187	244.39
455.646	241.29
456.104	245.39
456.562	260.69
457.021	269.49
457.479	258.89
457.937	272.09
458.395	262.99
458.854	257.79
459.312	256.19
459.77	273.09
460.228	256.89
460.686	242.49
461.144	252.79
461.602	253.39
462.06	253.29
462.518	267.89
462.976	258.89
463.434	260.79
463.892	266.29
464.35	274.99
464.808	287.19
465.266	266.89
465.724	271.19
466.181	279.89
466.639	281.29
467.097	296.99
467.555	303.89
468.012	304.59
468.47	317.89
468.928	328.99
469.385	334.39
469.843	345.99
470.3	352.49
470.758	360.89
471.215	383.39
471.673	398.39
472.13	408.29
472.588	416.59
473.045	389.69
473.503	381.69
473.96	400.39
474.417	400.79
474.875	435.29
475.332	473.09
475.789	463.09
476.246	464.69
476.704	491.59
477.161	509.39
477.618	521.29
478.075	563.99
478.532	604.09
478.989	670.09
479.446	781.59
479.903	754.99
480.36	783.29
480.817	822.79
481.274	911.49
481.731	1005.79
482.188	1079.89
482.645	1199.29
483.102	1279.69
483.558	1397.29
484.015	1447.89
484.472	1418.99
484.929	1382.89
485.385	1336.09
485.842	1295.69
486.299	1260.79
486.755	1221.09
487.212	1035.69
487.668	892.29
488.125	824.19
488.582	755.39
489.038	734.49
489.494	699.29
489.951	679.99
490.407	649.89
490.864	637.19
491.32	640.79
491.776	639.99
492.233	643.79
492.689	600.49
493.145	606.89
493.602	600.59
494.058	618.99
494.514	619.09
494.97	633.39
495.426	653.99
495.882	609.29
496.338	617.29
496.794	623.69
497.251	607.79
497.707	629.89
498.163	626.89
498.618	636.59
499.074	640.49
499.53	664.49
499.986	666.69
500.442	653.69
500.898	626.19
501.354	614.89
501.809	626.69
502.265	630.29
502.721	642.39
503.177	637.49
503.632	643.09
504.088	648.39
504.543	667.69
504.999	692.29
505.455	666.79
505.91	643.29
506.366	637.69
506.821	643.99
507.277	640.19
507.732	642.19
508.187	636.09
508.643	640.49
509.098	647.89
509.553	670.39
510.009	673.29
510.464	675.79
510.919	699.29
511.375	709.29
511.83	721.59
512.285	729.09
512.74	759.29
513.195	787.39
513.65	773.19
514.105	756.19
514.56	768.79
515.015	795.39
515.47	808.69
515.925	787.09
516.38	786.39
516.835	797.19
517.29	784.49
517.745	772.89
518.2	778.89
518.655	756.89
519.109	755.19
519.564	745.29
520.019	742.59
520.474	738.29
520.928	739.99
521.383	727.59
521.838	714.29
522.292	715.39
522.747	719.69
523.201	721.59
523.656	718.19
524.11	707.29
524.565	703.19
525.019	694.79
525.474	713.29
525.928	705.49
526.382	701.79
526.837	710.49
527.291	713.59
527.745	701.59
528.2	709.59
528.654	693.59
529.108	691.19
529.562	698.89
530.016	695.19
530.47	697.59
530.925	699.19
531.379	703.29
531.833	711.89
532.287	708.99
532.741	699.99
533.195	703.69
533.649	711.19
534.103	719.99
534.556	715.49
535.01	714.39
535.464	707.29
535.918	724.39
536.372	717.59
536.826	730.59
537.279	718.69
537.733	718.19
538.187	723.79
538.64	724.79
539.094	716.39
539.548	741.59
540.001	737.29
540.455	740.99
540.908	746.39
541.362	751.19
541.815	755.79
542.269	774.99
542.722	773.39
543.175	783.39
543.629	788.49
544.082	797.69
544.536	799.79
544.989	798.09
545.442	821.09
545.895	807.59
546.349	794.19
546.802	802.79
547.255	805.99
547.708	825.29
548.161	832.99
548.614	839.69
549.067	839.99
549.52	834.19
549.973	825.29
550.426	825.89
550.879	814.49
551.332	814.69
551.785	822.49
552.238	830.19
552.691	825.19
553.144	850.79
553.596	862.59
554.049	873.69
554.502	905.79
554.955	927.09
555.407	915.69
555.86	917.79
556.313	909.99
556.765	892.79
557.218	898.19
557.67	892.49
558.123	893.59
558.576	883.59
559.028	893.69
559.48	891.69
559.933	889.89
560.385	864.79
560.838	831.99
561.29	803.89
561.742	796.19
562.195	782.69
562.647	779.49
563.099	792.39
563.551	791.39
564.004	790.79
564.456	787.29
564.908	780.89
565.36	753.19
565.812	739.89
566.264	741.39
566.716	728.49
567.168	714.79
567.62	725.69
568.072	705.49
568.524	705.99
568.976	705.29
569.428	695.99
569.88	688.69
570.332	703.29
570.784	701.49
571.235	706.69
571.687	707.39
572.139	717.99
572.59	721.59
573.042	727.89
573.494	725.69
573.945	726.09
574.397	695.99
574.849	706.49
575.3	700.89
575.752	702.39
576.203	697.79
576.655	693.69
577.106	686.29
577.557	685.39
578.009	686.59
578.46	679.89
578.912	673.29
579.363	678.79
579.814	685.79
580.265	666.89
580.717	684.19
581.168	673.09
581.619	695.99
582.07	693.99
582.521	683.39
582.972	689.29
583.423	690.19
583.875	688.09
584.326	706.49
584.777	723.49
585.227	740.49
585.678	763.29
586.129	766.29
586.58	806.89
587.031	816.39
587.482	863.49
587.933	890.19
588.384	863.39
588.834	813.69
589.285	787.19
589.736	786.79
590.186	791.19
590.637	784.49
591.088	755.59
591.538	759.49
591.989	743.19
592.439	742.19
592.89	736.59
593.34	723.19
593.791	716.09
594.241	709.89
594.692	719.49
595.142	715.89
595.593	708.39
596.043	713.59
596.493	727.19
596.943	722.89
597.394	740.39
597.844	738.39
598.294	747.09
598.744	774.19
599.195	807.39
599.645	849.59
600.095	886.09
600.545	944.19
600.995	988.89
601.445	1042.39
601.895	1113.79
602.345	1169.59
602.795	1139.89
603.245	1095.49
603.695	1036.79
604.145	995.19
604.594	933.39
605.044	869.19
605.494	815.69
605.944	778.99
606.393	766.19
606.843	747.99
607.293	741.69
607.743	742.49
608.192	761.19
608.642	775.39
609.091	768.09
609.541	775.39
609.99	786.09
610.44	774.79
610.889	725.89
611.339	710.19
611.788	698.59
612.238	702.99
612.687	717.49
613.136	707.59
613.586	733.49
614.035	716.49
614.484	726.89
614.933	732.89
615.383	723.89
615.832	722.29
616.281	715.59
616.73	683.89
617.179	666.39
617.628	664.69
618.077	644.79
618.526	635.99
618.975	621.99
619.424	633.29
619.873	631.29
620.322	635.29
620.771	622.69
621.22	623.19
621.669	607.79
622.118	596.29
622.567	599.89
623.015	571.59
623.464	573.69
623.913	579.79
624.361	557.89
624.81	563.19
625.259	568.19
625.707	567.89
626.156	571.09
626.604	583.79
627.053	576.19
627.501	571.79
627.95	587.99
628.398	596.29
628.847	577.39
629.295	575.39
629.744	579.39
630.192	586.99
630.64	572.89
631.089	554.09
631.537	549.89
631.985	544.49
632.433	545.89
632.881	539.19
633.33	550.49
633.778	540.79
634.226	538.09
634.674	541.79
635.122	544.29
635.57	570.29
636.018	576.59
636.466	571.59
636.914	563.29
637.362	590.59
637.81	588.69
638.258	594.99
638.705	600.69
639.153	628.89
639.601	645.69
640.049	655.79
640.497	688.49
640.944	708.79
641.392	663.89
641.84	627.19
642.287	591.99
642.735	579.59
643.182	576.59
643.63	565.69
644.078	582.49
644.525	589.89
644.973	592.89
645.42	614.39
645.867	628.69
646.315	640.99
646.762	666.89
647.21	691.39
647.657	714.99
648.104	747.49
648.551	764.49
648.999	836.09
649.446	905.09
649.893	998.19
650.34	1127.19
650.787	1346.49
651.234	1673.79
651.682	2156.79
652.129	2946.29
652.576	4175.39
653.023	6115.19
653.47	8255.39
653.917	10111.89
654.363	11566.79
654.81	12710.79
655.257	11955.79
655.704	7967.99
656.151	4770.89
656.598	3158.49
657.044	2253.49
657.491	1760.39
657.938	1415.19
658.385	1182.69
658.831	1047.69
659.278	933.89
659.724	841.49
660.171	784.39
660.618	713.29
661.064	691.29
661.511	662.29
661.957	664.69
662.404	642.99
662.85	654.79
663.296	625.39
663.743	572.19
664.189	554.29
664.635	537.49
665.082	535.09
665.528	540.59
665.974	526.69
666.42	520.79
666.867	513.69
667.313	498.79
667.759	484.29
668.205	462.09
668.651	465.59
669.097	465.09
669.543	448.49
669.989	453.99
670.435	456.69
670.881	452.59
671.327	471.09
671.773	483.29
672.219	507.99
672.665	571.79
673.11	610.69
673.556	665.39
674.002	689.89
674.448	666.59
674.893	576.69
675.339	505.69
675.785	452.39
676.23	437.39
676.676	408.09
677.122	396.79
677.567	388.89
678.013	384.59
678.458	372.49
678.904	379.29
679.349	357.39
679.794	373.09
680.24	364.29
680.685	367.99
681.131	362.09
681.576	368.09
682.021	375.99
682.466	357.99
682.912	366.19
683.357	366.69
683.802	405.79
684.247	431.39
684.692	483.39
685.137	512.49
685.583	549.19
686.028	579.69
686.473	538.69
686.918	464.89
687.363	433.79
687.807	414.99
688.252	375.49
688.697	374.19
689.142	348.39
689.587	350.89
690.032	330.69
690.477	361.09
690.921	366.19
691.366	401.29
691.811	411.69
692.255	455.49
692.7	483.59
693.145	537.29
693.589	767.79
694.034	1238.09
694.478	1639.99
694.923	1806.89
695.367	2329.59
695.812	1243.49
696.256	521.19
696.701	380.99
697.145	357.09
697.59	340.29
698.034	330.59
698.478	335.09
698.922	335.09
699.367	329.39
699.811	344.99
700.255	370.79
700.699	403.09
701.143	446.89
701.588	492.19
702.032	536.69
702.476	528.79
702.92	513.59
703.364	525.19
703.808	706.19
704.252	1126.29
704.696	1565.09
705.14	1743.09
705.584	2204.09
706.027	1122.69
706.471	552.39
706.915	410.89
707.359	366.79
707.803	341.09
708.246	320.79
708.69	327.49
709.134	328.39
709.577	325.29
710.021	332.29
710.465	318.79
710.908	315.89
711.352	307.79
711.795	328.09
712.239	380.19
712.682	405.69
713.126	429.59
713.569	473.59
714.012	364.99
714.456	325.39
714.899	301.59
715.342	285.29
715.786	277.29
716.229	270.59
716.672	261.99
717.115	259.29
717.558	261.79
718.002	254.89
718.445	278.29
718.888	297.09
719.331	306.09
719.774	314.29
720.217	313.59
720.66	287.69
721.103	277.19
721.546	267.79
721.989	252.19
722.432	237.79
722.874	244.29
723.317	237.79
723.76	251.09
724.203	266.99
724.645	332.69
725.088	484.19
725.531	601.79
725.974	666.49
726.416	569.19
726.859	326.49
727.301	259.59
727.744	251.39
728.187	243.59
728.629	245.49
729.071	249.09
729.514	269.49
729.956	287.99
730.399	294.09
730.841	303.49
731.283	281.49
731.726	275.89
732.168	267.59
732.61	285.29
733.053	300.39
733.495	338.79
733.937	373.69
734.379	421.19
734.821	465.19
735.263	588.99
735.705	923.79
736.148	1742.29
736.59	2801.09
737.032	3171.29
737.474	2607.29
737.916	868.19
738.357	450.99
738.799	343.89
739.241	309.29
739.683	295.59
740.125	304.59
740.567	313.49
741.008	321.19
741.45	334.69
741.892	335.89
742.334	366.39
742.775	377.49
743.217	369.69
743.658	282.59
744.1	270.99
744.542	276.59
744.983	339.59
745.425	356.29
745.866	360.59
746.307	294.59
746.749	287.79
747.19	341.59
747.632	498.69
748.073	994.09
748.514	2055.69
748.956	3039.39
749.397	3839.39
749.838	3170.39
750.279	3081.99
750.72	1584.19
751.162	583.39
751.603	346.19
752.044	262.39
752.485	231.19
752.926	219.19
753.367	215.09
753.808	210.39
754.249	201.89
754.69	195.99
755.131	192.09
755.572	184.79
756.013	187.19
756.453	193.99
756.894	188.79
757.335	202.59
757.776	203.69
758.216	207.59
758.657	199.59
759.098	222.29
759.538	237.69
759.979	278.59
760.42	409.89
760.86	799.69
761.301	2095.09
761.741	4888.39
762.182	6682.89
762.622	4698.89
763.063	1404.89
763.503	578.59
763.943	343.79
764.384	288.69
764.824	261.99
765.264	255.49
765.705	216.89
766.145	183.69
766.585	181.59
767.025	169.99
767.465	175.39
767.906	184.99
768.346	202.59
768.786	214.19
769.226	226.89
769.666	336.99
770.106	694.99
770.546	1742.89
770.986	2786.89
771.426	2454.09
771.866	843.49
772.306	344.39
772.745	210.19
773.185	174.09
773.625	167.29
774.065	155.89
774.505	170.79
774.944	226.29
775.384	394.49
775.824	622.29
776.263	604.39
776.703	292.89
777.142	165.49
777.582	141.59
778.021	133.19
778.461	128.79
778.9	128.79
779.34	126.19
779.779	116.19
780.219	118.19
780.658	107.09
781.097	109.49
781.537	121.59
781.976	117.79
782.415	113.29
782.855	104.39
783.294	105.69
783.733	108.69
784.172	107.79
784.611	102.49
785.05	114.09
785.489	112.89
785.928	120.89
786.367	124.59
786.806	124.69
787.245	134.49
787.684	137.79
788.123	147.69
788.562	142.99
789.001	130.99
789.44	126.29
789.879	123.59
790.317	119.39
790.756	134.09
791.195	135.09
791.634	158.59
792.072	225.19
792.511	410.89
792.95	1132.59
793.388	2240.09
793.827	1970.09
794.265	705.79
794.704	297.99
795.142	181.89
795.581	157.09
796.019	143.89
796.458	137.39
796.896	122.89
797.334	135.89
797.773	167.69
798.211	235.49
798.649	485.69
799.087	1115.59
799.526	1729.99
799.964	2153.89
800.402	2081.99
800.84	803.09
801.278	326.29
801.716	204.69
802.154	165.79
802.592	154.59
803.03	142.29
803.468	145.19
803.906	147.49
804.344	154.99
804.782	143.09
805.22	139.39
805.658	134.69
806.096	150.09
806.533	165.39
806.971	187.19
807.409	237.19
807.847	353.09
808.284	755.89
808.722	2079.09
809.16	3488.29
809.597	3468.39
810.035	5885.69
810.472	5956.49
810.91	2198.89
811.347	860.49
811.785	434.79
812.222	271.09
812.66	198.99
813.097	168.99
813.535	148.19
813.972	127.99
814.409	127.59
814.846	116.79
815.284	117.09
815.721	109.69
816.158	106.69
816.595	112.49
817.032	166.69
817.47	186.89
817.907	128.29
818.344	103.49
818.781	103.09
819.218	97.39
819.655	135.19
820.092	194.29
820.529	221.89
820.966	176.39
821.403	132.89
821.839	104.29
822.276	105.99
822.713	126.69
823.15	140.59
823.587	127.19
824.023	155.49
824.46	342.69
824.897	973.39
825.333	1405.29
825.77	612.79
826.206	246.39
826.643	142.29
827.08	104.99
827.516	92.89
827.953	80.09
828.389	81.89
828.825	72.49
829.262	67.29
829.698	62.49
830.135	62.99
830.571	56.89
831.007	64.49
831.443	64.59
831.88	60.29
832.316	64.69
832.752	67.69
833.188	62.59
833.624	60.99
834.06	71.19
834.497	69.09
834.933	70.19
835.369	70.39
835.805	72.99
836.241	82.99
836.677	86.49
837.112	101.99
837.548	111.89
837.984	142.39
838.42	225.29
838.856	561.69
839.292	1662.19
839.727	2390.09
840.163	1135.49
840.599	1035.39
841.034	2183.79
841.47	2176.19
841.906	817.59
842.341	355.09
842.777	207.99
843.212	214.49
843.648	199.49
844.083	114.29
844.519	87.59
844.954	75.49
845.39	58.49
845.825	54.49
846.261	60.69
846.696	55.39
847.131	59.49
847.566	56.69
848.002	54.99
848.437	57.49
848.872	57.19
849.307	65.29
849.742	89.69
850.177	201.09
850.613	607.49
851.048	908.89
851.483	393.79
851.918	159.99
852.353	89.59
852.788	63.59
853.223	51.79
853.657	53.29
854.092	44.89
854.527	50.79
854.962	36.99
855.397	50.59
855.832	49.99
856.266	40.79
856.701	45.19
857.136	35.59
857.57	37.79
858.005	58.49
858.44	59.89
858.874	46.09
859.309	52.29
859.743	44.79
860.178	49.79
860.612	40.99
861.047	55.89
861.481	72.49
861.915	72.69
862.35	57.39
862.784	38.29
863.218	39.79
863.653	30.99
864.087	46.29
864.521	59.19
864.955	76.29
865.39	161.99
865.824	180.09
866.258	121.09
866.692	178.59
867.126	184.79
867.56	123.09
867.994	58.49
868.428	41.99
868.862	51.09
869.296	55.09
869.73	61.59
870.164	59.09
870.598	46.89
871.031	45.49
871.465	33.49
871.899	33.09
872.333	21.49
872.766	24.29
873.2	26.19
873.634	29.09
874.067	23.49
874.501	28.89
874.935	33.69
875.368	31.49
875.802	28.79
876.235	27.29
876.669	20.69
877.102	26.49
877.535	24.79
877.969	22.69
878.402	22.39
878.836	23.89
879.269	21.99
879.702	28.99
880.135	24.29
880.569	17.69
881.002	30.59
881.435	23.89
881.868	20.79
882.301	20.99
882.734	17.29
883.167	23.49
883.601	19.69
884.034	27.49
884.467	11.89
884.899	15.79
885.332	12.99
885.765	11.49
886.198	8.89
886.631	14.19
887.064	21.99
887.497	21.79
887.929	25.79
888.362	13.89
888.795	18.99
889.228	23.19
889.66	24.49
890.093	15.29
890.526	14.89
890.958	20.59
891.391	18.89
891.823	19.69
892.256	13.69
892.688	13.19
893.121	12.29
893.553	16.89
893.985	25.39
894.418	23.09
894.85	10.09
895.282	17.19
895.715	18.39
896.147	16.09
896.579	11.89
897.011	15.69
897.444	25.49
897.876	20.49
898.308	19.39
898.74	19.29
899.172	13.09
899.604	23.69
900.036	14.89
900.468	19.19
900.9	16.79
901.332	21.79
901.764	13.39
902.196	16.89
902.628	19.09
903.06	13.59
903.491	28.29
903.923	21.69
904.355	19.49
904.787	22.09
905.218	23.19
905.65	20.79
906.082	12.19
906.513	17.99
906.945	17.89
907.376	9.09
907.808	16.49
908.239	20.19
908.671	19.19
909.102	22.79
909.534	24.29
909.965	56.99
910.397	99.89
910.828	345.39
911.259	493.49
911.691	228.99
912.122	115.19
912.553	55.69
912.984	39.29
913.415	26.59
913.847	28.49
914.278	16.79
914.709	14.29
915.14	17.09
915.571	18.89
916.002	22.09
916.433	21.89
916.864	20.49
917.295	22.49
917.726	17.79
918.157	20.19
918.587	32.09
919.018	19.39
919.449	23.79
919.88	24.49
920.311	30.19
920.741	53.49
921.172	171.19
921.603	151.19
922.033	73.99
922.464	45.99
922.895	27.09
923.325	18.09
923.756	15.29
924.186	11.99
924.617	14.79
925.047	23.69
925.478	21.29
925.908	15.49
926.338	14.29
926.769	10.09
927.199	13.09
927.629	7.39
928.06	13.39
928.49	11.29
928.92	6.39
929.35	13.39
929.78	12.69
930.21	9.09
930.641	8.39
931.071	6.99
931.501	4.69
931.931	7.59
932.361	9.79
932.791	8.29
933.221	3.39
933.651	1.89
934.08	16.49
934.51	28.69
934.94	10.69
935.37	0.29
935.8	10.09
936.229	4.49
936.659	10.39
937.089	1.69
937.519	18.09
937.948	28.79
938.378	15.59
938.807	3.39
939.237	3.99
939.666	6.29
940.096	-7.91
940.525	1.09
940.955	-2.01
941.384	10.39
941.814	-10.91
942.243	-6.61
942.672	-0.01
943.102	-1.21
943.531	-1.11
943.96	3.79
944.39	5.59
944.819	1.39
945.248	2.39
945.677	6.99
946.106	7.09
946.535	4.99
946.964	-4.11
947.393	0.39
947.822	3.09
948.251	-4.41
948.68	5.49
949.109	6.89
949.538	2.09
949.967	5.09
950.396	-4.81
950.825	1.79
951.254	-0.31
951.682	-5.21
952.111	1.39
952.54	2.19
952.969	-6.71
953.397	-5.61
953.826	1.29
954.254	-4.81
954.683	-0.91
955.112	-6.51
955.54	1.79
955.969	-1.41
956.397	3.69
956.826	-1.61
957.254	10.19
957.682	-1.61
958.111	3.19
958.539	1.29
958.967	0.99
959.396	-1.11
959.824	-0.01
960.252	1.99
960.68	-6.01
961.109	-4.31
961.537	-6.01
961.965	-1.11
962.393	1.19
962.821	-2.51
963.249	-1.31
963.677	-0.11
964.105	1.19
964.533	51.19
964.961	44.69
965.389	18.09
965.817	6.69
966.245	1.09
966.672	-1.21
967.1	-5.31
967.528	0.69
967.956	1.39
968.383	-3.61
968.811	-0.51
969.239	-1.01
969.666	-5.21
970.094	-4.01
970.522	3.19
970.949	-2.71
971.377	-4.81
971.804	-6.71
972.232	-5.81
972.659	-4.81
973.087	-3.41
973.514	-1.41
973.941	-3.81
974.369	1.39
974.796	-1.01
975.223	-5.61
975.651	-3.71
976.078	4.99
976.505	-4.71
976.932	0.29
977.359	14.29
977.786	10.79
978.214	-3.51
978.641	-5.21
979.068	-5.51
979.495	-5.41
979.922	-1.01
980.349	-8.91
980.776	0.49
981.202	-4.01
981.629	2.29
982.056	3.09
982.483	-1.81
982.91	1.89
983.337	-5.21
983.763	7.39
984.19	-2.31
984.617	-1.11
985.043	-7.11
985.47	-1.51
985.897	-2.91
986.323	-4.11
986.75	-1.01
987.176	-4.21
987.603	-3.91
988.029	-1.31
988.456	-6.01
988.882	-1.11
989.308	-2.51
989.735	-4.11
990.161	1.59
990.587	-4.61
991.014	-2.61
991.44	-3.81
991.866	-2.01
992.292	-11.61
992.719	-2.51
993.145	3.79
993.571	-8.61
993.997	-8.01
994.423	-7.51
994.849	-3.51
995.275	1.39
995.701	-1.21
996.127	-7.21
996.553	-4.91
996.979	-2.91
997.405	-6.51
997.83	-12.41
998.256	-5.91
998.682	-11.21
999.108	-13.81
999.534	-2.21
999.959	-5.31
1000.385	-4.81
1000.811	-2.01
1001.236	-13.61
1001.662	-10.41
1002.087	-6.11
1002.513	-0.01
1002.938	-2.91
1003.364	-4.01
1003.789	2.29
1004.215	-0.01
1004.64	-5.81
1005.066	4.49
1005.491	-0.31
1005.916	-4.71
1006.342	-2.91
1006.767	-9.41
1007.192	1.59
1007.617	-8.21
1008.042	-5.91
1008.468	-7.21
1008.893	-7.61
1009.318	-6.11
1009.743	-3.91
1010.168	-0.21
1010.593	2.49
1011.018	-6.81
1011.443	-1.61
1011.868	-2.91
1012.293	-2.51
1012.718	-6.61
1013.143	-2.31
1013.567	-2.91
1013.992	-2.81
1014.417	-11.81
1014.842	1.29
1015.267	-4.91
1015.691	-6.21
1016.116	6.79
1016.541	-0.91
1016.965	0.49
1017.39	-3.31
1017.814	-2.41
1018.239	-1.41
1018.663	-6.91
1019.088	-11.31
1019.512	-0.51
1019.937	-6.61
1020.361	-5.01
1020.785	-11.61
1021.21	-9.21
1021.634	-4.01
1022.058	-6.41
1022.483	3.09
1022.907	-1.71
1023.331	-8.71
1023.755	-5.61
1024.179	-4.01
1024.604	-12.81
1025.028	-9.11
1025.452	-5.71
1025.876	-4.81
1026.3	1.19
1026.724	-10.71
1027.148	-3.41
1027.572	-5.41
1027.996	-2.91
1028.42	-0.81
1028.843	-8.91
1029.267	-2.91
1029.691	-6.01
1030.115	-8.01
1030.539	-4.21
1030.962	-6.71
1031.386	-10.71
1031.81	-2.91
1032.233	-0.01
1032.657	3.79
1033.08	-6.61
1033.504	-9.21
1033.927	-3.81
1034.351	-0.81
1034.774	-6.51
1035.198	-0.71
1035.621	-11.91
1036.045	-6.81
1036.468	2.89
1036.891	-11.31
1037.315	-12.11
1037.738	-10.11
1038.161	-8.71
1038.584	-6.51
1039.008	-7.11
1039.431	-3.01
1039.854	-9.01
1040.277	-9.61
1040.7	-12.21
1041.123	-1.11
1041.546	-4.91
1041.969	-5.31
1042.392	-3.31
1042.815	-5.31
1043.238	3.99
1043.661	-4.11
1044.084	-13.61
1044.507	-9.31
1044.93	-8.91
1045.352	-2.91
1045.775	-1.71
1046.198	-3.11
1046.621	-0.31
1047.043	4.19
1047.466	1.09
1047.889	-6.11
1048.311	-7.11
1048.734	-3.41
1049.156	-4.61
1049.579	-9.31
1050.001	-3.01
1050.424	1.39
1050.846	-4.41
1051.269	-3.81
1051.691	-7.11
1052.113	-3.81
1052.536	-1.71
1052.958	-10.11
1053.38	-5.61
1053.802	-12.21
1054.225	-1.51
1054.647	-16.41
1055.069	-8.71
1055.491	1.19
1055.913	-7.21
1056.335	-3.51
1056.757	-5.61
1057.179	-7.21
1057.601	-2.31
1058.023	-0.01
1058.445	-6.21
1058.867	-3.91
1059.289	2.29
1059.711	-2.61
1060.133	0.69
1060.555	-6.21
1060.976	-10.11
1061.398	-5.21
1061.82	-9.21
1062.241	2.89
1062.663	-5.51
1063.085	-3.61
1063.506	-3.21
1063.928	-5.11
1064.35	-2.21
1064.771	-6.31
1065.193	-4.51
1065.614	-9.91
1066.035	-7.91
1066.457	-4.51
1066.878	-1.41
1067.3	-1.11
1067.721	-3.91
1068.142	-3.01
1068.564	-10.51
1068.985	-5.01
1069.406	-11.01
1069.827	-5.81
1070.248	-2.71
1070.67	-8.11
1071.091	-10.61
1071.512	-5.31
1071.933	-9.01
1072.354	-9.11
1072.775	-5.71
1073.196	-12.11
1073.617	-6.31
1074.038	-8.61
1074.459	-1.91
1074.88	-8.71
1075.3	-1.51
1075.721	-6.01
1076.142	-0.81
1076.563	4.39
1076.983	-10.41
1077.404	-3.81
1077.825	-6.71
1078.246	-9.01
1078.666	-9.51
1079.087	-4.41
1079.507	-11.71
1079.928	1.09
1080.348	-0.31
1080.769	-7.51
1081.189	-5.01
1081.61	-4.51
1082.03	-6.11
1082.451	-10.81
1082.871	-3.81
1083.291	-7.01
1083.711	-8.31
1084.132	-7.71
1084.552	-2.31
1084.972	-4.71
1085.392	-12.31
1085.813	-9.31
1086.233	-3.61
1086.653	-6.81
1087.073	-6.91
1087.493	-7.11
1087.913	-11.71
1088.333	-6.91
1088.753	-2.81
1089.173	0.59
1089.593	1.59
1090.013	1.79
1090.433	-1.11
1090.852	-6.11
1091.272	-0.71
1091.692	-5.31
1092.112	-4.01
1092.531	-11.21
1092.951	-14.41
1093.371	-3.31
1093.79	-6.41
1094.21	-12.61
1094.63	-6.91
1095.049	-6.51
1095.469	-9.21
1095.888	-5.71
1096.308	-3.21
1096.727	2.69
1097.146	-4.71
1097.566	-12.31
1097.985	-8.41
1098.405	1.29
1098.824	-5.91
1099.243	-7.81
1099.662	-6.91
1100.082	-7.31
1100.501	-4.81
1100.92	-5.21
1101.339	-2.61
1101.758	-9.41
