Data from 20171114-ORNL-Ar_H_NY_Subt18_08-05-40-879.txt Node
Date: Tue Nov 14 08:05:40 EST 2017
User: Ender
Spectrometer: HR+D1039
Trigger mode: 0
Integration Time (sec): 2.730000E-2
Scans to average: 10
Electric dark correction enabled: true
Nonlinearity correction enabled: false
Boxcar width: 0
XAxis mode: Wavelengths
Number of Pixels in Spectrum: 2048
>>>>>Begin Spectral Data<<<<<
187.836	0.16
188.309	0.16
188.782	0.16
189.255	3.76
189.728	0.06
190.201	2.46
190.674	0.46
191.147	-0.24
191.619	-6.24
192.092	0.26
192.565	6.86
193.038	-1.44
193.511	-0.94
193.984	3.96
194.456	-4.94
194.929	1.46
195.402	-3.04
195.874	-2.64
196.347	1.76
196.82	-1.54
197.292	3.06
197.765	-2.64
198.237	-6.74
198.71	4.96
199.182	-4.24
199.655	-0.14
200.127	0.16
200.6	-3.84
201.072	-0.94
201.544	0.06
202.017	0.26
202.489	4.96
202.961	-0.04
203.433	-4.84
203.906	-8.64
204.378	-6.94
204.85	-2.04
205.322	-4.74
205.794	-4.74
206.266	-2.94
206.739	-9.24
207.211	1.56
207.683	-1.94
208.155	-4.64
208.627	-7.54
209.099	-4.24
209.57	-8.34
210.042	-9.14
210.514	-4.74
210.986	-1.94
211.458	-3.74
211.93	-0.04
212.402	1.76
212.873	-7.54
213.345	-5.74
213.817	-9.44
214.288	-0.04
214.76	-5.44
215.232	0.06
215.703	-1.64
216.175	-3.34
216.646	-6.54
217.118	-6.84
217.589	-5.94
218.061	-2.04
218.532	-8.14
219.004	-2.14
219.475	0.56
219.946	-0.64
220.418	-8.04
220.889	0.86
221.36	1.06
221.832	-3.94
222.303	-8.04
222.774	1.66
223.245	-9.64
223.717	-5.74
224.188	0.46
224.659	-6.94
225.13	-3.74
225.601	-1.64
226.072	-0.04
226.543	3.36
227.014	-0.54
227.485	-0.44
227.956	-3.54
228.427	-1.34
228.898	2.16
229.369	-1.84
229.839	-4.04
230.31	-2.14
230.781	3.66
231.252	1.76
231.722	-7.24
232.193	-10.64
232.664	0.26
233.135	-1.64
233.605	-3.24
234.076	-8.04
234.546	5.76
235.017	0.06
235.487	0.76
235.958	1.16
236.428	-1.04
236.899	1.56
237.369	-1.74
237.84	-0.54
238.31	8.56
238.78	2.66
239.251	0.46
239.721	4.06
240.191	-2.74
240.662	-2.74
241.132	3.06
241.602	3.06
242.072	1.46
242.542	5.36
243.013	-2.04
243.483	1.86
243.953	5.26
244.423	0.06
244.893	-1.14
245.363	4.46
245.833	4.36
246.303	-3.04
246.773	7.66
247.243	4.46
247.712	2.26
248.182	13.36
248.652	7.56
249.122	0.26
249.592	10.96
250.061	19.26
250.531	31.86
251.001	16.36
251.471	18.56
251.94	16.66
252.41	3.96
252.879	-2.04
253.349	12.16
253.818	11.06
254.288	3.86
254.757	6.16
255.227	-2.84
255.696	3.06
256.166	5.16
256.635	9.06
257.105	12.56
257.574	5.46
258.043	11.96
258.513	14.46
258.982	14.56
259.451	6.66
259.92	14.96
260.389	14.06
260.859	21.86
261.328	5.46
261.797	19.06
262.266	6.56
262.735	10.06
263.204	3.66
263.673	0.46
264.142	9.36
264.611	-4.84
265.08	3.76
265.549	-3.74
266.018	6.66
266.487	-4.14
266.955	0.06
267.424	0.96
267.893	6.16
268.362	-1.34
268.83	3.56
269.299	9.66
269.768	6.46
270.236	8.36
270.705	4.56
271.174	8.26
271.642	11.06
272.111	10.06
272.579	13.36
273.048	23.06
273.516	30.86
273.985	22.66
274.453	24.96
274.922	20.16
275.39	14.46
275.858	2.56
276.327	10.06
276.795	16.66
277.263	13.76
277.731	30.66
278.2	52.76
278.668	53.16
279.136	42.26
279.604	19.26
280.072	16.16
280.54	11.36
281.008	14.46
281.477	18.06
281.945	17.06
282.413	11.16
282.881	18.06
283.348	8.06
283.816	19.46
284.284	17.56
284.752	22.46
285.22	10.96
285.688	14.46
286.156	19.86
286.623	39.66
287.091	48.86
287.559	19.16
288.026	20.36
288.494	17.96
288.962	12.26
289.429	13.46
289.897	17.76
290.364	22.56
290.832	20.56
291.3	21.16
291.767	18.46
292.234	22.46
292.702	16.46
293.169	23.46
293.637	29.46
294.104	23.66
294.571	11.16
295.039	13.66
295.506	15.36
295.973	19.16
296.44	17.26
296.908	13.26
297.375	23.26
297.842	25.76
298.309	19.86
298.776	15.06
299.243	23.16
299.71	19.26
300.177	17.36
300.644	25.96
301.111	27.26
301.578	22.36
302.045	22.06
302.512	24.36
302.979	26.16
303.446	30.16
303.913	22.76
304.379	21.36
304.846	29.96
305.313	26.96
305.78	26.26
306.246	29.56
306.713	33.26
307.18	29.16
307.646	28.16
308.113	32.76
308.579	23.66
309.046	29.76
309.512	34.16
309.979	19.86
310.445	28.86
310.912	29.06
311.378	38.86
311.845	30.26
312.311	32.66
312.777	33.06
313.244	31.56
313.71	38.76
314.176	30.86
314.642	31.36
315.109	35.26
315.575	35.76
316.041	40.96
316.507	38.46
316.973	35.66
317.439	37.16
317.905	39.16
318.371	42.26
318.837	37.06
319.303	37.06
319.769	39.66
320.235	38.16
320.701	37.96
321.167	40.36
321.633	31.16
322.099	41.76
322.564	46.86
323.03	43.06
323.496	38.06
323.962	44.36
324.427	42.56
324.893	41.86
325.359	39.46
325.824	42.56
326.29	36.06
326.755	42.46
327.221	40.76
327.686	42.66
328.152	51.86
328.617	43.56
329.083	47.26
329.548	46.16
330.014	47.66
330.479	41.56
330.944	47.56
331.41	45.56
331.875	49.16
332.34	50.36
332.805	45.26
333.271	53.86
333.736	55.46
334.201	51.36
334.666	52.16
335.131	55.36
335.596	54.66
336.061	55.66
336.526	44.06
336.991	56.36
337.456	59.06
337.921	51.46
338.386	44.76
338.851	46.96
339.316	48.46
339.781	46.06
340.246	53.36
340.711	49.96
341.175	51.46
341.64	49.66
342.105	53.56
342.569	54.76
343.034	63.66
343.499	55.96
343.963	60.46
344.428	66.96
344.893	65.26
345.357	68.06
345.822	58.46
346.286	65.26
346.751	77.06
347.215	69.86
347.679	78.56
348.144	97.76
348.608	87.86
349.073	74.46
349.537	72.66
350.001	80.16
350.465	90.56
350.93	84.66
351.394	85.86
351.858	79.16
352.322	94.26
352.786	92.66
353.25	107.26
353.715	112.06
354.179	102.36
354.643	122.46
355.107	129.86
355.571	104.66
356.035	107.76
356.498	114.86
356.962	122.66
357.426	130.26
357.89	120.06
358.354	94.06
358.818	86.06
359.281	84.36
359.745	83.36
360.209	76.26
360.673	69.56
361.136	83.96
361.6	82.76
362.064	85.06
362.527	89.26
362.991	90.56
363.454	86.36
363.918	83.36
364.381	77.26
364.845	87.86
365.308	90.76
365.772	90.96
366.235	85.36
366.698	85.26
367.162	87.76
367.625	89.86
368.088	90.66
368.552	96.46
369.015	80.96
369.478	98.06
369.941	103.76
370.404	97.26
370.867	105.66
371.331	108.16
371.794	119.16
372.257	112.56
372.72	119.36
373.183	110.26
373.646	105.26
374.109	98.96
374.572	115.46
375.035	107.96
375.497	116.46
375.96	114.86
376.423	110.06
376.886	118.06
377.349	114.56
377.811	107.66
378.274	104.66
378.737	115.16
379.199	104.96
379.662	114.46
380.125	117.06
380.587	122.46
381.05	127.26
381.512	136.36
381.975	142.66
382.437	131.86
382.9	125.86
383.362	140.76
383.825	142.46
384.287	146.96
384.75	135.66
385.212	139.76
385.674	147.76
386.136	138.86
386.599	124.56
387.061	131.66
387.523	129.46
387.985	137.16
388.447	143.96
388.91	137.66
389.372	155.86
389.834	153.76
390.296	148.86
390.758	148.96
391.22	176.56
391.682	209.46
392.144	284.16
392.606	225.46
393.068	163.56
393.529	172.56
393.991	157.16
394.453	153.16
394.915	161.86
395.377	186.66
395.838	211.76
396.3	150.46
396.762	143.76
397.224	136.46
397.685	134.66
398.147	139.36
398.608	134.96
399.07	130.56
399.531	144.36
399.993	143.56
400.454	159.66
400.916	150.66
401.377	148.06
401.839	157.06
402.3	158.26
402.762	171.76
403.223	179.76
403.684	182.66
404.145	166.76
404.607	164.56
405.068	170.06
405.529	172.96
405.99	191.16
406.451	183.86
406.913	179.66
407.374	167.76
407.835	159.26
408.296	173.36
408.757	172.36
409.218	188.46
409.679	183.46
410.14	175.46
410.601	180.56
411.062	185.66
411.522	191.66
411.983	198.56
412.444	181.56
412.905	187.86
413.366	193.36
413.826	201.56
414.287	229.76
414.748	275.56
415.208	255.56
415.669	207.76
416.13	209.36
416.59	206.16
417.051	220.86
417.511	220.06
417.972	236.56
418.432	260.56
418.893	291.36
419.353	259.56
419.814	202.96
420.274	189.46
420.734	185.26
421.195	200.26
421.655	197.96
422.115	196.16
422.576	196.56
423.036	203.46
423.496	208.86
423.956	220.66
424.416	236.66
424.876	272.76
425.336	269.26
425.797	267.16
426.257	258.36
426.717	243.56
427.177	235.76
427.637	234.86
428.097	239.46
428.556	254.16
429.016	273.06
429.476	273.06
429.936	283.06
430.396	288.76
430.856	297.66
431.315	318.76
431.775	361.76
432.235	386.46
432.694	360.76
433.154	366.86
433.614	403.06
434.073	335.56
434.533	289.16
434.993	278.46
435.452	287.96
435.912	303.36
436.371	296.06
436.83	288.36
437.29	271.36
437.749	250.46
438.209	262.16
438.668	282.16
439.127	298.06
439.587	276.06
440.046	257.76
440.505	265.06
440.964	285.76
441.424	336.56
441.883	321.96
442.342	263.96
442.801	228.86
443.26	231.76
443.719	222.56
444.178	223.36
444.637	218.36
445.096	231.06
445.555	228.46
446.014	233.36
446.473	233.76
446.932	241.86
447.391	229.36
447.849	230.06
448.308	218.16
448.767	229.86
449.226	245.56
449.685	244.96
450.143	254.36
450.602	237.26
451.061	224.16
451.519	238.16
451.978	239.36
452.436	242.46
452.895	251.26
453.353	257.26
453.812	247.86
454.27	252.56
454.729	248.06
455.187	248.46
455.646	248.36
456.104	253.56
456.562	263.46
457.021	272.36
457.479	269.16
457.937	280.96
458.395	271.56
458.854	251.76
459.312	261.76
459.77	284.96
460.228	264.26
460.686	246.96
461.144	254.86
461.602	254.96
462.06	248.46
462.518	264.06
462.976	260.26
463.434	266.86
463.892	273.56
464.35	288.36
464.808	308.06
465.266	274.36
465.724	275.66
466.181	280.46
466.639	275.46
467.097	297.96
467.555	304.16
468.012	309.66
468.47	318.16
468.928	339.16
469.385	361.06
469.843	355.96
470.3	360.56
470.758	378.86
471.215	400.46
471.673	421.66
472.13	410.96
472.588	428.96
473.045	381.36
473.503	386.86
473.96	405.46
474.417	411.46
474.875	446.76
475.332	489.66
475.789	472.36
476.246	479.26
476.704	498.86
477.161	514.56
477.618	538.26
478.075	577.36
478.532	637.16
478.989	709.86
479.446	829.46
479.903	791.36
480.36	821.76
480.817	892.36
481.274	993.86
481.731	1098.26
482.188	1195.06
482.645	1324.16
483.102	1434.56
483.558	1570.46
484.015	1622.16
484.472	1589.96
484.929	1543.96
485.385	1494.26
485.842	1455.26
486.299	1396.46
486.755	1334.86
487.212	1118.96
487.668	955.26
488.125	874.36
488.582	802.56
489.038	772.16
489.494	736.06
489.951	709.66
490.407	681.76
490.864	656.16
491.32	659.16
491.776	659.86
492.233	670.16
492.689	633.16
493.145	623.06
493.602	616.36
494.058	624.16
494.514	634.76
494.97	656.16
495.426	662.36
495.882	644.46
496.338	628.86
496.794	648.76
497.251	637.66
497.707	668.06
498.163	659.36
498.618	657.86
499.074	664.96
499.53	696.46
499.986	699.16
500.442	680.26
500.898	647.56
501.354	646.16
501.809	662.66
502.265	667.06
502.721	674.66
503.177	692.26
503.632	682.26
504.088	701.56
504.543	728.06
504.999	727.46
505.455	678.96
505.91	658.16
506.366	649.26
506.821	644.76
507.277	648.66
507.732	647.96
508.187	642.36
508.643	650.76
509.098	639.96
509.553	674.86
510.009	695.56
510.464	688.66
510.919	708.36
511.375	715.36
511.83	733.36
512.285	743.76
512.74	785.46
513.195	810.56
513.65	797.96
514.105	800.06
514.56	799.06
515.015	815.66
515.47	834.36
515.925	817.26
516.38	819.36
516.835	827.86
517.29	797.86
517.745	807.06
518.2	788.86
518.655	774.56
519.109	771.36
519.564	758.36
520.019	755.06
520.474	748.36
520.928	753.76
521.383	743.86
521.838	739.06
522.292	731.56
522.747	730.26
523.201	730.46
523.656	715.56
524.11	722.56
524.565	710.56
525.019	714.96
525.474	720.46
525.928	726.86
526.382	725.56
526.837	717.86
527.291	717.46
527.745	725.46
528.2	729.86
528.654	715.26
529.108	710.36
529.562	712.46
530.016	712.36
530.47	708.76
530.925	718.56
531.379	721.16
531.833	724.56
532.287	729.06
532.741	725.96
533.195	735.06
533.649	735.66
534.103	744.06
534.556	729.26
535.01	731.46
535.464	731.06
535.918	742.96
536.372	740.96
536.826	743.66
537.279	726.46
537.733	739.76
538.187	733.46
538.64	739.26
539.094	736.66
539.548	746.26
540.001	744.56
540.455	742.66
540.908	761.26
541.362	756.06
541.815	767.76
542.269	775.36
542.722	781.36
543.175	787.16
543.629	794.36
544.082	816.66
544.536	808.16
544.989	804.76
545.442	803.06
545.895	810.06
546.349	814.26
546.802	821.56
547.255	820.86
547.708	831.66
548.161	843.46
548.614	843.56
549.067	858.96
549.52	846.76
549.973	835.06
550.426	832.66
550.879	809.86
551.332	826.26
551.785	826.56
552.238	824.86
552.691	841.06
553.144	851.26
553.596	876.96
554.049	893.56
554.502	919.06
554.955	941.56
555.407	938.86
555.86	923.26
556.313	917.56
556.765	905.46
557.218	915.76
557.67	905.96
558.123	902.96
558.576	902.76
559.028	905.76
559.48	911.36
559.933	912.06
560.385	870.76
560.838	840.46
561.29	812.26
561.742	809.46
562.195	781.36
562.647	784.86
563.099	789.46
563.551	786.66
564.004	802.56
564.456	788.06
564.908	780.86
565.36	773.96
565.812	754.46
566.264	750.56
566.716	742.96
567.168	727.66
567.62	741.56
568.072	712.26
568.524	709.26
568.976	703.46
569.428	692.76
569.88	697.46
570.332	702.06
570.784	699.66
571.235	701.46
571.687	716.86
572.139	713.06
572.59	718.36
573.042	717.36
573.494	723.06
573.945	720.76
574.397	703.26
574.849	705.46
575.3	714.56
575.752	693.36
576.203	687.36
576.655	701.96
577.106	689.56
577.557	680.16
578.009	682.16
578.46	682.56
578.912	680.86
579.363	666.26
579.814	687.16
580.265	668.56
580.717	692.46
581.168	674.46
581.619	692.46
582.07	698.46
582.521	691.66
582.972	681.76
583.423	685.56
583.875	693.66
584.326	705.56
584.777	760.36
585.227	820.76
585.678	904.96
586.129	978.56
586.58	1053.26
587.031	1134.06
587.482	1270.06
587.933	1424.96
588.384	1257.66
588.834	966.16
589.285	821.26
589.736	790.06
590.186	785.36
590.637	778.66
591.088	758.86
591.538	743.46
591.989	742.16
592.439	733.06
592.89	725.06
593.34	721.46
593.791	716.36
594.241	720.36
594.692	725.96
595.142	716.36
595.593	718.56
596.043	719.26
596.493	729.86
596.943	724.36
597.394	731.16
597.844	727.16
598.294	730.36
598.744	765.36
599.195	779.26
599.645	834.76
600.095	858.86
600.545	932.16
600.995	973.06
601.445	1027.76
601.895	1098.86
602.345	1142.46
602.795	1138.86
603.245	1089.06
603.695	1018.26
604.145	970.96
604.594	934.56
605.044	878.66
605.494	819.36
605.944	757.86
606.393	753.76
606.843	734.76
607.293	743.86
607.743	742.26
608.192	755.16
608.642	766.36
609.091	771.06
609.541	770.16
609.99	770.56
610.44	774.46
610.889	738.96
611.339	706.36
611.788	693.06
612.238	705.76
612.687	729.86
613.136	717.36
613.586	733.06
614.035	733.26
614.484	763.76
614.933	750.76
615.383	741.56
615.832	742.16
616.281	725.16
616.73	697.76
617.179	676.06
617.628	665.66
618.077	641.46
618.526	627.36
618.975	628.76
619.424	616.96
619.873	613.06
620.322	621.66
620.771	614.86
621.22	603.46
621.669	596.86
622.118	587.46
622.567	585.46
623.015	585.36
623.464	574.46
623.913	567.56
624.361	560.96
624.81	559.56
625.259	568.66
625.707	561.46
626.156	565.16
626.604	569.46
627.053	561.66
627.501	570.76
627.95	570.86
628.398	578.76
628.847	576.86
629.295	580.56
629.744	573.46
630.192	572.26
630.64	565.76
631.089	569.56
631.537	581.46
631.985	584.46
632.433	603.26
632.881	605.86
633.33	644.26
633.778	627.56
634.226	564.76
634.674	569.86
635.122	577.66
635.57	593.26
636.018	623.76
636.466	575.66
636.914	554.06
637.362	573.36
637.81	582.36
638.258	583.46
638.705	577.86
639.153	609.46
639.601	617.96
640.049	646.56
640.497	672.76
640.944	696.66
641.392	644.06
641.84	620.36
642.287	580.76
642.735	575.06
643.182	579.96
643.63	581.26
644.078	576.06
644.525	590.96
644.973	592.66
645.42	602.16
645.867	620.26
646.315	645.26
646.762	663.96
647.21	688.56
647.657	718.26
648.104	753.76
648.551	773.06
648.999	832.56
649.446	903.96
649.893	990.86
650.34	1147.26
650.787	1367.76
651.234	1685.36
651.682	2207.86
652.129	2998.56
652.576	4295.46
653.023	6353.16
653.47	8710.06
653.917	10936.26
654.363	12667.16
654.81	14061.56
655.257	13394.46
655.704	8786.86
656.151	5222.96
656.598	3382.26
657.044	2399.06
657.491	1864.96
657.938	1475.66
658.385	1247.46
658.831	1076.46
659.278	955.86
659.724	846.46
660.171	786.16
660.618	707.06
661.064	684.86
661.511	671.66
661.957	652.06
662.404	646.06
662.85	655.06
663.296	621.96
663.743	563.96
664.189	541.06
664.635	536.06
665.082	520.16
665.528	525.56
665.974	519.36
666.42	506.86
666.867	509.26
667.313	492.16
667.759	480.56
668.205	477.56
668.651	477.66
669.097	480.56
669.543	484.46
669.989	463.56
670.435	443.36
670.881	445.76
671.327	450.06
671.773	466.16
672.219	483.76
672.665	536.56
673.11	570.06
673.556	620.96
674.002	666.06
674.448	650.16
674.893	544.76
675.339	461.16
675.785	435.26
676.23	425.16
676.676	395.76
677.122	381.06
677.567	372.26
678.013	364.56
678.458	353.26
678.904	364.26
679.349	342.16
679.794	354.76
680.24	351.06
680.685	354.46
681.131	345.26
681.576	348.56
682.021	348.86
682.466	339.66
682.912	344.36
683.357	346.96
683.802	372.06
684.247	402.56
684.692	448.06
685.137	487.16
685.583	520.26
686.028	556.36
686.473	514.36
686.918	449.76
687.363	406.16
687.807	388.56
688.252	368.96
688.697	351.06
689.142	334.06
689.587	322.26
690.032	325.96
690.477	329.26
690.921	355.36
691.366	383.26
691.811	402.86
692.255	429.86
692.7	451.66
693.145	490.66
693.589	678.16
694.034	1109.76
694.478	1513.66
694.923	1730.06
695.367	2252.56
695.812	1181.96
696.256	500.06
696.701	371.86
697.145	335.66
697.59	315.26
698.034	320.46
698.478	329.16
698.922	317.56
699.367	326.26
699.811	339.06
700.255	354.26
700.699	376.36
701.143	424.36
701.588	469.86
702.032	505.16
702.476	506.36
702.92	489.96
703.364	484.06
703.808	618.96
704.252	1001.56
704.696	1416.46
705.14	1668.36
705.584	2122.56
706.027	1045.36
706.471	518.76
706.915	392.96
707.359	347.06
707.803	321.26
708.246	305.16
708.69	310.56
709.134	307.76
709.577	301.26
710.021	313.26
710.465	298.26
710.908	294.06
711.352	293.26
711.795	303.16
712.239	346.36
712.682	376.16
713.126	410.36
713.569	456.16
714.012	363.46
714.456	322.96
714.899	294.56
715.342	280.96
715.786	257.56
716.229	250.36
716.672	250.66
717.115	242.26
717.558	251.56
718.002	252.06
718.445	261.76
718.888	275.76
719.331	289.46
719.774	305.96
720.217	300.66
720.66	277.96
721.103	261.26
721.546	254.86
721.989	238.86
722.432	222.16
722.874	233.46
723.317	219.66
723.76	236.76
724.203	258.66
724.645	307.76
725.088	435.66
725.531	559.66
725.974	633.66
726.416	537.06
726.859	297.16
727.301	236.96
727.744	233.86
728.187	230.96
728.629	237.36
729.071	242.96
729.514	257.26
729.956	263.36
730.399	284.56
730.841	291.36
731.283	262.56
731.726	268.86
732.168	259.56
732.61	260.96
733.053	282.06
733.495	314.26
733.937	350.36
734.379	392.76
734.821	418.46
735.263	524.66
735.705	799.76
736.148	1514.56
736.59	2514.66
737.032	3037.26
737.474	2485.26
737.916	800.56
738.357	423.26
738.799	323.86
739.241	295.46
739.683	282.56
740.125	287.96
740.567	292.06
741.008	303.86
741.45	319.06
741.892	306.66
742.334	339.66
742.775	357.06
743.217	341.86
743.658	262.56
744.1	240.06
744.542	263.46
744.983	304.26
745.425	341.46
745.866	339.96
746.307	281.96
746.749	280.26
747.19	321.36
747.632	444.16
748.073	832.66
748.514	1800.96
748.956	2796.46
749.397	3487.36
749.838	2897.16
750.279	2939.56
750.72	1480.66
751.162	539.96
751.603	315.26
752.044	244.86
752.485	212.66
752.926	195.16
753.367	197.66
753.808	190.76
754.249	182.76
754.69	184.46
755.131	185.26
755.572	174.96
756.013	178.46
756.453	179.46
756.894	179.46
757.335	192.56
757.776	192.36
758.216	192.46
758.657	190.86
759.098	195.96
759.538	218.26
759.979	258.46
760.42	358.96
760.86	671.26
761.301	1723.46
761.741	4262.06
762.182	6386.96
762.622	4497.26
763.063	1286.16
763.503	534.26
763.943	342.66
764.384	319.86
764.824	367.16
765.264	407.56
765.705	286.56
766.145	202.46
766.585	174.46
767.025	176.16
767.465	175.86
767.906	223.86
768.346	295.76
768.786	313.36
769.226	249.86
769.666	306.86
770.106	585.96
770.546	1481.16
770.986	2613.96
771.426	2359.86
771.866	782.36
772.306	325.56
772.745	201.36
773.185	177.46
773.625	167.86
774.065	158.66
774.505	185.76
774.944	274.86
775.384	601.06
775.824	1094.06
776.263	1071.86
776.703	471.66
777.142	206.76
777.582	155.76
778.021	135.16
778.461	137.16
778.9	141.06
779.34	135.16
779.779	115.96
780.219	103.46
780.658	105.26
781.097	112.26
781.537	113.36
781.976	100.66
782.415	94.86
782.855	101.16
783.294	107.16
783.733	101.06
784.172	107.96
784.611	102.76
785.05	111.76
785.489	110.56
785.928	111.36
786.367	121.46
786.806	120.96
787.245	126.96
787.684	137.46
788.123	140.56
788.562	128.36
789.001	124.26
789.44	116.36
789.879	116.96
790.317	117.16
790.756	123.46
791.195	129.36
791.634	137.36
792.072	194.16
792.511	343.16
792.95	960.76
793.388	2074.16
793.827	1921.36
794.265	666.86
794.704	271.96
795.142	177.56
795.581	147.96
796.019	140.16
796.458	122.26
796.896	115.26
797.334	122.26
797.773	149.46
798.211	211.66
798.649	414.16
799.087	978.76
799.526	1546.56
799.964	1965.46
800.402	2000.86
800.84	759.76
801.278	291.66
801.716	188.76
802.154	153.96
802.592	143.56
803.03	134.66
803.468	127.56
803.906	138.76
804.344	149.56
804.782	139.96
805.22	130.06
805.658	125.66
806.096	145.56
806.533	154.36
806.971	169.56
807.409	215.66
807.847	301.26
808.284	622.26
808.722	1787.66
809.16	3198.26
809.597	3004.96
810.035	5272.26
810.472	5752.46
810.91	2054.46
811.347	779.56
811.785	396.76
812.222	254.06
812.66	190.56
813.097	156.76
813.535	136.86
813.972	127.86
814.409	118.46
814.846	103.36
815.284	109.96
815.721	97.86
816.158	102.56
816.595	109.56
817.032	166.46
817.47	193.06
817.907	160.86
818.344	141.86
818.781	108.96
819.218	100.06
819.655	116.66
820.092	179.36
820.529	208.86
820.966	170.96
821.403	133.76
821.839	107.66
822.276	102.36
822.713	113.56
823.15	129.96
823.587	110.56
824.023	143.06
824.46	287.56
824.897	863.36
825.333	1334.16
825.77	569.96
826.206	229.16
826.643	132.86
827.08	101.36
827.516	84.66
827.953	80.96
828.389	78.26
828.825	65.66
829.262	72.26
829.698	59.56
830.135	59.46
830.571	58.36
831.007	59.56
831.443	61.26
831.88	58.36
832.316	60.56
832.752	65.56
833.188	66.86
833.624	68.36
834.06	65.16
834.497	66.06
834.933	69.56
835.369	73.86
835.805	67.56
836.241	76.36
836.677	76.96
837.112	89.46
837.548	101.36
837.984	129.06
838.42	192.36
838.856	477.36
839.292	1456.36
839.727	2275.46
840.163	1057.56
840.599	890.86
841.034	1962.46
841.47	2097.56
841.906	758.66
842.341	330.26
842.777	223.86
843.212	289.16
843.648	286.66
844.083	140.26
844.519	93.06
844.954	74.16
845.39	56.86
845.825	59.86
846.261	54.56
846.696	52.36
847.131	53.76
847.566	56.96
848.002	48.66
848.437	57.56
848.872	61.46
849.307	63.36
849.742	81.46
850.177	166.86
850.613	540.26
851.048	872.66
851.483	379.26
851.918	146.86
852.353	76.66
852.788	52.26
853.223	56.56
853.657	49.56
854.092	46.86
854.527	40.86
854.962	34.66
855.397	42.66
855.832	46.56
856.266	35.66
856.701	40.66
857.136	40.56
857.57	37.96
858.005	49.86
858.44	56.46
858.874	48.26
859.309	46.66
859.743	39.06
860.178	49.16
860.612	39.26
861.047	56.06
861.481	65.96
861.915	66.56
862.35	50.96
862.784	36.86
863.218	37.66
863.653	38.56
864.087	44.36
864.521	58.26
864.955	66.56
865.39	151.26
865.824	171.36
866.258	110.86
866.692	157.96
867.126	173.76
867.56	104.36
867.994	53.46
868.428	35.06
868.862	45.86
869.296	53.66
869.73	62.06
870.164	50.86
870.598	47.86
871.031	37.16
871.465	27.76
871.899	29.46
872.333	27.06
872.766	31.16
873.2	24.36
873.634	23.86
874.067	27.46
874.501	27.36
874.935	29.66
875.368	28.56
875.802	27.56
876.235	23.16
876.669	21.56
877.102	20.26
877.535	30.16
877.969	24.36
878.402	24.66
878.836	17.46
879.269	20.76
879.702	22.06
880.135	20.76
880.569	22.76
881.002	24.16
881.435	25.36
881.868	12.06
882.301	13.06
882.734	19.36
883.167	17.06
883.601	16.16
884.034	25.56
884.467	13.66
884.899	19.66
885.332	10.76
885.765	17.46
886.198	20.16
886.631	16.86
887.064	17.06
887.497	25.26
887.929	27.96
888.362	15.66
888.795	12.96
889.228	19.96
889.66	20.06
890.093	19.66
890.526	23.36
890.958	17.36
891.391	17.76
891.823	21.26
892.256	14.06
892.688	14.26
893.121	17.46
893.553	14.46
893.985	19.66
894.418	19.36
894.85	9.16
895.282	16.56
895.715	15.56
896.147	18.06
896.579	12.66
897.011	12.36
897.444	18.46
897.876	14.56
898.308	13.26
898.74	11.26
899.172	16.06
899.604	22.46
900.036	26.06
900.468	19.26
900.9	14.56
901.332	15.26
901.764	11.56
902.196	22.26
902.628	18.26
903.06	20.46
903.491	28.26
903.923	19.26
904.355	24.16
904.787	21.76
905.218	16.46
905.65	25.56
906.082	15.06
906.513	13.86
906.945	18.96
907.376	10.96
907.808	20.06
908.239	20.06
908.671	17.56
909.102	22.46
909.534	27.26
909.965	43.76
910.397	91.16
910.828	305.86
911.259	471.16
911.691	216.36
912.122	109.86
912.553	49.86
912.984	34.36
913.415	24.16
913.847	17.86
914.278	11.76
914.709	12.46
915.14	20.76
915.571	18.16
916.002	9.26
916.433	13.36
916.864	16.06
917.295	8.76
917.726	18.46
918.157	17.56
918.587	34.46
919.018	21.26
919.449	25.16
919.88	26.86
920.311	29.96
920.741	42.06
921.172	163.46
921.603	148.36
922.033	68.26
922.464	41.56
922.895	18.86
923.325	19.56
923.756	16.26
924.186	13.36
924.617	22.66
925.047	41.36
925.478	50.36
925.908	42.16
926.338	25.86
926.769	13.76
927.199	20.56
927.629	9.76
928.06	19.86
928.49	17.76
928.92	13.06
929.35	7.66
929.78	13.36
930.21	9.26
930.641	5.36
931.071	9.36
931.501	10.36
931.931	10.46
932.361	9.76
932.791	0.46
933.221	7.56
933.651	9.56
934.08	18.06
934.51	30.86
934.94	11.26
935.37	9.86
935.8	13.86
936.229	5.86
936.659	10.76
937.089	4.76
937.519	17.46
937.948	22.66
938.378	16.16
938.807	4.96
939.237	3.16
939.666	9.06
940.096	-0.64
940.525	7.36
940.955	3.76
941.384	11.26
941.814	-2.14
942.243	-2.94
942.672	5.36
943.102	-1.64
943.531	6.66
943.96	-0.84
944.39	7.56
944.819	-0.84
945.248	1.66
945.677	4.56
946.106	7.16
946.535	9.66
946.964	-5.24
947.393	5.66
947.822	2.76
948.251	1.76
948.68	4.46
949.109	6.56
949.538	3.26
949.967	-2.74
950.396	2.56
950.825	0.56
951.254	-2.04
951.682	-6.04
952.111	5.16
952.54	6.26
952.969	-4.64
953.397	-4.44
953.826	5.06
954.254	-4.64
954.683	1.16
955.112	-1.74
955.54	-0.04
955.969	-4.04
956.397	5.16
956.826	0.36
957.254	5.66
957.682	2.06
958.111	-0.14
958.539	-2.04
958.967	9.26
959.396	0.76
959.824	7.16
960.252	2.26
960.68	-7.54
961.109	-5.44
961.537	-7.34
961.965	-4.84
962.393	-2.24
962.821	-3.64
963.249	2.86
963.677	0.96
964.105	2.26
964.533	39.76
964.961	44.66
965.389	21.86
965.817	5.76
966.245	-2.74
966.672	-3.84
967.1	-9.04
967.528	1.26
967.956	-1.24
968.383	1.36
968.811	-2.74
969.239	-4.54
969.666	-3.24
970.094	-0.94
970.522	-0.64
970.949	-2.64
971.377	-3.54
971.804	-3.34
972.232	-5.74
972.659	-5.44
973.087	-5.64
973.514	1.16
973.941	-6.14
974.369	9.66
974.796	-6.14
975.223	3.56
975.651	-5.74
976.078	-0.34
976.505	-2.74
976.932	3.46
977.359	14.36
977.786	14.66
978.214	-1.94
978.641	-4.54
979.068	-0.24
979.495	-4.34
979.922	-1.14
980.349	1.26
980.776	3.66
981.202	1.36
981.629	9.76
982.056	7.76
982.483	-0.84
982.91	5.36
983.337	-3.14
983.763	-0.34
984.19	-1.04
984.617	-4.14
985.043	-5.14
985.47	4.86
985.897	-2.54
986.323	-12.84
986.75	3.56
987.176	-7.44
987.603	5.76
988.029	1.96
988.456	-1.34
988.882	5.26
989.308	-1.64
989.735	-3.54
990.161	3.96
990.587	-6.54
991.014	0.86
991.44	2.46
991.866	-5.44
992.292	-5.34
992.719	-4.34
993.145	3.36
993.571	-2.84
993.997	-4.24
994.423	0.16
994.849	-6.14
995.275	2.26
995.701	-2.94
996.127	-5.04
996.553	10.86
996.979	1.06
997.405	-3.94
997.83	-4.54
998.256	-10.04
998.682	-7.84
999.108	-6.84
999.534	0.76
999.959	0.06
1000.385	-2.94
1000.811	1.56
1001.236	-4.34
1001.662	-7.14
1002.087	0.46
1002.513	2.66
1002.938	1.06
1003.364	-0.84
1003.789	-4.04
1004.215	0.26
1004.64	-2.84
1005.066	-4.34
1005.491	-0.74
1005.916	2.26
1006.342	-1.24
1006.767	-11.44
1007.192	5.46
1007.617	-4.74
1008.042	-10.64
1008.468	-5.64
1008.893	-6.94
1009.318	-6.84
1009.743	-2.64
1010.168	4.06
1010.593	2.96
1011.018	-7.34
1011.443	-3.84
1011.868	2.86
1012.293	-2.74
1012.718	-1.74
1013.143	-2.04
1013.567	-0.14
1013.992	-3.04
1014.417	-13.54
1014.842	4.56
1015.267	-7.64
1015.691	-8.24
1016.116	1.36
1016.541	-0.64
1016.965	0.86
1017.39	-4.14
1017.814	-1.84
1018.239	0.36
1018.663	-8.54
1019.088	-12.54
1019.512	-1.54
1019.937	-5.74
1020.361	-7.24
1020.785	-15.14
1021.21	-6.54
1021.634	-3.54
1022.058	1.86
1022.483	1.76
1022.907	-4.24
1023.331	-0.94
1023.755	-6.44
1024.179	-4.94
1024.604	-7.84
1025.028	-5.34
1025.452	-4.84
1025.876	-2.14
1026.3	3.76
1026.724	-8.74
1027.148	-5.54
1027.572	-9.34
1027.996	-1.64
1028.42	1.16
1028.843	0.26
1029.267	-1.74
1029.691	1.56
1030.115	-6.44
1030.539	-4.84
1030.962	-2.04
1031.386	-7.74
1031.81	-0.54
1032.233	-0.34
1032.657	-5.84
1033.08	-4.64
1033.504	-1.34
1033.927	-4.84
1034.351	3.26
1034.774	-8.84
1035.198	-4.94
1035.621	-3.64
1036.045	-15.14
1036.468	2.96
1036.891	-5.94
1037.315	-8.14
1037.738	-7.54
1038.161	8.26
1038.584	-9.64
1039.008	-6.04
1039.431	-6.84
1039.854	2.66
1040.277	-7.94
1040.7	-6.84
1041.123	-1.34
1041.546	-4.14
1041.969	-3.24
1042.392	-4.24
1042.815	-1.64
1043.238	0.06
1043.661	0.56
1044.084	-5.44
1044.507	-6.74
1044.93	-7.04
1045.352	-4.34
1045.775	-2.14
1046.198	0.46
1046.621	-3.84
1047.043	0.76
1047.466	5.66
1047.889	-5.84
1048.311	-4.34
1048.734	-7.94
1049.156	-3.14
1049.579	1.26
1050.001	-0.54
1050.424	0.66
1050.846	-2.54
1051.269	-3.94
1051.691	-8.24
1052.113	-5.84
1052.536	-8.04
1052.958	-8.04
1053.38	-4.64
1053.802	-10.94
1054.225	-0.34
1054.647	-4.24
1055.069	-6.54
1055.491	1.86
1055.913	-5.54
1056.335	-1.94
1056.757	-2.24
1057.179	-4.64
1057.601	-1.04
1058.023	-3.64
1058.445	-5.04
1058.867	-3.74
1059.289	-1.74
1059.711	-1.94
1060.133	-2.94
1060.555	-5.04
1060.976	-8.44
1061.398	-8.24
1061.82	-4.74
1062.241	-6.64
1062.663	-8.94
1063.085	-3.94
1063.506	-2.54
1063.928	0.16
1064.35	0.66
1064.771	-9.74
1065.193	-1.84
1065.614	-6.04
1066.035	-1.44
1066.457	-5.74
1066.878	-0.94
1067.3	-2.24
1067.721	-3.24
1068.142	-7.04
1068.564	-5.44
1068.985	-1.14
1069.406	-1.74
1069.827	-7.64
1070.248	2.06
1070.67	-8.84
1071.091	-6.94
1071.512	-8.94
1071.933	-1.54
1072.354	-9.64
1072.775	-4.84
1073.196	-5.24
1073.617	-7.54
1074.038	-5.44
1074.459	-4.74
1074.88	-5.54
1075.3	-3.54
1075.721	-4.74
1076.142	-2.54
1076.563	-8.74
1076.983	-9.04
1077.404	-3.24
1077.825	-9.54
1078.246	-2.34
1078.666	-10.84
1079.087	-4.44
1079.507	-5.14
1079.928	-5.04
1080.348	-3.04
1080.769	-5.24
1081.189	-2.74
1081.61	-0.44
1082.03	-4.74
1082.451	-8.04
1082.871	0.06
1083.291	-8.84
1083.711	-10.84
1084.132	-6.44
1084.552	-6.34
1084.972	-0.14
1085.392	-13.04
1085.813	-8.94
1086.233	-7.34
1086.653	-6.84
1087.073	-1.84
1087.493	-7.14
1087.913	-4.64
1088.333	-4.64
1088.753	-3.14
1089.173	6.36
1089.593	-7.84
1090.013	-3.14
1090.433	1.76
1090.852	-2.64
1091.272	-3.84
1091.692	-8.24
1092.112	-9.34
1092.531	-9.04
1092.951	-14.84
1093.371	-11.14
1093.79	0.06
1094.21	-3.34
1094.63	-7.04
1095.049	-1.64
1095.469	-3.84
1095.888	-3.54
1096.308	-2.14
1096.727	-1.64
1097.146	-7.64
1097.566	-3.34
1097.985	-11.44
1098.405	2.46
1098.824	-9.14
1099.243	-4.74
1099.662	-6.44
1100.082	-7.94
1100.501	-2.84
1100.92	-8.24
1101.339	-1.04
1101.758	-7.04
