Data from 20171114-ORNL-Ar_H_NY_Subt18_08-09-06-763.txt Node
Date: Tue Nov 14 08:09:06 EST 2017
User: Ender
Spectrometer: HR+D1039
Trigger mode: 0
Integration Time (sec): 2.730000E-2
Scans to average: 10
Electric dark correction enabled: true
Nonlinearity correction enabled: false
Boxcar width: 0
XAxis mode: Wavelengths
Number of Pixels in Spectrum: 2048
>>>>>Begin Spectral Data<<<<<
187.836	-7.09
188.309	-7.09
188.782	-7.09
189.255	2.21
189.728	-3.49
190.201	8.61
190.674	0.61
191.147	-1.29
191.619	-8.19
192.092	1.71
192.565	6.31
193.038	-5.89
193.511	4.11
193.984	0.51
194.456	1.91
194.929	3.41
195.402	-1.99
195.874	-1.49
196.347	-3.89
196.82	-2.79
197.292	2.61
197.765	4.51
198.237	-2.69
198.71	-0.39
199.182	-3.29
199.655	-0.29
200.127	1.31
200.6	-8.69
201.072	0.31
201.544	-2.99
202.017	-2.59
202.489	3.21
202.961	-0.99
203.433	-4.49
203.906	-6.99
204.378	-1.19
204.85	-9.69
205.322	-9.69
205.794	-8.29
206.266	-7.59
206.739	-9.29
207.211	-1.19
207.683	-6.79
208.155	-8.89
208.627	-9.79
209.099	-7.39
209.57	-13.39
210.042	-3.19
210.514	-4.99
210.986	1.01
211.458	-7.69
211.93	-0.59
212.402	3.61
212.873	-4.99
213.345	-10.79
213.817	-8.29
214.288	-12.69
214.76	-9.99
215.232	-14.09
215.703	-6.09
216.175	-4.19
216.646	-7.39
217.118	-7.79
217.589	-5.09
218.061	-5.89
218.532	-5.39
219.004	-0.09
219.475	-8.49
219.946	-3.29
220.418	-9.99
220.889	-3.79
221.36	-1.79
221.832	-4.29
222.303	-12.19
222.774	-1.99
223.245	-14.59
223.717	-9.39
224.188	-3.29
224.659	-10.59
225.13	-5.89
225.601	0.31
226.072	0.31
226.543	1.21
227.014	-1.89
227.485	-8.99
227.956	-5.09
228.427	-5.59
228.898	-5.19
229.369	1.11
229.839	-7.29
230.31	-8.19
230.781	-2.69
231.252	-8.99
231.722	-12.79
232.193	-2.29
232.664	-6.69
233.135	-4.09
233.605	-2.69
234.076	-8.39
234.546	-0.79
235.017	0.11
235.487	-5.09
235.958	-7.09
236.428	-12.69
236.899	-5.99
237.369	-2.39
237.84	-5.99
238.31	1.91
238.78	-0.89
239.251	-5.89
239.721	-0.29
240.191	-2.69
240.662	-3.09
241.132	-1.59
241.602	-10.49
242.072	-2.99
242.542	-2.69
243.013	-5.09
243.483	0.51
243.953	-2.19
244.423	-0.29
244.893	-2.99
245.363	-3.19
245.833	-4.29
246.303	-3.79
246.773	3.21
247.243	-7.19
247.712	-2.09
248.182	-1.59
248.652	3.51
249.122	-10.09
249.592	2.81
250.061	0.61
250.531	4.21
251.001	-5.29
251.471	3.21
251.94	5.51
252.41	-2.29
252.879	-5.19
253.349	3.61
253.818	9.51
254.288	5.91
254.757	-1.59
255.227	-3.89
255.696	-3.49
256.166	-2.99
256.635	0.01
257.105	1.01
257.574	2.51
258.043	-3.69
258.513	-10.39
258.982	-1.39
259.451	-6.39
259.92	0.21
260.389	-2.49
260.859	3.81
261.328	1.31
261.797	4.21
262.266	-2.59
262.735	1.31
263.204	3.11
263.673	-7.69
264.142	1.61
264.611	-8.39
265.08	-10.19
265.549	-2.69
266.018	2.31
266.487	-3.69
266.955	-8.99
267.424	-1.49
267.893	1.61
268.362	1.01
268.83	-3.29
269.299	1.61
269.768	-0.59
270.236	0.31
270.705	2.11
271.174	1.51
271.642	-5.29
272.111	4.21
272.579	3.31
273.048	2.51
273.516	-3.49
273.985	2.21
274.453	5.91
274.922	11.11
275.39	2.91
275.858	-2.59
276.327	8.11
276.795	8.51
277.263	-2.99
277.731	7.51
278.2	5.31
278.668	1.11
279.136	5.71
279.604	-5.49
280.072	5.41
280.54	-0.29
281.008	-0.79
281.477	1.91
281.945	0.81
282.413	7.71
282.881	8.71
283.348	5.91
283.816	4.01
284.284	9.51
284.752	16.81
285.22	6.81
285.688	4.81
286.156	2.01
286.623	14.81
287.091	1.11
287.559	6.11
288.026	6.41
288.494	5.81
288.962	-10.09
289.429	1.01
289.897	12.01
290.364	6.51
290.832	9.91
291.3	3.11
291.767	11.61
292.234	3.81
292.702	7.71
293.169	6.61
293.637	10.71
294.104	18.81
294.571	4.31
295.039	7.11
295.506	6.51
295.973	12.61
296.44	5.91
296.908	7.61
297.375	4.61
297.842	9.21
298.309	4.51
298.776	5.11
299.243	11.21
299.71	3.81
300.177	7.01
300.644	5.91
301.111	9.91
301.578	11.31
302.045	11.81
302.512	12.81
302.979	16.21
303.446	8.21
303.913	7.11
304.379	4.61
304.846	10.81
305.313	15.21
305.78	12.91
306.246	16.41
306.713	17.71
307.18	10.11
307.646	15.41
308.113	17.31
308.579	15.91
309.046	8.21
309.512	18.01
309.979	7.51
310.445	23.91
310.912	15.31
311.378	21.21
311.845	26.31
312.311	20.31
312.777	23.51
313.244	19.71
313.71	24.81
314.176	16.21
314.642	18.01
315.109	24.91
315.575	28.01
316.041	25.01
316.507	23.31
316.973	22.41
317.439	18.21
317.905	23.31
318.371	24.51
318.837	24.81
319.303	20.31
319.769	24.71
320.235	20.41
320.701	21.71
321.167	24.51
321.633	16.11
322.099	22.61
322.564	28.21
323.03	25.61
323.496	28.51
323.962	29.31
324.427	24.61
324.893	29.51
325.359	22.51
325.824	26.31
326.29	33.11
326.755	28.01
327.221	28.71
327.686	31.51
328.152	34.21
328.617	33.71
329.083	32.71
329.548	37.61
330.014	31.91
330.479	26.91
330.944	27.31
331.41	32.31
331.875	35.01
332.34	26.21
332.805	33.01
333.271	28.11
333.736	30.61
334.201	35.21
334.666	39.71
335.131	36.51
335.596	40.11
336.061	32.21
336.526	25.91
336.991	32.91
337.456	42.31
337.921	38.21
338.386	31.81
338.851	33.71
339.316	39.91
339.781	33.21
340.246	41.51
340.711	33.61
341.175	38.91
341.64	33.21
342.105	41.71
342.569	37.51
343.034	49.01
343.499	34.81
343.963	39.51
344.428	50.81
344.893	51.01
345.357	48.51
345.822	50.11
346.286	55.91
346.751	58.51
347.215	54.51
347.679	58.81
348.144	71.61
348.608	63.11
349.073	48.01
349.537	60.01
350.001	61.51
350.465	69.41
350.93	62.91
351.394	64.51
351.858	49.51
352.322	70.21
352.786	64.11
353.25	74.61
353.715	82.51
354.179	72.51
354.643	92.21
355.107	86.01
355.571	80.71
356.035	79.91
356.498	90.91
356.962	87.91
357.426	91.51
357.89	85.51
358.354	73.71
358.818	67.41
359.281	61.61
359.745	61.01
360.209	64.01
360.673	62.51
361.136	61.71
361.6	73.01
362.064	66.01
362.527	62.71
362.991	80.21
363.454	70.11
363.918	61.71
364.381	61.81
364.845	67.41
365.308	70.11
365.772	76.51
366.235	66.01
366.698	64.91
367.162	67.51
367.625	71.31
368.088	71.31
368.552	72.91
369.015	73.61
369.478	77.21
369.941	83.41
370.404	78.41
370.867	84.81
371.331	86.81
371.794	94.61
372.257	82.31
372.72	86.81
373.183	88.31
373.646	78.51
374.109	78.01
374.572	91.41
375.035	75.51
375.497	85.91
375.96	84.01
376.423	91.51
376.886	92.61
377.349	92.41
377.811	79.81
378.274	93.91
378.737	89.31
379.199	89.91
379.662	87.41
380.125	89.51
380.587	92.11
381.05	90.21
381.512	100.51
381.975	105.51
382.437	106.11
382.9	102.41
383.362	101.01
383.825	115.01
384.287	106.91
384.75	106.21
385.212	105.51
385.674	113.71
386.136	115.31
386.599	108.81
387.061	107.91
387.523	111.41
387.985	119.81
388.447	116.21
388.91	113.91
389.372	108.81
389.834	115.91
390.296	115.21
390.758	112.31
391.22	119.91
391.682	133.71
392.144	134.11
392.606	125.01
393.068	130.01
393.529	130.11
393.991	126.01
394.453	119.61
394.915	122.61
395.377	124.71
395.838	120.61
396.3	123.21
396.762	125.21
397.224	126.01
397.685	112.61
398.147	124.41
398.608	118.21
399.07	113.11
399.531	126.11
399.993	136.01
400.454	145.31
400.916	137.51
401.377	126.01
401.839	137.01
402.3	138.91
402.762	154.21
403.223	164.81
403.684	159.51
404.145	148.31
404.607	141.91
405.068	145.21
405.529	150.41
405.99	169.51
406.451	158.11
406.913	160.11
407.374	156.81
407.835	144.41
408.296	153.41
408.757	152.11
409.218	172.01
409.679	177.61
410.14	151.61
410.601	161.11
411.062	160.71
411.522	166.21
411.983	164.11
412.444	152.31
412.905	176.31
413.366	164.61
413.826	181.61
414.287	208.01
414.748	254.01
415.208	234.21
415.669	207.41
416.13	201.01
416.59	190.01
417.051	195.51
417.511	210.61
417.972	220.31
418.432	233.81
418.893	277.31
419.353	237.41
419.814	191.71
420.274	176.11
420.734	175.11
421.195	189.81
421.655	176.81
422.115	187.21
422.576	185.51
423.036	193.31
423.496	200.21
423.956	213.51
424.416	211.21
424.876	254.81
425.336	254.21
425.797	248.11
426.257	246.91
426.717	226.81
427.177	220.61
427.637	206.51
428.097	224.11
428.556	229.31
429.016	254.01
429.476	244.41
429.936	253.51
430.396	260.51
430.856	268.21
431.315	292.41
431.775	320.01
432.235	357.91
432.694	330.81
433.154	331.31
433.614	365.71
434.073	314.41
434.533	268.31
434.993	249.91
435.452	269.61
435.912	266.31
436.371	267.51
436.83	258.71
437.29	247.31
437.749	241.41
438.209	238.61
438.668	270.11
439.127	272.21
439.587	249.01
440.046	236.91
440.505	244.21
440.964	262.61
441.424	298.31
441.883	290.21
442.342	250.81
442.801	223.51
443.26	218.71
443.719	217.81
444.178	219.01
444.637	209.61
445.096	218.81
445.555	224.11
446.014	221.51
446.473	223.91
446.932	230.91
447.391	225.01
447.849	229.41
448.308	216.61
448.767	222.01
449.226	234.51
449.685	234.31
450.143	253.01
450.602	233.31
451.061	228.61
451.519	224.81
451.978	227.61
452.436	228.81
452.895	234.71
453.353	244.71
453.812	240.31
454.27	227.81
454.729	238.41
455.187	234.51
455.646	245.61
456.104	248.21
456.562	255.41
457.021	256.81
457.479	258.21
457.937	265.31
458.395	257.41
458.854	248.41
459.312	251.91
459.77	264.21
460.228	255.11
460.686	240.81
461.144	250.61
461.602	245.91
462.06	241.91
462.518	256.31
462.976	250.41
463.434	252.31
463.892	251.91
464.35	276.91
464.808	285.11
465.266	264.61
465.724	266.41
466.181	274.51
466.639	267.51
467.097	284.51
467.555	296.61
468.012	302.51
468.47	305.11
468.928	324.21
469.385	342.81
469.843	342.41
470.3	341.31
470.758	353.21
471.215	376.21
471.673	399.01
472.13	402.71
472.588	417.51
473.045	374.41
473.503	379.91
473.96	386.41
474.417	402.61
474.875	428.51
475.332	465.51
475.789	453.41
476.246	456.61
476.704	478.51
477.161	500.21
477.618	518.71
478.075	545.71
478.532	592.21
478.989	662.21
479.446	769.41
479.903	733.01
480.36	752.71
480.817	819.81
481.274	895.11
481.731	989.21
482.188	1061.31
482.645	1176.51
483.102	1251.51
483.558	1372.91
484.015	1410.71
484.472	1386.21
484.929	1347.81
485.385	1313.31
485.842	1272.21
486.299	1225.91
486.755	1192.71
487.212	1021.21
487.668	868.21
488.125	810.31
488.582	748.81
489.038	715.21
489.494	682.01
489.951	665.61
490.407	646.61
490.864	634.21
491.32	633.41
491.776	628.51
492.233	628.21
492.689	600.61
493.145	593.41
493.602	592.11
494.058	601.61
494.514	595.31
494.97	613.21
495.426	633.31
495.882	615.71
496.338	597.01
496.794	612.91
497.251	604.91
497.707	610.51
498.163	621.41
498.618	617.51
499.074	634.21
499.53	646.41
499.986	658.51
500.442	637.21
500.898	618.01
501.354	601.51
501.809	611.01
502.265	617.41
502.721	623.31
503.177	629.21
503.632	635.81
504.088	643.91
504.543	656.61
504.999	684.61
505.455	642.01
505.91	633.71
506.366	632.41
506.821	636.81
507.277	636.01
507.732	625.91
508.187	632.11
508.643	635.01
509.098	631.61
509.553	660.61
510.009	663.71
510.464	675.61
510.919	684.21
511.375	691.91
511.83	700.71
512.285	721.21
512.74	756.91
513.195	776.61
513.65	764.21
514.105	747.41
514.56	759.41
515.015	775.61
515.47	792.71
515.925	773.21
516.38	772.81
516.835	783.41
517.29	771.91
517.745	767.51
518.2	757.11
518.655	756.51
519.109	734.91
519.564	737.31
520.019	726.11
520.474	722.61
520.928	723.21
521.383	710.91
521.838	708.91
522.292	713.31
522.747	712.81
523.201	700.21
523.656	701.01
524.11	693.61
524.565	705.81
525.019	697.61
525.474	695.91
525.928	697.41
526.382	698.11
526.837	691.31
527.291	709.31
527.745	691.71
528.2	699.91
528.654	696.11
529.108	678.91
529.562	688.61
530.016	692.31
530.47	681.61
530.925	691.31
531.379	687.61
531.833	702.41
532.287	704.21
532.741	698.01
533.195	703.51
533.649	708.81
534.103	707.01
534.556	697.91
535.01	702.61
535.464	700.81
535.918	712.91
536.372	712.11
536.826	708.71
537.279	704.71
537.733	716.61
538.187	714.61
538.64	704.11
539.094	717.41
539.548	722.51
540.001	724.51
540.455	719.81
540.908	732.41
541.362	748.41
541.815	749.41
542.269	754.11
542.722	761.71
543.175	773.01
543.629	774.31
544.082	803.51
544.536	790.91
544.989	786.81
545.442	794.11
545.895	788.31
546.349	794.41
546.802	804.91
547.255	803.11
547.708	817.01
548.161	822.51
548.614	824.81
549.067	841.21
549.52	827.31
549.973	817.91
550.426	811.21
550.879	801.61
551.332	803.71
551.785	810.41
552.238	819.11
552.691	830.91
553.144	848.41
553.596	854.91
554.049	876.91
554.502	898.51
554.955	905.21
555.407	915.21
555.86	911.51
556.313	902.71
556.765	879.51
557.218	891.31
557.67	895.11
558.123	879.21
558.576	884.01
559.028	882.21
559.48	894.71
559.933	872.21
560.385	850.21
560.838	810.21
561.29	806.11
561.742	794.81
562.195	785.41
562.647	771.91
563.099	791.01
563.551	774.41
564.004	787.61
564.456	777.61
564.908	768.11
565.36	749.51
565.812	744.41
566.264	723.31
566.716	729.31
567.168	715.61
567.62	712.81
568.072	705.91
568.524	705.11
568.976	695.61
569.428	682.11
569.88	679.11
570.332	694.21
570.784	692.11
571.235	696.41
571.687	708.21
572.139	709.81
572.59	726.21
573.042	715.31
573.494	713.41
573.945	709.21
574.397	695.71
574.849	696.71
575.3	696.11
575.752	692.11
576.203	691.21
576.655	698.01
577.106	676.91
577.557	685.81
578.009	682.81
578.46	676.21
578.912	674.41
579.363	670.21
579.814	678.61
580.265	671.61
580.717	682.31
581.168	688.81
581.619	695.91
582.07	691.01
582.521	684.71
582.972	681.91
583.423	689.21
583.875	684.71
584.326	694.21
584.777	696.91
585.227	724.81
585.678	740.81
586.129	739.81
586.58	766.61
587.031	792.71
587.482	820.11
587.933	843.71
588.384	816.01
588.834	801.41
589.285	782.91
589.736	794.11
590.186	778.71
590.637	783.41
591.088	757.31
591.538	758.21
591.989	746.51
592.439	730.21
592.89	732.41
593.34	711.81
593.791	718.91
594.241	709.71
594.692	708.61
595.142	704.01
595.593	701.61
596.043	723.21
596.493	716.81
596.943	709.21
597.394	720.11
597.844	740.91
598.294	747.11
598.744	776.11
599.195	790.01
599.645	834.81
600.095	869.51
600.545	938.51
600.995	992.61
601.445	1039.11
601.895	1105.41
602.345	1148.71
602.795	1130.71
603.245	1092.11
603.695	1026.71
604.145	974.11
604.594	933.91
605.044	879.01
605.494	811.81
605.944	768.21
606.393	757.71
606.843	734.91
607.293	743.31
607.743	735.11
608.192	750.41
608.642	766.71
609.091	760.31
609.541	771.51
609.99	775.81
610.44	772.01
610.889	735.01
611.339	709.61
611.788	698.51
612.238	691.21
612.687	716.11
613.136	701.41
613.586	712.41
614.035	710.41
614.484	721.81
614.933	725.81
615.383	717.81
615.832	721.21
616.281	715.81
616.73	679.51
617.179	663.71
617.628	645.11
618.077	640.01
618.526	627.41
618.975	619.71
619.424	611.71
619.873	615.61
620.322	623.81
620.771	615.61
621.22	612.91
621.669	594.71
622.118	601.21
622.567	580.81
623.015	584.11
623.464	577.51
623.913	575.31
624.361	561.51
624.81	559.81
625.259	565.51
625.707	559.31
626.156	557.01
626.604	570.91
627.053	577.71
627.501	570.41
627.95	581.21
628.398	595.71
628.847	582.81
629.295	577.21
629.744	582.31
630.192	578.51
630.64	571.41
631.089	562.11
631.537	558.01
631.985	536.31
632.433	542.01
632.881	532.21
633.33	545.71
633.778	528.81
634.226	529.81
634.674	543.11
635.122	550.81
635.57	559.81
636.018	567.31
636.466	567.71
636.914	562.01
637.362	584.51
637.81	579.91
638.258	582.81
638.705	585.51
639.153	629.01
639.601	634.71
640.049	653.41
640.497	684.91
640.944	706.81
641.392	654.51
641.84	626.51
642.287	598.01
642.735	576.11
643.182	578.71
643.63	575.61
644.078	571.71
644.525	584.01
644.973	583.81
645.42	611.21
645.867	620.11
646.315	645.61
646.762	661.91
647.21	695.81
647.657	710.21
648.104	734.11
648.551	759.71
648.999	826.91
649.446	906.01
649.893	974.71
650.34	1121.21
650.787	1325.91
651.234	1645.41
651.682	2124.21
652.129	2882.11
652.576	4146.21
653.023	5990.11
653.47	8058.91
653.917	9976.61
654.363	11380.41
654.81	12489.41
655.257	11818.11
655.704	7839.21
656.151	4726.81
656.598	3122.71
657.044	2243.51
657.491	1737.41
657.938	1408.41
658.385	1205.91
658.831	1047.31
659.278	941.21
659.724	834.91
660.171	775.91
660.618	723.81
661.064	687.21
661.511	669.81
661.957	655.91
662.404	641.21
662.85	654.41
663.296	634.31
663.743	566.61
664.189	542.91
664.635	535.11
665.082	531.81
665.528	538.01
665.974	529.01
666.42	520.51
666.867	511.51
667.313	493.51
667.759	476.11
668.205	461.61
668.651	470.41
669.097	463.51
669.543	454.11
669.989	451.41
670.435	468.31
670.881	459.51
671.327	464.41
671.773	482.01
672.219	511.11
672.665	559.01
673.11	613.21
673.556	652.21
674.002	682.71
674.448	684.11
674.893	574.71
675.339	496.11
675.785	447.71
676.23	439.71
676.676	402.51
677.122	389.91
677.567	383.21
678.013	372.91
678.458	372.51
678.904	366.21
679.349	361.11
679.794	369.51
680.24	361.71
680.685	362.81
681.131	364.41
681.576	361.51
682.021	359.31
682.466	360.21
682.912	346.41
683.357	366.51
683.802	393.61
684.247	424.91
684.692	470.51
685.137	519.11
685.583	559.21
686.028	581.21
686.473	545.81
686.918	465.21
687.363	431.51
687.807	396.11
688.252	380.51
688.697	361.41
689.142	358.81
689.587	342.21
690.032	336.21
690.477	363.51
690.921	363.61
691.366	402.01
691.811	420.71
692.255	447.41
692.7	478.01
693.145	540.21
693.589	757.01
694.034	1212.91
694.478	1620.11
694.923	1802.31
695.367	2325.91
695.812	1253.31
696.256	523.21
696.701	381.31
697.145	353.71
697.59	337.71
698.034	328.01
698.478	330.31
698.922	332.91
699.367	330.61
699.811	338.01
700.255	366.91
700.699	397.41
701.143	450.11
701.588	494.11
702.032	539.21
702.476	531.01
702.92	512.21
703.364	522.31
703.808	690.41
704.252	1117.61
704.696	1552.51
705.14	1724.71
705.584	2186.51
706.027	1118.91
706.471	540.41
706.915	406.51
707.359	368.81
707.803	324.61
708.246	318.31
708.69	316.01
709.134	323.81
709.577	322.01
710.021	323.51
710.465	309.61
710.908	308.71
711.352	308.11
711.795	326.71
712.239	369.91
712.682	403.01
713.126	430.41
713.569	474.11
714.012	371.61
714.456	314.21
714.899	293.21
715.342	283.61
715.786	271.11
716.229	272.81
716.672	265.11
717.115	258.81
717.558	250.61
718.002	259.31
718.445	273.61
718.888	291.31
719.331	304.61
719.774	318.61
720.217	317.51
720.66	289.11
721.103	271.41
721.546	266.01
721.989	256.31
722.432	238.81
722.874	243.71
723.317	231.71
723.76	241.71
724.203	269.21
724.645	332.41
725.088	470.91
725.531	591.01
725.974	665.51
726.416	567.61
726.859	319.41
727.301	261.31
727.744	246.81
728.187	246.61
728.629	252.81
729.071	250.71
729.514	271.41
729.956	281.11
730.399	294.01
730.841	300.11
731.283	293.71
731.726	274.91
732.168	275.21
732.61	283.61
733.053	298.21
733.495	332.21
733.937	372.81
734.379	415.01
734.821	467.81
735.263	580.01
735.705	905.81
736.148	1722.21
736.59	2761.61
737.032	3154.11
737.474	2576.21
737.916	858.61
738.357	451.61
738.799	333.51
739.241	314.91
739.683	297.51
740.125	311.81
740.567	313.51
741.008	331.11
741.45	326.81
741.892	332.41
742.334	367.11
742.775	381.81
743.217	354.01
743.658	282.81
744.1	266.31
744.542	271.61
744.983	339.41
745.425	357.51
745.866	358.71
746.307	293.01
746.749	290.71
747.19	347.41
747.632	493.41
748.073	982.81
748.514	2034.31
748.956	2996.21
749.397	3791.61
749.838	3148.71
750.279	3056.61
750.72	1563.61
751.162	578.31
751.603	336.51
752.044	260.31
752.485	231.71
752.926	223.61
753.367	205.51
753.808	202.61
754.249	198.81
754.69	194.81
755.131	189.91
755.572	190.51
756.013	186.31
756.453	187.81
756.894	196.21
757.335	198.41
757.776	201.71
758.216	204.51
758.657	203.01
759.098	212.51
759.538	234.51
759.979	283.51
760.42	405.81
760.86	787.81
761.301	2068.91
761.741	4814.91
762.182	6622.51
762.622	4701.81
763.063	1391.61
763.503	563.01
763.943	343.01
764.384	281.01
764.824	253.01
765.264	229.01
765.705	220.91
766.145	186.41
766.585	179.21
767.025	174.81
767.465	172.71
767.906	193.11
768.346	197.91
768.786	204.81
769.226	223.01
769.666	340.41
770.106	679.41
770.546	1710.41
770.986	2752.11
771.426	2446.11
771.866	838.01
772.306	345.71
772.745	218.51
773.185	173.61
773.625	163.61
774.065	156.91
774.505	169.71
774.944	213.71
775.384	375.31
775.824	600.21
776.263	577.71
776.703	285.31
777.142	156.91
777.582	136.61
778.021	125.71
778.461	133.51
778.9	121.41
779.34	128.71
779.779	119.01
780.219	105.81
780.658	110.91
781.097	112.41
781.537	122.41
781.976	111.21
782.415	109.01
782.855	106.41
783.294	102.71
783.733	112.51
784.172	111.61
784.611	113.21
785.05	114.31
785.489	106.81
785.928	116.01
786.367	130.01
786.806	116.61
787.245	137.01
787.684	141.11
788.123	147.61
788.562	133.81
789.001	130.21
789.44	127.51
789.879	116.41
790.317	126.11
790.756	129.91
791.195	133.61
791.634	147.11
792.072	217.81
792.511	403.11
792.95	1102.61
793.388	2223.91
793.827	1954.81
794.265	699.41
794.704	287.11
795.142	196.31
795.581	164.51
796.019	139.81
796.458	137.41
796.896	124.21
797.334	138.61
797.773	164.41
798.211	234.71
798.649	489.31
799.087	1110.11
799.526	1712.11
799.964	2132.51
800.402	2061.11
800.84	789.81
801.278	315.51
801.716	196.41
802.154	159.61
802.592	155.01
803.03	145.71
803.468	138.11
803.906	149.61
804.344	160.11
804.782	144.91
805.22	140.31
805.658	137.41
806.096	153.71
806.533	164.91
806.971	186.21
807.409	234.91
807.847	347.11
808.284	738.11
808.722	2045.21
809.16	3483.31
809.597	3412.71
810.035	5802.91
810.472	5911.51
810.91	2197.51
811.347	849.91
811.785	433.31
812.222	284.11
812.66	209.81
813.097	177.81
813.535	152.91
813.972	131.71
814.409	122.31
814.846	114.81
815.284	115.81
815.721	102.21
816.158	108.71
816.595	112.71
817.032	163.21
817.47	175.91
817.907	126.01
818.344	102.61
818.781	103.21
819.218	104.31
819.655	128.51
820.092	202.11
820.529	217.91
820.966	175.41
821.403	129.31
821.839	107.01
822.276	103.71
822.713	131.01
823.15	141.71
823.587	124.01
824.023	152.31
824.46	336.71
824.897	974.51
825.333	1396.21
825.77	608.41
826.206	244.31
826.643	143.81
827.08	108.41
827.516	88.01
827.953	87.81
828.389	78.71
828.825	75.31
829.262	72.91
829.698	63.91
830.135	64.51
830.571	61.31
831.007	60.01
831.443	64.41
831.88	66.91
832.316	63.51
832.752	64.01
833.188	66.51
833.624	65.51
834.06	68.11
834.497	75.51
834.933	73.81
835.369	75.61
835.805	68.21
836.241	79.41
836.677	82.31
837.112	94.41
837.548	111.41
837.984	141.11
838.42	225.71
838.856	549.81
839.292	1662.51
839.727	2375.31
840.163	1124.11
840.599	1028.61
841.034	2179.01
841.47	2184.41
841.906	813.11
842.341	348.71
842.777	206.11
843.212	202.11
843.648	185.91
844.083	109.21
844.519	82.51
844.954	72.71
845.39	70.21
845.825	52.71
846.261	59.41
846.696	51.41
847.131	58.51
847.566	63.21
848.002	58.61
848.437	60.31
848.872	66.41
849.307	61.11
849.742	92.61
850.177	203.01
850.613	618.41
851.048	920.81
851.483	401.51
851.918	156.21
852.353	92.71
852.788	53.41
853.223	50.51
853.657	53.21
854.092	50.41
854.527	42.71
854.962	41.11
855.397	39.51
855.832	45.31
856.266	48.11
856.701	42.31
857.136	40.11
857.57	46.01
858.005	47.81
858.44	61.31
858.874	44.81
859.309	56.31
859.743	41.51
860.178	47.01
860.612	43.21
861.047	48.51
861.481	68.01
861.915	77.51
862.35	47.51
862.784	36.91
863.218	38.61
863.653	34.61
864.087	47.01
864.521	57.31
864.955	70.01
865.39	163.11
865.824	182.21
866.258	123.21
866.692	178.91
867.126	184.11
867.56	112.81
867.994	61.61
868.428	40.01
868.862	49.01
869.296	55.51
869.73	60.61
870.164	57.71
870.598	50.11
871.031	42.01
871.465	36.01
871.899	37.51
872.333	24.31
872.766	28.91
873.2	18.21
873.634	33.01
874.067	21.71
874.501	20.71
874.935	36.31
875.368	27.01
875.802	29.81
876.235	25.41
876.669	29.51
877.102	17.81
877.535	27.91
877.969	22.51
878.402	20.21
878.836	19.01
879.269	21.11
879.702	26.91
880.135	23.31
880.569	26.71
881.002	27.01
881.435	22.81
881.868	23.41
882.301	24.41
882.734	18.21
883.167	20.01
883.601	19.01
884.034	20.61
884.467	18.01
884.899	20.11
885.332	17.31
885.765	12.41
886.198	17.41
886.631	24.81
887.064	22.81
887.497	23.81
887.929	18.51
888.362	15.51
888.795	11.31
889.228	15.31
889.66	21.61
890.093	17.81
890.526	8.61
890.958	18.11
891.391	22.51
891.823	22.71
892.256	19.01
892.688	11.51
893.121	18.91
893.553	13.51
893.985	25.71
894.418	20.21
894.85	10.81
895.282	21.11
895.715	12.81
896.147	20.91
896.579	8.11
897.011	13.81
897.444	11.21
897.876	15.41
898.308	19.11
898.74	10.31
899.172	9.71
899.604	18.51
900.036	19.81
900.468	15.31
900.9	21.21
901.332	16.01
901.764	9.21
902.196	16.11
902.628	18.31
903.06	20.91
903.491	27.81
903.923	19.31
904.355	18.71
904.787	19.81
905.218	21.41
905.65	16.31
906.082	8.61
906.513	10.91
906.945	12.01
907.376	12.71
907.808	21.11
908.239	19.01
908.671	17.81
909.102	17.21
909.534	25.91
909.965	51.31
910.397	99.71
910.828	328.91
911.259	484.51
911.691	221.91
912.122	107.71
912.553	62.01
912.984	35.51
913.415	26.01
913.847	24.91
914.278	15.71
914.709	15.01
915.14	14.51
915.571	21.41
916.002	13.01
916.433	18.71
916.864	16.41
917.295	14.41
917.726	21.01
918.157	21.81
918.587	23.41
919.018	13.61
919.449	26.81
919.88	31.61
920.311	33.11
920.741	48.81
921.172	181.11
921.603	162.11
922.033	74.51
922.464	53.91
922.895	23.71
923.325	20.31
923.756	13.31
924.186	17.31
924.617	18.31
925.047	16.91
925.478	17.51
925.908	23.01
926.338	10.31
926.769	9.21
927.199	16.81
927.629	2.61
928.06	12.81
928.49	12.61
928.92	17.81
929.35	9.31
929.78	9.11
930.21	10.11
930.641	6.11
931.071	16.51
931.501	5.31
931.931	9.01
932.361	9.21
932.791	-1.59
933.221	8.61
933.651	3.41
934.08	18.01
934.51	35.41
934.94	18.41
935.37	11.71
935.8	11.21
936.229	1.81
936.659	9.61
937.089	2.81
937.519	15.81
937.948	25.41
938.378	16.41
938.807	8.11
939.237	-0.89
939.666	7.01
940.096	-5.29
940.525	1.81
940.955	2.61
941.384	0.51
941.814	-5.39
942.243	0.81
942.672	3.51
943.102	-5.49
943.531	-0.79
943.96	4.71
944.39	4.21
944.819	-1.69
945.248	7.11
945.677	-0.99
946.106	4.91
946.535	1.51
946.964	4.41
947.393	8.51
947.822	-2.19
948.251	-2.99
948.68	3.01
949.109	2.31
949.538	0.01
949.967	-3.49
950.396	1.81
950.825	-8.89
951.254	0.71
951.682	-7.79
952.111	0.61
952.54	3.61
952.969	-3.19
953.397	-2.99
953.826	-1.39
954.254	-0.19
954.683	1.01
955.112	1.21
955.54	-2.59
955.969	4.31
956.397	-4.29
956.826	-4.89
957.254	1.71
957.682	-1.19
958.111	9.01
958.539	-7.99
958.967	-1.19
959.396	-9.79
959.824	-3.49
960.252	-5.09
960.68	-8.29
961.109	-3.89
961.537	-5.99
961.965	1.61
962.393	-3.99
962.821	-5.39
963.249	-2.89
963.677	4.71
964.105	2.11
964.533	39.41
964.961	42.71
965.389	22.51
965.817	10.01
966.245	1.81
966.672	0.21
967.1	-11.19
967.528	5.21
967.956	-5.19
968.383	-6.19
968.811	-3.59
969.239	-3.69
969.666	-5.29
970.094	-2.99
970.522	-4.19
970.949	-0.09
971.377	-7.29
971.804	-8.69
972.232	-2.09
972.659	-3.99
973.087	-6.69
973.514	-2.29
973.941	-7.69
974.369	1.61
974.796	-4.99
975.223	0.41
975.651	-7.09
976.078	5.31
976.505	-2.09
976.932	5.71
977.359	15.31
977.786	12.71
978.214	-2.39
978.641	-1.99
979.068	-3.79
979.495	-8.99
979.922	-0.99
980.349	-4.29
980.776	2.11
981.202	-2.39
981.629	-2.99
982.056	6.31
982.483	1.01
982.91	0.81
983.337	-12.69
983.763	0.91
984.19	-8.79
984.617	0.01
985.043	-5.69
985.47	-2.69
985.897	1.71
986.323	-10.69
986.75	1.91
987.176	1.81
987.603	-0.89
988.029	-5.19
988.456	-8.29
988.882	2.61
989.308	-8.59
989.735	-8.29
990.161	-5.69
990.587	-2.49
991.014	-0.29
991.44	4.51
991.866	-3.69
992.292	-5.59
992.719	2.21
993.145	2.21
993.571	-9.59
993.997	-5.49
994.423	0.11
994.849	-10.39
995.275	-3.89
995.701	-6.19
996.127	-1.09
996.553	-0.89
996.979	-6.39
997.405	-3.39
997.83	-9.79
998.256	-4.09
998.682	-8.89
999.108	-8.49
999.534	-6.19
999.959	-7.49
1000.385	-5.69
1000.811	-3.89
1001.236	-8.69
1001.662	-12.19
1002.087	-9.19
1002.513	0.31
1002.938	-3.79
1003.364	-4.59
1003.789	1.61
1004.215	-0.59
1004.64	0.61
1005.066	-3.09
1005.491	-3.09
1005.916	-2.29
1006.342	-9.79
1006.767	-13.79
1007.192	2.91
1007.617	-5.39
1008.042	-7.29
1008.468	-4.09
1008.893	0.91
1009.318	-4.49
1009.743	-8.99
1010.168	1.01
1010.593	5.21
1011.018	-4.99
1011.443	1.11
1011.868	-1.29
1012.293	-5.49
1012.718	-5.79
1013.143	0.61
1013.567	3.31
1013.992	-8.09
1014.417	-16.69
1014.842	-2.79
1015.267	-10.99
1015.691	-6.09
1016.116	-0.19
1016.541	-1.99
1016.965	-3.09
1017.39	3.71
1017.814	-2.49
1018.239	-0.59
1018.663	-7.69
1019.088	-9.79
1019.512	-3.09
1019.937	-1.39
1020.361	-8.19
1020.785	-9.19
1021.21	-3.39
1021.634	-4.19
1022.058	1.61
1022.483	5.91
1022.907	-7.09
1023.331	-5.89
1023.755	-7.69
1024.179	-4.29
1024.604	-9.49
1025.028	-0.29
1025.452	-2.29
1025.876	-2.39
1026.3	-0.09
1026.724	-15.89
1027.148	-8.59
1027.572	-12.89
1027.996	-1.89
1028.42	-1.49
1028.843	-7.09
1029.267	-8.49
1029.691	-0.29
1030.115	-7.09
1030.539	-11.09
1030.962	-13.99
1031.386	-12.09
1031.81	2.31
1032.233	-4.09
1032.657	0.71
1033.08	-2.29
1033.504	0.11
1033.927	-0.29
1034.351	-0.69
1034.774	-3.09
1035.198	-3.69
1035.621	-7.99
1036.045	-9.69
1036.468	7.21
1036.891	-12.09
1037.315	-13.79
1037.738	-13.69
1038.161	0.21
1038.584	-4.19
1039.008	-5.49
1039.431	-0.99
1039.854	-4.69
1040.277	-8.49
1040.7	-15.09
1041.123	-0.79
1041.546	-8.99
1041.969	-5.69
1042.392	-2.99
1042.815	-2.89
1043.238	0.71
1043.661	0.71
1044.084	-7.89
1044.507	-10.69
1044.93	-3.39
1045.352	-6.09
1045.775	-3.79
1046.198	-0.49
1046.621	-1.49
1047.043	-3.69
1047.466	-2.29
1047.889	-5.69
1048.311	-9.99
1048.734	-1.09
1049.156	-4.69
1049.579	-3.39
1050.001	-12.29
1050.424	-0.69
1050.846	-6.49
1051.269	-1.99
1051.691	-7.89
1052.113	-7.89
1052.536	-4.39
1052.958	-7.29
1053.38	1.91
1053.802	-9.39
1054.225	-1.99
1054.647	-10.99
1055.069	-8.99
1055.491	4.41
1055.913	-11.79
1056.335	4.31
1056.757	-5.99
1057.179	-8.59
1057.601	-8.89
1058.023	-5.59
1058.445	-9.89
1058.867	-8.39
1059.289	-1.19
1059.711	-10.59
1060.133	-1.79
1060.555	-5.99
1060.976	-7.59
1061.398	-5.09
1061.82	-8.09
1062.241	1.31
1062.663	-8.89
1063.085	-1.19
1063.506	0.81
1063.928	-2.09
1064.35	-8.39
1064.771	-11.09
1065.193	-4.09
1065.614	-9.49
1066.035	-6.69
1066.457	-4.69
1066.878	-0.89
1067.3	-8.79
1067.721	-2.79
1068.142	-6.59
1068.564	-3.19
1068.985	-5.19
1069.406	-4.99
1069.827	0.61
1070.248	-3.89
1070.67	-5.59
1071.091	-8.09
1071.512	-4.99
1071.933	-10.39
1072.354	-7.49
1072.775	-7.89
1073.196	-8.89
1073.617	-7.99
1074.038	-6.09
1074.459	-0.99
1074.88	-8.59
1075.3	1.21
1075.721	-13.19
1076.142	-0.79
1076.563	-5.89
1076.983	-14.29
1077.404	-2.19
1077.825	-11.09
1078.246	-8.89
1078.666	-12.79
1079.087	-0.99
1079.507	-8.19
1079.928	-3.19
1080.348	-4.09
1080.769	-2.39
1081.189	-7.39
1081.61	0.11
1082.03	-7.09
1082.451	-6.79
1082.871	-3.29
1083.291	-4.99
1083.711	-9.19
1084.132	-3.39
1084.552	-9.29
1084.972	-3.69
1085.392	-10.69
1085.813	-10.59
1086.233	-17.29
1086.653	-5.99
1087.073	-6.09
1087.493	-7.29
1087.913	-3.79
1088.333	-12.79
1088.753	-0.79
1089.173	0.61
1089.593	-5.59
1090.013	-3.49
1090.433	-2.09
1090.852	-5.99
1091.272	-1.09
1091.692	-7.99
1092.112	-5.59
1092.531	-11.19
1092.951	-16.39
1093.371	-1.29
1093.79	0.51
1094.21	-6.39
1094.63	-5.29
1095.049	-7.09
1095.469	-2.39
1095.888	-1.89
1096.308	1.41
1096.727	1.11
1097.146	-4.49
1097.566	-2.89
1097.985	-1.09
1098.405	-8.59
1098.824	-3.09
1099.243	-9.99
1099.662	-7.79
1100.082	-2.59
1100.501	-1.29
1100.92	-8.59
1101.339	-3.39
1101.758	-3.89
