Data from 20171114-ORNL-Ar_H_NY_Subt18_08-05-11-398.txt Node
Date: Tue Nov 14 08:05:11 EST 2017
User: Ender
Spectrometer: HR+D1039
Trigger mode: 0
Integration Time (sec): 2.730000E-2
Scans to average: 10
Electric dark correction enabled: true
Nonlinearity correction enabled: false
Boxcar width: 0
XAxis mode: Wavelengths
Number of Pixels in Spectrum: 2048
>>>>>Begin Spectral Data<<<<<
187.836	-4.77
188.309	-4.77
188.782	-4.77
189.255	-2.47
189.728	-2.27
190.201	6.83
190.674	0.83
191.147	4.73
191.619	-10.37
192.092	5.63
192.565	1.53
193.038	3.73
193.511	1.13
193.984	-6.37
194.456	-4.67
194.929	4.53
195.402	-3.07
195.874	5.03
196.347	1.63
196.82	-9.67
197.292	4.23
197.765	2.63
198.237	-5.57
198.71	1.23
199.182	0.53
199.655	4.33
200.127	0.13
200.6	2.13
201.072	0.53
201.544	-3.37
202.017	-2.87
202.489	1.63
202.961	-0.57
203.433	-3.97
203.906	-7.17
204.378	-1.27
204.85	-8.37
205.322	-5.97
205.794	-3.07
206.266	0.23
206.739	-8.67
207.211	5.43
207.683	-3.17
208.155	-9.27
208.627	-0.97
209.099	-0.67
209.57	-12.37
210.042	-2.57
210.514	-4.47
210.986	1.43
211.458	-3.77
211.93	-4.37
212.402	1.13
212.873	-11.47
213.345	-10.47
213.817	-10.17
214.288	-1.97
214.76	-7.57
215.232	-0.57
215.703	-1.37
216.175	0.93
216.646	-0.27
217.118	-3.67
217.589	-3.37
218.061	-4.27
218.532	-2.97
219.004	-9.17
219.475	-5.47
219.946	-2.57
220.418	-4.37
220.889	3.33
221.36	-2.27
221.832	1.43
222.303	-2.47
222.774	2.33
223.245	-2.77
223.717	-5.07
224.188	-5.97
224.659	-4.57
225.13	-10.97
225.601	-0.87
226.072	1.93
226.543	-0.57
227.014	-1.07
227.485	0.63
227.956	-5.47
228.427	-4.07
228.898	4.33
229.369	4.73
229.839	-7.37
230.31	-3.07
230.781	3.73
231.252	3.53
231.722	-2.97
232.193	-1.37
232.664	-3.47
233.135	-0.67
233.605	0.43
234.076	-7.37
234.546	2.73
235.017	3.73
235.487	0.63
235.958	-0.07
236.428	1.43
236.899	8.93
237.369	4.83
237.84	5.63
238.31	17.33
238.78	8.03
239.251	2.93
239.721	7.53
240.191	3.33
240.662	-0.57
241.132	1.43
241.602	-3.77
242.072	1.63
242.542	3.53
243.013	-2.07
243.483	4.23
243.953	2.03
244.423	0.93
244.893	-2.07
245.363	7.13
245.833	4.33
246.303	-3.97
246.773	8.63
247.243	1.83
247.712	4.03
248.182	6.23
248.652	8.13
249.122	1.13
249.592	16.03
250.061	19.23
250.531	34.33
251.001	17.53
251.471	26.83
251.94	17.43
252.41	5.23
252.879	12.13
253.349	13.73
253.818	5.03
254.288	3.63
254.757	12.83
255.227	1.83
255.696	4.73
256.166	7.33
256.635	5.73
257.105	12.93
257.574	10.13
258.043	10.73
258.513	8.43
258.982	19.73
259.451	10.73
259.92	14.73
260.389	11.43
260.859	20.83
261.328	3.83
261.797	22.43
262.266	13.53
262.735	15.43
263.204	9.13
263.673	-0.87
264.142	4.33
264.611	-3.57
265.08	0.33
265.549	8.13
266.018	11.43
266.487	5.23
266.955	0.23
267.424	8.63
267.893	13.83
268.362	5.03
268.83	6.63
269.299	12.33
269.768	6.43
270.236	11.73
270.705	6.63
271.174	10.63
271.642	13.43
272.111	10.33
272.579	22.63
273.048	33.13
273.516	36.83
273.985	29.83
274.453	30.33
274.922	29.53
275.39	15.83
275.858	6.73
276.327	16.93
276.795	27.93
277.263	15.53
277.731	31.13
278.2	59.93
278.668	68.33
279.136	55.03
279.604	23.13
280.072	15.43
280.54	12.13
281.008	11.03
281.477	16.53
281.945	10.93
282.413	16.13
282.881	19.93
283.348	1.93
283.816	17.03
284.284	20.63
284.752	25.73
285.22	14.73
285.688	19.53
286.156	22.33
286.623	46.13
287.091	55.03
287.559	33.33
288.026	14.43
288.494	20.63
288.962	8.73
289.429	9.43
289.897	20.53
290.364	16.73
290.832	24.93
291.3	17.33
291.767	22.73
292.234	14.33
292.702	8.83
293.169	20.83
293.637	27.23
294.104	23.93
294.571	17.63
295.039	10.93
295.506	20.13
295.973	19.73
296.44	21.73
296.908	23.83
297.375	23.83
297.842	21.63
298.309	17.43
298.776	20.33
299.243	23.23
299.71	14.23
300.177	25.43
300.644	26.73
301.111	20.53
301.578	25.23
302.045	16.73
302.512	34.33
302.979	30.43
303.446	21.23
303.913	19.03
304.379	27.13
304.846	36.73
305.313	29.63
305.78	23.53
306.246	29.83
306.713	30.73
307.18	29.93
307.646	30.03
308.113	33.13
308.579	24.13
309.046	26.33
309.512	29.73
309.979	21.03
310.445	30.93
310.912	31.83
311.378	42.23
311.845	32.13
312.311	33.13
312.777	34.93
313.244	41.53
313.71	37.03
314.176	31.93
314.642	37.63
315.109	40.73
315.575	41.53
316.041	39.63
316.507	38.43
316.973	40.63
317.439	38.83
317.905	41.33
318.371	40.23
318.837	35.53
319.303	39.53
319.769	35.03
320.235	36.13
320.701	42.03
321.167	38.63
321.633	36.43
322.099	45.23
322.564	46.63
323.03	45.33
323.496	41.23
323.962	40.73
324.427	35.23
324.893	47.33
325.359	42.43
325.824	42.83
326.29	40.13
326.755	40.53
327.221	41.93
327.686	38.93
328.152	48.83
328.617	51.43
329.083	50.93
329.548	54.73
330.014	52.13
330.479	49.13
330.944	50.13
331.41	42.73
331.875	45.63
332.34	43.93
332.805	44.13
333.271	48.83
333.736	48.93
334.201	57.33
334.666	55.33
335.131	55.53
335.596	54.43
336.061	51.93
336.526	45.63
336.991	53.33
337.456	57.93
337.921	47.53
338.386	41.53
338.851	48.93
339.316	47.83
339.781	47.83
340.246	53.23
340.711	46.53
341.175	61.53
341.64	46.63
342.105	56.43
342.569	59.23
343.034	62.53
343.499	53.93
343.963	54.33
344.428	64.13
344.893	63.13
345.357	61.23
345.822	71.33
346.286	70.43
346.751	82.23
347.215	69.13
347.679	70.93
348.144	103.03
348.608	89.63
349.073	71.53
349.537	74.83
350.001	77.23
350.465	92.13
350.93	80.03
351.394	81.33
351.858	77.13
352.322	85.63
352.786	85.23
353.25	97.93
353.715	117.03
354.179	103.93
354.643	125.93
355.107	130.63
355.571	115.03
356.035	113.23
356.498	117.63
356.962	126.23
357.426	137.03
357.89	121.13
358.354	89.13
358.818	86.23
359.281	89.93
359.745	82.93
360.209	81.63
360.673	75.33
361.136	80.83
361.6	86.73
362.064	87.03
362.527	89.83
362.991	93.33
363.454	78.33
363.918	81.53
364.381	85.13
364.845	87.63
365.308	82.73
365.772	88.73
366.235	92.43
366.698	87.73
367.162	90.13
367.625	88.33
368.088	91.43
368.552	90.53
369.015	86.43
369.478	98.23
369.941	97.33
370.404	100.33
370.867	108.33
371.331	107.83
371.794	111.23
372.257	109.73
372.72	115.93
373.183	111.53
373.646	105.93
374.109	97.93
374.572	111.93
375.035	111.03
375.497	108.43
375.96	102.33
376.423	98.93
376.886	107.83
377.349	108.43
377.811	106.53
378.274	104.53
378.737	107.73
379.199	112.43
379.662	118.43
380.125	117.63
380.587	120.83
381.05	120.73
381.512	132.23
381.975	137.53
382.437	132.73
382.9	132.13
383.362	132.63
383.825	139.33
384.287	148.13
384.75	139.33
385.212	133.23
385.674	139.83
386.136	134.23
386.599	127.73
387.061	127.63
387.523	133.13
387.985	139.03
388.447	145.53
388.91	139.93
389.372	154.33
389.834	159.03
390.296	144.53
390.758	145.93
391.22	167.53
391.682	209.33
392.144	297.13
392.606	227.03
393.068	165.53
393.529	171.43
393.991	150.33
394.453	145.53
394.915	156.83
395.377	185.73
395.838	206.53
396.3	152.73
396.762	138.53
397.224	137.93
397.685	139.53
398.147	127.53
398.608	125.73
399.07	128.03
399.531	132.13
399.993	141.23
400.454	156.43
400.916	153.43
401.377	142.63
401.839	145.33
402.3	159.93
402.762	167.53
403.223	185.63
403.684	166.83
404.145	158.43
404.607	166.23
405.068	166.03
405.529	172.13
405.99	183.73
406.451	175.13
406.913	168.63
407.374	163.13
407.835	159.03
408.296	173.93
408.757	172.33
409.218	188.23
409.679	176.03
410.14	179.93
410.601	179.93
411.062	190.53
411.522	183.73
411.983	186.33
412.444	175.13
412.905	186.73
413.366	183.23
413.826	191.43
414.287	208.13
414.748	267.23
415.208	252.23
415.669	205.13
416.13	196.73
416.59	198.93
417.051	212.73
417.511	212.73
417.972	239.43
418.432	239.53
418.893	281.43
419.353	243.93
419.814	198.33
420.274	184.63
420.734	182.23
421.195	199.13
421.655	192.03
422.115	192.13
422.576	191.03
423.036	196.93
423.496	205.23
423.956	208.63
424.416	223.33
424.876	266.33
425.336	262.33
425.797	260.23
426.257	252.33
426.717	240.83
427.177	234.53
427.637	225.63
428.097	236.13
428.556	246.23
429.016	265.33
429.476	265.63
429.936	274.13
430.396	279.33
430.856	291.63
431.315	308.03
431.775	356.33
432.235	376.73
432.694	344.53
433.154	360.93
433.614	388.93
434.073	332.63
434.533	284.53
434.993	267.23
435.452	283.53
435.912	295.23
436.371	287.03
436.83	285.93
437.29	266.93
437.749	248.73
438.209	250.53
438.668	270.43
439.127	290.23
439.587	265.63
440.046	244.33
440.505	257.83
440.964	275.43
441.424	326.53
441.883	312.13
442.342	259.43
442.801	222.63
443.26	216.33
443.719	221.73
444.178	213.43
444.637	210.43
445.096	223.53
445.555	224.63
446.014	222.53
446.473	220.73
446.932	234.73
447.391	223.83
447.849	223.33
448.308	217.33
448.767	217.93
449.226	231.53
449.685	230.63
450.143	240.03
450.602	233.13
451.061	222.03
451.519	227.33
451.978	228.63
452.436	233.03
452.895	240.83
453.353	255.93
453.812	236.63
454.27	243.53
454.729	238.13
455.187	237.13
455.646	242.63
456.104	249.63
456.562	259.43
457.021	261.53
457.479	248.13
457.937	264.83
458.395	256.43
458.854	244.23
459.312	256.13
459.77	271.53
460.228	249.53
460.686	239.33
461.144	250.63
461.602	242.53
462.06	247.53
462.518	255.63
462.976	250.83
463.434	258.13
463.892	260.23
464.35	271.33
464.808	284.93
465.266	270.73
465.724	265.83
466.181	264.43
466.639	272.63
467.097	281.43
467.555	296.03
468.012	289.13
468.47	304.13
468.928	322.83
469.385	331.13
469.843	348.83
470.3	344.13
470.758	355.73
471.215	382.03
471.673	398.83
472.13	397.53
472.588	410.13
473.045	361.13
473.503	375.93
473.96	390.73
474.417	403.73
474.875	429.23
475.332	470.73
475.789	458.33
476.246	463.93
476.704	484.23
477.161	498.33
477.618	519.83
478.075	555.43
478.532	609.53
478.989	690.93
479.446	798.03
479.903	764.73
480.36	812.33
480.817	856.43
481.274	966.03
481.731	1072.63
482.188	1158.43
482.645	1293.13
483.102	1398.83
483.558	1537.03
484.015	1597.33
484.472	1571.33
484.929	1522.93
485.385	1468.73
485.842	1446.23
486.299	1360.93
486.755	1285.43
487.212	1094.63
487.668	939.23
488.125	846.83
488.582	772.83
489.038	743.93
489.494	710.73
489.951	672.83
490.407	667.13
490.864	646.03
491.32	641.13
491.776	626.83
492.233	638.33
492.689	593.13
493.145	601.13
493.602	590.93
494.058	609.73
494.514	614.23
494.97	639.23
495.426	633.93
495.882	611.23
496.338	600.53
496.794	623.03
497.251	617.43
497.707	629.33
498.163	634.63
498.618	639.13
499.074	642.73
499.53	673.53
499.986	677.13
500.442	645.53
500.898	636.03
501.354	612.33
501.809	620.93
502.265	630.73
502.721	653.73
503.177	653.83
503.632	651.83
504.088	661.13
504.543	707.03
504.999	707.63
505.455	649.83
505.91	620.73
506.366	620.43
506.821	615.03
507.277	611.93
507.732	617.33
508.187	613.33
508.643	625.43
509.098	621.03
509.553	640.93
510.009	652.33
510.464	663.73
510.919	675.13
511.375	683.93
511.83	701.73
512.285	721.73
512.74	757.63
513.195	777.83
513.65	760.83
514.105	752.23
514.56	765.43
515.015	781.23
515.47	799.23
515.925	780.83
516.38	774.13
516.835	785.33
517.29	776.33
517.745	769.53
518.2	761.03
518.655	736.63
519.109	732.93
519.564	729.63
520.019	727.23
520.474	716.13
520.928	719.03
521.383	717.93
521.838	703.93
522.292	695.63
522.747	691.13
523.201	692.03
523.656	687.13
524.11	674.23
524.565	682.63
525.019	677.73
525.474	692.73
525.928	697.43
526.382	682.53
526.837	694.03
527.291	698.23
527.745	685.83
528.2	684.53
528.654	683.43
529.108	680.13
529.562	675.93
530.016	675.33
530.47	681.83
530.925	671.93
531.379	690.73
531.833	703.93
532.287	695.73
532.741	689.63
533.195	700.13
533.649	695.93
534.103	718.23
534.556	694.03
535.01	702.03
535.464	702.43
535.918	719.53
536.372	713.43
536.826	703.03
537.279	689.83
537.733	695.73
538.187	700.93
538.64	694.63
539.094	712.43
539.548	720.23
540.001	714.23
540.455	708.73
540.908	719.93
541.362	719.23
541.815	728.23
542.269	747.93
542.722	743.53
543.175	750.43
543.629	740.13
544.082	765.23
544.536	759.83
544.989	765.13
545.442	778.23
545.895	764.73
546.349	766.33
546.802	778.03
547.255	768.73
547.708	781.63
548.161	796.93
548.614	804.93
549.067	818.33
549.52	797.23
549.973	787.63
550.426	780.73
550.879	764.33
551.332	775.63
551.785	783.63
552.238	782.93
552.691	801.93
553.144	802.13
553.596	816.53
554.049	839.23
554.502	875.63
554.955	898.43
555.407	889.93
555.86	872.73
556.313	877.53
556.765	858.83
557.218	871.53
557.67	866.03
558.123	849.93
558.576	853.23
559.028	850.43
559.48	857.83
559.933	836.43
560.385	814.53
560.838	784.13
561.29	761.33
561.742	756.33
562.195	738.33
562.647	728.93
563.099	750.83
563.551	740.33
564.004	763.03
564.456	747.23
564.908	736.23
565.36	724.23
565.812	709.13
566.264	700.23
566.716	703.23
567.168	695.33
567.62	697.53
568.072	683.73
568.524	662.73
568.976	669.03
569.428	659.73
569.88	649.63
570.332	656.23
570.784	657.13
571.235	656.33
571.687	676.83
572.139	689.03
572.59	691.53
573.042	681.73
573.494	682.83
573.945	671.83
574.397	663.93
574.849	672.53
575.3	672.23
575.752	667.43
576.203	655.73
576.655	667.23
577.106	649.23
577.557	636.03
578.009	639.83
578.46	638.93
578.912	631.03
579.363	636.03
579.814	651.63
580.265	648.43
580.717	643.63
581.168	644.73
581.619	654.73
582.07	654.33
582.521	641.63
582.972	649.53
583.423	650.33
583.875	650.03
584.326	668.43
584.777	718.53
585.227	797.83
585.678	892.13
586.129	971.13
586.58	1040.53
587.031	1117.83
587.482	1289.13
587.933	1474.13
588.384	1278.23
588.834	953.33
589.285	776.33
589.736	752.03
590.186	744.93
590.637	721.33
591.088	717.93
591.538	709.83
591.989	697.53
592.439	703.63
592.89	685.13
593.34	678.83
593.791	681.73
594.241	679.33
594.692	674.93
595.142	665.93
595.593	664.53
596.043	674.53
596.493	698.93
596.943	692.63
597.394	686.83
597.844	682.23
598.294	698.43
598.744	711.63
599.195	731.23
599.645	770.03
600.095	810.33
600.545	868.53
600.995	917.63
601.445	969.93
601.895	1031.93
602.345	1092.13
602.795	1066.23
603.245	1012.53
603.695	973.03
604.145	901.43
604.594	864.13
605.044	822.63
605.494	758.13
605.944	709.73
606.393	706.23
606.843	688.53
607.293	700.83
607.743	699.63
608.192	708.63
608.642	721.43
609.091	729.63
609.541	734.53
609.99	727.53
610.44	726.43
610.889	687.53
611.339	662.03
611.788	649.63
612.238	667.83
612.687	685.93
613.136	685.43
613.586	699.13
614.035	701.23
614.484	725.93
614.933	725.23
615.383	703.73
615.832	708.63
616.281	682.13
616.73	652.23
617.179	631.23
617.628	617.43
618.077	601.33
618.526	589.53
618.975	586.23
619.424	587.33
619.873	580.53
620.322	582.53
620.771	578.33
621.22	563.63
621.669	558.53
622.118	557.23
622.567	551.73
623.015	539.93
623.464	530.63
623.913	533.03
624.361	522.33
624.81	519.93
625.259	523.93
625.707	516.73
626.156	522.13
626.604	532.93
627.053	521.83
627.501	535.53
627.95	540.43
628.398	551.83
628.847	541.63
629.295	526.23
629.744	530.93
630.192	525.53
630.64	531.23
631.089	524.43
631.537	538.23
631.985	552.23
632.433	562.43
632.881	569.83
633.33	618.53
633.778	597.53
634.226	534.83
634.674	536.93
635.122	545.13
635.57	562.43
636.018	584.23
636.466	543.63
636.914	524.23
637.362	539.53
637.81	540.63
638.258	540.63
638.705	545.73
639.153	572.13
639.601	575.13
640.049	610.13
640.497	629.93
640.944	647.83
641.392	598.43
641.84	571.03
642.287	547.63
642.735	528.23
643.182	535.93
643.63	528.13
644.078	534.23
644.525	558.43
644.973	560.23
645.42	567.03
645.867	582.63
646.315	605.33
646.762	620.53
647.21	648.73
647.657	673.43
648.104	706.03
648.551	717.43
648.999	782.83
649.446	860.83
649.893	944.73
650.34	1079.23
650.787	1280.13
651.234	1621.53
651.682	2083.83
652.129	2858.63
652.576	4095.23
653.023	6122.93
653.47	8368.43
653.917	10571.23
654.363	12293.43
654.81	13724.23
655.257	13074.83
655.704	8510.93
656.151	5019.93
656.598	3238.23
657.044	2294.33
657.491	1750.63
657.938	1410.03
658.385	1162.53
658.831	1012.53
659.278	897.13
659.724	803.93
660.171	735.43
660.618	678.93
661.064	644.03
661.511	622.93
661.957	609.93
662.404	596.93
662.85	614.73
663.296	568.43
663.743	526.93
664.189	502.63
664.635	497.33
665.082	487.93
665.528	489.53
665.974	477.23
666.42	470.03
666.867	478.13
667.313	456.23
667.759	445.63
668.205	443.73
668.651	454.33
669.097	457.03
669.543	465.43
669.989	442.83
670.435	419.43
670.881	411.83
671.327	414.23
671.773	429.53
672.219	456.23
672.665	502.33
673.11	539.93
673.556	577.73
674.002	614.93
674.448	603.93
674.893	501.93
675.339	436.03
675.785	400.63
676.23	385.03
676.676	365.43
677.122	352.43
677.567	343.13
678.013	342.43
678.458	331.93
678.904	336.53
679.349	317.63
679.794	328.33
680.24	320.93
680.685	322.33
681.131	316.93
681.576	324.53
682.021	322.93
682.466	321.43
682.912	321.03
683.357	327.43
683.802	350.33
684.247	376.33
684.692	416.43
685.137	462.53
685.583	500.53
686.028	515.33
686.473	482.83
686.918	411.53
687.363	382.83
687.807	362.73
688.252	344.23
688.697	328.33
689.142	313.43
689.587	313.33
690.032	298.33
690.477	317.73
690.921	320.83
691.366	353.53
691.811	368.73
692.255	386.03
692.7	424.13
693.145	452.83
693.589	618.93
694.034	1011.53
694.478	1398.73
694.923	1587.83
695.367	2096.93
695.812	1101.53
696.256	464.03
696.701	347.73
697.145	313.53
697.59	310.83
698.034	292.93
698.478	296.93
698.922	302.73
699.367	294.33
699.811	304.03
700.255	323.83
700.699	353.63
701.143	383.03
701.588	439.83
702.032	474.93
702.476	472.13
702.92	455.23
703.364	442.43
703.808	568.23
704.252	926.03
704.696	1316.13
705.14	1536.03
705.584	1971.53
706.027	975.53
706.471	476.63
706.915	360.93
707.359	315.33
707.803	294.53
708.246	280.83
708.69	288.53
709.134	289.13
709.577	286.43
710.021	292.13
710.465	278.33
710.908	273.93
711.352	275.53
711.795	283.63
712.239	316.03
712.682	355.63
713.126	381.13
713.569	424.03
714.012	336.23
714.456	295.53
714.899	278.63
715.342	251.93
715.786	241.03
716.229	238.43
716.672	236.73
717.115	230.03
717.558	231.13
718.002	230.73
718.445	243.13
718.888	253.43
719.331	272.73
719.774	282.43
720.217	274.33
720.66	253.03
721.103	242.73
721.546	228.93
721.989	219.43
722.432	214.03
722.874	221.53
723.317	211.23
723.76	227.03
724.203	234.73
724.645	292.73
725.088	403.03
725.531	514.83
725.974	585.03
726.416	493.33
726.859	279.03
727.301	219.53
727.744	214.93
728.187	207.93
728.629	216.93
729.071	223.83
729.514	238.23
729.956	247.53
730.399	263.53
730.841	264.23
731.283	250.03
731.726	240.63
732.168	234.63
732.61	245.03
733.053	260.53
733.495	287.33
733.937	319.63
734.379	358.53
734.821	397.73
735.263	481.93
735.705	734.13
736.148	1389.53
736.59	2319.23
737.032	2824.53
737.474	2283.13
737.916	733.83
738.357	390.03
738.799	304.83
739.241	269.83
739.683	257.83
740.125	267.13
740.567	263.03
741.008	283.03
741.45	291.23
741.892	291.33
742.334	325.23
742.775	323.83
743.217	308.03
743.658	248.43
744.1	223.23
744.542	238.13
744.983	288.83
745.425	318.33
745.866	316.73
746.307	259.03
746.749	257.13
747.19	290.73
747.632	399.03
748.073	775.53
748.514	1639.03
748.956	2584.53
749.397	3226.23
749.838	2689.93
750.279	2723.43
750.72	1364.63
751.162	499.63
751.603	290.73
752.044	224.73
752.485	190.33
752.926	190.63
753.367	187.83
753.808	176.13
754.249	175.03
754.69	171.83
755.131	164.53
755.572	168.33
756.013	161.83
756.453	169.33
756.894	170.13
757.335	179.33
757.776	183.33
758.216	178.93
758.657	183.43
759.098	176.43
759.538	206.93
759.979	239.93
760.42	340.13
760.86	616.03
761.301	1591.03
761.741	3950.13
762.182	5965.23
762.622	4196.73
763.063	1197.23
763.503	490.73
763.943	318.93
764.384	309.83
764.824	375.23
765.264	419.93
765.705	288.93
766.145	189.63
766.585	176.63
767.025	161.43
767.465	165.13
767.906	218.33
768.346	295.93
768.786	322.33
769.226	240.23
769.666	284.93
770.106	546.53
770.546	1363.83
770.986	2427.93
771.426	2196.23
771.866	714.43
772.306	295.93
772.745	188.73
773.185	159.73
773.625	147.93
774.065	154.13
774.505	175.73
774.944	279.93
775.384	617.03
775.824	1149.83
776.263	1136.83
776.703	474.33
777.142	202.73
777.582	144.83
778.021	128.03
778.461	134.53
778.9	128.43
779.34	124.53
779.779	111.33
780.219	104.63
780.658	99.13
781.097	99.43
781.537	102.43
781.976	97.23
782.415	98.03
782.855	99.93
783.294	94.93
783.733	95.33
784.172	99.13
784.611	95.63
785.05	96.83
785.489	101.73
785.928	107.53
786.367	112.73
786.806	109.63
787.245	125.73
787.684	115.43
788.123	134.13
788.562	122.93
789.001	112.23
789.44	118.23
789.879	113.83
790.317	110.33
790.756	118.53
791.195	116.93
791.634	130.83
792.072	182.93
792.511	316.53
792.95	876.03
793.388	1939.83
793.827	1800.93
794.265	621.73
794.704	255.23
795.142	166.33
795.581	139.33
796.019	124.73
796.458	108.53
796.896	109.83
797.334	117.53
797.773	135.33
798.211	190.73
798.649	382.43
799.087	912.93
799.526	1427.93
799.964	1790.33
800.402	1866.73
800.84	692.93
801.278	277.13
801.716	174.13
802.154	146.33
802.592	129.73
803.03	130.03
803.468	118.13
803.906	123.63
804.344	132.23
804.782	124.83
805.22	127.73
805.658	117.03
806.096	132.73
806.533	142.03
806.971	156.93
807.409	201.23
807.847	283.53
808.284	583.53
808.722	1651.23
809.16	2999.93
809.597	2789.93
810.035	4909.63
810.472	5387.13
810.91	1914.63
811.347	721.83
811.785	362.43
812.222	238.33
812.66	180.03
813.097	150.63
813.535	134.23
813.972	118.13
814.409	106.83
814.846	96.03
815.284	101.33
815.721	89.23
816.158	96.53
816.595	106.43
817.032	154.93
817.47	178.83
817.907	145.63
818.344	140.93
818.781	104.43
819.218	89.43
819.655	108.03
820.092	174.03
820.529	200.93
820.966	166.83
821.403	124.83
821.839	100.73
822.276	98.03
822.713	111.23
823.15	129.43
823.587	104.03
824.023	130.33
824.46	257.53
824.897	794.23
825.333	1244.13
825.77	539.63
826.206	209.43
826.643	124.83
827.08	90.13
827.516	71.13
827.953	70.23
828.389	76.13
828.825	66.83
829.262	62.63
829.698	57.53
830.135	53.83
830.571	56.93
831.007	60.43
831.443	64.93
831.88	59.63
832.316	57.63
832.752	60.53
833.188	60.83
833.624	55.53
834.06	62.63
834.497	53.93
834.933	62.03
835.369	63.93
835.805	61.33
836.241	73.33
836.677	73.33
837.112	81.43
837.548	93.73
837.984	124.83
838.42	182.63
838.856	437.23
839.292	1350.63
839.727	2132.73
840.163	980.13
840.599	809.03
841.034	1825.13
841.47	1974.93
841.906	714.23
842.341	303.13
842.777	208.23
843.212	290.13
843.648	298.13
844.083	140.43
844.519	85.73
844.954	71.03
845.39	56.73
845.825	52.63
846.261	52.23
846.696	47.23
847.131	49.93
847.566	51.13
848.002	52.53
848.437	50.93
848.872	55.13
849.307	54.83
849.742	75.13
850.177	155.13
850.613	500.43
851.048	807.83
851.483	347.93
851.918	140.93
852.353	76.03
852.788	57.93
853.223	52.53
853.657	48.63
854.092	43.83
854.527	36.43
854.962	34.43
855.397	38.43
855.832	42.73
856.266	34.03
856.701	35.53
857.136	32.13
857.57	36.53
858.005	46.63
858.44	53.03
858.874	38.23
859.309	51.83
859.743	32.73
860.178	45.03
860.612	36.43
861.047	48.23
861.481	60.43
861.915	68.43
862.35	52.23
862.784	30.93
863.218	36.93
863.653	30.73
864.087	43.73
864.521	48.93
864.955	58.03
865.39	141.53
865.824	161.53
866.258	96.03
866.692	149.63
867.126	161.23
867.56	88.73
867.994	55.83
868.428	32.83
868.862	46.23
869.296	48.73
869.73	56.13
870.164	48.23
870.598	45.23
871.031	34.43
871.465	24.03
871.899	32.83
872.333	23.13
872.766	21.33
873.2	22.13
873.634	26.63
874.067	23.83
874.501	22.73
874.935	32.03
875.368	32.53
875.802	25.73
876.235	22.13
876.669	23.33
877.102	22.53
877.535	21.23
877.969	18.03
878.402	26.93
878.836	19.23
879.269	25.23
879.702	22.33
880.135	20.13
880.569	20.23
881.002	25.73
881.435	18.73
881.868	14.93
882.301	21.83
882.734	19.13
883.167	19.83
883.601	13.23
884.034	20.53
884.467	9.83
884.899	18.73
885.332	17.23
885.765	12.23
886.198	18.83
886.631	15.43
887.064	15.33
887.497	21.03
887.929	25.53
888.362	14.13
888.795	9.23
889.228	20.33
889.66	17.93
890.093	10.03
890.526	16.13
890.958	20.03
891.391	11.43
891.823	17.03
892.256	17.13
892.688	15.93
893.121	19.33
893.553	13.83
893.985	23.93
894.418	16.73
894.85	12.53
895.282	15.03
895.715	13.13
896.147	17.43
896.579	18.13
897.011	13.43
897.444	24.73
897.876	9.83
898.308	11.73
898.74	12.23
899.172	11.43
899.604	24.03
900.036	20.73
900.468	15.33
900.9	13.33
901.332	12.03
901.764	13.23
902.196	14.63
902.628	15.73
903.06	19.43
903.491	25.03
903.923	19.03
904.355	16.23
904.787	22.83
905.218	20.83
905.65	18.43
906.082	12.83
906.513	9.73
906.945	13.33
907.376	13.43
907.808	14.83
908.239	23.43
908.671	22.03
909.102	16.03
909.534	25.33
909.965	41.53
910.397	82.03
910.828	287.63
911.259	431.13
911.691	199.73
912.122	95.33
912.553	49.73
912.984	32.63
913.415	25.73
913.847	26.03
914.278	19.43
914.709	14.53
915.14	17.53
915.571	12.73
916.002	15.23
916.433	13.83
916.864	14.43
917.295	11.83
917.726	17.23
918.157	12.13
918.587	27.73
919.018	24.43
919.449	15.73
919.88	20.23
920.311	27.63
920.741	42.73
921.172	157.33
921.603	138.03
922.033	69.03
922.464	41.33
922.895	23.13
923.325	17.53
923.756	13.63
924.186	15.23
924.617	19.63
925.047	36.43
925.478	54.53
925.908	38.13
926.338	22.93
926.769	16.73
927.199	18.33
927.629	8.93
928.06	18.43
928.49	10.43
928.92	11.33
929.35	6.43
929.78	5.63
930.21	4.33
930.641	6.43
931.071	6.03
931.501	4.33
931.931	3.63
932.361	10.73
932.791	4.93
933.221	4.93
933.651	7.93
934.08	17.83
934.51	26.03
934.94	7.13
935.37	8.93
935.8	16.43
936.229	3.83
936.659	11.23
937.089	5.63
937.519	17.43
937.948	23.33
938.378	18.33
938.807	4.03
939.237	3.23
939.666	9.93
940.096	-5.87
940.525	0.93
940.955	3.13
941.384	7.03
941.814	-0.57
942.243	0.53
942.672	2.13
943.102	5.83
943.531	-0.37
943.96	12.03
944.39	-1.27
944.819	0.43
945.248	1.43
945.677	0.53
946.106	7.23
946.535	8.63
946.964	0.43
947.393	3.63
947.822	1.83
948.251	-3.87
948.68	8.83
949.109	7.23
949.538	3.43
949.967	-0.57
950.396	-0.67
950.825	0.43
951.254	-1.47
951.682	-8.07
952.111	3.13
952.54	5.43
952.969	-0.87
953.397	-5.37
953.826	5.43
954.254	-5.47
954.683	-5.07
955.112	-0.57
955.54	-1.07
955.969	-0.17
956.397	-1.57
956.826	-0.67
957.254	4.93
957.682	6.03
958.111	2.03
958.539	-2.67
958.967	4.03
959.396	-2.07
959.824	-2.57
960.252	-0.47
960.68	-6.57
961.109	-6.77
961.537	-4.77
961.965	8.83
962.393	-1.07
962.821	-2.37
963.249	-3.17
963.677	4.83
964.105	6.43
964.533	36.23
964.961	35.03
965.389	21.13
965.817	4.03
966.245	-3.77
966.672	0.33
967.1	-7.17
967.528	4.73
967.956	-0.67
968.383	0.33
968.811	-0.37
969.239	-7.17
969.666	-5.57
970.094	4.33
970.522	3.73
970.949	2.93
971.377	-2.37
971.804	-4.17
972.232	2.43
972.659	-1.17
973.087	-4.37
973.514	-2.47
973.941	-0.97
974.369	-0.07
974.796	3.83
975.223	-4.67
975.651	3.23
976.078	-0.17
976.505	-0.87
976.932	3.73
977.359	15.63
977.786	16.53
978.214	1.53
978.641	-4.17
979.068	2.03
979.495	-3.57
979.922	0.53
980.349	-3.97
980.776	4.83
981.202	3.53
981.629	2.33
982.056	8.03
982.483	-6.17
982.91	-0.87
983.337	-6.17
983.763	11.53
984.19	-6.27
984.617	-1.57
985.043	-3.97
985.47	3.83
985.897	-5.37
986.323	-6.27
986.75	4.43
987.176	1.13
987.603	1.73
988.029	-4.27
988.456	-1.37
988.882	4.73
989.308	-10.67
989.735	-1.47
990.161	-3.87
990.587	-2.17
991.014	-2.37
991.44	7.23
991.866	2.13
992.292	-5.57
992.719	-1.27
993.145	2.53
993.571	-6.07
993.997	-4.67
994.423	-0.37
994.849	-4.27
995.275	2.53
995.701	6.53
996.127	-0.17
996.553	-0.67
996.979	-1.57
997.405	-0.67
997.83	-0.67
998.256	-7.97
998.682	-7.17
999.108	-4.17
999.534	-3.77
999.959	-1.67
1000.385	-3.67
1000.811	1.93
1001.236	-8.17
1001.662	-7.37
1002.087	-8.87
1002.513	-2.57
1002.938	2.93
1003.364	-3.07
1003.789	-1.87
1004.215	6.23
1004.64	-0.27
1005.066	2.83
1005.491	1.13
1005.916	3.83
1006.342	-0.67
1006.767	-7.67
1007.192	10.73
1007.617	-7.07
1008.042	-4.37
1008.468	-3.07
1008.893	0.93
1009.318	-0.27
1009.743	2.33
1010.168	-1.97
1010.593	4.33
1011.018	-7.97
1011.443	-3.87
1011.868	-1.97
1012.293	-1.27
1012.718	-5.87
1013.143	0.23
1013.567	0.33
1013.992	-0.87
1014.417	-13.27
1014.842	1.23
1015.267	-4.57
1015.691	-3.17
1016.116	4.13
1016.541	0.93
1016.965	5.73
1017.39	3.83
1017.814	0.73
1018.239	-4.87
1018.663	-3.77
1019.088	-7.07
1019.512	-1.37
1019.937	5.63
1020.361	-0.87
1020.785	-4.67
1021.21	1.53
1021.634	3.83
1022.058	0.43
1022.483	5.73
1022.907	0.73
1023.331	-4.67
1023.755	-2.07
1024.179	-1.77
1024.604	-8.57
1025.028	-7.97
1025.452	-2.77
1025.876	-4.17
1026.3	-2.17
1026.724	-3.37
1027.148	1.13
1027.572	-5.07
1027.996	-3.27
1028.42	-4.97
1028.843	-2.97
1029.267	-3.77
1029.691	0.33
1030.115	-5.97
1030.539	-3.37
1030.962	-3.77
1031.386	-6.97
1031.81	-0.07
1032.233	-6.37
1032.657	-0.77
1033.08	1.33
1033.504	0.23
1033.927	-1.87
1034.351	0.53
1034.774	-2.47
1035.198	3.63
1035.621	-3.67
1036.045	-4.37
1036.468	-3.27
1036.891	-7.17
1037.315	-6.37
1037.738	-8.47
1038.161	-1.97
1038.584	-6.07
1039.008	-2.07
1039.431	0.03
1039.854	-6.27
1040.277	-7.87
1040.7	-11.47
1041.123	-2.77
1041.546	-9.67
1041.969	-3.37
1042.392	-1.47
1042.815	-6.87
1043.238	-0.67
1043.661	3.33
1044.084	-1.07
1044.507	-7.37
1044.93	-7.27
1045.352	-5.67
1045.775	2.03
1046.198	-0.17
1046.621	-4.37
1047.043	-1.27
1047.466	7.93
1047.889	1.83
1048.311	-1.07
1048.734	-1.87
1049.156	-4.07
1049.579	-3.37
1050.001	-1.07
1050.424	-0.07
1050.846	-4.77
1051.269	-3.67
1051.691	-7.27
1052.113	-2.67
1052.536	-3.87
1052.958	-5.67
1053.38	-5.27
1053.802	-11.77
1054.225	3.03
1054.647	-9.17
1055.069	-3.87
1055.491	-1.87
1055.913	-8.67
1056.335	0.33
1056.757	-3.77
1057.179	-7.27
1057.601	-7.67
1058.023	-7.17
1058.445	0.73
1058.867	0.63
1059.289	-3.07
1059.711	-0.87
1060.133	-2.97
1060.555	-3.07
1060.976	-6.97
1061.398	-6.47
1061.82	-7.27
1062.241	-1.27
1062.663	-7.07
1063.085	-6.47
1063.506	-2.17
1063.928	-4.47
1064.35	0.83
1064.771	-10.87
1065.193	-4.27
1065.614	-6.37
1066.035	1.43
1066.457	0.53
1066.878	-0.37
1067.3	-3.27
1067.721	-3.27
1068.142	-5.17
1068.564	-3.67
1068.985	-6.77
1069.406	-0.17
1069.827	-2.07
1070.248	2.63
1070.67	-3.27
1071.091	-2.87
1071.512	-6.37
1071.933	-4.27
1072.354	-9.97
1072.775	-4.57
1073.196	-7.97
1073.617	-5.57
1074.038	-7.37
1074.459	-4.47
1074.88	-5.87
1075.3	-1.17
1075.721	-5.27
1076.142	0.23
1076.563	-0.97
1076.983	-7.97
1077.404	-2.87
1077.825	-6.17
1078.246	-5.07
1078.666	-9.57
1079.087	-6.77
1079.507	-8.17
1079.928	-0.17
1080.348	-0.67
1080.769	-4.17
1081.189	1.03
1081.61	3.03
1082.03	-2.67
1082.451	4.53
1082.871	-2.97
1083.291	-5.47
1083.711	-3.57
1084.132	-3.17
1084.552	-1.47
1084.972	0.43
1085.392	-2.07
1085.813	-6.97
1086.233	-3.47
1086.653	-4.07
1087.073	0.63
1087.493	-7.37
1087.913	-5.17
1088.333	-2.47
1088.753	-3.67
1089.173	2.03
1089.593	0.03
1090.013	-1.67
1090.433	1.83
1090.852	-4.27
1091.272	-0.67
1091.692	-1.27
1092.112	-1.57
1092.531	-11.57
1092.951	-11.17
1093.371	1.73
1093.79	3.03
1094.21	-8.87
1094.63	-6.17
1095.049	-5.57
1095.469	-4.07
1095.888	2.73
1096.308	0.63
1096.727	2.53
1097.146	-9.67
1097.566	-1.17
1097.985	-9.67
1098.405	-2.27
1098.824	-5.07
1099.243	-1.97
1099.662	-9.87
1100.082	-4.87
1100.501	0.33
1100.92	-8.37
1101.339	-4.37
1101.758	-1.67
