Data from 20171114-ORNL-Ar_H_NY_Subt18_08-06-12-545.txt Node
Date: Tue Nov 14 08:06:12 EST 2017
User: Ender
Spectrometer: HR+D1039
Trigger mode: 0
Integration Time (sec): 2.730000E-2
Scans to average: 10
Electric dark correction enabled: true
Nonlinearity correction enabled: false
Boxcar width: 0
XAxis mode: Wavelengths
Number of Pixels in Spectrum: 2048
>>>>>Begin Spectral Data<<<<<
187.836	-0.44
188.309	-0.44
188.782	-0.44
189.255	-1.14
189.728	-1.24
190.201	10.06
190.674	0.16
191.147	4.36
191.619	-7.24
192.092	-0.54
192.565	8.96
193.038	4.46
193.511	-1.94
193.984	-4.04
194.456	-2.34
194.929	-2.54
195.402	-7.24
195.874	0.66
196.347	2.66
196.82	-5.54
197.292	2.66
197.765	-0.44
198.237	-4.84
198.71	0.56
199.182	0.06
199.655	5.56
200.127	2.16
200.6	-0.44
201.072	-1.54
201.544	0.96
202.017	-4.34
202.489	2.86
202.961	-0.94
203.433	-4.24
203.906	-7.54
204.378	-2.74
204.85	-2.84
205.322	-4.74
205.794	2.06
206.266	1.46
206.739	-7.14
207.211	5.76
207.683	-2.94
208.155	-2.94
208.627	-7.54
209.099	-4.24
209.57	-5.54
210.042	-5.04
210.514	-0.34
210.986	4.66
211.458	-5.74
211.93	1.56
212.402	2.76
212.873	0.66
213.345	-9.84
213.817	-8.44
214.288	-1.04
214.76	-12.44
215.232	-5.24
215.703	-3.84
216.175	-5.14
216.646	0.76
217.118	-5.54
217.589	0.46
218.061	-2.84
218.532	-4.24
219.004	-0.84
219.475	-5.64
219.946	-0.74
220.418	-2.94
220.889	5.26
221.36	-0.24
221.832	-5.94
222.303	-6.94
222.774	-1.74
223.245	-10.54
223.717	-5.24
224.188	-1.84
224.659	-9.24
225.13	-4.34
225.601	-0.74
226.072	0.46
226.543	3.46
227.014	4.06
227.485	-0.64
227.956	-3.34
228.427	3.46
228.898	-0.24
229.369	3.46
229.839	-4.64
230.31	-4.24
230.781	3.96
231.252	-3.74
231.722	-5.34
232.193	-0.84
232.664	3.86
233.135	2.46
233.605	5.76
234.076	-4.34
234.546	-0.34
235.017	3.46
235.487	-1.14
235.958	-0.84
236.428	-3.34
236.899	6.86
237.369	4.06
237.84	2.36
238.31	2.16
238.78	5.06
239.251	-0.34
239.721	4.76
240.191	5.76
240.662	3.26
241.132	4.46
241.602	1.06
242.072	0.76
242.542	9.16
243.013	-1.04
243.483	5.26
243.953	4.76
244.423	-1.84
244.893	-1.04
245.363	8.56
245.833	3.26
246.303	-0.04
246.773	5.06
247.243	3.76
247.712	0.26
248.182	9.76
248.652	5.56
249.122	2.66
249.592	9.36
250.061	25.16
250.531	29.96
251.001	15.16
251.471	26.46
251.94	23.76
252.41	8.46
252.879	2.56
253.349	14.06
253.818	7.66
254.288	3.96
254.757	8.66
255.227	6.06
255.696	3.26
256.166	1.86
256.635	10.46
257.105	8.86
257.574	13.96
258.043	8.16
258.513	13.66
258.982	17.06
259.451	9.56
259.92	18.56
260.389	11.96
260.859	18.76
261.328	8.76
261.797	20.86
262.266	15.46
262.735	15.66
263.204	7.36
263.673	6.56
264.142	7.16
264.611	-3.04
265.08	7.36
265.549	-2.74
266.018	7.26
266.487	-1.44
266.955	-1.44
267.424	2.96
267.893	9.56
268.362	5.16
268.83	9.36
269.299	11.86
269.768	6.36
270.236	9.36
270.705	4.86
271.174	11.26
271.642	5.36
272.111	8.26
272.579	15.76
273.048	22.56
273.516	33.06
273.985	32.16
274.453	25.16
274.922	15.66
275.39	15.06
275.858	7.76
276.327	13.46
276.795	18.66
277.263	17.36
277.731	29.76
278.2	56.26
278.668	67.16
279.136	53.26
279.604	21.56
280.072	18.46
280.54	15.76
281.008	13.46
281.477	16.66
281.945	13.46
282.413	18.46
282.881	10.56
283.348	13.26
283.816	17.86
284.284	15.26
284.752	25.06
285.22	7.76
285.688	11.76
286.156	15.76
286.623	44.96
287.091	54.36
287.559	31.06
288.026	20.56
288.494	17.56
288.962	2.26
289.429	8.86
289.897	15.26
290.364	16.86
290.832	18.76
291.3	14.96
291.767	20.06
292.234	27.86
292.702	11.96
293.169	22.06
293.637	25.66
294.104	21.56
294.571	13.76
295.039	11.46
295.506	12.56
295.973	16.96
296.44	15.86
296.908	15.56
297.375	15.96
297.842	22.86
298.309	19.66
298.776	17.96
299.243	26.46
299.71	15.46
300.177	19.96
300.644	21.16
301.111	21.56
301.578	24.46
302.045	26.26
302.512	33.16
302.979	28.96
303.446	25.36
303.913	24.66
304.379	24.56
304.846	30.96
305.313	31.06
305.78	23.86
306.246	23.66
306.713	28.76
307.18	22.66
307.646	29.26
308.113	32.46
308.579	22.26
309.046	26.46
309.512	32.76
309.979	25.76
310.445	29.86
310.912	33.26
311.378	28.36
311.845	24.66
312.311	31.36
312.777	35.46
313.244	35.66
313.71	37.06
314.176	30.36
314.642	31.96
315.109	34.36
315.575	38.86
316.041	36.96
316.507	37.76
316.973	40.36
317.439	42.26
317.905	38.56
318.371	41.06
318.837	39.86
319.303	33.76
319.769	33.56
320.235	32.56
320.701	35.66
321.167	36.46
321.633	37.16
322.099	44.16
322.564	52.76
323.03	47.36
323.496	38.96
323.962	43.96
324.427	42.16
324.893	46.96
325.359	38.46
325.824	38.56
326.29	38.26
326.755	40.16
327.221	40.96
327.686	39.66
328.152	48.86
328.617	43.86
329.083	51.26
329.548	53.06
330.014	51.76
330.479	43.46
330.944	41.96
331.41	42.66
331.875	47.56
332.34	41.66
332.805	50.56
333.271	52.76
333.736	48.46
334.201	59.66
334.666	54.46
335.131	57.56
335.596	52.16
336.061	60.66
336.526	51.76
336.991	52.16
337.456	60.26
337.921	55.76
338.386	44.66
338.851	44.66
339.316	48.06
339.781	55.16
340.246	55.06
340.711	47.86
341.175	55.96
341.64	47.36
342.105	48.36
342.569	59.56
343.034	61.16
343.499	60.36
343.963	57.96
344.428	70.66
344.893	63.36
345.357	68.86
345.822	68.06
346.286	72.46
346.751	71.46
347.215	69.86
347.679	78.46
348.144	100.46
348.608	88.96
349.073	71.66
349.537	79.86
350.001	84.66
350.465	88.56
350.93	81.76
351.394	84.76
351.858	70.06
352.322	92.16
352.786	84.56
353.25	109.26
353.715	114.86
354.179	102.86
354.643	123.66
355.107	128.96
355.571	108.06
356.035	111.36
356.498	134.56
356.962	133.26
357.426	133.96
357.89	119.56
358.354	99.16
358.818	90.36
359.281	87.06
359.745	77.56
360.209	78.96
360.673	85.96
361.136	90.16
361.6	86.36
362.064	91.16
362.527	83.06
362.991	93.56
363.454	88.46
363.918	81.16
364.381	84.06
364.845	85.96
365.308	91.16
365.772	88.76
366.235	90.96
366.698	84.76
367.162	93.06
367.625	92.16
368.088	93.56
368.552	91.06
369.015	94.66
369.478	98.16
369.941	104.56
370.404	103.36
370.867	111.46
371.331	104.76
371.794	122.36
372.257	119.16
372.72	122.66
373.183	114.66
373.646	110.16
374.109	103.16
374.572	121.26
375.035	117.56
375.497	112.26
375.96	106.76
376.423	106.76
376.886	112.06
377.349	111.06
377.811	107.26
378.274	106.26
378.737	112.66
379.199	112.46
379.662	114.66
380.125	118.66
380.587	115.36
381.05	125.56
381.512	134.36
381.975	140.96
382.437	130.36
382.9	127.56
383.362	141.66
383.825	144.56
384.287	157.96
384.75	145.06
385.212	147.46
385.674	145.36
386.136	143.46
386.599	127.76
387.061	135.56
387.523	139.76
387.985	146.46
388.447	151.36
388.91	148.76
389.372	162.66
389.834	153.56
390.296	147.66
390.758	160.16
391.22	180.36
391.682	214.36
392.144	306.06
392.606	242.66
393.068	171.96
393.529	169.76
393.991	154.86
394.453	156.36
394.915	160.16
395.377	192.46
395.838	215.46
396.3	157.46
396.762	145.96
397.224	135.56
397.685	131.86
398.147	132.66
398.608	131.26
399.07	140.16
399.531	148.66
399.993	152.66
400.454	160.96
400.916	155.56
401.377	150.86
401.839	156.36
402.3	154.46
402.762	169.46
403.223	186.96
403.684	178.46
404.145	166.46
404.607	174.56
405.068	166.16
405.529	181.26
405.99	199.76
406.451	187.96
406.913	178.46
407.374	175.26
407.835	161.46
408.296	177.96
408.757	185.66
409.218	189.46
409.679	176.86
410.14	185.76
410.601	178.16
411.062	192.76
411.522	198.76
411.983	199.16
412.444	180.26
412.905	182.66
413.366	187.66
413.826	203.26
414.287	225.06
414.748	274.36
415.208	252.56
415.669	213.26
416.13	216.66
416.59	211.56
417.051	211.16
417.511	226.36
417.972	243.66
418.432	254.16
418.893	298.16
419.353	249.46
419.814	200.96
420.274	185.46
420.734	186.46
421.195	205.76
421.655	209.26
422.115	201.76
422.576	203.06
423.036	210.46
423.496	216.96
423.956	221.96
424.416	236.26
424.876	270.16
425.336	265.96
425.797	273.66
426.257	267.26
426.717	251.46
427.177	247.96
427.637	227.16
428.097	243.36
428.556	258.76
429.016	286.96
429.476	278.36
429.936	282.16
430.396	282.16
430.856	300.06
431.315	329.86
431.775	363.16
432.235	399.16
432.694	366.86
433.154	379.86
433.614	400.36
434.073	350.86
434.533	294.76
434.993	285.36
435.452	294.36
435.912	299.56
436.371	304.36
436.83	292.86
437.29	282.76
437.749	261.86
438.209	253.56
438.668	280.76
439.127	296.76
439.587	278.16
440.046	261.96
440.505	271.36
440.964	285.46
441.424	338.06
441.883	326.66
442.342	263.96
442.801	234.76
443.26	231.66
443.719	230.76
444.178	229.46
444.637	220.56
445.096	220.56
445.555	231.16
446.014	241.36
446.473	230.16
446.932	240.56
447.391	233.66
447.849	234.26
448.308	228.16
448.767	228.46
449.226	237.86
449.685	249.66
450.143	257.76
450.602	251.16
451.061	245.06
451.519	234.36
451.978	243.56
452.436	243.36
452.895	248.36
453.353	261.16
453.812	250.16
454.27	246.16
454.729	246.46
455.187	249.76
455.646	251.46
456.104	263.06
456.562	272.26
457.021	275.76
457.479	268.06
457.937	282.66
458.395	272.46
458.854	263.26
459.312	265.46
459.77	285.06
460.228	262.46
460.686	250.36
461.144	255.96
461.602	248.56
462.06	250.46
462.518	259.36
462.976	259.56
463.434	270.56
463.892	269.86
464.35	288.96
464.808	305.76
465.266	275.86
465.724	279.76
466.181	283.26
466.639	280.86
467.097	295.66
467.555	316.06
468.012	312.16
468.47	323.96
468.928	343.06
469.385	356.16
469.843	359.66
470.3	368.46
470.758	381.76
471.215	394.16
471.673	425.06
472.13	412.06
472.588	431.56
473.045	388.96
473.503	401.76
473.96	410.96
474.417	416.36
474.875	447.86
475.332	492.56
475.789	479.76
476.246	476.36
476.704	507.06
477.161	528.96
477.618	535.26
478.075	575.36
478.532	646.36
478.989	710.46
479.446	830.36
479.903	805.46
480.36	828.36
480.817	897.96
481.274	994.76
481.731	1111.36
482.188	1198.36
482.645	1340.36
483.102	1453.16
483.558	1580.76
484.015	1644.36
484.472	1614.56
484.929	1565.26
485.385	1510.76
485.842	1480.06
486.299	1400.86
486.755	1324.56
487.212	1127.76
487.668	951.86
488.125	885.26
488.582	809.46
489.038	774.76
489.494	728.96
489.951	705.86
490.407	693.66
490.864	669.26
491.32	662.36
491.776	669.36
492.233	658.76
492.689	626.26
493.145	621.96
493.602	621.86
494.058	625.36
494.514	632.26
494.97	660.56
495.426	670.06
495.882	632.76
496.338	626.46
496.794	656.26
497.251	640.76
497.707	649.96
498.163	660.36
498.618	663.76
499.074	664.56
499.53	699.06
499.986	702.06
500.442	675.56
500.898	652.66
501.354	640.36
501.809	654.66
502.265	665.26
502.721	689.96
503.177	690.86
503.632	689.46
504.088	694.66
504.543	725.56
504.999	726.56
505.455	674.96
505.91	658.56
506.366	645.26
506.821	643.56
507.277	638.36
507.732	646.56
508.187	638.36
508.643	650.36
509.098	651.56
509.553	674.26
510.009	683.06
510.464	688.96
510.919	705.46
511.375	711.66
511.83	732.16
512.285	748.36
512.74	784.96
513.195	813.66
513.65	785.06
514.105	787.96
514.56	792.26
515.015	811.26
515.47	833.86
515.925	810.06
516.38	811.66
516.835	815.86
517.29	798.46
517.745	794.96
518.2	780.96
518.655	768.96
519.109	763.16
519.564	754.16
520.019	751.66
520.474	748.16
520.928	748.56
521.383	749.26
521.838	741.36
522.292	735.86
522.747	737.06
523.201	727.46
523.656	714.96
524.11	704.16
524.565	713.36
525.019	709.86
525.474	722.96
525.928	718.96
526.382	706.26
526.837	721.16
527.291	715.16
527.745	714.36
528.2	719.86
528.654	712.16
529.108	715.06
529.562	714.56
530.016	702.86
530.47	719.56
530.925	716.16
531.379	721.86
531.833	725.16
532.287	721.16
532.741	721.66
533.195	724.16
533.649	733.06
534.103	737.36
534.556	723.76
535.01	727.36
535.464	725.86
535.918	737.96
536.372	744.66
536.826	727.36
537.279	720.76
537.733	727.16
538.187	732.16
538.64	735.86
539.094	743.76
539.548	737.96
540.001	736.06
540.455	740.16
540.908	748.66
541.362	753.66
541.815	757.96
542.269	783.76
542.722	773.56
543.175	790.86
543.629	790.26
544.082	800.46
544.536	806.06
544.989	790.46
545.442	809.86
545.895	808.96
546.349	812.76
546.802	813.36
547.255	814.96
547.708	823.06
548.161	837.96
548.614	837.96
549.067	852.76
549.52	844.86
549.973	831.86
550.426	831.06
550.879	815.66
551.332	806.26
551.785	821.86
552.238	834.66
552.691	831.46
553.144	848.86
553.596	867.86
554.049	880.66
554.502	915.06
554.955	929.66
555.407	923.06
555.86	917.36
556.313	903.26
556.765	897.36
557.218	901.26
557.67	911.36
558.123	901.46
558.576	883.76
559.028	889.96
559.48	905.86
559.933	897.26
560.385	849.76
560.838	827.46
561.29	806.16
561.742	800.06
562.195	776.36
562.647	784.06
563.099	789.36
563.551	784.66
564.004	794.96
564.456	783.46
564.908	772.06
565.36	758.46
565.812	751.16
566.264	743.06
566.716	732.26
567.168	732.36
567.62	740.66
568.072	715.66
568.524	711.36
568.976	706.96
569.428	694.86
569.88	690.66
570.332	698.46
570.784	698.46
571.235	709.56
571.687	702.26
572.139	710.16
572.59	725.66
573.042	731.16
573.494	726.96
573.945	719.16
574.397	705.16
574.849	698.36
575.3	703.06
575.752	685.56
576.203	696.46
576.655	696.66
577.106	680.06
577.557	677.66
578.009	682.26
578.46	675.26
578.912	672.56
579.363	675.16
579.814	686.36
580.265	674.46
580.717	686.66
581.168	686.06
581.619	695.16
582.07	686.16
582.521	679.46
582.972	676.66
583.423	691.56
583.875	698.36
584.326	707.86
584.777	754.86
585.227	840.96
585.678	921.06
586.129	1010.66
586.58	1087.86
587.031	1150.56
587.482	1310.56
587.933	1503.46
588.384	1295.46
588.834	993.16
589.285	811.46
589.736	790.16
590.186	783.66
590.637	786.16
591.088	756.16
591.538	752.26
591.989	746.56
592.439	732.26
592.89	732.76
593.34	726.56
593.791	720.76
594.241	706.56
594.692	723.16
595.142	714.66
595.593	711.16
596.043	712.36
596.493	728.26
596.943	724.96
597.394	732.56
597.844	719.86
598.294	738.86
598.744	764.86
599.195	784.96
599.645	818.26
600.095	865.66
600.545	922.66
600.995	974.26
601.445	1043.36
601.895	1118.16
602.345	1147.56
602.795	1135.06
603.245	1076.96
603.695	1024.46
604.145	970.16
604.594	919.96
605.044	879.76
605.494	814.96
605.944	770.76
606.393	757.06
606.843	741.96
607.293	746.56
607.743	743.96
608.192	758.26
608.642	768.16
609.091	778.96
609.541	782.26
609.99	784.36
610.44	781.06
610.889	729.46
611.339	701.46
611.788	695.36
612.238	718.16
612.687	735.56
613.136	730.56
613.586	733.76
614.035	746.86
614.484	765.36
614.933	768.56
615.383	755.46
615.832	742.06
616.281	735.16
616.73	693.06
617.179	671.96
617.628	661.46
618.077	649.86
618.526	629.76
618.975	625.06
619.424	622.96
619.873	611.96
620.322	628.86
620.771	611.76
621.22	605.06
621.669	589.46
622.118	592.56
622.567	584.86
623.015	572.76
623.464	578.66
623.913	565.36
624.361	558.76
624.81	551.56
625.259	561.16
625.707	563.66
626.156	556.46
626.604	582.46
627.053	563.36
627.501	566.86
627.95	580.66
628.398	595.26
628.847	577.56
629.295	574.36
629.744	578.96
630.192	568.56
630.64	579.76
631.089	569.86
631.537	576.76
631.985	586.36
632.433	597.76
632.881	612.76
633.33	662.56
633.778	648.46
634.226	566.16
634.674	574.66
635.122	581.66
635.57	598.06
636.018	628.86
636.466	582.36
636.914	561.56
637.362	571.56
637.81	582.26
638.258	578.86
638.705	582.26
639.153	610.86
639.601	628.66
640.049	644.56
640.497	671.06
640.944	709.46
641.392	642.36
641.84	613.06
642.287	589.46
642.735	572.86
643.182	575.66
643.63	573.96
644.078	582.96
644.525	591.16
644.973	607.66
645.42	613.76
645.867	624.06
646.315	646.86
646.762	659.26
647.21	697.66
647.657	721.36
648.104	752.06
648.551	776.86
648.999	843.36
649.446	918.46
649.893	1012.36
650.34	1165.36
650.787	1393.96
651.234	1733.76
651.682	2261.36
652.129	3115.16
652.576	4486.66
653.023	6602.36
653.47	9040.96
653.917	11300.76
654.363	13065.86
654.81	14456.56
655.257	13771.06
655.704	9022.76
656.151	5347.26
656.598	3460.66
657.044	2441.46
657.491	1876.16
657.938	1500.66
658.385	1257.16
658.831	1078.76
659.278	972.16
659.724	847.86
660.171	795.96
660.618	733.96
661.064	694.56
661.511	672.96
661.957	652.16
662.404	652.36
662.85	655.36
663.296	627.56
663.743	568.66
664.189	539.66
664.635	537.46
665.082	525.96
665.528	531.66
665.974	518.36
666.42	520.26
666.867	510.96
667.313	497.86
667.759	480.26
668.205	479.26
668.651	490.16
669.097	480.36
669.543	490.36
669.989	472.56
670.435	448.46
670.881	447.76
671.327	452.16
671.773	467.36
672.219	487.56
672.665	547.96
673.11	580.46
673.556	623.76
674.002	653.46
674.448	650.06
674.893	552.86
675.339	476.36
675.785	442.16
676.23	418.76
676.676	396.16
677.122	389.56
677.567	373.66
678.013	368.56
678.458	362.06
678.904	360.76
679.349	345.86
679.794	349.16
680.24	357.36
680.685	357.16
681.131	349.96
681.576	353.26
682.021	361.26
682.466	354.26
682.912	353.66
683.357	352.96
683.802	381.96
684.247	408.96
684.692	454.86
685.137	502.06
685.583	530.36
686.028	565.86
686.473	515.46
686.918	450.26
687.363	421.36
687.807	396.36
688.252	356.76
688.697	352.26
689.142	341.56
689.587	329.76
690.032	326.66
690.477	336.76
690.921	349.36
691.366	389.56
691.811	404.16
692.255	431.26
692.7	454.06
693.145	494.16
693.589	691.76
694.034	1124.06
694.478	1535.16
694.923	1750.56
695.367	2260.16
695.812	1187.86
696.256	505.16
696.701	372.26
697.145	346.76
697.59	327.46
698.034	319.76
698.478	329.56
698.922	330.06
699.367	327.76
699.811	334.16
700.255	354.76
700.699	393.36
701.143	431.06
701.588	478.86
702.032	510.96
702.476	503.86
702.92	496.16
703.364	481.56
703.808	628.56
704.252	1028.26
704.696	1438.26
705.14	1675.06
705.584	2141.86
706.027	1058.16
706.471	521.66
706.915	400.46
707.359	344.36
707.803	323.86
708.246	312.56
708.69	310.56
709.134	319.76
709.577	309.26
710.021	313.36
710.465	300.86
710.908	305.46
711.352	299.86
711.795	312.16
712.239	351.16
712.682	380.36
713.126	414.86
713.569	456.66
714.012	370.06
714.456	331.26
714.899	300.06
715.342	261.46
715.786	260.26
716.229	257.66
716.672	258.56
717.115	246.76
717.558	253.96
718.002	252.36
718.445	267.06
718.888	284.36
719.331	287.46
719.774	314.76
720.217	295.46
720.66	285.66
721.103	277.06
721.546	257.96
721.989	244.56
722.432	234.86
722.874	233.66
723.317	234.46
723.76	239.56
724.203	261.66
724.645	317.86
725.088	442.66
725.531	562.86
725.974	649.96
726.416	549.86
726.859	307.86
727.301	248.16
727.744	236.06
728.187	230.86
728.629	235.66
729.071	240.66
729.514	252.96
729.956	265.86
730.399	287.06
730.841	287.26
731.283	271.96
731.726	261.66
732.168	263.86
732.61	268.56
733.053	281.16
733.495	311.06
733.937	357.26
734.379	400.46
734.821	425.66
735.263	531.16
735.705	817.76
736.148	1548.06
736.59	2546.36
737.032	3044.86
737.474	2450.26
737.916	794.56
738.357	427.26
738.799	324.26
739.241	293.46
739.683	287.46
740.125	291.76
740.567	293.26
741.008	310.96
741.45	310.16
741.892	314.36
742.334	351.66
742.775	359.76
743.217	340.36
743.658	269.76
744.1	249.96
744.542	255.66
744.983	313.76
745.425	347.26
745.866	348.06
746.307	284.76
746.749	283.26
747.19	320.16
747.632	452.16
748.073	866.46
748.514	1841.36
748.956	2814.36
749.397	3537.76
749.838	2958.46
750.279	2941.96
750.72	1475.96
751.162	532.56
751.603	311.56
752.044	244.06
752.485	219.46
752.926	208.96
753.367	205.56
753.808	197.06
754.249	188.66
754.69	190.96
755.131	184.86
755.572	180.76
756.013	179.46
756.453	187.26
756.894	189.86
757.335	187.96
757.776	197.76
758.216	199.26
758.657	196.76
759.098	195.96
759.538	221.26
759.979	272.56
760.42	367.66
760.86	685.06
761.301	1777.96
761.741	4364.46
762.182	6395.46
762.622	4475.26
763.063	1288.86
763.503	536.46
763.943	347.16
764.384	340.56
764.824	387.56
765.264	424.16
765.705	299.06
766.145	204.66
766.585	193.36
767.025	181.56
767.465	186.86
767.906	240.06
768.346	305.96
768.786	331.26
769.226	255.36
769.666	309.96
770.106	606.36
770.546	1513.16
770.986	2612.46
771.426	2347.46
771.866	788.66
772.306	320.56
772.745	203.96
773.185	176.26
773.625	161.06
774.065	165.76
774.505	200.86
774.944	303.16
775.384	659.16
775.824	1197.96
776.263	1183.06
776.703	498.36
777.142	218.76
777.582	153.36
778.021	136.56
778.461	133.56
778.9	140.86
779.34	128.86
779.779	122.56
780.219	108.96
780.658	105.26
781.097	109.66
781.537	107.86
781.976	110.26
782.415	101.76
782.855	108.56
783.294	105.36
783.733	109.66
784.172	111.96
784.611	103.26
785.05	110.76
785.489	116.46
785.928	119.66
786.367	116.56
786.806	122.36
787.245	121.76
787.684	140.36
788.123	152.36
788.562	139.86
789.001	127.96
789.44	117.36
789.879	116.36
790.317	120.86
790.756	131.66
791.195	127.56
791.634	147.96
792.072	201.16
792.511	358.96
792.95	991.16
793.388	2095.66
793.827	1918.96
794.265	673.96
794.704	271.66
795.142	178.86
795.581	149.66
796.019	143.36
796.458	134.06
796.896	123.16
797.334	125.46
797.773	153.66
798.211	213.06
798.649	425.06
799.087	994.36
799.526	1564.16
799.964	1980.26
800.402	1991.46
800.84	744.76
801.278	293.16
801.716	190.06
802.154	152.16
802.592	146.76
803.03	138.16
803.468	138.06
803.906	141.86
804.344	146.46
804.782	139.16
805.22	132.56
805.658	129.56
806.096	143.36
806.533	154.36
806.971	175.56
807.409	213.26
807.847	305.76
808.284	648.56
808.722	1828.46
809.16	3265.96
809.597	3068.36
810.035	5318.56
810.472	5742.96
810.91	2062.16
811.347	790.96
811.785	404.76
812.222	260.36
812.66	197.56
813.097	161.06
813.535	145.16
813.972	130.16
814.409	121.76
814.846	110.06
815.284	107.46
815.721	98.16
816.158	109.16
816.595	123.06
817.032	175.06
817.47	203.26
817.907	176.76
818.344	154.06
818.781	117.46
819.218	97.86
819.655	121.16
820.092	185.36
820.529	214.56
820.966	175.96
821.403	139.76
821.839	106.86
822.276	103.16
822.713	123.76
823.15	139.06
823.587	120.06
824.023	147.06
824.46	299.36
824.897	888.56
825.333	1352.46
825.77	574.56
826.206	222.76
826.643	138.16
827.08	103.16
827.516	84.86
827.953	78.06
828.389	86.56
828.825	70.66
829.262	71.66
829.698	59.26
830.135	62.46
830.571	60.76
831.007	64.26
831.443	66.66
831.88	62.76
832.316	63.76
832.752	66.36
833.188	67.76
833.624	65.46
834.06	70.06
834.497	74.56
834.933	72.06
835.369	68.46
835.805	63.86
836.241	75.16
836.677	77.06
837.112	92.66
837.548	98.76
837.984	132.96
838.42	195.96
838.856	484.46
839.292	1470.46
839.727	2278.56
840.163	1049.26
840.599	912.66
841.034	1990.26
841.47	2102.46
841.906	770.56
842.341	329.76
842.777	230.46
843.212	313.76
843.648	307.66
844.083	152.16
844.519	96.66
844.954	77.16
845.39	59.76
845.825	58.36
846.261	53.56
846.696	59.66
847.131	56.06
847.566	62.46
848.002	53.66
848.437	51.26
848.872	62.46
849.307	62.86
849.742	87.26
850.177	176.06
850.613	545.76
851.048	865.66
851.483	378.66
851.918	151.76
852.353	98.26
852.788	63.36
853.223	61.96
853.657	55.96
854.092	46.96
854.527	46.56
854.962	42.66
855.397	45.96
855.832	51.26
856.266	37.16
856.701	40.46
857.136	42.16
857.57	42.76
858.005	46.06
858.44	60.06
858.874	43.16
859.309	50.26
859.743	36.46
860.178	51.46
860.612	39.16
861.047	57.26
861.481	69.56
861.915	71.06
862.35	53.76
862.784	40.76
863.218	39.56
863.653	35.46
864.087	46.66
864.521	51.96
864.955	75.56
865.39	154.96
865.824	181.66
866.258	114.06
866.692	160.86
867.126	172.66
867.56	109.86
867.994	56.06
868.428	33.76
868.862	51.96
869.296	53.56
869.73	56.56
870.164	53.46
870.598	44.06
871.031	41.16
871.465	34.36
871.899	30.46
872.333	31.16
872.766	27.56
873.2	22.56
873.634	29.86
874.067	23.86
874.501	25.36
874.935	36.86
875.368	29.96
875.802	29.76
876.235	27.96
876.669	25.36
877.102	27.66
877.535	30.16
877.969	22.46
878.402	21.16
878.836	17.26
879.269	20.26
879.702	27.56
880.135	21.56
880.569	22.26
881.002	34.06
881.435	22.36
881.868	18.66
882.301	24.66
882.734	22.26
883.167	21.66
883.601	20.46
884.034	24.76
884.467	17.66
884.899	19.06
885.332	20.36
885.765	18.46
886.198	18.96
886.631	19.56
887.064	26.26
887.497	23.96
887.929	32.36
888.362	14.26
888.795	13.86
889.228	22.76
889.66	28.36
890.093	17.76
890.526	9.46
890.958	19.56
891.391	19.46
891.823	23.66
892.256	13.46
892.688	8.56
893.121	15.86
893.553	16.66
893.985	22.16
894.418	16.26
894.85	13.96
895.282	20.96
895.715	14.66
896.147	18.96
896.579	21.16
897.011	15.86
897.444	18.06
897.876	17.36
898.308	19.96
898.74	18.26
899.172	12.56
899.604	19.96
900.036	24.26
900.468	12.46
900.9	16.66
901.332	21.36
901.764	17.06
902.196	21.26
902.628	20.96
903.06	19.46
903.491	24.06
903.923	32.16
904.355	14.46
904.787	21.26
905.218	23.26
905.65	22.56
906.082	14.66
906.513	10.86
906.945	16.66
907.376	15.76
907.808	18.96
908.239	22.46
908.671	19.26
909.102	18.66
909.534	25.16
909.965	47.46
910.397	94.96
910.828	312.96
911.259	471.86
911.691	218.96
912.122	105.36
912.553	51.96
912.984	37.56
913.415	28.96
913.847	30.66
914.278	16.36
914.709	23.66
915.14	15.36
915.571	23.46
916.002	12.86
916.433	21.46
916.864	15.16
917.295	19.36
917.726	20.36
918.157	6.86
918.587	31.46
919.018	16.36
919.449	25.16
919.88	25.96
920.311	27.26
920.741	53.56
921.172	162.16
921.603	147.26
922.033	73.06
922.464	47.66
922.895	22.46
923.325	21.76
923.756	13.36
924.186	17.76
924.617	28.66
925.047	45.56
925.478	53.96
925.908	48.36
926.338	26.66
926.769	20.36
927.199	19.76
927.629	12.16
928.06	16.26
928.49	16.56
928.92	15.26
929.35	17.16
929.78	11.56
930.21	10.06
930.641	5.76
931.071	12.46
931.501	10.16
931.931	8.66
932.361	6.86
932.791	4.46
933.221	6.46
933.651	4.26
934.08	17.86
934.51	25.86
934.94	10.26
935.37	12.66
935.8	15.26
936.229	3.46
936.659	9.36
937.089	7.06
937.519	14.16
937.948	26.96
938.378	15.96
938.807	8.26
939.237	5.66
939.666	9.46
940.096	-1.34
940.525	2.76
940.955	2.76
941.384	7.46
941.814	-3.64
942.243	2.86
942.672	5.46
943.102	-1.94
943.531	0.06
943.96	6.66
944.39	4.16
944.819	2.36
945.248	7.66
945.677	4.16
946.106	11.66
946.535	13.96
946.964	4.96
947.393	2.86
947.822	5.16
948.251	-3.44
948.68	2.46
949.109	7.46
949.538	8.46
949.967	-0.44
950.396	-0.94
950.825	3.56
951.254	4.26
951.682	-5.74
952.111	10.26
952.54	6.36
952.969	-8.14
953.397	-1.64
953.826	-1.64
954.254	-6.64
954.683	-0.04
955.112	2.06
955.54	-3.34
955.969	8.26
956.397	4.26
956.826	-1.64
957.254	3.46
957.682	1.16
958.111	2.26
958.539	-0.94
958.967	-5.14
959.396	-0.24
959.824	0.96
960.252	2.26
960.68	-0.34
961.109	-0.64
961.537	-3.14
961.965	-6.34
962.393	6.96
962.821	-2.14
963.249	-0.24
963.677	5.86
964.105	5.96
964.533	45.66
964.961	39.56
965.389	22.26
965.817	8.96
966.245	5.46
966.672	0.86
967.1	-10.64
967.528	0.66
967.956	-3.14
968.383	5.06
968.811	-4.54
969.239	0.66
969.666	-5.84
970.094	0.86
970.522	3.16
970.949	0.16
971.377	-2.34
971.804	-6.44
972.232	1.06
972.659	-0.94
973.087	3.46
973.514	4.06
973.941	-5.54
974.369	8.36
974.796	-4.24
975.223	-0.14
975.651	3.76
976.078	3.36
976.505	-1.04
976.932	5.16
977.359	18.66
977.786	17.96
978.214	4.76
978.641	-0.44
979.068	-0.44
979.495	-5.14
979.922	-4.94
980.349	-2.44
980.776	0.06
981.202	-4.54
981.629	10.66
982.056	6.96
982.483	-2.14
982.91	4.66
983.337	-7.34
983.763	0.86
984.19	-0.74
984.617	-3.04
985.043	-1.74
985.47	0.86
985.897	-3.04
986.323	-3.44
986.75	5.66
987.176	-3.84
987.603	-0.64
988.029	-2.74
988.456	-3.34
988.882	3.16
989.308	-9.64
989.735	1.66
990.161	2.26
990.587	-8.94
991.014	-0.84
991.44	9.56
991.866	0.36
992.292	-7.34
992.719	-3.54
993.145	16.56
993.571	-4.74
993.997	-0.24
994.423	0.46
994.849	-2.94
995.275	3.56
995.701	-2.84
996.127	0.36
996.553	-0.14
996.979	5.56
997.405	-2.54
997.83	-5.84
998.256	-4.94
998.682	1.86
999.108	-5.44
999.534	-3.34
999.959	1.96
1000.385	-1.84
1000.811	0.96
1001.236	-5.24
1001.662	-9.44
1002.087	-6.84
1002.513	2.16
1002.938	3.36
1003.364	-2.34
1003.789	1.76
1004.215	11.26
1004.64	-0.14
1005.066	3.56
1005.491	-0.84
1005.916	-2.84
1006.342	-4.64
1006.767	-6.94
1007.192	1.66
1007.617	-2.14
1008.042	-3.64
1008.468	-9.94
1008.893	-1.64
1009.318	-3.84
1009.743	0.06
1010.168	3.26
1010.593	-2.44
1011.018	-10.14
1011.443	-0.24
1011.868	-0.74
1012.293	1.66
1012.718	-6.84
1013.143	1.06
1013.567	6.16
1013.992	-5.34
1014.417	-16.04
1014.842	1.16
1015.267	-6.64
1015.691	-3.24
1016.116	3.96
1016.541	-4.44
1016.965	-1.24
1017.39	5.46
1017.814	-5.04
1018.239	-4.04
1018.663	-8.74
1019.088	-9.64
1019.512	-4.14
1019.937	-2.84
1020.361	-2.34
1020.785	-14.34
1021.21	-5.94
1021.634	-3.54
1022.058	-2.34
1022.483	3.66
1022.907	0.16
1023.331	-5.54
1023.755	-4.14
1024.179	-1.84
1024.604	-5.84
1025.028	-2.94
1025.452	-4.24
1025.876	2.86
1026.3	-1.34
1026.724	-7.14
1027.148	-6.74
1027.572	-8.94
1027.996	-6.44
1028.42	-2.94
1028.843	-2.44
1029.267	-2.04
1029.691	-4.24
1030.115	-2.84
1030.539	-3.74
1030.962	-13.04
1031.386	-10.94
1031.81	6.86
1032.233	1.06
1032.657	-2.04
1033.08	3.76
1033.504	-0.74
1033.927	-2.34
1034.351	2.86
1034.774	-2.14
1035.198	3.16
1035.621	-6.94
1036.045	-4.24
1036.468	-0.74
1036.891	-9.94
1037.315	-5.04
1037.738	-12.04
1038.161	-4.14
1038.584	0.16
1039.008	-0.84
1039.431	-5.84
1039.854	0.26
1040.277	-9.04
1040.7	-11.64
1041.123	-1.74
1041.546	-7.74
1041.969	-3.84
1042.392	-9.34
1042.815	-4.44
1043.238	0.16
1043.661	3.16
1044.084	-8.84
1044.507	-0.54
1044.93	-7.74
1045.352	-5.94
1045.775	-1.54
1046.198	-1.94
1046.621	0.16
1047.043	0.96
1047.466	9.26
1047.889	-0.74
1048.311	-2.44
1048.734	-0.94
1049.156	-7.44
1049.579	5.26
1050.001	-5.04
1050.424	-2.04
1050.846	-5.74
1051.269	-3.94
1051.691	-5.14
1052.113	-4.44
1052.536	0.86
1052.958	0.26
1053.38	-2.44
1053.802	-11.94
1054.225	-0.34
1054.647	-3.54
1055.069	-1.24
1055.491	4.06
1055.913	-11.24
1056.335	1.16
1056.757	-2.94
1057.179	-2.44
1057.601	-2.84
1058.023	-2.04
1058.445	-5.34
1058.867	-2.84
1059.289	-1.44
1059.711	-3.34
1060.133	0.96
1060.555	1.26
1060.976	-6.74
1061.398	-5.04
1061.82	-4.44
1062.241	1.56
1062.663	-0.84
1063.085	-2.74
1063.506	-4.94
1063.928	-10.54
1064.35	3.56
1064.771	-7.34
1065.193	-4.64
1065.614	-8.94
1066.035	-2.04
1066.457	-5.04
1066.878	-2.64
1067.3	-4.24
1067.721	-7.44
1068.142	-5.94
1068.564	-7.44
1068.985	-10.14
1069.406	-3.04
1069.827	0.26
1070.248	1.16
1070.67	-2.14
1071.091	-3.84
1071.512	-4.34
1071.933	-5.74
1072.354	-6.14
1072.775	-3.74
1073.196	-5.24
1073.617	-2.54
1074.038	-6.94
1074.459	0.16
1074.88	-6.74
1075.3	6.36
1075.721	-1.14
1076.142	-0.94
1076.563	-4.74
1076.983	-7.64
1077.404	-3.84
1077.825	-6.64
1078.246	-3.44
1078.666	-10.64
1079.087	-4.74
1079.507	-6.84
1079.928	6.16
1080.348	5.06
1080.769	0.06
1081.189	-0.74
1081.61	-4.24
1082.03	-9.64
1082.451	-6.64
1082.871	-2.74
1083.291	-9.74
1083.711	-9.64
1084.132	-4.04
1084.552	-6.44
1084.972	-3.54
1085.392	-9.34
1085.813	-8.44
1086.233	-7.84
1086.653	-5.74
1087.073	-4.14
1087.493	-1.44
1087.913	-6.54
1088.333	-4.64
1088.753	0.56
1089.173	-0.14
1089.593	-3.54
1090.013	-1.94
1090.433	0.06
1090.852	-0.04
1091.272	-0.34
1091.692	-0.34
1092.112	-3.34
1092.531	-10.84
1092.951	-19.84
1093.371	-1.74
1093.79	0.56
1094.21	-0.14
1094.63	-4.54
1095.049	-6.14
1095.469	-6.44
1095.888	-6.24
1096.308	-2.34
1096.727	3.06
1097.146	-3.64
1097.566	-0.14
1097.985	-4.14
1098.405	-3.64
1098.824	-5.04
1099.243	-3.54
1099.662	-6.54
1100.082	-7.84
1100.501	-9.94
1100.92	-5.24
1101.339	-0.14
1101.758	-4.44
