Data from 20171114-ORNL-Ar_H_NY_Subt18_08-05-48-250.txt Node
Date: Tue Nov 14 08:05:48 EST 2017
User: Ender
Spectrometer: HR+D1039
Trigger mode: 0
Integration Time (sec): 2.730000E-2
Scans to average: 10
Electric dark correction enabled: true
Nonlinearity correction enabled: false
Boxcar width: 0
XAxis mode: Wavelengths
Number of Pixels in Spectrum: 2048
>>>>>Begin Spectral Data<<<<<
187.836	-6.38
188.309	-6.38
188.782	-6.38
189.255	0.32
189.728	1.12
190.201	6.12
190.674	0.32
191.147	6.92
191.619	-10.48
192.092	0.62
192.565	4.72
193.038	4.12
193.511	0.32
193.984	1.02
194.456	0.42
194.929	-1.78
195.402	-7.78
195.874	0.42
196.347	0.22
196.82	-6.58
197.292	8.32
197.765	-3.08
198.237	-9.58
198.71	4.22
199.182	-1.48
199.655	4.02
200.127	5.02
200.6	-3.98
201.072	-0.28
201.544	-4.88
202.017	-3.38
202.489	0.32
202.961	1.22
203.433	1.12
203.906	-6.98
204.378	-4.08
204.85	-2.58
205.322	-6.08
205.794	-1.18
206.266	-5.98
206.739	-5.98
207.211	-0.38
207.683	-3.28
208.155	-1.88
208.627	-4.88
209.099	-4.08
209.57	-13.18
210.042	-1.38
210.514	-7.68
210.986	1.02
211.458	-4.28
211.93	-0.28
212.402	4.12
212.873	-8.38
213.345	0.52
213.817	-17.98
214.288	-3.68
214.76	-8.18
215.232	0.22
215.703	-2.98
216.175	-1.58
216.646	-1.38
217.118	-0.58
217.589	-0.08
218.061	-0.38
218.532	-2.68
219.004	2.02
219.475	-4.48
219.946	-2.78
220.418	-7.88
220.889	3.62
221.36	1.52
221.832	-2.08
222.303	-6.18
222.774	3.22
223.245	-5.58
223.717	-7.08
224.188	-4.88
224.659	-6.18
225.13	-2.78
225.601	0.32
226.072	4.12
226.543	-1.78
227.014	-1.38
227.485	-0.48
227.956	-6.18
228.427	-7.18
228.898	8.72
229.369	11.12
229.839	0.32
230.31	-2.88
230.781	2.02
231.252	-5.98
231.722	0.12
232.193	0.72
232.664	6.72
233.135	1.72
233.605	5.82
234.076	-2.88
234.546	0.12
235.017	0.92
235.487	4.62
235.958	-0.48
236.428	-2.08
236.899	5.72
237.369	4.82
237.84	2.02
238.31	8.72
238.78	1.02
239.251	0.12
239.721	1.22
240.191	5.02
240.662	3.32
241.132	4.52
241.602	-4.58
242.072	8.12
242.542	5.52
243.013	3.02
243.483	8.62
243.953	-2.38
244.423	-3.18
244.893	-5.88
245.363	7.52
245.833	9.72
246.303	-1.48
246.773	3.92
247.243	3.42
247.712	4.62
248.182	6.32
248.652	9.02
249.122	2.32
249.592	12.32
250.061	20.62
250.531	36.42
251.001	14.42
251.471	21.12
251.94	19.62
252.41	5.52
252.879	3.02
253.349	12.82
253.818	12.32
254.288	6.22
254.757	11.02
255.227	2.72
255.696	2.52
256.166	6.12
256.635	6.62
257.105	8.92
257.574	5.52
258.043	12.72
258.513	15.52
258.982	14.12
259.451	7.62
259.92	19.82
260.389	13.42
260.859	18.62
261.328	9.12
261.797	20.32
262.266	11.22
262.735	16.82
263.204	4.12
263.673	4.02
264.142	5.92
264.611	-9.58
265.08	1.12
265.549	3.02
266.018	4.72
266.487	-1.18
266.955	-4.48
267.424	4.22
267.893	7.02
268.362	1.12
268.83	3.42
269.299	14.82
269.768	2.82
270.236	4.22
270.705	8.02
271.174	6.12
271.642	9.12
272.111	10.42
272.579	21.62
273.048	22.02
273.516	28.82
273.985	34.32
274.453	24.72
274.922	20.22
275.39	16.22
275.858	4.22
276.327	13.62
276.795	23.82
277.263	19.02
277.731	35.82
278.2	53.12
278.668	61.72
279.136	55.72
279.604	24.12
280.072	26.62
280.54	13.22
281.008	9.82
281.477	14.82
281.945	10.92
282.413	12.52
282.881	20.92
283.348	7.92
283.816	12.02
284.284	14.62
284.752	15.32
285.22	15.52
285.688	16.72
286.156	16.62
286.623	44.02
287.091	53.42
287.559	30.62
288.026	18.42
288.494	22.52
288.962	8.62
289.429	15.22
289.897	19.42
290.364	18.32
290.832	28.42
291.3	17.82
291.767	21.12
292.234	19.72
292.702	16.92
293.169	19.32
293.637	21.12
294.104	22.52
294.571	11.42
295.039	16.62
295.506	16.62
295.973	15.12
296.44	21.22
296.908	23.02
297.375	22.12
297.842	25.62
298.309	17.22
298.776	20.42
299.243	27.92
299.71	17.62
300.177	23.02
300.644	20.72
301.111	23.42
301.578	21.12
302.045	21.62
302.512	28.32
302.979	26.02
303.446	25.82
303.913	21.42
304.379	21.32
304.846	31.72
305.313	24.52
305.78	26.02
306.246	29.42
306.713	32.62
307.18	26.12
307.646	28.32
308.113	31.22
308.579	25.12
309.046	28.52
309.512	33.82
309.979	24.32
310.445	26.62
310.912	28.72
311.378	34.92
311.845	26.02
312.311	30.42
312.777	34.22
313.244	34.52
313.71	40.82
314.176	31.52
314.642	31.92
315.109	36.62
315.575	38.82
316.041	41.42
316.507	37.52
316.973	43.32
317.439	33.92
317.905	40.32
318.371	40.52
318.837	30.82
319.303	41.32
319.769	41.02
320.235	30.62
320.701	40.82
321.167	43.92
321.633	36.72
322.099	43.42
322.564	45.32
323.03	42.32
323.496	40.72
323.962	39.82
324.427	36.42
324.893	43.72
325.359	36.62
325.824	37.32
326.29	41.02
326.755	37.72
327.221	39.92
327.686	46.52
328.152	49.42
328.617	48.62
329.083	46.32
329.548	51.12
330.014	49.52
330.479	44.22
330.944	48.52
331.41	43.02
331.875	48.72
332.34	51.02
332.805	44.92
333.271	48.12
333.736	44.62
334.201	58.22
334.666	52.82
335.131	64.52
335.596	49.72
336.061	49.82
336.526	50.82
336.991	53.02
337.456	55.52
337.921	50.82
338.386	46.82
338.851	44.52
339.316	49.42
339.781	52.52
340.246	51.02
340.711	51.12
341.175	51.12
341.64	46.62
342.105	56.92
342.569	58.92
343.034	63.12
343.499	60.32
343.963	55.42
344.428	66.82
344.893	67.02
345.357	62.62
345.822	65.62
346.286	70.52
346.751	78.82
347.215	71.82
347.679	78.42
348.144	100.02
348.608	83.72
349.073	71.52
349.537	80.42
350.001	86.82
350.465	95.12
350.93	86.02
351.394	86.42
351.858	75.72
352.322	90.32
352.786	88.22
353.25	104.02
353.715	113.92
354.179	107.92
354.643	127.52
355.107	129.82
355.571	111.92
356.035	109.02
356.498	117.62
356.962	131.42
357.426	137.52
357.89	115.82
358.354	94.42
358.818	88.62
359.281	79.02
359.745	81.42
360.209	80.12
360.673	73.22
361.136	83.92
361.6	89.22
362.064	81.02
362.527	83.72
362.991	91.52
363.454	80.92
363.918	75.82
364.381	81.52
364.845	80.62
365.308	89.82
365.772	88.32
366.235	84.02
366.698	84.72
367.162	87.62
367.625	86.42
368.088	88.82
368.552	89.72
369.015	87.62
369.478	99.42
369.941	102.22
370.404	101.72
370.867	109.72
371.331	112.12
371.794	119.92
372.257	114.72
372.72	117.22
373.183	103.52
373.646	107.02
374.109	100.12
374.572	102.42
375.035	107.32
375.497	111.62
375.96	104.92
376.423	102.52
376.886	113.92
377.349	107.02
377.811	99.32
378.274	105.32
378.737	107.82
379.199	117.52
379.662	121.02
380.125	118.72
380.587	118.62
381.05	126.42
381.512	134.52
381.975	136.42
382.437	130.62
382.9	129.12
383.362	136.42
383.825	133.82
384.287	148.82
384.75	143.62
385.212	144.72
385.674	143.02
386.136	137.42
386.599	131.92
387.061	130.32
387.523	130.62
387.985	137.02
388.447	144.32
388.91	149.72
389.372	150.42
389.834	155.22
390.296	146.32
390.758	148.12
391.22	166.92
391.682	209.02
392.144	295.62
392.606	234.02
393.068	173.52
393.529	172.32
393.991	158.72
394.453	152.42
394.915	154.92
395.377	196.82
395.838	213.12
396.3	154.82
396.762	142.72
397.224	135.42
397.685	131.32
398.147	133.92
398.608	130.92
399.07	121.12
399.531	134.32
399.993	142.42
400.454	152.42
400.916	147.32
401.377	140.02
401.839	153.32
402.3	155.22
402.762	165.32
403.223	180.62
403.684	171.42
404.145	164.22
404.607	157.72
405.068	160.82
405.529	172.12
405.99	192.42
406.451	175.82
406.913	177.12
407.374	161.82
407.835	165.12
408.296	171.52
408.757	173.32
409.218	191.12
409.679	180.22
410.14	177.92
410.601	173.12
411.062	185.42
411.522	190.02
411.983	188.42
412.444	175.02
412.905	180.02
413.366	177.12
413.826	199.32
414.287	218.72
414.748	259.42
415.208	255.02
415.669	214.02
416.13	206.62
416.59	199.32
417.051	224.22
417.511	215.92
417.972	234.62
418.432	244.32
418.893	285.12
419.353	247.92
419.814	205.32
420.274	184.72
420.734	179.92
421.195	198.52
421.655	200.32
422.115	200.22
422.576	194.42
423.036	199.72
423.496	208.72
423.956	218.92
424.416	228.52
424.876	269.02
425.336	255.22
425.797	261.72
426.257	256.32
426.717	239.22
427.177	240.32
427.637	225.62
428.097	240.72
428.556	250.02
429.016	270.42
429.476	268.02
429.936	269.12
430.396	278.22
430.856	291.42
431.315	321.72
431.775	353.42
432.235	379.42
432.694	345.52
433.154	363.92
433.614	393.92
434.073	337.12
434.533	286.12
434.993	274.42
435.452	282.92
435.912	295.62
436.371	293.42
436.83	282.02
437.29	268.92
437.749	249.82
438.209	251.22
438.668	274.62
439.127	284.52
439.587	270.32
440.046	245.12
440.505	256.12
440.964	280.12
441.424	326.52
441.883	313.42
442.342	257.22
442.801	232.12
443.26	230.02
443.719	219.82
444.178	214.02
444.637	207.02
445.096	218.92
445.555	217.72
446.014	234.82
446.473	227.62
446.932	232.32
447.391	228.12
447.849	230.12
448.308	219.52
448.767	220.32
449.226	232.22
449.685	241.32
450.143	249.72
450.602	239.72
451.061	230.02
451.519	233.92
451.978	238.72
452.436	244.12
452.895	243.62
453.353	252.42
453.812	243.62
454.27	240.02
454.729	246.32
455.187	237.22
455.646	250.32
456.104	249.82
456.562	259.52
457.021	271.92
457.479	265.52
457.937	277.52
458.395	264.32
458.854	240.92
459.312	260.52
459.77	267.52
460.228	265.02
460.686	247.92
461.144	253.42
461.602	245.52
462.06	245.12
462.518	256.42
462.976	261.72
463.434	257.82
463.892	260.02
464.35	278.02
464.808	290.52
465.266	262.02
465.724	270.42
466.181	274.72
466.639	277.02
467.097	279.22
467.555	299.12
468.012	302.82
468.47	309.82
468.928	331.72
469.385	342.02
469.843	346.82
470.3	362.92
470.758	361.32
471.215	393.32
471.673	413.32
472.13	408.42
472.588	424.72
473.045	380.02
473.503	385.22
473.96	392.72
474.417	412.72
474.875	437.42
475.332	477.52
475.789	462.72
476.246	465.22
476.704	496.32
477.161	507.32
477.618	524.62
478.075	559.92
478.532	613.32
478.989	698.02
479.446	812.22
479.903	779.22
480.36	810.92
480.817	870.22
481.274	982.62
481.731	1079.02
482.188	1174.82
482.645	1313.22
483.102	1424.62
483.558	1548.42
484.015	1620.32
484.472	1588.42
484.929	1540.22
485.385	1498.22
485.842	1448.32
486.299	1370.62
486.755	1309.42
487.212	1112.72
487.668	933.82
488.125	866.42
488.582	782.22
489.038	754.92
489.494	722.72
489.951	689.92
490.407	672.62
490.864	659.02
491.32	656.02
491.776	649.42
492.233	653.72
492.689	620.32
493.145	613.92
493.602	608.22
494.058	622.32
494.514	624.02
494.97	647.02
495.426	656.92
495.882	634.02
496.338	624.52
496.794	631.82
497.251	630.92
497.707	644.32
498.163	638.52
498.618	652.62
499.074	649.72
499.53	681.22
499.986	681.92
500.442	654.32
500.898	634.32
501.354	630.82
501.809	647.32
502.265	648.82
502.721	656.32
503.177	677.72
503.632	672.42
504.088	682.62
504.543	713.62
504.999	714.52
505.455	667.42
505.91	640.52
506.366	634.52
506.821	636.42
507.277	621.22
507.732	629.02
508.187	626.02
508.643	634.32
509.098	637.92
509.553	663.02
510.009	672.32
510.464	682.22
510.919	689.22
511.375	701.62
511.83	713.42
512.285	735.82
512.74	763.42
513.195	798.42
513.65	776.12
514.105	777.52
514.56	771.62
515.015	799.22
515.47	824.42
515.925	802.52
516.38	793.42
516.835	790.92
517.29	799.72
517.745	785.62
518.2	759.72
518.655	759.22
519.109	755.02
519.564	742.02
520.019	738.72
520.474	740.82
520.928	728.52
521.383	735.22
521.838	719.02
522.292	726.42
522.747	713.32
523.201	710.12
523.656	706.52
524.11	700.52
524.565	696.82
525.019	695.02
525.474	703.42
525.928	710.82
526.382	712.22
526.837	698.92
527.291	708.22
527.745	696.82
528.2	708.92
528.654	699.02
529.108	702.12
529.562	705.62
530.016	706.62
530.47	698.72
530.925	697.82
531.379	707.52
531.833	718.02
532.287	718.82
532.741	716.32
533.195	720.42
533.649	723.12
534.103	730.62
534.556	719.12
535.01	721.52
535.464	712.62
535.918	725.82
536.372	730.52
536.826	725.52
537.279	713.42
537.733	717.82
538.187	716.82
538.64	726.62
539.094	725.02
539.548	732.82
540.001	733.62
540.455	729.22
540.908	735.62
541.362	746.22
541.815	752.82
542.269	766.62
542.722	756.62
543.175	772.32
543.629	770.72
544.082	785.92
544.536	796.22
544.989	789.02
545.442	790.92
545.895	799.22
546.349	800.92
546.802	790.72
547.255	807.82
547.708	809.22
548.161	815.42
548.614	829.22
549.067	832.62
549.52	827.52
549.973	816.12
550.426	817.72
550.879	801.22
551.332	812.82
551.785	808.72
552.238	812.32
552.691	815.92
553.144	847.12
553.596	846.72
554.049	871.32
554.502	895.62
554.955	912.92
555.407	918.92
555.86	914.12
556.313	902.12
556.765	889.02
557.218	903.02
557.67	890.92
558.123	879.42
558.576	874.82
559.028	876.92
559.48	887.62
559.933	885.02
560.385	841.52
560.838	815.52
561.29	792.02
561.742	777.22
562.195	757.72
562.647	771.22
563.099	771.72
563.551	777.32
564.004	788.22
564.456	772.02
564.908	767.12
565.36	742.62
565.812	735.12
566.264	733.42
566.716	724.32
567.168	709.62
567.62	727.32
568.072	702.82
568.524	700.72
568.976	695.82
569.428	676.32
569.88	674.92
570.332	686.52
570.784	681.12
571.235	672.92
571.687	698.72
572.139	703.82
572.59	707.32
573.042	712.22
573.494	710.42
573.945	700.32
574.397	684.32
574.849	696.82
575.3	694.22
575.752	678.82
576.203	681.52
576.655	686.42
577.106	678.52
577.557	665.82
578.009	669.72
578.46	669.42
578.912	662.82
579.363	664.82
579.814	674.22
580.265	664.12
580.717	672.82
581.168	671.82
581.619	674.92
582.07	681.82
582.521	672.32
582.972	677.22
583.423	683.82
583.875	683.92
584.326	702.42
584.777	741.52
585.227	819.82
585.678	910.52
586.129	985.02
586.58	1052.12
587.031	1135.72
587.482	1284.32
587.933	1457.02
588.384	1263.72
588.834	952.72
589.285	796.12
589.736	786.82
590.186	771.92
590.637	768.92
591.088	740.02
591.538	731.52
591.989	729.72
592.439	725.32
592.89	716.52
593.34	699.22
593.791	702.72
594.241	713.92
594.692	706.92
595.142	704.92
595.593	688.82
596.043	701.22
596.493	702.52
596.943	711.12
597.394	726.02
597.844	710.42
598.294	720.72
598.744	735.32
599.195	778.92
599.645	818.92
600.095	837.22
600.545	894.72
600.995	957.02
601.445	1020.32
601.895	1081.72
602.345	1134.12
602.795	1120.72
603.245	1068.92
603.695	1013.52
604.145	945.22
604.594	910.42
605.044	848.72
605.494	793.62
605.944	749.12
606.393	739.62
606.843	722.22
607.293	732.92
607.743	716.32
608.192	728.92
608.642	739.82
609.091	757.62
609.541	769.62
609.99	767.62
610.44	767.82
610.889	716.52
611.339	689.52
611.788	685.52
612.238	700.02
612.687	717.02
613.136	708.62
613.586	735.92
614.035	731.82
614.484	754.32
614.933	744.62
615.383	757.62
615.832	729.62
616.281	718.52
616.73	681.42
617.179	666.22
617.628	642.72
618.077	630.02
618.526	614.02
618.975	616.32
619.424	610.82
619.873	608.12
620.322	613.42
620.771	600.32
621.22	597.52
621.669	587.42
622.118	578.02
622.567	570.82
623.015	559.72
623.464	554.22
623.913	555.02
624.361	546.62
624.81	540.12
625.259	544.92
625.707	535.62
626.156	540.22
626.604	552.62
627.053	547.12
627.501	563.22
627.95	570.92
628.398	568.62
628.847	567.62
629.295	558.82
629.744	574.32
630.192	563.62
630.64	563.12
631.089	555.52
631.537	572.32
631.985	572.32
632.433	588.02
632.881	594.22
633.33	647.22
633.778	627.82
634.226	564.82
634.674	560.22
635.122	565.42
635.57	593.12
636.018	616.72
636.466	574.42
636.914	566.62
637.362	560.62
637.81	570.02
638.258	566.72
638.705	568.72
639.153	608.52
639.601	612.42
640.049	633.82
640.497	664.42
640.944	675.42
641.392	623.62
641.84	603.12
642.287	577.92
642.735	553.32
643.182	566.02
643.63	559.32
644.078	567.02
644.525	583.52
644.973	593.12
645.42	588.82
645.867	622.02
646.315	630.02
646.762	647.72
647.21	681.42
647.657	696.32
648.104	735.52
648.551	747.92
648.999	814.52
649.446	892.92
649.893	997.32
650.34	1135.92
650.787	1358.12
651.234	1686.42
651.682	2208.52
652.129	3011.72
652.576	4312.12
653.023	6379.22
653.47	8729.02
653.917	10966.52
654.363	12709.92
654.81	14140.42
655.257	13445.92
655.704	8806.92
656.151	5212.52
656.598	3347.02
657.044	2375.02
657.491	1826.12
657.938	1456.92
658.385	1219.42
658.831	1060.72
659.278	950.92
659.724	846.22
660.171	772.12
660.618	705.52
661.064	679.42
661.511	647.02
661.957	639.42
662.404	630.92
662.85	634.42
663.296	613.72
663.743	561.72
664.189	524.52
664.635	533.32
665.082	514.82
665.528	510.72
665.974	506.22
666.42	494.12
666.867	490.62
667.313	479.42
667.759	474.92
668.205	467.02
668.651	477.32
669.097	472.02
669.543	482.32
669.989	452.72
670.435	438.22
670.881	438.52
671.327	444.62
671.773	463.52
672.219	477.72
672.665	526.52
673.11	569.02
673.556	614.42
674.002	656.72
674.448	636.72
674.893	534.22
675.339	457.42
675.785	436.92
676.23	411.82
676.676	386.02
677.122	372.82
677.567	368.42
678.013	362.72
678.458	349.42
678.904	355.42
679.349	337.52
679.794	343.12
680.24	345.52
680.685	341.52
681.131	334.32
681.576	343.32
682.021	343.22
682.466	344.32
682.912	339.72
683.357	346.82
683.802	369.52
684.247	403.12
684.692	443.12
685.137	475.82
685.583	519.22
686.028	543.32
686.473	502.72
686.918	436.32
687.363	406.42
687.807	390.62
688.252	357.52
688.697	341.92
689.142	329.92
689.587	325.62
690.032	312.52
690.477	325.72
690.921	335.72
691.366	368.12
691.811	393.62
692.255	422.12
692.7	451.62
693.145	480.12
693.589	662.22
694.034	1085.22
694.478	1472.72
694.923	1685.42
695.367	2218.02
695.812	1160.72
696.256	475.62
696.701	357.32
697.145	331.92
697.59	320.22
698.034	312.62
698.478	319.52
698.922	316.12
699.367	315.12
699.811	325.52
700.255	345.32
700.699	374.82
701.143	418.62
701.588	461.02
702.032	500.22
702.476	503.82
702.92	479.22
703.364	471.32
703.808	617.62
704.252	981.62
704.696	1397.12
705.14	1620.02
705.584	2074.42
706.027	1031.82
706.471	495.42
706.915	377.72
707.359	346.92
707.803	314.12
708.246	306.12
708.69	312.82
709.134	305.42
709.577	301.22
710.021	310.62
710.465	303.42
710.908	294.22
711.352	292.32
711.795	308.92
712.239	342.02
712.682	378.02
713.126	403.22
713.569	449.72
714.012	366.12
714.456	309.82
714.899	294.62
715.342	267.62
715.786	253.52
716.229	252.52
716.672	247.92
717.115	239.52
717.558	246.02
718.002	247.32
718.445	252.92
718.888	274.32
719.331	276.92
719.774	297.12
720.217	289.42
720.66	271.62
721.103	254.72
721.546	248.72
721.989	249.52
722.432	230.92
722.874	234.52
723.317	228.42
723.76	227.12
724.203	248.52
724.645	304.92
725.088	428.32
725.531	556.92
725.974	623.82
726.416	532.02
726.859	299.62
727.301	241.42
727.744	228.52
728.187	228.32
728.629	230.42
729.071	231.12
729.514	251.72
729.956	265.62
730.399	275.02
730.841	279.22
731.283	269.22
731.726	254.32
732.168	251.22
732.61	263.52
733.053	275.72
733.495	307.02
733.937	330.52
734.379	386.42
734.821	420.32
735.263	519.02
735.705	802.92
736.148	1481.32
736.59	2469.52
737.032	2974.82
737.474	2413.32
737.916	776.22
738.357	412.42
738.799	312.42
739.241	289.52
739.683	279.92
740.125	272.12
740.567	284.62
741.008	301.42
741.45	306.62
741.892	302.92
742.334	340.72
742.775	351.92
743.217	323.72
743.658	265.82
744.1	242.42
744.542	257.72
744.983	306.92
745.425	328.32
745.866	329.52
746.307	277.32
746.749	270.02
747.19	308.62
747.632	424.82
748.073	821.62
748.514	1757.92
748.956	2752.72
749.397	3432.52
749.838	2840.72
750.279	2880.82
750.72	1456.02
751.162	525.12
751.603	309.52
752.044	241.02
752.485	203.42
752.926	201.12
753.367	188.12
753.808	180.92
754.249	176.52
754.69	183.62
755.131	176.02
755.572	184.12
756.013	171.92
756.453	172.22
756.894	179.42
757.335	188.12
757.776	185.32
758.216	187.92
758.657	193.62
759.098	201.42
759.538	219.92
759.979	262.22
760.42	365.92
760.86	658.92
761.301	1709.82
761.741	4191.02
762.182	6228.12
762.622	4406.62
763.063	1267.22
763.503	520.92
763.943	332.32
764.384	328.82
764.824	381.92
765.264	416.42
765.705	290.82
766.145	204.72
766.585	177.62
767.025	172.22
767.465	171.42
767.906	229.72
768.346	291.82
768.786	315.12
769.226	251.32
769.666	296.82
770.106	584.32
770.546	1469.42
770.986	2554.72
771.426	2311.92
771.866	770.92
772.306	320.62
772.745	205.12
773.185	170.92
773.625	166.42
774.065	164.32
774.505	192.72
774.944	281.22
775.384	625.72
775.824	1165.22
776.263	1138.22
776.703	491.72
777.142	210.72
777.582	148.52
778.021	135.92
778.461	141.02
778.9	142.22
779.34	128.22
779.779	107.72
780.219	113.72
780.658	108.92
781.097	107.12
781.537	110.72
781.976	106.32
782.415	104.32
782.855	96.92
783.294	94.92
783.733	103.62
784.172	106.32
784.611	102.92
785.05	102.02
785.489	108.62
785.928	115.92
786.367	120.12
786.806	113.32
787.245	124.62
787.684	126.62
788.123	145.92
788.562	129.12
789.001	116.92
789.44	115.12
789.879	114.72
790.317	110.82
790.756	120.32
791.195	123.32
791.634	139.62
792.072	198.52
792.511	342.22
792.95	946.22
793.388	2056.52
793.827	1900.62
794.265	660.12
794.704	275.82
795.142	173.32
795.581	145.72
796.019	136.82
796.458	124.62
796.896	121.02
797.334	126.82
797.773	149.52
798.211	203.12
798.649	413.72
799.087	973.02
799.526	1517.72
799.964	1918.92
800.402	1967.12
800.84	741.42
801.278	290.62
801.716	178.12
802.154	156.72
802.592	146.72
803.03	137.42
803.468	123.12
803.906	144.02
804.344	144.92
804.782	139.72
805.22	121.02
805.658	130.02
806.096	141.92
806.533	151.12
806.971	166.92
807.409	205.42
807.847	306.52
808.284	618.72
808.722	1771.92
809.16	3165.62
809.597	2962.52
810.035	5166.52
810.472	5635.42
810.91	2022.42
811.347	757.52
811.785	387.92
812.222	251.92
812.66	188.72
813.097	158.22
813.535	140.92
813.972	123.62
814.409	111.62
814.846	107.92
815.284	101.72
815.721	97.02
816.158	102.02
816.595	119.52
817.032	172.42
817.47	188.72
817.907	166.92
818.344	142.92
818.781	111.72
819.218	95.92
819.655	122.72
820.092	172.62
820.529	207.32
820.966	170.92
821.403	129.02
821.839	99.32
822.276	96.42
822.713	120.62
823.15	136.22
823.587	118.22
824.023	139.42
824.46	278.82
824.897	848.72
825.333	1307.12
825.77	556.12
826.206	222.32
826.643	129.02
827.08	100.52
827.516	82.52
827.953	74.02
828.389	81.22
828.825	67.52
829.262	72.12
829.698	64.42
830.135	58.32
830.571	61.62
831.007	55.82
831.443	60.22
831.88	59.52
832.316	53.02
832.752	67.12
833.188	64.62
833.624	66.72
834.06	63.52
834.497	66.52
834.933	72.32
835.369	74.22
835.805	61.12
836.241	72.52
836.677	75.32
837.112	79.92
837.548	100.62
837.984	126.72
838.42	182.82
838.856	462.62
839.292	1439.22
839.727	2225.52
840.163	1032.52
840.599	873.12
841.034	1934.02
841.47	2075.12
841.906	752.22
842.341	316.02
842.777	217.72
843.212	295.52
843.648	306.52
844.083	150.92
844.519	92.52
844.954	75.12
845.39	60.92
845.825	54.42
846.261	54.82
846.696	53.22
847.131	51.62
847.566	62.52
848.002	52.12
848.437	53.02
848.872	61.32
849.307	57.12
849.742	79.42
850.177	176.82
850.613	522.02
851.048	845.02
851.483	364.72
851.918	147.12
852.353	87.82
852.788	62.72
853.223	53.82
853.657	52.12
854.092	46.52
854.527	41.12
854.962	43.72
855.397	37.72
855.832	49.22
856.266	40.62
856.701	47.42
857.136	33.52
857.57	43.52
858.005	49.92
858.44	60.72
858.874	44.52
859.309	55.22
859.743	42.02
860.178	44.32
860.612	38.82
861.047	46.62
861.481	71.52
861.915	66.72
862.35	51.32
862.784	35.92
863.218	35.12
863.653	33.22
864.087	44.32
864.521	51.32
864.955	64.72
865.39	151.52
865.824	166.92
866.258	110.62
866.692	154.62
867.126	169.72
867.56	96.52
867.994	48.02
868.428	35.42
868.862	48.72
869.296	58.02
869.73	57.22
870.164	60.52
870.598	51.92
871.031	41.62
871.465	34.42
871.899	34.62
872.333	24.62
872.766	26.12
873.2	26.12
873.634	26.52
874.067	30.92
874.501	26.12
874.935	38.12
875.368	29.32
875.802	30.22
876.235	21.62
876.669	22.52
877.102	28.52
877.535	25.62
877.969	23.32
878.402	22.72
878.836	18.02
879.269	24.82
879.702	23.92
880.135	23.22
880.569	24.52
881.002	22.52
881.435	25.42
881.868	17.72
882.301	17.42
882.734	22.02
883.167	25.72
883.601	16.42
884.034	27.92
884.467	17.02
884.899	18.12
885.332	17.62
885.765	19.52
886.198	18.02
886.631	19.72
887.064	17.72
887.497	19.12
887.929	25.72
888.362	18.52
888.795	13.82
889.228	20.72
889.66	23.22
890.093	15.12
890.526	17.12
890.958	15.72
891.391	20.22
891.823	22.22
892.256	14.52
892.688	14.22
893.121	12.12
893.553	14.12
893.985	26.92
894.418	20.62
894.85	14.62
895.282	21.42
895.715	16.82
896.147	17.22
896.579	17.72
897.011	16.72
897.444	16.42
897.876	11.42
898.308	19.92
898.74	11.12
899.172	9.22
899.604	20.12
900.036	24.22
900.468	11.62
900.9	11.32
901.332	20.02
901.764	15.02
902.196	19.32
902.628	16.32
903.06	18.12
903.491	25.82
903.923	26.72
904.355	19.32
904.787	23.72
905.218	25.72
905.65	21.12
906.082	15.92
906.513	12.32
906.945	15.92
907.376	21.92
907.808	14.12
908.239	25.32
908.671	15.92
909.102	24.32
909.534	26.22
909.965	45.92
910.397	87.52
910.828	298.62
911.259	461.92
911.691	211.62
912.122	100.02
912.553	46.32
912.984	33.02
913.415	24.22
913.847	20.92
914.278	15.72
914.709	17.82
915.14	18.02
915.571	16.02
916.002	14.02
916.433	16.92
916.864	19.32
917.295	14.62
917.726	18.82
918.157	16.32
918.587	25.62
919.018	22.12
919.449	24.52
919.88	20.42
920.311	31.52
920.741	45.92
921.172	154.12
921.603	143.62
922.033	75.82
922.464	51.62
922.895	20.62
923.325	22.82
923.756	14.82
924.186	16.12
924.617	30.42
925.047	39.82
925.478	53.62
925.908	39.22
926.338	17.42
926.769	18.02
927.199	21.62
927.629	13.02
928.06	10.42
928.49	16.32
928.92	17.32
929.35	16.12
929.78	11.62
930.21	10.02
930.641	6.72
931.071	9.72
931.501	-1.18
931.931	4.52
932.361	8.52
932.791	4.32
933.221	5.82
933.651	4.72
934.08	15.92
934.51	35.62
934.94	8.92
935.37	15.42
935.8	6.82
936.229	6.62
936.659	7.42
937.089	3.72
937.519	10.12
937.948	22.22
938.378	15.02
938.807	5.22
939.237	5.92
939.666	9.92
940.096	0.32
940.525	-0.68
940.955	3.42
941.384	5.02
941.814	-5.68
942.243	3.42
942.672	5.82
943.102	-3.48
943.531	3.52
943.96	11.32
944.39	2.62
944.819	-1.58
945.248	8.32
945.677	4.12
946.106	4.82
946.535	7.92
946.964	-2.18
947.393	6.52
947.822	7.42
948.251	-1.38
948.68	2.92
949.109	7.42
949.538	6.42
949.967	1.62
950.396	-0.88
950.825	-4.08
951.254	-1.18
951.682	-5.48
952.111	6.12
952.54	1.12
952.969	1.12
953.397	-2.38
953.826	-2.18
954.254	1.32
954.683	1.02
955.112	-0.88
955.54	-0.88
955.969	4.42
956.397	5.02
956.826	2.12
957.254	0.72
957.682	5.02
958.111	6.82
958.539	-4.08
958.967	4.82
959.396	1.72
959.824	3.82
960.252	0.52
960.68	0.82
961.109	2.12
961.537	-6.38
961.965	-0.48
962.393	4.92
962.821	-0.58
963.249	-2.58
963.677	6.32
964.105	7.62
964.533	45.62
964.961	43.02
965.389	16.32
965.817	6.32
966.245	0.22
966.672	1.92
967.1	-8.08
967.528	2.02
967.956	-0.38
968.383	-3.28
968.811	-7.08
969.239	-1.58
969.666	-2.08
970.094	1.22
970.522	-2.08
970.949	1.12
971.377	-1.78
971.804	-1.98
972.232	2.12
972.659	-1.78
973.087	-3.98
973.514	-3.98
973.941	-8.38
974.369	1.72
974.796	4.62
975.223	4.52
975.651	1.52
976.078	5.02
976.505	3.22
976.932	0.32
977.359	13.82
977.786	18.32
978.214	9.52
978.641	-5.18
979.068	-6.18
979.495	-2.78
979.922	-2.98
980.349	-5.18
980.776	-2.58
981.202	-4.48
981.629	1.52
982.056	12.42
982.483	-2.18
982.91	2.82
983.337	-1.28
983.763	4.32
984.19	-4.68
984.617	-4.78
985.043	-3.18
985.47	-1.88
985.897	-1.38
986.323	-3.28
986.75	2.92
987.176	0.72
987.603	-2.58
988.029	1.72
988.456	-4.68
988.882	3.82
989.308	-7.48
989.735	-4.18
990.161	1.32
990.587	0.52
991.014	-3.28
991.44	9.12
991.866	-0.18
992.292	-2.08
992.719	-0.18
993.145	0.72
993.571	-9.78
993.997	-7.08
994.423	-0.38
994.849	-3.38
995.275	-2.78
995.701	-0.68
996.127	2.32
996.553	2.72
996.979	-5.58
997.405	-3.38
997.83	-6.68
998.256	-3.98
998.682	-5.78
999.108	-6.78
999.534	0.72
999.959	-0.88
1000.385	-5.18
1000.811	3.52
1001.236	-7.48
1001.662	-4.08
1002.087	-1.98
1002.513	0.82
1002.938	3.92
1003.364	-5.28
1003.789	-0.98
1004.215	1.72
1004.64	-2.48
1005.066	5.22
1005.491	0.82
1005.916	-2.78
1006.342	-2.78
1006.767	-2.88
1007.192	5.32
1007.617	-0.18
1008.042	1.32
1008.468	-5.68
1008.893	-5.28
1009.318	-1.38
1009.743	-4.18
1010.168	2.72
1010.593	1.82
1011.018	-9.08
1011.443	-8.88
1011.868	4.42
1012.293	-3.28
1012.718	-3.48
1013.143	0.82
1013.567	-1.68
1013.992	1.62
1014.417	-15.58
1014.842	4.02
1015.267	-3.78
1015.691	-4.58
1016.116	3.82
1016.541	-0.48
1016.965	-0.98
1017.39	5.12
1017.814	3.22
1018.239	-1.68
1018.663	-9.28
1019.088	-11.48
1019.512	-3.48
1019.937	-2.98
1020.361	2.52
1020.785	-6.78
1021.21	-2.68
1021.634	-5.58
1022.058	2.92
1022.483	6.32
1022.907	-6.08
1023.331	-3.28
1023.755	-4.58
1024.179	-1.38
1024.604	-9.78
1025.028	-4.18
1025.452	-3.28
1025.876	-10.08
1026.3	-0.88
1026.724	-10.98
1027.148	-0.08
1027.572	-10.38
1027.996	-3.08
1028.42	0.52
1028.843	1.02
1029.267	-2.28
1029.691	-1.58
1030.115	-5.28
1030.539	-8.38
1030.962	-4.68
1031.386	-7.98
1031.81	2.52
1032.233	4.42
1032.657	-6.08
1033.08	-1.48
1033.504	-5.88
1033.927	-8.18
1034.351	-2.38
1034.774	-4.08
1035.198	-2.58
1035.621	-7.48
1036.045	-7.28
1036.468	1.32
1036.891	-10.88
1037.315	-8.18
1037.738	-9.58
1038.161	-1.98
1038.584	-6.08
1039.008	-7.98
1039.431	-1.08
1039.854	-2.48
1040.277	-9.68
1040.7	-10.38
1041.123	1.72
1041.546	-4.98
1041.969	-1.98
1042.392	-4.18
1042.815	5.42
1043.238	8.72
1043.661	-1.18
1044.084	-3.08
1044.507	-9.08
1044.93	-4.98
1045.352	-2.68
1045.775	-3.18
1046.198	3.72
1046.621	2.22
1047.043	-2.58
1047.466	4.72
1047.889	-3.18
1048.311	-6.18
1048.734	-1.88
1049.156	-1.68
1049.579	-1.08
1050.001	-5.28
1050.424	1.42
1050.846	-4.48
1051.269	0.42
1051.691	-8.68
1052.113	-0.18
1052.536	-1.98
1052.958	-0.48
1053.38	-4.28
1053.802	-15.28
1054.225	2.02
1054.647	-10.28
1055.069	-5.88
1055.491	-0.88
1055.913	-6.18
1056.335	-1.28
1056.757	-3.08
1057.179	-9.48
1057.601	-3.88
1058.023	1.12
1058.445	-5.38
1058.867	-4.48
1059.289	-3.68
1059.711	-6.08
1060.133	0.42
1060.555	-6.68
1060.976	-14.98
1061.398	-7.18
1061.82	-11.18
1062.241	-1.98
1062.663	-7.58
1063.085	-6.08
1063.506	2.12
1063.928	-2.48
1064.35	3.32
1064.771	-8.58
1065.193	-5.78
1065.614	-9.48
1066.035	-7.18
1066.457	-7.08
1066.878	1.62
1067.3	-4.58
1067.721	-6.58
1068.142	-0.38
1068.564	4.62
1068.985	-6.18
1069.406	-7.38
1069.827	-3.18
1070.248	1.62
1070.67	-9.88
1071.091	-2.88
1071.512	-6.88
1071.933	-4.08
1072.354	-10.98
1072.775	-3.18
1073.196	-4.78
1073.617	-3.58
1074.038	-12.68
1074.459	-5.68
1074.88	-4.38
1075.3	-2.68
1075.721	-3.98
1076.142	-1.18
1076.563	-0.48
1076.983	-4.78
1077.404	-4.48
1077.825	-5.28
1078.246	-6.98
1078.666	-7.48
1079.087	-2.98
1079.507	-10.88
1079.928	2.72
1080.348	4.42
1080.769	-6.48
1081.189	-0.08
1081.61	-2.08
1082.03	-1.98
1082.451	-6.98
1082.871	-4.98
1083.291	-7.98
1083.711	-8.38
1084.132	-1.88
1084.552	-6.08
1084.972	-0.08
1085.392	-9.08
1085.813	-4.18
1086.233	-5.78
1086.653	-3.38
1087.073	-3.68
1087.493	-10.58
1087.913	-5.18
1088.333	0.72
1088.753	-3.58
1089.173	-1.38
1089.593	-7.88
1090.013	4.22
1090.433	3.92
1090.852	2.92
1091.272	-1.28
1091.692	0.62
1092.112	-2.88
1092.531	-14.38
1092.951	-12.08
1093.371	-4.78
1093.79	0.22
1094.21	-6.08
1094.63	-7.08
1095.049	-4.48
1095.469	-4.88
1095.888	4.12
1096.308	0.62
1096.727	1.82
1097.146	-6.08
1097.566	0.22
1097.985	2.02
1098.405	-6.58
1098.824	2.12
1099.243	-5.18
1099.662	-5.08
1100.082	-6.18
1100.501	1.92
1100.92	-10.78
1101.339	-4.48
1101.758	-2.48
