Data from 20171114-ORNL-Ar_H_NY_Subt18_08-04-25-539.txt Node
Date: Tue Nov 14 08:04:25 EST 2017
User: Ender
Spectrometer: HR+D1039
Trigger mode: 0
Integration Time (sec): 2.730000E-2
Scans to average: 10
Electric dark correction enabled: true
Nonlinearity correction enabled: false
Boxcar width: 0
XAxis mode: Wavelengths
Number of Pixels in Spectrum: 2048
>>>>>Begin Spectral Data<<<<<
187.836	-3.94
188.309	-3.94
188.782	-3.94
189.255	2.76
189.728	-0.94
190.201	1.46
190.674	0.46
191.147	2.26
191.619	-5.94
192.092	0.76
192.565	2.56
193.038	-0.34
193.511	2.76
193.984	-1.94
194.456	-3.44
194.929	0.66
195.402	0.36
195.874	2.56
196.347	2.16
196.82	-2.34
197.292	6.66
197.765	-1.34
198.237	-6.34
198.71	3.26
199.182	2.96
199.655	2.06
200.127	-1.14
200.6	-2.24
201.072	2.26
201.544	-3.84
202.017	-1.54
202.489	10.06
202.961	-1.84
203.433	-3.84
203.906	-2.74
204.378	-5.84
204.85	1.36
205.322	-4.14
205.794	-3.04
206.266	-4.04
206.739	-8.34
207.211	2.26
207.683	-1.64
208.155	0.16
208.627	-3.34
209.099	-0.24
209.57	-5.54
210.042	-9.64
210.514	-0.84
210.986	-0.44
211.458	-7.54
211.93	-4.84
212.402	-7.44
212.873	0.46
213.345	-6.74
213.817	-10.84
214.288	-3.24
214.76	-12.04
215.232	-7.34
215.703	-0.24
216.175	2.86
216.646	-1.04
217.118	0.36
217.589	-8.64
218.061	1.66
218.532	-0.74
219.004	-0.64
219.475	-6.14
219.946	2.46
220.418	-6.64
220.889	9.36
221.36	-2.74
221.832	-6.34
222.303	-4.94
222.774	-5.14
223.245	-6.04
223.717	-1.34
224.188	-2.64
224.659	-10.84
225.13	-1.84
225.601	-4.14
226.072	1.56
226.543	1.06
227.014	-1.04
227.485	-0.54
227.956	-5.44
228.427	-6.84
228.898	8.06
229.369	5.56
229.839	1.06
230.31	-5.34
230.781	3.76
231.252	-2.34
231.722	-4.64
232.193	-0.64
232.664	-2.04
233.135	1.66
233.605	3.26
234.076	-2.34
234.546	4.26
235.017	4.16
235.487	2.26
235.958	0.16
236.428	1.36
236.899	8.56
237.369	8.36
237.84	0.36
238.31	6.36
238.78	5.56
239.251	7.06
239.721	1.26
240.191	4.76
240.662	3.56
241.132	1.86
241.602	-1.44
242.072	4.56
242.542	12.46
243.013	2.56
243.483	8.76
243.953	2.56
244.423	2.76
244.893	-0.14
245.363	5.36
245.833	3.36
246.303	-1.14
246.773	2.56
247.243	4.96
247.712	4.86
248.182	12.86
248.652	10.86
249.122	-2.54
249.592	15.96
250.061	24.16
250.531	41.16
251.001	19.06
251.471	24.56
251.94	25.76
252.41	9.46
252.879	2.16
253.349	13.26
253.818	12.06
254.288	5.56
254.757	5.46
255.227	3.86
255.696	0.76
256.166	7.66
256.635	8.46
257.105	14.36
257.574	6.06
258.043	14.16
258.513	16.06
258.982	9.56
259.451	6.26
259.92	7.96
260.389	13.66
260.859	20.16
261.328	12.16
261.797	19.66
262.266	7.86
262.735	18.26
263.204	8.56
263.673	7.06
264.142	10.36
264.611	-1.74
265.08	5.76
265.549	5.26
266.018	5.36
266.487	7.66
266.955	3.06
267.424	4.76
267.893	12.46
268.362	3.76
268.83	9.86
269.299	17.46
269.768	11.96
270.236	12.66
270.705	8.76
271.174	11.86
271.642	7.06
272.111	7.76
272.579	16.56
273.048	20.46
273.516	26.86
273.985	27.16
274.453	29.76
274.922	23.66
275.39	13.26
275.858	8.16
276.327	18.86
276.795	12.46
277.263	14.26
277.731	28.96
278.2	56.86
278.668	56.66
279.136	51.66
279.604	22.66
280.072	10.86
280.54	7.76
281.008	7.26
281.477	16.06
281.945	10.26
282.413	16.76
282.881	16.46
283.348	10.66
283.816	17.26
284.284	18.46
284.752	22.56
285.22	15.76
285.688	19.66
286.156	26.66
286.623	42.56
287.091	51.06
287.559	28.86
288.026	21.16
288.494	21.26
288.962	8.56
289.429	10.56
289.897	23.06
290.364	11.36
290.832	17.86
291.3	23.06
291.767	22.16
292.234	24.46
292.702	18.76
293.169	21.56
293.637	24.26
294.104	24.76
294.571	10.36
295.039	18.06
295.506	11.36
295.973	20.66
296.44	22.86
296.908	18.16
297.375	21.56
297.842	19.76
298.309	19.76
298.776	11.36
299.243	25.96
299.71	13.36
300.177	23.46
300.644	24.46
301.111	21.36
301.578	25.56
302.045	18.56
302.512	31.96
302.979	25.96
303.446	25.76
303.913	17.26
304.379	21.06
304.846	32.06
305.313	27.56
305.78	24.56
306.246	30.86
306.713	25.46
307.18	20.36
307.646	30.76
308.113	31.06
308.579	29.46
309.046	32.66
309.512	30.86
309.979	19.26
310.445	29.96
310.912	30.56
311.378	31.36
311.845	35.46
312.311	34.56
312.777	38.36
313.244	28.16
313.71	34.26
314.176	34.66
314.642	34.26
315.109	34.06
315.575	33.76
316.041	40.76
316.507	35.86
316.973	41.26
317.439	36.26
317.905	39.86
318.371	36.36
318.837	29.46
319.303	33.56
319.769	37.76
320.235	37.16
320.701	37.56
321.167	37.16
321.633	31.86
322.099	40.46
322.564	46.56
323.03	42.76
323.496	41.26
323.962	40.26
324.427	34.06
324.893	40.56
325.359	35.96
325.824	43.06
326.29	36.16
326.755	38.56
327.221	40.66
327.686	42.36
328.152	42.06
328.617	38.96
329.083	47.46
329.548	53.66
330.014	44.26
330.479	39.56
330.944	43.96
331.41	41.46
331.875	44.16
332.34	39.36
332.805	44.06
333.271	54.36
333.736	42.86
334.201	52.46
334.666	50.66
335.131	52.86
335.596	51.96
336.061	54.06
336.526	46.96
336.991	44.76
337.456	54.16
337.921	48.36
338.386	38.76
338.851	43.96
339.316	56.96
339.781	45.46
340.246	48.16
340.711	44.16
341.175	50.96
341.64	49.06
342.105	47.86
342.569	53.96
343.034	57.06
343.499	56.26
343.963	57.16
344.428	64.96
344.893	58.16
345.357	57.46
345.822	62.96
346.286	67.56
346.751	71.46
347.215	66.36
347.679	77.56
348.144	89.16
348.608	78.16
349.073	67.96
349.537	69.96
350.001	78.56
350.465	87.96
350.93	76.66
351.394	76.66
351.858	68.86
352.322	80.06
352.786	79.96
353.25	92.86
353.715	107.66
354.179	101.56
354.643	114.96
355.107	114.96
355.571	100.46
356.035	99.56
356.498	112.66
356.962	118.26
357.426	123.56
357.89	109.76
358.354	82.96
358.818	79.76
359.281	76.56
359.745	69.86
360.209	74.36
360.673	69.36
361.136	75.56
361.6	78.16
362.064	77.36
362.527	84.76
362.991	87.36
363.454	80.56
363.918	74.96
364.381	79.46
364.845	73.06
365.308	85.46
365.772	83.16
366.235	76.86
366.698	77.36
367.162	84.46
367.625	77.06
368.088	82.16
368.552	82.26
369.015	82.86
369.478	94.96
369.941	94.96
370.404	88.96
370.867	102.16
371.331	97.66
371.794	114.86
372.257	106.06
372.72	106.86
373.183	106.66
373.646	94.16
374.109	104.36
374.572	98.76
375.035	106.26
375.497	101.16
375.96	104.46
376.423	99.06
376.886	103.56
377.349	107.66
377.811	96.86
378.274	93.76
378.737	97.46
379.199	101.06
379.662	103.36
380.125	114.66
380.587	105.36
381.05	109.86
381.512	122.96
381.975	126.26
382.437	123.46
382.9	114.56
383.362	130.86
383.825	129.06
384.287	141.16
384.75	134.66
385.212	133.66
385.674	131.76
386.136	126.46
386.599	115.76
387.061	113.56
387.523	127.16
387.985	123.96
388.447	133.96
388.91	135.16
389.372	154.26
389.834	139.26
390.296	134.46
390.758	143.56
391.22	152.66
391.682	195.56
392.144	271.86
392.606	206.26
393.068	156.06
393.529	161.16
393.991	145.16
394.453	137.26
394.915	142.56
395.377	181.76
395.838	201.16
396.3	144.46
396.762	137.86
397.224	122.66
397.685	125.16
398.147	123.36
398.608	125.36
399.07	125.36
399.531	126.66
399.993	138.96
400.454	138.56
400.916	133.66
401.377	128.86
401.839	145.96
402.3	137.46
402.762	155.36
403.223	164.56
403.684	165.46
404.145	149.96
404.607	147.26
405.068	156.36
405.529	159.96
405.99	174.46
406.451	157.06
406.913	158.36
407.374	152.76
407.835	154.56
408.296	164.56
408.757	154.96
409.218	171.66
409.679	161.46
410.14	162.16
410.601	164.06
411.062	170.26
411.522	179.36
411.983	172.96
412.444	162.66
412.905	170.36
413.366	170.46
413.826	186.26
414.287	197.36
414.748	244.96
415.208	231.16
415.669	198.96
416.13	188.76
416.59	185.76
417.051	197.46
417.511	207.46
417.972	221.46
418.432	226.76
418.893	264.06
419.353	230.26
419.814	176.16
420.274	170.76
420.734	172.06
421.195	186.86
421.655	174.76
422.115	178.86
422.576	178.56
423.036	178.96
423.496	194.16
423.956	195.06
424.416	212.76
424.876	253.16
425.336	242.46
425.797	247.16
426.257	236.36
426.717	217.06
427.177	209.66
427.637	204.96
428.097	217.16
428.556	229.26
429.016	245.66
429.476	236.16
429.936	254.96
430.396	255.46
430.856	261.66
431.315	284.96
431.775	315.06
432.235	345.56
432.694	327.56
433.154	332.86
433.614	355.06
434.073	304.16
434.533	263.06
434.993	255.36
435.452	265.76
435.912	267.86
436.371	268.76
436.83	253.96
437.29	247.46
437.749	225.46
438.209	222.66
438.668	249.86
439.127	260.66
439.587	246.66
440.046	219.26
440.505	235.66
440.964	251.56
441.424	287.96
441.883	275.46
442.342	240.56
442.801	210.06
443.26	195.76
443.719	201.56
444.178	201.06
444.637	198.26
445.096	204.46
445.555	207.46
446.014	200.16
446.473	205.66
446.932	212.56
447.391	205.96
447.849	205.56
448.308	210.56
448.767	204.86
449.226	210.66
449.685	223.66
450.143	227.96
450.602	227.46
451.061	211.96
451.519	215.26
451.978	212.46
452.436	220.96
452.895	220.16
453.353	228.26
453.812	228.06
454.27	219.56
454.729	219.66
455.187	222.26
455.646	222.26
456.104	229.66
456.562	241.86
457.021	243.06
457.479	240.76
457.937	241.36
458.395	236.56
458.854	228.16
459.312	237.06
459.77	250.66
460.228	234.36
460.686	226.86
461.144	225.86
461.602	232.16
462.06	217.46
462.518	233.66
462.976	233.16
463.434	236.86
463.892	241.46
464.35	253.56
464.808	256.96
465.266	240.36
465.724	255.76
466.181	255.46
466.639	248.56
467.097	275.06
467.555	274.56
468.012	275.86
468.47	281.46
468.928	297.36
469.385	317.06
469.843	322.56
470.3	316.66
470.758	337.66
471.215	349.96
471.673	370.26
472.13	372.06
472.588	372.46
473.045	342.76
473.503	345.56
473.96	352.56
474.417	370.96
474.875	400.76
475.332	429.66
475.789	421.26
476.246	421.46
476.704	449.56
477.161	464.06
477.618	479.56
478.075	518.76
478.532	556.66
478.989	626.86
479.446	724.46
479.903	710.96
480.36	746.26
480.817	788.26
481.274	884.96
481.731	983.96
482.188	1079.26
482.645	1186.56
483.102	1295.06
483.558	1420.36
484.015	1479.56
484.472	1458.06
484.929	1394.46
485.385	1366.66
485.842	1313.26
486.299	1255.36
486.755	1180.66
487.212	999.76
487.668	856.06
488.125	782.26
488.582	722.56
489.038	687.96
489.494	664.76
489.951	626.56
490.407	621.36
490.864	592.46
491.32	596.46
491.776	587.26
492.233	591.46
492.689	556.86
493.145	552.16
493.602	546.46
494.058	555.46
494.514	557.96
494.97	583.96
495.426	590.26
495.882	574.56
496.338	565.16
496.794	577.96
497.251	571.36
497.707	594.36
498.163	589.36
498.618	588.76
499.074	601.36
499.53	618.46
499.986	622.06
500.442	593.86
500.898	579.06
501.354	573.76
501.809	589.46
502.265	587.16
502.721	601.36
503.177	616.06
503.632	611.76
504.088	618.46
504.543	646.06
504.999	644.56
505.455	605.26
505.91	587.76
506.366	587.46
506.821	582.46
507.277	572.66
507.732	582.16
508.187	570.06
508.643	585.46
509.098	592.26
509.553	603.26
510.009	612.96
510.464	613.36
510.919	636.36
511.375	633.16
511.83	654.36
512.285	665.96
512.74	696.06
513.195	717.16
513.65	705.26
514.105	702.96
514.56	714.46
515.015	725.56
515.47	746.16
515.925	732.26
516.38	724.26
516.835	733.96
517.29	722.56
517.745	716.36
518.2	700.76
518.655	687.56
519.109	686.76
519.564	672.96
520.019	668.76
520.474	670.06
520.928	672.56
521.383	664.06
521.838	653.36
522.292	651.96
522.747	649.86
523.201	647.16
523.656	637.06
524.11	626.46
524.565	627.26
525.019	629.46
525.474	639.06
525.928	646.36
526.382	639.26
526.837	638.56
527.291	639.86
527.745	642.66
528.2	629.46
528.654	628.36
529.108	637.56
529.562	630.36
530.016	628.86
530.47	620.46
530.925	628.26
531.379	629.56
531.833	638.16
532.287	649.56
532.741	637.46
533.195	641.46
533.649	658.86
534.103	657.76
534.556	647.96
535.01	650.16
535.464	640.26
535.918	663.96
536.372	660.76
536.826	647.16
537.279	639.26
537.733	653.76
538.187	648.56
538.64	645.66
539.094	652.16
539.548	658.86
540.001	657.76
540.455	654.76
540.908	667.86
541.362	664.56
541.815	663.46
542.269	687.76
542.722	685.46
543.175	692.86
543.629	697.96
544.082	709.46
544.536	707.66
544.989	716.36
545.442	714.26
545.895	706.96
546.349	711.46
546.802	708.66
547.255	725.96
547.708	726.06
548.161	735.46
548.614	741.76
549.067	746.56
549.52	730.66
549.973	730.26
550.426	725.56
550.879	713.06
551.332	715.96
551.785	729.96
552.238	722.36
552.691	745.66
553.144	749.56
553.596	766.06
554.049	784.06
554.502	812.46
554.955	819.06
555.407	820.96
555.86	807.06
556.313	804.36
556.765	796.36
557.218	792.66
557.67	789.36
558.123	788.96
558.576	778.76
559.028	790.96
559.48	793.96
559.933	781.56
560.385	759.16
560.838	720.96
561.29	700.66
561.742	696.06
562.195	674.36
562.647	686.36
563.099	692.56
563.551	691.56
564.004	690.16
564.456	693.56
564.908	681.56
565.36	662.66
565.812	653.76
566.264	639.56
566.716	639.76
567.168	629.76
567.62	636.76
568.072	618.36
568.524	616.96
568.976	609.66
569.428	594.36
569.88	592.46
570.332	608.66
570.784	615.46
571.235	608.66
571.687	623.36
572.139	627.96
572.59	629.76
573.042	626.16
573.494	627.56
573.945	621.26
574.397	609.76
574.849	616.26
575.3	609.26
575.752	603.96
576.203	605.06
576.655	600.56
577.106	590.16
577.557	584.66
578.009	590.66
578.46	586.26
578.912	584.46
579.363	575.86
579.814	586.26
580.265	583.46
580.717	595.16
581.168	590.16
581.619	595.56
582.07	589.26
582.521	597.76
582.972	578.46
583.423	592.36
583.875	596.96
584.326	622.86
584.777	643.66
585.227	719.16
585.678	796.26
586.129	874.46
586.58	939.46
587.031	1015.96
587.482	1166.16
587.933	1315.46
588.384	1150.56
588.834	855.86
589.285	708.76
589.736	686.86
590.186	677.66
590.637	670.76
591.088	646.36
591.538	642.96
591.989	637.36
592.439	637.16
592.89	619.66
593.34	620.36
593.791	606.66
594.241	606.56
594.692	615.16
595.142	607.66
595.593	610.76
596.043	611.36
596.493	620.16
596.943	610.76
597.394	622.56
597.844	617.26
598.294	632.76
598.744	650.06
599.195	667.46
599.645	705.06
600.095	739.96
600.545	783.76
600.995	845.76
601.445	878.56
601.895	944.46
602.345	988.96
602.795	956.06
603.245	926.86
603.695	883.16
604.145	835.06
604.594	788.26
605.044	748.66
605.494	682.26
605.944	643.46
606.393	643.46
606.843	628.36
607.293	641.56
607.743	626.06
608.192	638.46
608.642	655.26
609.091	659.26
609.541	657.96
609.99	660.06
610.44	658.26
610.889	621.66
611.339	608.36
611.788	583.06
612.238	593.86
612.687	613.86
613.136	613.16
613.586	635.06
614.035	631.66
614.484	646.76
614.933	651.56
615.383	645.26
615.832	624.96
616.281	621.06
616.73	586.56
617.179	569.96
617.628	554.76
618.077	542.36
618.526	529.56
618.975	522.26
619.424	519.46
619.873	510.36
620.322	515.56
620.771	513.86
621.22	508.06
621.669	507.36
622.118	500.16
622.567	500.56
623.015	484.26
623.464	483.46
623.913	483.06
624.361	463.06
624.81	469.76
625.259	476.36
625.707	479.66
626.156	472.56
626.604	491.36
627.053	478.46
627.501	480.36
627.95	482.06
628.398	491.86
628.847	487.66
629.295	485.96
629.744	485.46
630.192	483.16
630.64	474.76
631.089	472.16
631.537	482.46
631.985	492.46
632.433	496.36
632.881	502.76
633.33	550.66
633.778	530.16
634.226	470.06
634.674	474.16
635.122	489.46
635.57	498.76
636.018	518.86
636.466	490.06
636.914	466.56
637.362	477.66
637.81	490.36
638.258	484.56
638.705	491.36
639.153	514.16
639.601	513.76
640.049	526.76
640.497	556.06
640.944	590.06
641.392	540.26
641.84	513.46
642.287	492.36
642.735	474.66
643.182	482.16
643.63	482.36
644.078	483.26
644.525	496.76
644.973	497.36
645.42	506.36
645.867	518.66
646.315	532.06
646.762	554.36
647.21	578.46
647.657	592.06
648.104	642.96
648.551	646.56
648.999	700.16
649.446	748.66
649.893	829.86
650.34	955.86
650.787	1142.26
651.234	1423.76
651.682	1834.56
652.129	2487.86
652.576	3595.26
653.023	5340.86
653.47	7365.56
653.917	9271.56
654.363	10903.76
654.81	12284.36
655.257	11648.06
655.704	7527.36
656.151	4441.96
656.598	2872.56
657.044	2028.66
657.491	1561.86
657.938	1242.96
658.385	1046.66
658.831	911.26
659.278	807.36
659.724	710.96
660.171	653.06
660.618	601.16
661.064	574.46
661.511	541.76
661.957	540.96
662.404	529.06
662.85	533.86
663.296	502.46
663.743	463.76
664.189	450.26
664.635	444.66
665.082	433.96
665.528	445.46
665.974	439.16
666.42	421.06
666.867	420.96
667.313	410.36
667.759	394.66
668.205	398.96
668.651	405.76
669.097	403.46
669.543	419.86
669.989	392.56
670.435	379.96
670.881	369.86
671.327	376.16
671.773	392.16
672.219	400.06
672.665	446.36
673.11	481.96
673.556	518.56
674.002	561.06
674.448	544.86
674.893	460.56
675.339	390.56
675.785	361.36
676.23	348.76
676.676	323.46
677.122	315.86
677.567	303.66
678.013	302.36
678.458	301.26
678.904	300.56
679.349	283.56
679.794	285.66
680.24	291.56
680.685	290.76
681.131	283.36
681.576	283.56
682.021	292.26
682.466	288.76
682.912	285.66
683.357	284.76
683.802	311.16
684.247	337.66
684.692	364.16
685.137	407.46
685.583	444.96
686.028	465.06
686.473	434.46
686.918	372.96
687.363	342.46
687.807	323.86
688.252	300.16
688.697	292.76
689.142	275.96
689.587	272.26
690.032	271.56
690.477	271.36
690.921	280.36
691.366	305.26
691.811	325.76
692.255	357.16
692.7	382.76
693.145	409.76
693.589	550.16
694.034	898.96
694.478	1248.76
694.923	1445.96
695.367	1920.56
695.812	997.86
696.256	411.06
696.701	299.96
697.145	286.16
697.59	276.96
698.034	264.26
698.478	273.56
698.922	268.66
699.367	265.16
699.811	274.96
700.255	283.96
700.699	311.96
701.143	344.96
701.588	388.66
702.032	417.76
702.476	417.86
702.92	401.76
703.364	393.76
703.808	501.66
704.252	821.16
704.696	1167.26
705.14	1383.66
705.584	1804.06
706.027	881.66
706.471	431.46
706.915	336.36
707.359	283.86
707.803	263.26
708.246	250.56
708.69	254.96
709.134	256.96
709.577	254.06
710.021	258.86
710.465	245.06
710.908	245.16
711.352	236.86
711.795	254.96
712.239	286.36
712.682	308.86
713.126	336.86
713.569	381.76
714.012	300.56
714.456	264.16
714.899	249.86
715.342	223.46
715.786	205.26
716.229	207.66
716.672	213.56
717.115	204.76
717.558	199.46
718.002	211.76
718.445	218.86
718.888	233.36
719.331	241.56
719.774	259.76
720.217	244.26
720.66	231.36
721.103	221.06
721.546	207.66
721.989	208.66
722.432	190.76
722.874	194.96
723.317	190.86
723.76	187.86
724.203	213.26
724.645	251.06
725.088	351.06
725.531	456.16
725.974	530.96
726.416	453.46
726.859	256.66
727.301	202.36
727.744	196.16
728.187	188.06
728.629	198.86
729.071	196.86
729.514	207.06
729.956	220.46
730.399	236.06
730.841	233.86
731.283	217.96
731.726	217.16
732.168	211.66
732.61	221.26
733.053	233.76
733.495	255.36
733.937	280.46
734.379	330.46
734.821	357.76
735.263	428.76
735.705	659.56
736.148	1243.76
736.59	2086.96
737.032	2564.46
737.474	2103.66
737.916	663.96
738.357	350.06
738.799	272.66
739.241	250.86
739.683	231.46
740.125	236.96
740.567	242.56
741.008	259.36
741.45	261.96
741.892	252.36
742.334	279.16
742.775	299.96
743.217	293.46
743.658	222.06
744.1	208.96
744.542	214.76
744.983	257.86
745.425	279.46
745.866	283.26
746.307	232.46
746.749	230.56
747.19	257.76
747.632	363.46
748.073	687.76
748.514	1475.76
748.956	2337.56
749.397	2932.46
749.838	2427.46
750.279	2530.36
750.72	1263.86
751.162	445.06
751.603	258.46
752.044	209.76
752.485	181.06
752.926	171.96
753.367	169.66
753.808	154.96
754.249	155.66
754.69	141.26
755.131	145.06
755.572	151.36
756.013	141.86
756.453	151.16
756.894	155.56
757.335	153.56
757.776	156.46
758.216	156.56
758.657	161.16
759.098	159.76
759.538	179.16
759.979	203.36
760.42	300.66
760.86	556.86
761.301	1424.76
761.741	3552.66
762.182	5478.26
762.622	3856.56
763.063	1085.36
763.503	446.46
763.943	279.56
764.384	271.26
764.824	341.56
765.264	381.36
765.705	254.06
766.145	167.56
766.585	151.36
767.025	143.06
767.465	155.66
767.906	208.56
768.346	267.76
768.786	283.76
769.226	212.66
769.666	246.16
770.106	475.86
770.546	1217.36
770.986	2200.66
771.426	2010.16
771.866	642.96
772.306	269.76
772.745	173.96
773.185	142.96
773.625	137.06
774.065	131.46
774.505	157.46
774.944	244.86
775.384	516.06
775.824	988.76
776.263	992.76
776.703	411.66
777.142	175.76
777.582	126.46
778.021	107.16
778.461	114.76
778.9	120.96
779.34	110.86
779.779	89.16
780.219	85.66
780.658	83.46
781.097	92.46
781.537	98.86
781.976	92.06
782.415	84.56
782.855	81.56
783.294	84.86
783.733	86.46
784.172	87.36
784.611	80.56
785.05	89.76
785.489	87.36
785.928	99.96
786.367	100.16
786.806	100.16
787.245	105.76
787.684	107.16
788.123	120.86
788.562	113.06
789.001	106.36
789.44	96.76
789.879	100.16
790.317	97.96
790.756	103.36
791.195	101.26
791.634	115.86
792.072	165.96
792.511	280.36
792.95	792.36
793.388	1761.56
793.827	1645.86
794.265	552.16
794.704	226.96
795.142	145.66
795.581	126.86
796.019	115.86
796.458	98.76
796.896	101.46
797.334	100.56
797.773	126.46
798.211	176.36
798.649	345.16
799.087	818.46
799.526	1297.96
799.964	1634.96
800.402	1726.36
800.84	639.96
801.278	244.36
801.716	150.06
802.154	120.46
802.592	120.06
803.03	114.96
803.468	110.16
803.906	119.16
804.344	127.56
804.782	117.86
805.22	107.46
805.658	106.66
806.096	122.16
806.533	122.86
806.971	139.76
807.409	169.16
807.847	249.26
808.284	521.06
808.722	1486.16
809.16	2735.66
809.597	2517.06
810.035	4473.76
810.472	5015.26
810.91	1773.96
811.347	659.66
811.785	341.66
812.222	222.36
812.66	160.46
813.097	136.56
813.535	120.86
813.972	103.56
814.409	98.76
814.846	88.46
815.284	95.76
815.721	85.46
816.158	92.76
816.595	99.76
817.032	147.26
817.47	168.86
817.907	146.26
818.344	122.16
818.781	95.06
819.218	82.76
819.655	100.36
820.092	157.86
820.529	179.06
820.966	144.96
821.403	112.66
821.839	90.96
822.276	81.76
822.713	92.16
823.15	110.26
823.587	90.46
824.023	112.86
824.46	238.76
824.897	716.26
825.333	1155.16
825.77	489.66
826.206	186.56
826.643	112.66
827.08	81.96
827.516	72.26
827.953	64.46
828.389	67.66
828.825	51.16
829.262	55.66
829.698	49.66
830.135	57.26
830.571	50.16
831.007	59.66
831.443	47.36
831.88	54.76
832.316	44.46
832.752	56.06
833.188	54.76
833.624	55.46
834.06	56.16
834.497	57.76
834.933	65.66
835.369	62.26
835.805	54.46
836.241	61.26
836.677	67.56
837.112	78.86
837.548	81.76
837.984	113.96
838.42	156.66
838.856	386.76
839.292	1223.06
839.727	1972.76
840.163	898.26
840.599	731.96
841.034	1671.26
841.47	1833.86
841.906	651.16
842.341	271.26
842.777	188.56
843.212	256.46
843.648	263.46
844.083	131.36
844.519	82.06
844.954	66.36
845.39	46.36
845.825	48.86
846.261	46.86
846.696	40.66
847.131	38.36
847.566	43.46
848.002	42.96
848.437	45.36
848.872	46.56
849.307	49.16
849.742	68.06
850.177	142.16
850.613	448.36
851.048	743.46
851.483	317.06
851.918	121.16
852.353	70.56
852.788	45.16
853.223	49.36
853.657	41.86
854.092	35.86
854.527	34.86
854.962	31.06
855.397	35.46
855.832	48.06
856.266	33.06
856.701	34.06
857.136	27.16
857.57	26.66
858.005	42.76
858.44	52.46
858.874	30.36
859.309	43.66
859.743	34.96
860.178	37.66
860.612	32.96
861.047	41.06
861.481	57.16
861.915	57.46
862.35	38.86
862.784	27.06
863.218	31.46
863.653	23.46
864.087	40.56
864.521	45.66
864.955	47.76
865.39	130.76
865.824	144.36
866.258	91.06
866.692	140.26
867.126	151.96
867.56	92.56
867.994	45.36
868.428	29.16
868.862	40.36
869.296	41.86
869.73	50.76
870.164	42.76
870.598	39.96
871.031	34.16
871.465	27.86
871.899	23.66
872.333	16.26
872.766	26.06
873.2	18.16
873.634	27.36
874.067	20.86
874.501	21.86
874.935	28.86
875.368	22.76
875.802	19.26
876.235	21.56
876.669	20.46
877.102	19.16
877.535	19.86
877.969	17.26
878.402	20.26
878.836	15.96
879.269	23.86
879.702	22.26
880.135	23.36
880.569	24.76
881.002	27.86
881.435	15.56
881.868	9.96
882.301	21.46
882.734	14.96
883.167	21.46
883.601	19.16
884.034	20.46
884.467	9.86
884.899	16.06
885.332	6.96
885.765	9.26
886.198	11.96
886.631	17.66
887.064	13.96
887.497	21.26
887.929	23.86
888.362	13.26
888.795	9.36
889.228	17.56
889.66	17.66
890.093	12.36
890.526	14.76
890.958	6.06
891.391	14.66
891.823	15.86
892.256	19.26
892.688	13.06
893.121	13.06
893.553	13.56
893.985	25.56
894.418	14.46
894.85	9.26
895.282	11.26
895.715	15.86
896.147	21.56
896.579	16.86
897.011	11.66
897.444	13.16
897.876	10.46
898.308	7.46
898.74	11.36
899.172	12.26
899.604	15.66
900.036	16.86
900.468	16.06
900.9	15.86
901.332	11.36
901.764	9.06
902.196	21.16
902.628	10.76
903.06	11.46
903.491	28.56
903.923	21.46
904.355	22.16
904.787	19.56
905.218	16.56
905.65	17.96
906.082	11.76
906.513	9.56
906.945	15.86
907.376	8.96
907.808	19.06
908.239	14.16
908.671	11.76
909.102	19.66
909.534	22.56
909.965	44.56
910.397	78.56
910.828	262.86
911.259	409.16
911.691	181.66
912.122	92.26
912.553	43.36
912.984	26.46
913.415	14.36
913.847	22.36
914.278	9.96
914.709	10.66
915.14	15.56
915.571	18.46
916.002	11.26
916.433	19.06
916.864	20.06
917.295	10.36
917.726	23.16
918.157	15.26
918.587	28.46
919.018	16.36
919.449	21.36
919.88	24.16
920.311	24.76
920.741	36.96
921.172	139.86
921.603	127.36
922.033	59.46
922.464	39.56
922.895	14.56
923.325	19.36
923.756	11.06
924.186	16.56
924.617	20.56
925.047	35.16
925.478	39.46
925.908	31.46
926.338	20.96
926.769	17.76
927.199	20.86
927.629	8.46
928.06	18.26
928.49	11.16
928.92	10.76
929.35	6.16
929.78	11.96
930.21	12.56
930.641	7.26
931.071	3.76
931.501	2.06
931.931	15.06
932.361	4.26
932.791	0.76
933.221	7.26
933.651	4.06
934.08	11.66
934.51	24.86
934.94	3.46
935.37	2.36
935.8	10.56
936.229	2.56
936.659	8.86
937.089	2.16
937.519	9.66
937.948	21.46
938.378	14.16
938.807	8.36
939.237	4.06
939.666	6.76
940.096	-3.84
940.525	1.46
940.955	4.56
941.384	-0.34
941.814	-5.64
942.243	3.76
942.672	0.66
943.102	-2.84
943.531	1.66
943.96	0.66
944.39	5.76
944.819	2.86
945.248	1.96
945.677	4.76
946.106	8.56
946.535	3.76
946.964	-5.64
947.393	6.06
947.822	2.76
948.251	-1.54
948.68	-0.04
949.109	1.66
949.538	4.66
949.967	-2.94
950.396	3.36
950.825	1.36
951.254	-3.44
951.682	-6.24
952.111	2.36
952.54	6.46
952.969	-2.54
953.397	-7.24
953.826	5.76
954.254	-5.64
954.683	6.86
955.112	-1.54
955.54	-1.14
955.969	0.76
956.397	0.76
956.826	-1.04
957.254	-0.64
957.682	4.36
958.111	2.86
958.539	-2.34
958.967	3.36
959.396	-3.14
959.824	5.76
960.252	1.46
960.68	-4.34
961.109	2.66
961.537	-6.44
961.965	-2.54
962.393	6.36
962.821	-3.14
963.249	-1.94
963.677	2.66
964.105	11.26
964.533	36.16
964.961	34.86
965.389	13.96
965.817	5.06
966.245	0.76
966.672	2.86
967.1	-4.94
967.528	-0.84
967.956	-0.74
968.383	1.76
968.811	-3.64
969.239	-0.34
969.666	-6.84
970.094	0.46
970.522	2.36
970.949	-2.44
971.377	-4.14
971.804	-5.94
972.232	-1.84
972.659	1.46
973.087	-5.64
973.514	0.36
973.941	-5.64
974.369	8.96
974.796	4.86
975.223	2.56
975.651	-3.44
976.078	2.26
976.505	0.06
976.932	7.86
977.359	12.86
977.786	13.46
978.214	0.46
978.641	-7.44
979.068	-2.44
979.495	-2.94
979.922	-2.84
980.349	-4.74
980.776	-0.04
981.202	1.06
981.629	4.06
982.056	5.66
982.483	-2.14
982.91	7.66
983.337	-1.44
983.763	1.06
984.19	-6.34
984.617	-1.94
985.043	-1.94
985.47	0.26
985.897	-2.54
986.323	-8.74
986.75	3.16
987.176	3.46
987.603	1.06
988.029	-1.24
988.456	0.96
988.882	0.46
989.308	-1.14
989.735	-6.94
990.161	1.66
990.587	0.26
991.014	-2.24
991.44	8.36
991.866	-6.74
992.292	-6.04
992.719	-4.84
993.145	-0.64
993.571	-7.14
993.997	-2.44
994.423	-3.44
994.849	-2.24
995.275	4.36
995.701	1.36
996.127	-5.44
996.553	6.66
996.979	-1.24
997.405	-3.64
997.83	-8.24
998.256	-3.34
998.682	-7.44
999.108	-9.94
999.534	0.26
999.959	-0.94
1000.385	-0.34
1000.811	2.56
1001.236	-5.64
1001.662	-10.74
1002.087	-4.64
1002.513	2.96
1002.938	2.36
1003.364	-6.44
1003.789	-3.04
1004.215	5.76
1004.64	-0.14
1005.066	6.46
1005.491	3.46
1005.916	2.86
1006.342	-4.74
1006.767	-5.04
1007.192	1.16
1007.617	-10.64
1008.042	-4.24
1008.468	-3.44
1008.893	-1.44
1009.318	-5.94
1009.743	0.46
1010.168	8.16
1010.593	1.26
1011.018	-10.94
1011.443	1.16
1011.868	2.46
1012.293	0.66
1012.718	-3.74
1013.143	-0.44
1013.567	-1.14
1013.992	-0.64
1014.417	-11.54
1014.842	0.36
1015.267	-2.04
1015.691	-3.34
1016.116	8.26
1016.541	-5.74
1016.965	2.66
1017.39	1.26
1017.814	1.86
1018.239	-2.64
1018.663	0.46
1019.088	-4.74
1019.512	-2.14
1019.937	-2.84
1020.361	-3.84
1020.785	-7.24
1021.21	-3.54
1021.634	-3.94
1022.058	-0.84
1022.483	2.26
1022.907	-4.24
1023.331	-5.34
1023.755	2.36
1024.179	1.56
1024.604	-5.34
1025.028	-5.94
1025.452	-2.34
1025.876	-1.24
1026.3	1.56
1026.724	-7.24
1027.148	-2.14
1027.572	-2.44
1027.996	-6.44
1028.42	1.26
1028.843	-4.54
1029.267	-1.94
1029.691	2.46
1030.115	-8.74
1030.539	-4.14
1030.962	-10.24
1031.386	-9.84
1031.81	0.96
1032.233	1.56
1032.657	-4.04
1033.08	-0.64
1033.504	-7.84
1033.927	-4.94
1034.351	7.66
1034.774	-1.44
1035.198	2.36
1035.621	-3.94
1036.045	-1.74
1036.468	-0.34
1036.891	-9.34
1037.315	-9.64
1037.738	-8.74
1038.161	-0.34
1038.584	-7.24
1039.008	-4.84
1039.431	-3.24
1039.854	-3.04
1040.277	-8.24
1040.7	-10.94
1041.123	-0.34
1041.546	-6.54
1041.969	-8.24
1042.392	-4.54
1042.815	3.36
1043.238	1.36
1043.661	-1.04
1044.084	-3.44
1044.507	-9.54
1044.93	-7.44
1045.352	-1.44
1045.775	-0.64
1046.198	-7.24
1046.621	-1.84
1047.043	1.56
1047.466	12.46
1047.889	-1.74
1048.311	-0.34
1048.734	-7.24
1049.156	0.16
1049.579	5.26
1050.001	-0.44
1050.424	-0.84
1050.846	-6.94
1051.269	-7.04
1051.691	-8.24
1052.113	-3.64
1052.536	1.46
1052.958	-0.24
1053.38	-6.74
1053.802	-5.94
1054.225	0.36
1054.647	-5.54
1055.069	-6.64
1055.491	2.96
1055.913	-4.64
1056.335	2.16
1056.757	-2.34
1057.179	-11.04
1057.601	-2.54
1058.023	-1.54
1058.445	-4.64
1058.867	1.26
1059.289	-5.54
1059.711	-6.04
1060.133	-5.94
1060.555	-2.04
1060.976	-2.74
1061.398	-9.84
1061.82	-5.24
1062.241	-4.74
1062.663	-3.84
1063.085	-6.44
1063.506	-5.64
1063.928	0.46
1064.35	0.96
1064.771	-12.54
1065.193	-4.14
1065.614	-10.54
1066.035	0.46
1066.457	-2.14
1066.878	1.16
1067.3	2.46
1067.721	1.56
1068.142	0.96
1068.564	-5.84
1068.985	-4.14
1069.406	-2.94
1069.827	-4.44
1070.248	-1.04
1070.67	-2.44
1071.091	1.56
1071.512	-4.64
1071.933	-11.24
1072.354	-3.54
1072.775	-2.94
1073.196	-5.54
1073.617	3.16
1074.038	-6.04
1074.459	-2.14
1074.88	-6.14
1075.3	3.16
1075.721	-8.14
1076.142	1.76
1076.563	-0.44
1076.983	-11.54
1077.404	-6.04
1077.825	-6.74
1078.246	-8.14
1078.666	-6.14
1079.087	-7.24
1079.507	-3.54
1079.928	4.36
1080.348	0.76
1080.769	-1.44
1081.189	-0.24
1081.61	-2.84
1082.03	-0.44
1082.451	-5.84
1082.871	-5.84
1083.291	-5.34
1083.711	-13.24
1084.132	-7.74
1084.552	-5.24
1084.972	1.76
1085.392	-6.54
1085.813	-12.44
1086.233	-8.44
1086.653	-1.84
1087.073	-0.94
1087.493	-2.64
1087.913	1.56
1088.333	-3.54
1088.753	-2.54
1089.173	3.26
1089.593	-7.44
1090.013	3.16
1090.433	-0.04
1090.852	-4.44
1091.272	3.56
1091.692	-4.14
1092.112	-1.74
1092.531	-5.94
1092.951	-11.94
1093.371	-4.54
1093.79	3.66
1094.21	0.66
1094.63	-1.94
1095.049	-6.44
1095.469	-5.64
1095.888	0.76
1096.308	-0.04
1096.727	3.96
1097.146	-2.54
1097.566	1.56
1097.985	-3.24
1098.405	-1.24
1098.824	-3.84
1099.243	-2.14
1099.662	-4.14
1100.082	-2.84
1100.501	-1.34
1100.92	-2.74
1101.339	0.66
1101.758	-5.44
