Data from 20171114-ORNL-Ar_H_NY_Subt18_08-08-48-169.txt Node
Date: Tue Nov 14 08:08:48 EST 2017
User: Ender
Spectrometer: HR+D1039
Trigger mode: 0
Integration Time (sec): 2.730000E-2
Scans to average: 10
Electric dark correction enabled: true
Nonlinearity correction enabled: false
Boxcar width: 0
XAxis mode: Wavelengths
Number of Pixels in Spectrum: 2048
>>>>>Begin Spectral Data<<<<<
187.836	-4.28
188.309	-4.28
188.782	-4.28
189.255	0.92
189.728	-0.98
190.201	2.12
190.674	-0.78
191.147	2.52
191.619	-5.38
192.092	1.62
192.565	7.12
193.038	-3.78
193.511	-0.38
193.984	4.82
194.456	-3.48
194.929	4.62
195.402	-0.78
195.874	-3.88
196.347	1.92
196.82	-9.38
197.292	3.22
197.765	-4.08
198.237	-7.28
198.71	-0.08
199.182	2.32
199.655	6.82
200.127	9.32
200.6	-5.38
201.072	-2.08
201.544	-0.08
202.017	-1.58
202.489	4.12
202.961	-0.88
203.433	3.72
203.906	-6.38
204.378	-5.08
204.85	-3.78
205.322	-3.48
205.794	-1.98
206.266	-3.08
206.739	-5.58
207.211	0.02
207.683	-4.88
208.155	-5.48
208.627	-7.18
209.099	0.72
209.57	-5.38
210.042	3.52
210.514	-4.08
210.986	0.52
211.458	-8.88
211.93	-1.18
212.402	1.32
212.873	-0.48
213.345	-9.68
213.817	-10.68
214.288	-3.18
214.76	-7.58
215.232	-4.08
215.703	-6.08
216.175	-2.88
216.646	-3.38
217.118	-8.98
217.589	-2.68
218.061	-0.98
218.532	-5.08
219.004	-3.08
219.475	-0.28
219.946	-4.18
220.418	2.52
220.889	2.52
221.36	5.32
221.832	-0.68
222.303	-7.18
222.774	6.42
223.245	-12.68
223.717	-2.78
224.188	-3.98
224.659	-0.08
225.13	-4.28
225.601	1.52
226.072	-1.98
226.543	-3.18
227.014	3.12
227.485	-4.28
227.956	-1.88
228.427	-6.08
228.898	5.12
229.369	2.42
229.839	-1.98
230.31	-9.38
230.781	3.72
231.252	-5.88
231.722	-6.48
232.193	-1.38
232.664	0.82
233.135	-4.98
233.605	-5.78
234.076	-8.78
234.546	6.02
235.017	5.52
235.487	0.72
235.958	-0.58
236.428	-5.58
236.899	-5.18
237.369	-4.48
237.84	-7.98
238.31	3.52
238.78	-1.88
239.251	-7.48
239.721	-2.38
240.191	0.82
240.662	-1.58
241.132	1.02
241.602	-8.08
242.072	0.62
242.542	5.02
243.013	-1.78
243.483	1.82
243.953	-0.88
244.423	0.02
244.893	-6.08
245.363	3.52
245.833	3.72
246.303	-9.98
246.773	2.92
247.243	0.42
247.712	-5.48
248.182	4.92
248.652	-0.48
249.122	-9.48
249.592	0.82
250.061	-0.48
250.531	7.82
251.001	-1.28
251.471	3.92
251.94	-1.18
252.41	0.32
252.879	-4.88
253.349	6.42
253.818	-2.28
254.288	-3.48
254.757	-0.68
255.227	-1.58
255.696	0.02
256.166	3.42
256.635	2.92
257.105	2.52
257.574	-3.18
258.043	-0.08
258.513	-4.18
258.982	4.12
259.451	1.62
259.92	3.02
260.389	-1.18
260.859	6.82
261.328	7.22
261.797	2.32
262.266	5.42
262.735	0.92
263.204	-1.08
263.673	-2.98
264.142	-1.98
264.611	-2.78
265.08	-1.28
265.549	-4.28
266.018	1.42
266.487	-5.78
266.955	-7.18
267.424	-5.88
267.893	-0.18
268.362	0.12
268.83	-3.28
269.299	9.02
269.768	2.12
270.236	-1.98
270.705	0.22
271.174	7.02
271.642	6.82
272.111	8.62
272.579	0.92
273.048	4.72
273.516	-0.58
273.985	2.62
274.453	5.62
274.922	11.72
275.39	3.42
275.858	1.52
276.327	6.12
276.795	12.62
277.263	3.52
277.731	15.22
278.2	9.42
278.668	4.92
279.136	11.42
279.604	-0.48
280.072	7.52
280.54	11.02
281.008	3.92
281.477	8.32
281.945	7.22
282.413	9.32
282.881	7.92
283.348	0.62
283.816	7.12
284.284	8.02
284.752	18.02
285.22	7.12
285.688	9.72
286.156	9.22
286.623	13.42
287.091	12.62
287.559	15.52
288.026	9.92
288.494	8.92
288.962	0.52
289.429	3.82
289.897	15.72
290.364	7.22
290.832	16.42
291.3	8.22
291.767	7.62
292.234	9.22
292.702	7.82
293.169	10.92
293.637	10.42
294.104	16.82
294.571	5.42
295.039	6.02
295.506	8.82
295.973	8.42
296.44	9.22
296.908	9.82
297.375	9.72
297.842	14.82
298.309	12.22
298.776	6.02
299.243	13.32
299.71	8.82
300.177	13.02
300.644	10.82
301.111	12.42
301.578	16.02
302.045	11.12
302.512	17.42
302.979	18.92
303.446	16.32
303.913	13.82
304.379	12.92
304.846	17.62
305.313	19.32
305.78	15.62
306.246	17.82
306.713	21.42
307.18	14.42
307.646	19.02
308.113	25.12
308.579	17.32
309.046	22.12
309.512	16.42
309.979	12.12
310.445	25.02
310.912	22.32
311.378	24.72
311.845	27.42
312.311	21.42
312.777	22.52
313.244	23.22
313.71	33.02
314.176	19.82
314.642	22.52
315.109	22.92
315.575	27.92
316.041	32.32
316.507	23.72
316.973	22.32
317.439	23.22
317.905	21.92
318.371	32.32
318.837	26.82
319.303	27.22
319.769	24.62
320.235	21.02
320.701	26.32
321.167	27.62
321.633	24.02
322.099	29.22
322.564	33.52
323.03	29.02
323.496	30.92
323.962	34.92
324.427	28.72
324.893	36.52
325.359	32.72
325.824	27.32
326.29	30.32
326.755	35.72
327.221	33.42
327.686	33.12
328.152	38.12
328.617	33.32
329.083	40.12
329.548	42.72
330.014	37.72
330.479	29.92
330.944	37.62
331.41	36.82
331.875	35.92
332.34	27.12
332.805	34.42
333.271	35.72
333.736	26.52
334.201	46.62
334.666	42.42
335.131	41.22
335.596	45.62
336.061	41.12
336.526	33.32
336.991	44.62
337.456	50.42
337.921	39.02
338.386	40.22
338.851	36.92
339.316	35.42
339.781	41.22
340.246	46.52
340.711	45.52
341.175	45.52
341.64	33.62
342.105	42.72
342.569	46.82
343.034	51.52
343.499	48.02
343.963	43.22
344.428	53.02
344.893	54.92
345.357	52.32
345.822	53.82
346.286	61.72
346.751	59.72
347.215	55.82
347.679	59.72
348.144	78.02
348.608	67.92
349.073	57.22
349.537	61.32
350.001	66.12
350.465	75.02
350.93	65.32
351.394	68.42
351.858	58.82
352.322	75.82
352.786	74.52
353.25	87.32
353.715	90.02
354.179	80.82
354.643	104.12
355.107	97.42
355.571	89.72
356.035	80.22
356.498	95.12
356.962	94.22
357.426	109.62
357.89	97.62
358.354	77.32
358.818	71.72
359.281	66.92
359.745	66.32
360.209	71.32
360.673	60.92
361.136	68.42
361.6	78.42
362.064	66.82
362.527	69.22
362.991	77.32
363.454	71.02
363.918	67.92
364.381	72.92
364.845	69.22
365.308	74.72
365.772	77.72
366.235	72.32
366.698	72.32
367.162	79.72
367.625	74.72
368.088	78.22
368.552	77.72
369.015	78.82
369.478	85.22
369.941	88.12
370.404	76.62
370.867	86.42
371.331	92.32
371.794	100.02
372.257	89.02
372.72	97.52
373.183	95.72
373.646	85.02
374.109	89.22
374.572	98.62
375.035	91.82
375.497	90.72
375.96	95.52
376.423	100.72
376.886	100.32
377.349	99.82
377.811	90.72
378.274	90.62
378.737	90.12
379.199	101.22
379.662	103.52
380.125	101.12
380.587	94.02
381.05	102.62
381.512	100.02
381.975	119.42
382.437	113.52
382.9	101.62
383.362	112.62
383.825	121.72
384.287	119.62
384.75	112.72
385.212	118.12
385.674	118.12
386.136	117.02
386.599	111.02
387.061	109.62
387.523	110.72
387.985	119.22
388.447	128.62
388.91	116.82
389.372	120.72
389.834	124.92
390.296	124.22
390.758	123.82
391.22	133.22
391.682	141.82
392.144	153.42
392.606	140.02
393.068	138.22
393.529	143.82
393.991	137.42
394.453	123.32
394.915	128.92
395.377	131.82
395.838	134.22
396.3	130.52
396.762	132.22
397.224	134.12
397.685	133.52
398.147	130.12
398.608	125.62
399.07	119.62
399.531	129.32
399.993	137.72
400.454	146.32
400.916	143.12
401.377	139.72
401.839	148.02
402.3	145.62
402.762	158.42
403.223	168.42
403.684	167.72
404.145	154.62
404.607	152.32
405.068	155.52
405.529	163.32
405.99	179.22
406.451	169.62
406.913	170.62
407.374	159.62
407.835	154.42
408.296	165.52
408.757	169.62
409.218	185.02
409.679	174.82
410.14	164.32
410.601	170.72
411.062	174.92
411.522	181.82
411.983	173.12
412.444	170.92
412.905	175.72
413.366	176.92
413.826	195.92
414.287	212.12
414.748	263.72
415.208	245.72
415.669	214.72
416.13	209.62
416.59	204.02
417.051	221.42
417.511	226.12
417.972	233.92
418.432	249.72
418.893	286.12
419.353	249.12
419.814	197.42
420.274	183.92
420.734	187.52
421.195	189.92
421.655	188.02
422.115	192.92
422.576	192.92
423.036	199.92
423.496	207.42
423.956	213.12
424.416	225.22
424.876	261.92
425.336	255.32
425.797	257.92
426.257	244.92
426.717	240.22
427.177	235.32
427.637	229.12
428.097	232.42
428.556	239.02
429.016	263.72
429.476	256.42
429.936	259.92
430.396	269.92
430.856	282.32
431.315	304.52
431.775	337.82
432.235	369.32
432.694	346.22
433.154	348.72
433.614	376.32
434.073	334.12
434.533	281.72
434.993	257.92
435.452	270.42
435.912	284.92
436.371	287.82
436.83	278.42
437.29	264.22
437.749	248.92
438.209	249.22
438.668	276.92
439.127	286.62
439.587	262.12
440.046	248.72
440.505	256.32
440.964	273.32
441.424	316.22
441.883	301.62
442.342	262.92
442.801	228.32
443.26	224.22
443.719	226.82
444.178	226.82
444.637	219.82
445.096	224.12
445.555	234.82
446.014	226.02
446.473	222.92
446.932	244.02
447.391	228.72
447.849	234.82
448.308	225.32
448.767	228.22
449.226	234.32
449.685	238.72
450.143	253.42
450.602	237.92
451.061	235.12
451.519	243.42
451.978	235.92
452.436	240.52
452.895	245.02
453.353	255.32
453.812	242.62
454.27	242.72
454.729	244.42
455.187	241.42
455.646	249.82
456.104	247.32
456.562	269.92
457.021	270.22
457.479	260.52
457.937	272.22
458.395	272.62
458.854	251.92
459.312	264.22
459.77	280.52
460.228	264.62
460.686	249.32
461.144	256.92
461.602	248.02
462.06	256.62
462.518	262.62
462.976	262.92
463.434	268.02
463.892	272.52
464.35	286.72
464.808	292.12
465.266	274.32
465.724	275.92
466.181	283.22
466.639	279.32
467.097	293.72
467.555	315.82
468.012	310.12
468.47	319.92
468.928	336.62
469.385	352.42
469.843	348.32
470.3	361.22
470.758	365.82
471.215	391.12
471.673	405.82
472.13	409.92
472.588	426.52
473.045	386.82
473.503	384.52
473.96	406.32
474.417	408.22
474.875	440.22
475.332	477.12
475.789	467.22
476.246	475.72
476.704	491.92
477.161	511.82
477.618	530.72
478.075	569.62
478.532	618.52
478.989	681.52
479.446	800.62
479.903	756.32
480.36	785.52
480.817	833.92
481.274	921.72
481.731	1011.62
482.188	1091.82
482.645	1214.42
483.102	1296.22
483.558	1409.42
484.015	1457.92
484.472	1423.62
484.929	1393.22
485.385	1345.62
485.842	1314.82
486.299	1268.72
486.755	1235.02
487.212	1046.42
487.668	909.22
488.125	838.42
488.582	768.62
489.038	740.52
489.494	711.12
489.951	692.42
490.407	666.42
490.864	642.52
491.32	652.12
491.776	645.02
492.233	655.72
492.689	621.02
493.145	615.12
493.602	609.42
494.058	619.22
494.514	626.22
494.97	644.62
495.426	653.32
495.882	614.92
496.338	626.02
496.794	629.12
497.251	627.22
497.707	641.02
498.163	642.62
498.618	649.42
499.074	648.52
499.53	680.32
499.986	678.52
500.442	651.82
500.898	634.92
501.354	627.82
501.809	631.92
502.265	630.42
502.721	656.92
503.177	650.62
503.632	648.82
504.088	645.52
504.543	688.72
504.999	697.02
505.455	665.12
505.91	654.62
506.366	657.22
506.821	637.72
507.277	639.12
507.732	651.52
508.187	641.22
508.643	657.92
509.098	645.52
509.553	673.52
510.009	685.92
510.464	688.32
510.919	705.22
511.375	715.32
511.83	723.22
512.285	735.12
512.74	771.52
513.195	804.92
513.65	774.32
514.105	779.82
514.56	777.72
515.015	800.32
515.47	808.52
515.925	793.62
516.38	805.12
516.835	801.22
517.29	800.82
517.745	804.02
518.2	784.72
518.655	761.72
519.109	757.62
519.564	758.42
520.019	745.92
520.474	741.42
520.928	741.42
521.383	737.72
521.838	724.22
522.292	726.02
522.747	730.82
523.201	723.82
523.656	706.72
524.11	724.72
524.565	714.62
525.019	713.62
525.474	720.82
525.928	710.92
526.382	710.42
526.837	716.32
527.291	719.92
527.745	715.42
528.2	703.12
528.654	705.02
529.108	707.92
529.562	700.62
530.016	703.32
530.47	703.72
530.925	710.32
531.379	707.62
531.833	718.52
532.287	721.32
532.741	712.72
533.195	718.12
533.649	718.92
534.103	728.02
534.556	713.02
535.01	722.12
535.464	719.72
535.918	730.02
536.372	731.02
536.826	729.12
537.279	716.82
537.733	735.72
538.187	738.52
538.64	723.72
539.094	736.02
539.548	752.62
540.001	742.42
540.455	739.32
540.908	746.62
541.362	752.52
541.815	754.32
542.269	783.02
542.722	780.52
543.175	794.42
543.629	786.92
544.082	806.42
544.536	794.92
544.989	810.52
545.442	823.22
545.895	809.02
546.349	812.22
546.802	818.62
547.255	825.32
547.708	829.02
548.161	836.22
548.614	839.52
549.067	857.22
549.52	842.22
549.973	843.42
550.426	836.02
550.879	825.62
551.332	827.42
551.785	828.62
552.238	832.32
552.691	846.02
553.144	857.82
553.596	882.92
554.049	893.22
554.502	908.82
554.955	939.82
555.407	940.82
555.86	921.72
556.313	921.82
556.765	901.62
557.218	908.92
557.67	900.72
558.123	908.12
558.576	900.32
559.028	899.02
559.48	916.12
559.933	895.22
560.385	864.82
560.838	842.92
561.29	812.62
561.742	817.72
562.195	792.92
562.647	789.72
563.099	801.32
563.551	796.42
564.004	809.02
564.456	802.52
564.908	781.22
565.36	767.82
565.812	749.92
566.264	740.32
566.716	744.12
567.168	727.02
567.62	722.32
568.072	712.12
568.524	715.12
568.976	718.02
569.428	699.32
569.88	705.42
570.332	712.22
570.784	703.52
571.235	704.82
571.687	723.62
572.139	725.22
572.59	724.42
573.042	730.12
573.494	734.52
573.945	730.62
574.397	714.12
574.849	712.72
575.3	713.82
575.752	703.92
576.203	702.22
576.655	708.02
577.106	690.32
577.557	679.82
578.009	691.52
578.46	692.02
578.912	688.62
579.363	687.72
579.814	685.92
580.265	686.12
580.717	695.82
581.168	694.82
581.619	704.62
582.07	703.82
582.521	705.42
582.972	704.92
583.423	694.92
583.875	703.52
584.326	702.32
584.777	730.22
585.227	739.92
585.678	769.32
586.129	783.22
586.58	802.72
587.031	825.72
587.482	858.12
587.933	916.12
588.384	877.12
588.834	818.42
589.285	805.82
589.736	798.42
590.186	797.52
590.637	793.02
591.088	766.42
591.538	765.02
591.989	760.12
592.439	761.02
592.89	739.92
593.34	725.22
593.791	730.82
594.241	720.22
594.692	719.92
595.142	725.22
595.593	719.82
596.043	722.52
596.493	728.62
596.943	729.42
597.394	743.02
597.844	747.42
598.294	757.42
598.744	787.42
599.195	813.92
599.645	849.92
600.095	895.12
600.545	959.02
600.995	1016.72
601.445	1060.92
601.895	1129.82
602.345	1183.52
602.795	1150.02
603.245	1107.42
603.695	1039.92
604.145	1003.72
604.594	940.92
605.044	888.82
605.494	828.62
605.944	782.72
606.393	768.72
606.843	752.02
607.293	756.82
607.743	754.02
608.192	772.62
608.642	777.12
609.091	786.02
609.541	780.92
609.99	783.72
610.44	798.32
610.889	739.22
611.339	724.12
611.788	709.12
612.238	721.52
612.687	718.12
613.136	714.12
613.586	726.32
614.035	718.82
614.484	731.82
614.933	737.12
615.383	740.12
615.832	733.42
616.281	725.62
616.73	693.12
617.179	680.32
617.628	665.32
618.077	652.22
618.526	644.12
618.975	639.02
619.424	634.52
619.873	638.82
620.322	643.62
620.771	627.22
621.22	632.32
621.669	612.32
622.118	609.02
622.567	597.42
623.015	582.52
623.464	590.52
623.913	569.42
624.361	565.92
624.81	569.42
625.259	573.72
625.707	574.52
626.156	568.62
626.604	590.42
627.053	590.22
627.501	592.62
627.95	589.62
628.398	601.72
628.847	589.32
629.295	585.32
629.744	589.32
630.192	585.22
630.64	586.22
631.089	569.32
631.537	550.42
631.985	547.82
632.433	554.52
632.881	551.92
633.33	559.72
633.778	548.12
634.226	536.92
634.674	547.72
635.122	564.22
635.57	569.52
636.018	580.62
636.466	585.82
636.914	566.82
637.362	590.72
637.81	592.32
638.258	597.72
638.705	606.32
639.153	632.42
639.601	650.22
640.049	670.22
640.497	695.62
640.944	725.62
641.392	665.02
641.84	630.82
642.287	606.72
642.735	576.02
643.182	585.32
643.63	587.82
644.078	580.22
644.525	607.02
644.973	609.82
645.42	618.82
645.867	635.12
646.315	648.72
646.762	669.62
647.21	696.22
647.657	731.92
648.104	762.12
648.551	778.82
648.999	837.32
649.446	918.72
649.893	998.02
650.34	1148.72
650.787	1376.92
651.234	1664.92
651.682	2153.42
652.129	2970.32
652.576	4189.62
653.023	6067.22
653.47	8209.82
653.917	10108.22
654.363	11597.42
654.81	12732.82
655.257	12061.52
655.704	8014.72
656.151	4818.02
656.598	3170.42
657.044	2279.72
657.491	1769.72
657.938	1425.42
658.385	1210.62
658.831	1051.62
659.278	949.92
659.724	841.32
660.171	778.52
660.618	729.22
661.064	703.52
661.511	676.72
661.957	669.82
662.404	661.92
662.85	661.92
663.296	638.02
663.743	578.02
664.189	558.72
664.635	554.32
665.082	541.92
665.528	545.82
665.974	533.12
666.42	521.62
666.867	518.52
667.313	515.62
667.759	486.22
668.205	476.32
668.651	473.82
669.097	462.02
669.543	452.52
669.989	461.02
670.435	464.32
670.881	468.12
671.327	473.22
671.773	493.12
672.219	510.32
672.665	576.22
673.11	611.62
673.556	663.12
674.002	711.32
674.448	686.82
674.893	577.42
675.339	502.82
675.785	468.02
676.23	443.02
676.676	415.72
677.122	398.52
677.567	392.22
678.013	380.22
678.458	377.62
678.904	382.72
679.349	366.12
679.794	367.22
680.24	371.42
680.685	370.62
681.131	370.52
681.576	364.32
682.021	366.82
682.466	360.62
682.912	360.52
683.357	376.22
683.802	405.92
684.247	434.32
684.692	480.12
685.137	524.92
685.583	561.72
686.028	586.92
686.473	545.72
686.918	467.72
687.363	444.12
687.807	410.62
688.252	389.22
688.697	365.62
689.142	361.82
689.587	354.92
690.032	342.12
690.477	362.92
690.921	369.12
691.366	402.22
691.811	420.92
692.255	447.92
692.7	488.22
693.145	540.62
693.589	761.82
694.034	1217.52
694.478	1639.22
694.923	1816.42
695.367	2354.12
695.812	1259.02
696.256	527.72
696.701	386.42
697.145	361.02
697.59	347.02
698.034	344.22
698.478	345.52
698.922	342.92
699.367	340.92
699.811	349.42
700.255	374.02
700.699	402.02
701.143	443.12
701.588	499.82
702.032	534.92
702.476	544.92
702.92	525.72
703.364	526.72
703.808	696.32
704.252	1146.72
704.696	1559.52
705.14	1762.12
705.584	2240.22
706.027	1124.22
706.471	554.82
706.915	423.92
707.359	368.72
707.803	341.62
708.246	333.32
708.69	328.22
709.134	331.42
709.577	321.62
710.021	333.42
710.465	324.12
710.908	316.22
711.352	316.22
711.795	333.82
712.239	375.72
712.682	406.22
713.126	433.32
713.569	473.92
714.012	368.22
714.456	318.82
714.899	306.72
715.342	298.22
715.786	275.82
716.229	266.22
716.672	272.22
717.115	255.72
717.558	262.62
718.002	264.32
718.445	285.52
718.888	304.32
719.331	306.22
719.774	311.02
720.217	324.82
720.66	307.62
721.103	279.72
721.546	262.22
721.989	267.32
722.432	247.42
722.874	252.92
723.317	238.32
723.76	243.72
724.203	273.92
724.645	347.52
725.088	478.92
725.531	600.02
725.974	664.02
726.416	585.12
726.859	321.82
727.301	263.92
727.744	247.52
728.187	241.62
728.629	242.92
729.071	248.12
729.514	271.52
729.956	284.92
730.399	299.92
730.841	310.82
731.283	296.52
731.726	275.72
732.168	280.12
732.61	279.82
733.053	307.12
733.495	338.12
733.937	377.22
734.379	420.12
734.821	467.12
735.263	588.72
735.705	931.52
736.148	1755.22
736.59	2761.92
737.032	3179.22
737.474	2584.62
737.916	862.32
738.357	457.02
738.799	351.82
739.241	321.72
739.683	297.62
740.125	307.12
740.567	315.02
741.008	336.12
741.45	340.72
741.892	332.52
742.334	368.42
742.775	383.52
743.217	363.52
743.658	293.92
744.1	270.32
744.542	284.22
744.983	338.82
745.425	368.02
745.866	367.12
746.307	292.72
746.749	296.52
747.19	353.62
747.632	501.92
748.073	983.42
748.514	2034.62
748.956	3034.02
749.397	3817.02
749.838	3156.72
750.279	3100.32
750.72	1581.12
751.162	590.12
751.603	339.72
752.044	270.62
752.485	238.42
752.926	222.72
753.367	213.02
753.808	204.22
754.249	206.72
754.69	197.12
755.131	192.62
755.572	190.82
756.013	189.82
756.453	195.02
756.894	197.32
757.335	200.72
757.776	206.72
758.216	209.72
758.657	208.72
759.098	219.12
759.538	242.22
759.979	285.12
760.42	408.12
760.86	788.42
761.301	2057.62
761.741	4830.92
762.182	6694.42
762.622	4724.72
763.063	1412.62
763.503	576.42
763.943	341.92
764.384	294.42
764.824	276.32
765.264	271.92
765.705	225.22
766.145	199.72
766.585	188.42
767.025	184.42
767.465	168.52
767.906	192.32
768.346	213.82
768.786	224.82
769.226	235.12
769.666	326.82
770.106	692.92
770.546	1720.92
770.986	2783.02
771.426	2471.42
771.866	838.12
772.306	346.72
772.745	217.02
773.185	182.42
773.625	176.62
774.065	158.22
774.505	167.02
774.944	220.92
775.384	391.02
775.824	634.52
776.263	599.72
776.703	303.82
777.142	174.62
777.582	149.32
778.021	139.92
778.461	138.32
778.9	131.02
779.34	132.22
779.779	120.32
780.219	115.42
780.658	114.42
781.097	120.92
781.537	119.72
781.976	111.52
782.415	109.32
782.855	108.32
783.294	107.72
783.733	113.52
784.172	118.22
784.611	114.12
785.05	116.02
785.489	116.72
785.928	124.52
786.367	127.32
786.806	127.12
787.245	142.42
787.684	142.52
788.123	150.42
788.562	144.92
789.001	140.02
789.44	133.22
789.879	128.72
790.317	123.62
790.756	131.32
791.195	138.12
791.634	158.72
792.072	216.22
792.511	408.52
792.95	1114.62
793.388	2244.12
793.827	1982.22
794.265	706.62
794.704	295.32
795.142	191.82
795.581	155.12
796.019	150.32
796.458	137.62
796.896	132.02
797.334	134.02
797.773	166.92
798.211	245.72
798.649	489.92
799.087	1099.12
799.526	1721.72
799.964	2161.32
800.402	2096.52
800.84	799.32
801.278	323.82
801.716	198.22
802.154	162.72
802.592	161.12
803.03	149.72
803.468	146.42
803.906	152.52
804.344	162.52
804.782	152.42
805.22	149.62
805.658	139.02
806.096	159.22
806.533	164.52
806.971	187.32
807.409	234.32
807.847	355.02
808.284	739.82
808.722	2049.32
809.16	3494.52
809.597	3423.52
810.035	5827.12
810.472	5949.82
810.91	2205.32
811.347	852.82
811.785	436.32
812.222	277.52
812.66	204.92
813.097	173.02
813.535	156.02
813.972	141.82
814.409	130.22
814.846	110.52
815.284	111.42
815.721	104.12
816.158	100.72
816.595	117.22
817.032	165.12
817.47	188.42
817.907	128.52
818.344	107.62
818.781	105.42
819.218	109.62
819.655	137.12
820.092	197.42
820.529	222.92
820.966	191.22
821.403	137.02
821.839	107.42
822.276	109.02
822.713	126.22
823.15	144.12
823.587	123.02
824.023	167.42
824.46	342.12
824.897	981.82
825.333	1416.92
825.77	618.82
826.206	254.42
826.643	141.42
827.08	117.72
827.516	91.22
827.953	87.22
828.389	85.32
828.825	74.92
829.262	70.72
829.698	66.02
830.135	69.52
830.571	68.22
831.007	67.12
831.443	72.62
831.88	67.02
832.316	63.52
832.752	67.92
833.188	70.32
833.624	68.72
834.06	71.92
834.497	76.92
834.933	81.92
835.369	76.72
835.805	76.92
836.241	78.32
836.677	80.62
837.112	93.92
837.548	112.52
837.984	149.02
838.42	216.32
838.856	550.12
839.292	1653.22
839.727	2412.12
840.163	1135.92
840.599	1024.42
841.034	2193.12
841.47	2198.72
841.906	824.52
842.341	351.62
842.777	210.42
843.212	220.52
843.648	202.82
844.083	116.12
844.519	91.92
844.954	81.62
845.39	57.52
845.825	63.12
846.261	60.22
846.696	63.02
847.131	57.52
847.566	62.42
848.002	58.72
848.437	59.52
848.872	71.32
849.307	65.92
849.742	92.32
850.177	207.12
850.613	604.82
851.048	925.02
851.483	405.02
851.918	167.32
852.353	92.72
852.788	57.12
853.223	51.92
853.657	57.22
854.092	52.02
854.527	44.42
854.962	50.52
855.397	42.82
855.832	58.72
856.266	46.72
856.701	44.82
857.136	41.62
857.57	44.22
858.005	55.42
858.44	60.22
858.874	49.62
859.309	55.82
859.743	45.02
860.178	52.82
860.612	45.82
861.047	49.92
861.481	72.22
861.915	75.62
862.35	54.92
862.784	34.92
863.218	41.62
863.653	36.22
864.087	50.52
864.521	60.92
864.955	75.72
865.39	166.72
865.824	185.52
866.258	123.72
866.692	178.52
867.126	195.32
867.56	113.72
867.994	58.82
868.428	48.22
868.862	45.92
869.296	60.12
869.73	62.02
870.164	58.82
870.598	57.32
871.031	40.12
871.465	30.12
871.899	35.92
872.333	27.32
872.766	24.12
873.2	21.12
873.634	32.72
874.067	28.22
874.501	29.52
874.935	39.02
875.368	33.52
875.802	28.82
876.235	25.02
876.669	28.62
877.102	27.62
877.535	24.42
877.969	19.42
878.402	27.22
878.836	19.52
879.269	26.22
879.702	29.82
880.135	22.12
880.569	20.82
881.002	22.92
881.435	20.82
881.868	18.22
882.301	25.22
882.734	20.82
883.167	22.52
883.601	16.22
884.034	20.32
884.467	18.52
884.899	23.72
885.332	17.52
885.765	21.92
886.198	18.92
886.631	19.12
887.064	20.52
887.497	27.62
887.929	26.22
888.362	14.12
888.795	17.42
889.228	20.82
889.66	21.22
890.093	17.02
890.526	22.72
890.958	13.02
891.391	21.62
891.823	25.02
892.256	10.72
892.688	17.02
893.121	19.72
893.553	23.52
893.985	21.32
894.418	19.42
894.85	17.52
895.282	20.62
895.715	12.12
896.147	18.32
896.579	19.52
897.011	12.42
897.444	25.12
897.876	19.12
898.308	19.92
898.74	17.42
899.172	8.12
899.604	25.62
900.036	24.52
900.468	17.12
900.9	18.02
901.332	21.72
901.764	16.82
902.196	20.52
902.628	19.02
903.06	17.42
903.491	27.92
903.923	24.32
904.355	21.52
904.787	22.32
905.218	22.52
905.65	24.22
906.082	14.22
906.513	12.52
906.945	19.72
907.376	12.82
907.808	15.52
908.239	22.72
908.671	20.72
909.102	25.42
909.534	23.92
909.965	50.52
910.397	101.42
910.828	340.42
911.259	490.72
911.691	226.32
912.122	116.12
912.553	65.32
912.984	36.72
913.415	24.52
913.847	30.42
914.278	16.92
914.709	19.42
915.14	20.52
915.571	19.32
916.002	16.52
916.433	14.32
916.864	30.42
917.295	11.72
917.726	22.42
918.157	18.72
918.587	32.72
919.018	26.52
919.449	23.32
919.88	27.32
920.311	34.82
920.741	61.42
921.172	182.02
921.603	156.32
922.033	73.62
922.464	47.72
922.895	25.52
923.325	18.62
923.756	15.72
924.186	17.42
924.617	17.32
925.047	21.02
925.478	26.92
925.908	23.92
926.338	18.22
926.769	17.92
927.199	18.22
927.629	12.82
928.06	14.02
928.49	13.12
928.92	9.32
929.35	13.92
929.78	7.62
930.21	9.62
930.641	5.32
931.071	8.92
931.501	5.62
931.931	11.62
932.361	8.22
932.791	8.02
933.221	9.42
933.651	3.62
934.08	27.22
934.51	33.52
934.94	9.02
935.37	10.02
935.8	12.02
936.229	10.22
936.659	11.92
937.089	7.92
937.519	14.82
937.948	23.62
938.378	17.32
938.807	5.22
939.237	0.32
939.666	7.32
940.096	-2.88
940.525	4.82
940.955	5.02
941.384	0.62
941.814	1.32
942.243	1.62
942.672	7.42
943.102	2.12
943.531	4.42
943.96	5.22
944.39	4.82
944.819	-1.78
945.248	2.72
945.677	1.92
946.106	5.62
946.535	10.22
946.964	2.22
947.393	9.52
947.822	2.52
948.251	-6.28
948.68	6.02
949.109	3.02
949.538	3.52
949.967	1.92
950.396	0.22
950.825	-2.38
951.254	2.42
951.682	-6.08
952.111	4.92
952.54	2.32
952.969	1.52
953.397	-2.58
953.826	4.72
954.254	-2.08
954.683	1.92
955.112	-5.18
955.54	4.32
955.969	3.92
956.397	5.52
956.826	1.62
957.254	7.92
957.682	4.02
958.111	2.52
958.539	4.92
958.967	2.52
959.396	5.42
959.824	1.62
960.252	5.22
960.68	-4.18
961.109	-5.08
961.537	-4.68
961.965	-2.38
962.393	3.52
962.821	-0.98
963.249	1.12
963.677	5.72
964.105	6.32
964.533	44.92
964.961	45.62
965.389	21.52
965.817	8.12
966.245	5.32
966.672	6.12
967.1	-8.48
967.528	1.32
967.956	-6.88
968.383	5.62
968.811	-3.88
969.239	-5.98
969.666	1.92
970.094	-3.28
970.522	1.42
970.949	3.02
971.377	-4.88
971.804	0.32
972.232	0.92
972.659	3.12
973.087	-3.38
973.514	-2.48
973.941	-3.88
974.369	5.32
974.796	2.52
975.223	5.42
975.651	2.32
976.078	-0.18
976.505	6.82
976.932	9.32
977.359	19.22
977.786	14.52
978.214	1.02
978.641	2.62
979.068	-4.88
979.495	-1.88
979.922	3.42
980.349	-9.48
980.776	2.92
981.202	-0.68
981.629	7.32
982.056	7.42
982.483	-6.48
982.91	-0.88
983.337	-1.48
983.763	1.42
984.19	-1.58
984.617	-3.68
985.043	-0.88
985.47	1.12
985.897	-5.98
986.323	-12.48
986.75	2.02
987.176	0.22
987.603	0.92
988.029	-7.28
988.456	-2.28
988.882	5.52
989.308	-4.08
989.735	-2.28
990.161	-0.18
990.587	0.82
991.014	-0.58
991.44	8.72
991.866	0.42
992.292	-8.28
992.719	-1.58
993.145	0.22
993.571	-9.48
993.997	1.42
994.423	-1.58
994.849	-4.58
995.275	4.82
995.701	-0.78
996.127	-4.38
996.553	1.82
996.979	-1.78
997.405	3.42
997.83	-3.48
998.256	-5.68
998.682	-6.38
999.108	-9.48
999.534	-0.08
999.959	-5.18
1000.385	-1.48
1000.811	0.22
1001.236	-8.48
1001.662	-11.98
1002.087	-10.28
1002.513	-3.38
1002.938	-0.58
1003.364	-2.28
1003.789	-0.98
1004.215	3.02
1004.64	-6.28
1005.066	2.82
1005.491	0.92
1005.916	1.82
1006.342	-1.38
1006.767	-8.18
1007.192	1.62
1007.617	-6.78
1008.042	-4.08
1008.468	-12.18
1008.893	-0.38
1009.318	-5.18
1009.743	-1.88
1010.168	0.22
1010.593	1.52
1011.018	-3.98
1011.443	-2.88
1011.868	2.82
1012.293	-6.18
1012.718	-6.98
1013.143	1.32
1013.567	5.02
1013.992	-4.78
1014.417	-11.38
1014.842	-2.48
1015.267	-8.28
1015.691	-6.78
1016.116	5.92
1016.541	-1.38
1016.965	1.92
1017.39	-2.78
1017.814	1.92
1018.239	0.52
1018.663	-7.68
1019.088	-12.48
1019.512	-7.58
1019.937	2.52
1020.361	-1.68
1020.785	-5.38
1021.21	-6.28
1021.634	-5.78
1022.058	0.92
1022.483	4.12
1022.907	-10.78
1023.331	-1.58
1023.755	-1.58
1024.179	0.82
1024.604	-10.68
1025.028	-4.78
1025.452	-3.28
1025.876	-1.88
1026.3	0.42
1026.724	-8.08
1027.148	1.72
1027.572	-9.78
1027.996	-0.98
1028.42	-0.88
1028.843	-5.28
1029.267	-7.38
1029.691	-5.28
1030.115	-9.58
1030.539	-2.68
1030.962	-8.08
1031.386	-13.38
1031.81	-9.58
1032.233	4.92
1032.657	-5.48
1033.08	-2.28
1033.504	-3.78
1033.927	-5.88
1034.351	-3.58
1034.774	-2.28
1035.198	-4.68
1035.621	-5.28
1036.045	-6.68
1036.468	-0.68
1036.891	-8.68
1037.315	-10.08
1037.738	-8.78
1038.161	-2.28
1038.584	-3.38
1039.008	-10.48
1039.431	-7.38
1039.854	-7.28
1040.277	-10.18
1040.7	-12.08
1041.123	3.12
1041.546	-5.58
1041.969	-5.38
1042.392	-5.58
1042.815	-3.48
1043.238	0.82
1043.661	1.12
1044.084	-6.78
1044.507	-1.38
1044.93	-4.58
1045.352	-6.38
1045.775	1.82
1046.198	-0.08
1046.621	0.62
1047.043	-0.68
1047.466	4.42
1047.889	1.92
1048.311	-2.08
1048.734	2.92
1049.156	-0.68
1049.579	0.12
1050.001	-2.38
1050.424	-2.18
1050.846	0.32
1051.269	0.92
1051.691	-4.88
1052.113	-2.88
1052.536	1.92
1052.958	-5.88
1053.38	-8.88
1053.802	-11.98
1054.225	-1.18
1054.647	-10.18
1055.069	-5.88
1055.491	2.92
1055.913	-7.38
1056.335	-0.58
1056.757	0.32
1057.179	-6.98
1057.601	-5.18
1058.023	-1.68
1058.445	1.02
1058.867	-0.48
1059.289	-0.58
1059.711	-10.18
1060.133	-2.98
1060.555	-4.48
1060.976	-2.88
1061.398	-2.08
1061.82	-9.28
1062.241	-2.98
1062.663	-5.98
1063.085	-6.18
1063.506	-1.48
1063.928	-0.18
1064.35	-3.18
1064.771	-8.88
1065.193	4.12
1065.614	-6.18
1066.035	-3.78
1066.457	-5.48
1066.878	-4.88
1067.3	-4.88
1067.721	-4.18
1068.142	-2.48
1068.564	-5.38
1068.985	-2.38
1069.406	-7.68
1069.827	-3.58
1070.248	1.42
1070.67	-1.18
1071.091	-5.98
1071.512	-7.78
1071.933	-2.88
1072.354	-4.98
1072.775	2.12
1073.196	-6.28
1073.617	-3.08
1074.038	-8.18
1074.459	-2.38
1074.88	-5.68
1075.3	2.72
1075.721	-7.48
1076.142	-1.48
1076.563	-4.28
1076.983	-13.18
1077.404	-5.18
1077.825	-5.28
1078.246	-0.68
1078.666	-14.58
1079.087	-6.88
1079.507	-5.28
1079.928	-1.08
1080.348	-5.88
1080.769	-1.58
1081.189	1.42
1081.61	-1.58
1082.03	-4.08
1082.451	-2.78
1082.871	0.52
1083.291	-7.28
1083.711	-2.68
1084.132	0.32
1084.552	-5.08
1084.972	-0.78
1085.392	-9.18
1085.813	-6.08
1086.233	-8.18
1086.653	-4.98
1087.073	-5.28
1087.493	-6.58
1087.913	-0.88
1088.333	-10.38
1088.753	-2.78
1089.173	3.72
1089.593	-6.48
1090.013	-2.18
1090.433	3.32
1090.852	-5.38
1091.272	-3.58
1091.692	-6.98
1092.112	-4.98
1092.531	-5.88
1092.951	-16.68
1093.371	-0.58
1093.79	2.12
1094.21	-6.28
1094.63	-6.68
1095.049	-3.98
1095.469	0.32
1095.888	2.12
1096.308	1.22
1096.727	2.42
1097.146	-6.98
1097.566	2.42
1097.985	-5.68
1098.405	-7.38
1098.824	-11.38
1099.243	-8.68
1099.662	-9.18
1100.082	-2.18
1100.501	-0.18
1100.92	-13.38
1101.339	-9.38
1101.758	-8.08
