Data from 20171114-ORNL-Ar_H_NY_Subt18_08-06-43-391.txt Node
Date: Tue Nov 14 08:06:43 EST 2017
User: Ender
Spectrometer: HR+D1039
Trigger mode: 0
Integration Time (sec): 2.730000E-2
Scans to average: 10
Electric dark correction enabled: true
Nonlinearity correction enabled: false
Boxcar width: 0
XAxis mode: Wavelengths
Number of Pixels in Spectrum: 2048
>>>>>Begin Spectral Data<<<<<
187.836	-4.38
188.309	-4.38
188.782	-4.38
189.255	1.02
189.728	-2.28
190.201	3.52
190.674	-0.48
191.147	3.92
191.619	-4.68
192.092	5.82
192.565	3.32
193.038	-2.18
193.511	-0.58
193.984	-1.68
194.456	1.42
194.929	-2.98
195.402	-0.38
195.874	0.52
196.347	2.42
196.82	-2.98
197.292	0.92
197.765	-2.08
198.237	-2.88
198.71	3.72
199.182	-0.28
199.655	0.52
200.127	3.62
200.6	-1.68
201.072	-1.18
201.544	-8.58
202.017	-5.18
202.489	4.92
202.961	-0.08
203.433	-2.28
203.906	-9.28
204.378	-1.58
204.85	-2.38
205.322	-6.38
205.794	1.62
206.266	-1.68
206.739	-8.28
207.211	-0.18
207.683	-9.78
208.155	-4.28
208.627	-3.08
209.099	-2.58
209.57	-7.98
210.042	-9.08
210.514	-0.38
210.986	2.12
211.458	-5.88
211.93	-1.28
212.402	2.42
212.873	-6.18
213.345	-6.58
213.817	-14.88
214.288	-2.08
214.76	-13.38
215.232	-7.28
215.703	-3.48
216.175	-2.28
216.646	-6.18
217.118	-2.18
217.589	-4.08
218.061	-5.48
218.532	-10.98
219.004	-2.88
219.475	-7.28
219.946	-6.18
220.418	-3.88
220.889	0.62
221.36	0.12
221.832	-3.68
222.303	-5.68
222.774	-1.88
223.245	-6.88
223.717	-1.48
224.188	-6.88
224.659	-8.48
225.13	-3.18
225.601	4.42
226.072	-0.28
226.543	2.42
227.014	-1.18
227.485	1.12
227.956	-10.48
228.427	-3.88
228.898	0.92
229.369	3.82
229.839	-2.58
230.31	-1.08
230.781	-1.08
231.252	-1.48
231.722	0.32
232.193	-4.28
232.664	-2.78
233.135	-5.68
233.605	-6.28
234.076	-7.08
234.546	-3.38
235.017	3.42
235.487	0.22
235.958	-2.48
236.428	-5.88
236.899	-1.08
237.369	4.82
237.84	3.42
238.31	-0.58
238.78	-8.48
239.251	-5.08
239.721	-3.78
240.191	-5.48
240.662	-5.48
241.132	-3.48
241.602	-5.68
242.072	-0.88
242.542	-0.18
243.013	-1.88
243.483	-1.08
243.953	-1.58
244.423	-2.78
244.893	-3.68
245.363	-0.58
245.833	0.02
246.303	-0.88
246.773	8.52
247.243	-0.58
247.712	2.02
248.182	2.82
248.652	2.22
249.122	-3.48
249.592	-1.08
250.061	3.92
250.531	9.32
251.001	0.62
251.471	2.02
251.94	8.02
252.41	0.32
252.879	2.12
253.349	9.22
253.818	11.12
254.288	4.42
254.757	4.02
255.227	-1.78
255.696	-1.48
256.166	0.22
256.635	0.92
257.105	0.62
257.574	-5.78
258.043	0.82
258.513	-1.28
258.982	1.92
259.451	-1.88
259.92	4.52
260.389	9.52
260.859	11.42
261.328	7.62
261.797	6.62
262.266	-6.48
262.735	4.92
263.204	0.02
263.673	0.22
264.142	1.92
264.611	-6.98
265.08	-2.98
265.549	-1.08
266.018	2.52
266.487	1.92
266.955	-4.78
267.424	-1.78
267.893	2.02
268.362	1.42
268.83	4.72
269.299	10.82
269.768	10.62
270.236	5.42
270.705	0.32
271.174	5.42
271.642	3.42
272.111	4.32
272.579	5.82
273.048	7.72
273.516	-2.18
273.985	6.02
274.453	10.02
274.922	11.22
275.39	8.52
275.858	4.42
276.327	7.72
276.795	15.02
277.263	7.92
277.731	16.42
278.2	12.32
278.668	11.42
279.136	15.62
279.604	5.12
280.072	12.92
280.54	9.32
281.008	8.72
281.477	14.12
281.945	15.62
282.413	11.92
282.881	12.12
283.348	6.82
283.816	8.22
284.284	12.22
284.752	20.42
285.22	6.52
285.688	12.42
286.156	13.12
286.623	19.22
287.091	9.52
287.559	13.52
288.026	8.42
288.494	8.12
288.962	-0.58
289.429	9.32
289.897	17.72
290.364	12.02
290.832	17.82
291.3	12.52
291.767	18.42
292.234	15.82
292.702	12.02
293.169	21.52
293.637	18.82
294.104	12.02
294.571	11.32
295.039	10.52
295.506	6.52
295.973	13.62
296.44	18.42
296.908	15.82
297.375	15.22
297.842	18.22
298.309	9.22
298.776	12.92
299.243	21.62
299.71	13.22
300.177	21.52
300.644	18.12
301.111	19.62
301.578	22.22
302.045	17.82
302.512	19.82
302.979	24.32
303.446	20.32
303.913	16.22
304.379	18.72
304.846	23.32
305.313	23.92
305.78	24.42
306.246	25.92
306.713	22.82
307.18	24.02
307.646	29.12
308.113	30.22
308.579	22.92
309.046	28.92
309.512	30.12
309.979	14.52
310.445	27.02
310.912	25.12
311.378	32.82
311.845	30.52
312.311	30.02
312.777	30.02
313.244	31.42
313.71	39.82
314.176	34.12
314.642	25.32
315.109	32.72
315.575	34.02
316.041	39.12
316.507	21.52
316.973	28.92
317.439	29.32
317.905	32.02
318.371	33.62
318.837	29.92
319.303	33.52
319.769	34.52
320.235	28.12
320.701	34.22
321.167	38.02
321.633	29.42
322.099	28.82
322.564	42.72
323.03	31.62
323.496	31.62
323.962	40.32
324.427	39.12
324.893	39.32
325.359	35.22
325.824	33.32
326.29	37.32
326.755	42.32
327.221	44.12
327.686	40.52
328.152	47.02
328.617	44.12
329.083	49.62
329.548	56.92
330.014	46.92
330.479	44.92
330.944	41.72
331.41	44.72
331.875	44.22
332.34	42.62
332.805	37.92
333.271	44.72
333.736	39.82
334.201	42.82
334.666	44.32
335.131	48.82
335.596	51.02
336.061	55.32
336.526	38.12
336.991	45.92
337.456	55.22
337.921	51.92
338.386	48.62
338.851	45.72
339.316	46.02
339.781	45.72
340.246	50.82
340.711	51.52
341.175	51.22
341.64	48.32
342.105	58.02
342.569	55.62
343.034	59.92
343.499	56.62
343.963	61.42
344.428	65.42
344.893	68.32
345.357	63.32
345.822	60.52
346.286	70.52
346.751	69.82
347.215	69.82
347.679	71.22
348.144	95.22
348.608	82.82
349.073	67.62
349.537	79.32
350.001	84.02
350.465	81.42
350.93	76.12
351.394	87.72
351.858	69.92
352.322	88.02
352.786	79.72
353.25	102.32
353.715	111.02
354.179	96.82
354.643	116.02
355.107	126.32
355.571	104.82
356.035	97.92
356.498	103.92
356.962	109.22
357.426	124.72
357.89	117.62
358.354	90.52
358.818	90.42
359.281	74.82
359.745	79.62
360.209	77.52
360.673	74.62
361.136	83.32
361.6	84.02
362.064	78.32
362.527	88.02
362.991	94.72
363.454	79.92
363.918	78.02
364.381	80.12
364.845	87.32
365.308	88.02
365.772	93.52
366.235	90.02
366.698	93.12
367.162	89.32
367.625	83.72
368.088	88.52
368.552	90.92
369.015	88.82
369.478	100.22
369.941	106.72
370.404	96.72
370.867	106.82
371.331	99.32
371.794	112.52
372.257	97.02
372.72	103.72
373.183	103.72
373.646	96.32
374.109	104.02
374.572	107.12
375.035	103.42
375.497	106.92
375.96	105.92
376.423	112.72
376.886	114.72
377.349	110.22
377.811	110.02
378.274	106.52
378.737	104.92
379.199	115.12
379.662	112.22
380.125	107.92
380.587	116.62
381.05	111.12
381.512	125.82
381.975	121.22
382.437	122.12
382.9	121.22
383.362	127.42
383.825	135.42
384.287	129.62
384.75	125.32
385.212	133.72
385.674	138.62
386.136	134.82
386.599	124.92
387.061	127.22
387.523	125.52
387.985	126.52
388.447	137.72
388.91	132.42
389.372	128.02
389.834	132.52
390.296	128.42
390.758	137.12
391.22	146.42
391.682	158.52
392.144	159.22
392.606	149.62
393.068	151.52
393.529	154.02
393.991	139.72
394.453	139.22
394.915	139.42
395.377	142.02
395.838	147.12
396.3	149.92
396.762	148.42
397.224	137.12
397.685	140.22
398.147	138.42
398.608	138.02
399.07	139.02
399.531	131.92
399.993	146.52
400.454	161.12
400.916	153.02
401.377	149.62
401.839	164.12
402.3	159.12
402.762	168.12
403.223	186.42
403.684	180.12
404.145	173.82
404.607	170.32
405.068	172.92
405.529	175.42
405.99	189.62
406.451	186.72
406.913	180.02
407.374	169.52
407.835	169.32
408.296	179.72
408.757	181.52
409.218	197.32
409.679	183.92
410.14	191.72
410.601	189.42
411.062	186.32
411.522	184.32
411.983	179.72
412.444	191.22
412.905	196.92
413.366	196.22
413.826	211.32
414.287	230.12
414.748	285.72
415.208	267.02
415.669	226.92
416.13	223.42
416.59	213.42
417.051	224.52
417.511	236.92
417.972	252.42
418.432	264.32
418.893	318.32
419.353	263.62
419.814	219.82
420.274	201.12
420.734	195.92
421.195	211.22
421.655	205.92
422.115	203.82
422.576	210.52
423.036	210.42
423.496	221.02
423.956	233.92
424.416	248.22
424.876	283.32
425.336	276.12
425.797	281.02
426.257	271.72
426.717	255.82
427.177	248.22
427.637	238.52
428.097	250.02
428.556	255.52
429.016	276.52
429.476	271.82
429.936	287.82
430.396	288.52
430.856	303.92
431.315	318.02
431.775	366.12
432.235	392.92
432.694	367.32
433.154	373.62
433.614	401.82
434.073	359.12
434.533	295.02
434.993	285.82
435.452	297.92
435.912	307.82
436.371	299.32
436.83	300.32
437.29	288.52
437.749	260.32
438.209	267.82
438.668	284.42
439.127	308.12
439.587	272.62
440.046	263.12
440.505	281.92
440.964	303.02
441.424	340.62
441.883	324.72
442.342	277.72
442.801	240.12
443.26	243.52
443.719	249.02
444.178	238.72
444.637	232.82
445.096	236.22
445.555	239.32
446.014	237.72
446.473	249.12
446.932	249.32
447.391	253.82
447.849	251.32
448.308	245.42
448.767	243.52
449.226	256.82
449.685	259.42
450.143	272.62
450.602	258.12
451.061	244.42
451.519	253.12
451.978	247.62
452.436	248.42
452.895	265.12
453.353	277.72
453.812	257.72
454.27	259.02
454.729	253.42
455.187	265.12
455.646	265.42
456.104	268.32
456.562	274.72
457.021	286.72
457.479	278.82
457.937	301.32
458.395	287.92
458.854	269.62
459.312	278.02
459.77	295.02
460.228	279.52
460.686	268.22
461.144	276.72
461.602	266.82
462.06	265.72
462.518	273.72
462.976	270.22
463.434	290.72
463.892	285.32
464.35	299.42
464.808	315.32
465.266	293.32
465.724	291.92
466.181	296.52
466.639	297.12
467.097	310.42
467.555	331.02
468.012	337.52
468.47	332.92
468.928	358.92
469.385	368.82
469.843	374.32
470.3	378.52
470.758	395.22
471.215	416.82
471.673	442.52
472.13	437.22
472.588	451.02
473.045	404.32
473.503	403.82
473.96	427.82
474.417	437.32
474.875	463.12
475.332	507.92
475.789	497.42
476.246	509.72
476.704	523.42
477.161	537.52
477.618	552.22
478.075	599.42
478.532	651.42
478.989	724.62
479.446	836.72
479.903	803.12
480.36	832.92
480.817	882.52
481.274	978.72
481.731	1074.92
482.188	1160.52
482.645	1269.93
483.102	1364.62
483.558	1493.72
484.015	1524.32
484.472	1501.03
484.929	1470.82
485.385	1429.52
485.842	1396.92
486.299	1351.52
486.755	1298.12
487.212	1108.22
487.668	947.22
488.125	878.22
488.582	804.62
489.038	780.22
489.494	743.22
489.951	722.52
490.407	708.12
490.864	690.32
491.32	682.82
491.776	690.22
492.233	681.32
492.689	652.82
493.145	642.92
493.602	649.72
494.058	660.32
494.514	655.12
494.97	683.22
495.426	690.82
495.882	666.32
496.338	642.22
496.794	656.32
497.251	654.52
497.707	673.72
498.163	665.42
498.618	689.22
499.074	687.62
499.53	716.22
499.986	711.82
500.442	689.42
500.898	671.42
501.354	653.22
501.809	666.32
502.265	668.42
502.721	669.32
503.177	685.12
503.632	678.22
504.088	696.92
504.543	712.62
504.999	736.12
505.455	697.12
505.91	666.92
506.366	684.72
506.821	676.92
507.277	681.52
507.732	686.62
508.187	679.52
508.643	686.92
509.098	687.42
509.553	705.82
510.009	717.12
510.464	715.02
510.919	733.92
511.375	746.32
511.83	762.82
512.285	775.42
512.74	805.22
513.195	831.22
513.65	827.32
514.105	822.72
514.56	824.22
515.015	845.82
515.47	847.12
515.925	828.12
516.38	835.42
516.835	841.02
517.29	826.62
517.745	832.32
518.2	812.12
518.655	803.22
519.109	797.72
519.564	788.92
520.019	785.02
520.474	771.42
520.928	771.92
521.383	776.32
521.838	751.12
522.292	760.72
522.747	756.12
523.201	754.82
523.656	746.02
524.11	744.22
524.565	736.42
525.019	735.92
525.474	750.02
525.928	738.12
526.382	752.62
526.837	749.62
527.291	746.82
527.745	745.42
528.2	731.62
528.654	742.02
529.108	720.12
529.562	737.12
530.016	733.02
530.47	739.92
530.925	740.22
531.379	740.22
531.833	754.62
532.287	751.02
532.741	740.52
533.195	747.82
533.649	770.02
534.103	769.82
534.556	761.42
535.01	751.42
535.464	750.82
535.918	762.12
536.372	770.42
536.826	764.52
537.279	750.12
537.733	765.42
538.187	759.32
538.64	753.62
539.094	759.32
539.548	777.02
540.001	772.92
540.455	763.32
540.908	783.32
541.362	780.22
541.815	797.82
542.269	806.32
542.722	803.42
543.175	810.42
543.629	825.82
544.082	837.82
544.536	835.32
544.989	837.52
545.442	856.52
545.895	843.02
546.349	848.02
546.802	850.42
547.255	849.22
547.708	860.22
548.161	863.92
548.614	864.02
549.067	884.02
549.52	870.72
549.973	862.72
550.426	868.52
550.879	851.42
551.332	850.92
551.785	866.22
552.238	869.12
552.691	879.82
553.144	897.72
553.596	909.62
554.049	922.22
554.502	954.22
554.955	976.22
555.407	983.82
555.86	962.32
556.313	950.73
556.765	937.82
557.218	936.52
557.67	940.62
558.123	935.22
558.576	932.22
559.028	937.83
559.48	943.22
559.933	932.82
560.385	904.72
560.838	873.12
561.29	847.82
561.742	842.22
562.195	821.22
562.647	816.92
563.099	828.52
563.551	818.72
564.004	841.42
564.456	817.02
564.908	807.72
565.36	782.52
565.812	780.12
566.264	771.72
566.716	757.62
567.168	741.62
567.62	746.92
568.072	742.52
568.524	737.52
568.976	731.72
569.428	716.32
569.88	719.12
570.332	730.12
570.784	735.72
571.235	723.52
571.687	731.12
572.139	753.82
572.59	760.32
573.042	762.72
573.494	759.92
573.945	752.72
574.397	730.62
574.849	734.92
575.3	742.12
575.752	725.72
576.203	714.72
576.655	733.12
577.106	715.12
577.557	702.72
578.009	709.12
578.46	710.12
578.912	705.42
579.363	707.52
579.814	709.12
580.265	703.12
580.717	707.72
581.168	700.32
581.619	713.92
582.07	715.52
582.521	718.62
582.972	715.82
583.423	714.02
583.875	720.92
584.326	722.12
584.777	735.92
585.227	762.22
585.678	786.72
586.129	799.92
586.58	834.52
587.031	852.32
587.482	891.32
587.933	930.32
588.384	898.42
588.834	846.22
589.285	822.42
589.736	814.92
590.186	811.22
590.637	809.42
591.088	788.82
591.538	781.92
591.989	774.32
592.439	767.62
592.89	752.62
593.34	747.72
593.791	738.62
594.241	726.42
594.692	728.52
595.142	739.12
595.593	735.52
596.043	745.12
596.493	746.12
596.943	737.82
597.394	754.22
597.844	755.82
598.294	771.52
598.744	798.32
599.195	824.82
599.645	865.62
600.095	909.12
600.545	967.22
600.995	1010.52
601.445	1078.42
601.895	1135.62
602.345	1189.72
602.795	1168.03
603.245	1120.52
603.695	1054.02
604.145	1006.52
604.594	962.42
605.044	903.22
605.494	843.82
605.944	793.62
606.393	782.42
606.843	768.42
607.293	775.92
607.743	773.52
608.192	776.42
608.642	785.32
609.091	790.92
609.541	800.82
609.99	800.92
610.44	790.62
610.889	750.82
611.339	731.32
611.788	704.92
612.238	714.22
612.687	737.02
613.136	719.22
613.586	751.12
614.035	734.42
614.484	744.12
614.933	737.02
615.383	742.82
615.832	732.42
616.281	733.72
616.73	697.02
617.179	683.82
617.628	669.22
618.077	661.92
618.526	655.92
618.975	640.62
619.424	641.32
619.873	643.02
620.322	643.62
620.771	627.22
621.22	635.42
621.669	626.32
622.118	617.02
622.567	603.52
623.015	593.02
623.464	594.12
623.913	586.32
624.361	575.42
624.81	580.72
625.259	586.12
625.707	583.92
626.156	584.22
626.604	597.12
627.053	589.92
627.501	598.32
627.95	601.02
628.398	609.42
628.847	590.92
629.295	604.12
629.744	593.52
630.192	599.02
630.64	584.22
631.089	568.32
631.537	565.82
631.985	556.12
632.433	562.12
632.881	551.32
633.33	553.42
633.778	549.22
634.226	545.12
634.674	558.92
635.122	563.02
635.57	582.42
636.018	586.62
636.466	587.02
636.914	578.92
637.362	593.22
637.81	601.52
638.258	602.62
638.705	604.22
639.153	634.72
639.601	651.92
640.049	676.22
640.497	704.22
640.944	720.92
641.392	672.82
641.84	642.92
642.287	613.22
642.735	588.62
643.182	587.92
643.63	587.02
644.078	584.82
644.525	597.82
644.973	603.72
645.42	620.42
645.867	638.22
646.315	656.42
646.762	681.12
647.21	697.12
647.657	736.22
648.104	763.52
648.551	780.92
648.999	845.82
649.446	925.12
649.893	1000.22
650.34	1147.12
650.787	1365.82
651.234	1670.03
651.682	2149.42
652.129	2904.42
652.576	4119.43
653.023	6008.12
653.47	8145.82
653.917	10120.82
654.363	11676.03
654.81	12875.83
655.257	12223.52
655.704	8079.53
656.151	4864.92
656.598	3221.03
657.044	2305.02
657.491	1786.03
657.938	1460.72
658.385	1222.92
658.831	1065.22
659.278	950.52
659.724	858.72
660.171	788.42
660.618	727.72
661.064	700.62
661.511	684.82
661.957	668.72
662.404	660.62
662.85	670.72
663.296	639.72
663.743	581.42
664.189	551.42
664.635	552.12
665.082	549.22
665.528	543.32
665.974	535.52
666.42	524.72
666.867	523.32
667.313	509.12
667.759	485.52
668.205	475.02
668.651	463.12
669.097	468.32
669.543	463.52
669.989	464.22
670.435	456.52
670.881	464.82
671.327	468.02
671.773	497.32
672.219	515.22
672.665	573.12
673.11	606.82
673.556	660.82
674.002	698.52
674.448	681.62
674.893	576.22
675.339	507.52
675.785	461.92
676.23	434.32
676.676	416.02
677.122	404.82
677.567	388.52
678.013	386.62
678.458	374.92
678.904	377.52
679.349	371.12
679.794	371.52
680.24	366.02
680.685	365.92
681.131	361.12
681.576	363.92
682.021	371.12
682.466	360.62
682.912	360.52
683.357	364.02
683.802	395.02
684.247	428.12
684.692	475.02
685.137	519.32
685.583	557.62
686.028	585.42
686.473	547.52
686.918	469.22
687.363	433.72
687.807	411.32
688.252	382.82
688.697	366.72
689.142	345.82
689.587	343.62
690.032	341.02
690.477	363.52
690.921	371.42
691.366	394.02
691.811	420.82
692.255	446.12
692.7	482.12
693.145	520.82
693.589	732.02
694.034	1182.22
694.478	1605.12
694.923	1815.43
695.367	2371.93
695.812	1261.53
696.256	511.12
696.701	390.72
697.145	367.32
697.59	347.62
698.034	338.82
698.478	339.32
698.922	330.62
699.367	331.62
699.811	344.22
700.255	369.82
700.699	394.92
701.143	435.42
701.588	497.12
702.032	532.32
702.476	536.62
702.92	507.92
703.364	520.02
703.808	673.62
704.252	1081.32
704.696	1520.52
705.14	1754.92
705.584	2217.93
706.027	1121.92
706.471	550.02
706.915	415.32
707.359	374.22
707.803	339.12
708.246	319.42
708.69	323.92
709.134	331.72
709.577	322.22
710.021	335.32
710.465	306.72
710.908	309.72
711.352	314.02
711.795	319.72
712.239	363.02
712.682	400.92
713.126	429.72
713.569	478.12
714.012	374.92
714.456	322.82
714.899	303.82
715.342	280.62
715.786	270.82
716.229	265.62
716.672	264.62
717.115	258.02
717.558	264.82
718.002	259.02
718.445	272.72
718.888	300.62
719.331	301.92
719.774	322.92
720.217	323.62
720.66	294.02
721.103	276.72
721.546	265.82
721.989	257.52
722.432	243.32
722.874	244.52
723.317	246.12
723.76	242.92
724.203	265.72
724.645	327.22
725.088	463.12
725.531	600.72
725.974	675.32
726.416	561.22
726.859	318.42
727.301	260.22
727.744	245.32
728.187	240.02
728.629	251.52
729.071	257.42
729.514	266.92
729.956	277.42
730.399	302.62
730.841	296.82
731.283	283.72
731.726	281.92
732.168	280.82
732.61	285.82
733.053	302.02
733.495	345.22
733.937	368.02
734.379	414.32
734.821	459.62
735.263	580.52
735.705	876.92
736.148	1657.03
736.59	2704.93
737.032	3217.22
737.474	2602.82
737.916	852.12
738.357	460.42
738.799	343.22
739.241	311.32
739.683	290.72
740.125	309.22
740.567	313.92
741.008	329.72
741.45	330.22
741.892	328.02
742.334	366.02
742.775	374.42
743.217	369.12
743.658	283.52
744.1	275.42
744.542	287.62
744.983	334.12
745.425	369.02
745.866	356.82
746.307	292.02
746.749	289.52
747.19	347.72
747.632	481.92
748.073	930.32
748.514	1957.23
748.956	2996.12
749.397	3747.72
749.838	3121.82
750.279	3108.92
750.72	1571.52
751.162	580.12
751.603	334.82
752.044	265.22
752.485	225.82
752.926	219.92
753.367	212.62
753.808	197.72
754.249	205.52
754.69	198.02
755.131	190.42
755.572	191.42
756.013	191.42
756.453	191.92
756.894	196.02
757.335	200.12
757.776	197.22
758.216	205.62
758.657	208.62
759.098	210.82
759.538	237.92
759.979	279.12
760.42	387.32
760.86	734.72
761.301	1916.02
761.741	4645.82
762.182	6733.62
762.622	4739.02
763.063	1370.92
763.503	562.72
763.943	348.32
764.384	288.22
764.824	275.92
765.264	256.92
765.705	224.32
766.145	201.82
766.585	192.42
767.025	178.02
767.465	176.32
767.906	188.72
768.346	215.62
768.786	226.82
769.226	231.02
769.666	318.72
770.106	639.52
770.546	1614.53
770.986	2766.52
771.426	2471.43
771.866	826.72
772.306	335.82
772.745	204.72
773.185	171.72
773.625	169.92
774.065	152.62
774.505	167.82
774.944	217.02
775.384	386.62
775.824	634.82
776.263	618.62
776.703	301.02
777.142	171.52
777.582	137.92
778.021	130.22
778.461	124.22
778.9	133.42
779.34	128.02
779.779	114.32
780.219	113.52
780.658	107.72
781.097	109.12
781.537	120.82
781.976	113.22
782.415	103.62
782.855	105.32
783.294	103.22
783.733	111.62
784.172	105.92
784.611	107.92
785.05	108.02
785.489	124.02
785.928	129.22
786.367	125.52
786.806	125.42
787.245	127.32
787.684	140.02
788.123	152.22
788.562	135.42
789.001	136.02
789.44	129.62
789.879	122.32
790.317	134.12
790.756	135.62
791.195	131.12
791.634	156.42
792.072	210.52
792.511	376.82
792.95	1027.52
793.388	2199.72
793.827	2001.72
794.265	691.82
794.704	291.62
795.142	191.72
795.581	157.32
796.019	140.92
796.458	134.22
796.896	126.12
797.334	143.12
797.773	162.72
798.211	233.22
798.649	452.62
799.087	1066.62
799.526	1669.53
799.964	2102.53
800.402	2088.12
800.84	790.72
801.278	321.62
801.716	193.62
802.154	161.42
802.592	155.02
803.03	147.42
803.468	138.32
803.906	152.72
804.344	156.02
804.782	152.32
805.22	149.12
805.658	138.42
806.096	160.52
806.533	158.12
806.971	175.32
807.409	228.72
807.847	333.12
808.284	706.12
808.722	1953.33
809.16	3444.73
809.597	3268.93
810.035	5697.93
810.472	6064.32
810.91	2205.93
811.347	842.12
811.785	434.02
812.222	269.72
812.66	209.62
813.097	166.92
813.535	151.52
813.972	134.32
814.409	124.62
814.846	116.32
815.284	110.22
815.721	105.22
816.158	103.42
816.595	113.72
817.032	154.02
817.47	191.12
817.907	152.42
818.344	104.82
818.781	105.12
819.218	100.42
819.655	123.32
820.092	204.32
820.529	227.02
820.966	174.82
821.403	134.12
821.839	106.02
822.276	101.32
822.713	127.32
823.15	142.12
823.587	117.02
824.023	157.62
824.46	310.42
824.897	942.32
825.333	1411.72
825.77	616.62
826.206	243.82
826.643	136.02
827.08	109.42
827.516	86.02
827.953	85.32
828.389	89.72
828.825	70.42
829.262	73.22
829.698	64.92
830.135	63.42
830.571	62.02
831.007	61.42
831.443	65.32
831.88	65.82
832.316	69.12
832.752	66.82
833.188	66.12
833.624	64.92
834.06	68.62
834.497	69.22
834.933	79.62
835.369	82.02
835.805	70.32
836.241	85.92
836.677	79.62
837.112	91.32
837.548	114.92
837.984	145.32
838.42	209.32
838.856	520.72
839.292	1585.53
839.727	2405.23
840.163	1132.22
840.599	979.52
841.034	2115.72
841.47	2231.42
841.906	807.72
842.341	342.82
842.777	206.52
843.212	212.12
843.648	202.32
844.083	113.92
844.519	88.92
844.954	81.82
845.39	62.02
845.825	58.12
846.261	64.92
846.696	60.02
847.131	56.62
847.566	62.12
848.002	57.52
848.437	53.22
848.872	62.32
849.307	65.12
849.742	85.62
850.177	184.62
850.613	579.02
851.048	915.82
851.483	396.92
851.918	160.62
852.353	89.92
852.788	57.42
853.223	53.22
853.657	54.72
854.092	49.82
854.527	41.02
854.962	45.82
855.397	50.22
855.832	52.62
856.266	49.32
856.701	42.02
857.136	38.22
857.57	42.12
858.005	54.42
858.44	61.32
858.874	49.22
859.309	52.72
859.743	38.82
860.178	49.42
860.612	44.22
861.047	57.02
861.481	75.72
861.915	75.02
862.35	45.42
862.784	35.72
863.218	40.52
863.653	28.52
864.087	46.22
864.521	56.82
864.955	68.12
865.39	153.92
865.824	191.32
866.258	118.32
866.692	178.82
867.126	196.52
867.56	118.42
867.994	62.32
868.428	44.82
868.862	46.32
869.296	52.22
869.73	60.72
870.164	59.72
870.598	54.92
871.031	42.72
871.465	31.02
871.899	37.72
872.333	19.62
872.766	25.52
873.2	23.42
873.634	29.12
874.067	33.22
874.501	28.52
874.935	37.82
875.368	28.92
875.802	32.42
876.235	26.22
876.669	27.92
877.102	24.32
877.535	21.02
877.969	20.02
878.402	26.22
878.836	20.22
879.269	25.12
879.702	27.42
880.135	21.02
880.569	27.42
881.002	30.12
881.435	20.22
881.868	24.12
882.301	25.02
882.734	16.02
883.167	20.92
883.601	18.42
884.034	22.02
884.467	14.22
884.899	23.02
885.332	17.02
885.765	17.82
886.198	21.92
886.631	15.12
887.064	21.42
887.497	20.12
887.929	25.22
888.362	11.32
888.795	14.12
889.228	22.62
889.66	15.12
890.093	21.02
890.526	19.42
890.958	15.62
891.391	17.92
891.823	22.62
892.256	17.72
892.688	12.32
893.121	17.32
893.553	18.62
893.985	27.12
894.418	20.62
894.85	12.02
895.282	20.42
895.715	19.02
896.147	17.22
896.579	16.62
897.011	15.22
897.444	17.52
897.876	17.42
898.308	16.22
898.74	18.12
899.172	12.32
899.604	20.72
900.036	26.42
900.468	17.22
900.9	12.92
901.332	20.02
901.764	16.92
902.196	18.92
902.628	18.82
903.06	21.42
903.491	28.12
903.923	30.42
904.355	21.72
904.787	27.32
905.218	22.82
905.65	22.82
906.082	15.72
906.513	10.12
906.945	14.92
907.376	16.92
907.808	23.32
908.239	19.82
908.671	19.22
909.102	25.92
909.534	23.02
909.965	45.02
910.397	99.22
910.828	326.52
911.259	493.32
911.691	221.52
912.122	111.32
912.553	57.52
912.984	33.72
913.415	28.52
913.847	22.02
914.278	18.12
914.709	25.42
915.14	15.22
915.571	20.82
916.002	12.22
916.433	20.32
916.864	17.72
917.295	11.62
917.726	22.32
918.157	14.42
918.587	31.22
919.018	30.92
919.449	27.22
919.88	22.42
920.311	34.62
920.741	52.52
921.172	179.22
921.603	149.72
922.033	74.42
922.464	48.22
922.895	26.02
923.325	20.82
923.756	18.22
924.186	18.62
924.617	21.52
925.047	18.92
925.478	24.32
925.908	30.82
926.338	14.82
926.769	13.02
927.199	19.72
927.629	10.32
928.06	14.22
928.49	10.52
928.92	14.62
929.35	11.62
929.78	16.32
930.21	2.52
930.641	6.62
931.071	7.12
931.501	1.72
931.931	12.72
932.361	5.62
932.791	1.02
933.221	4.52
933.651	-1.58
934.08	16.92
934.51	33.32
934.94	6.32
935.37	5.72
935.8	11.42
936.229	6.12
936.659	15.42
937.089	4.52
937.519	21.72
937.948	21.72
938.378	16.42
938.807	6.32
939.237	5.42
939.666	12.42
940.096	-3.28
940.525	1.62
940.955	2.82
941.384	5.52
941.814	-2.88
942.243	1.32
942.672	-0.38
943.102	-4.68
943.531	-2.08
943.96	0.52
944.39	4.52
944.819	-1.78
945.248	6.92
945.677	6.22
946.106	7.52
946.535	6.12
946.964	-0.18
947.393	0.52
947.822	4.32
948.251	-4.18
948.68	7.82
949.109	9.12
949.538	7.42
949.967	-1.58
950.396	1.42
950.825	1.42
951.254	-0.58
951.682	-3.48
952.111	5.52
952.54	2.02
952.969	-3.88
953.397	-7.28
953.826	7.02
954.254	-0.28
954.683	1.92
955.112	-2.88
955.54	-1.38
955.969	2.62
956.397	3.42
956.826	-0.78
957.254	-2.08
957.682	-2.98
958.111	8.02
958.539	3.52
958.967	0.52
959.396	-7.28
959.824	2.62
960.252	-1.48
960.68	-5.08
961.109	-1.08
961.537	-5.28
961.965	-4.38
962.393	-1.58
962.821	1.42
963.249	5.12
963.677	1.92
964.105	4.02
964.533	47.92
964.961	44.62
965.389	24.62
965.817	2.92
966.245	2.82
966.672	2.32
967.1	-3.68
967.528	5.42
967.956	-4.88
968.383	5.82
968.811	-2.78
969.239	-1.58
969.666	-5.28
970.094	0.82
970.522	-1.08
970.949	-3.18
971.377	-6.18
971.804	-7.28
972.232	-5.98
972.659	0.02
973.087	-5.48
973.514	-4.68
973.941	-8.48
974.369	-0.38
974.796	2.92
975.223	1.32
975.651	0.42
976.078	2.52
976.505	5.82
976.932	2.12
977.359	14.92
977.786	16.42
978.214	3.62
978.641	-6.98
979.068	-1.58
979.495	-6.68
979.922	-6.78
980.349	-0.48
980.776	9.12
981.202	-6.48
981.629	3.02
982.056	6.42
982.483	-0.98
982.91	1.02
983.337	-5.78
983.763	-3.18
984.19	-4.88
984.617	-4.48
985.043	-5.38
985.47	-2.28
985.897	-2.98
986.323	-6.28
986.75	7.72
987.176	-1.58
987.603	-1.68
988.029	-3.48
988.456	1.82
988.882	1.52
989.308	-4.28
989.735	-5.38
990.161	1.72
990.587	-1.08
991.014	-3.48
991.44	9.72
991.866	0.42
992.292	-3.58
992.719	-0.58
993.145	-0.28
993.571	-9.08
993.997	-3.58
994.423	-3.18
994.849	-4.88
995.275	3.02
995.701	-1.48
996.127	-4.18
996.553	1.52
996.979	-7.88
997.405	-1.38
997.83	-5.28
998.256	-6.88
998.682	-5.48
999.108	-8.68
999.534	-3.78
999.959	-2.38
1000.385	-3.48
1000.811	3.62
1001.236	-4.18
1001.662	-5.78
1002.087	-10.98
1002.513	-2.28
1002.938	-2.38
1003.364	1.72
1003.789	3.72
1004.215	5.12
1004.64	-2.78
1005.066	0.12
1005.491	-1.28
1005.916	0.32
1006.342	-3.08
1006.767	-4.38
1007.192	7.32
1007.617	0.82
1008.042	-6.88
1008.468	-8.28
1008.893	-3.68
1009.318	1.22
1009.743	0.02
1010.168	-2.38
1010.593	5.52
1011.018	-7.18
1011.443	0.42
1011.868	-2.68
1012.293	1.32
1012.718	-7.58
1013.143	-0.38
1013.567	2.42
1013.992	-2.48
1014.417	-12.68
1014.842	2.92
1015.267	1.12
1015.691	-6.28
1016.116	7.32
1016.541	0.82
1016.965	4.72
1017.39	3.12
1017.814	-0.48
1018.239	-2.68
1018.663	-9.98
1019.088	-11.58
1019.512	-7.18
1019.937	-3.98
1020.361	-9.08
1020.785	-9.08
1021.21	-5.68
1021.634	-4.48
1022.058	-2.38
1022.483	1.02
1022.907	-4.58
1023.331	-4.28
1023.755	-2.98
1024.179	0.32
1024.604	-9.58
1025.028	-1.58
1025.452	-0.98
1025.876	-5.18
1026.3	1.12
1026.724	-11.78
1027.148	-3.88
1027.572	-7.48
1027.996	-0.78
1028.42	-0.48
1028.843	-2.48
1029.267	-3.48
1029.691	-0.88
1030.115	-8.28
1030.539	-6.88
1030.962	-8.28
1031.386	-8.48
1031.81	-1.98
1032.233	-4.58
1032.657	-5.38
1033.08	-0.18
1033.504	-5.28
1033.927	-1.38
1034.351	1.72
1034.774	-5.18
1035.198	-2.58
1035.621	-10.98
1036.045	-6.08
1036.468	2.02
1036.891	-11.68
1037.315	-11.68
1037.738	-13.18
1038.161	-0.38
1038.584	-6.28
1039.008	-1.28
1039.431	-4.18
1039.854	-0.78
1040.277	-10.18
1040.7	-11.28
1041.123	-2.68
1041.546	-7.38
1041.969	-2.58
1042.392	-2.88
1042.815	1.42
1043.238	-3.78
1043.661	-3.98
1044.084	-6.88
1044.507	-8.38
1044.93	-7.18
1045.352	-2.48
1045.775	-3.28
1046.198	0.42
1046.621	6.02
1047.043	0.92
1047.466	6.32
1047.889	-3.68
1048.311	-6.48
1048.734	-3.38
1049.156	-3.18
1049.579	-6.68
1050.001	-4.68
1050.424	1.42
1050.846	-4.78
1051.269	-5.58
1051.691	-9.78
1052.113	-5.08
1052.536	0.12
1052.958	1.22
1053.38	-4.18
1053.802	-3.38
1054.225	-0.58
1054.647	-12.38
1055.069	-3.58
1055.491	2.22
1055.913	-5.78
1056.335	1.32
1056.757	-7.28
1057.179	-4.88
1057.601	-4.88
1058.023	-5.58
1058.445	-1.18
1058.867	-4.18
1059.289	-3.88
1059.711	-6.48
1060.133	-0.18
1060.555	-1.58
1060.976	-9.48
1061.398	-6.98
1061.82	-9.28
1062.241	-6.08
1062.663	-6.48
1063.085	-5.18
1063.506	3.32
1063.928	-0.78
1064.35	4.02
1064.771	-6.68
1065.193	-0.98
1065.614	-10.38
1066.035	-0.18
1066.457	-3.38
1066.878	1.02
1067.3	-4.18
1067.721	-3.38
1068.142	-6.28
1068.564	-2.08
1068.985	-1.88
1069.406	-2.98
1069.827	-6.38
1070.248	-3.38
1070.67	-10.48
1071.091	-3.28
1071.512	-6.78
1071.933	-3.28
1072.354	-9.18
1072.775	-5.58
1073.196	-11.88
1073.617	-1.48
1074.038	-8.78
1074.459	-3.08
1074.88	-9.08
1075.3	3.52
1075.721	-2.98
1076.142	-0.28
1076.563	1.52
1076.983	-11.38
1077.404	-11.78
1077.825	-6.88
1078.246	-5.18
1078.666	-12.98
1079.087	-8.58
1079.507	-5.18
1079.928	0.22
1080.348	0.12
1080.769	-12.58
1081.189	-4.38
1081.61	-5.78
1082.03	-6.98
1082.451	-5.68
1082.871	-1.48
1083.291	-4.48
1083.711	-9.48
1084.132	-8.58
1084.552	-3.28
1084.972	-1.18
1085.392	-8.08
1085.813	-9.68
1086.233	-8.78
1086.653	-4.48
1087.073	0.82
1087.493	-7.88
1087.913	-0.98
1088.333	-4.88
1088.753	-5.58
1089.173	0.62
1089.593	-7.98
1090.013	1.62
1090.433	2.32
1090.852	-2.38
1091.272	-2.78
1091.692	-1.68
1092.112	-0.28
1092.531	-9.48
1092.951	-9.48
1093.371	2.12
1093.79	5.52
1094.21	-4.68
1094.63	-4.78
1095.049	-5.08
1095.469	-0.08
1095.888	-2.28
1096.308	0.62
1096.727	6.32
1097.146	-9.58
1097.566	-3.08
1097.985	-4.28
1098.405	-2.68
1098.824	-0.68
1099.243	-5.88
1099.662	-1.18
1100.082	-4.88
1100.501	-4.28
1100.92	-8.58
1101.339	-4.88
1101.758	-1.88
