Data from 20171114-ORNL-Ar_H_NY_Subt18_08-08-09-378.txt Node
Date: Tue Nov 14 08:08:09 EST 2017
User: Ender
Spectrometer: HR+D1039
Trigger mode: 0
Integration Time (sec): 2.730000E-2
Scans to average: 10
Electric dark correction enabled: true
Nonlinearity correction enabled: false
Boxcar width: 0
XAxis mode: Wavelengths
Number of Pixels in Spectrum: 2048
>>>>>Begin Spectral Data<<<<<
187.836	-2.14
188.309	-2.14
188.782	-2.14
189.255	1.66
189.728	-0.04
190.201	9.86
190.674	2.76
191.147	5.76
191.619	-5.44
192.092	-2.44
192.565	6.86
193.038	-1.24
193.511	-1.74
193.984	1.66
194.456	-7.14
194.929	-0.54
195.402	-8.64
195.874	0.86
196.347	0.06
196.82	-7.84
197.292	2.76
197.765	-5.14
198.237	-10.64
198.71	-3.44
199.182	-10.64
199.655	-0.44
200.127	4.86
200.6	-5.24
201.072	-1.84
201.544	-3.74
202.017	-6.14
202.489	2.96
202.961	-3.64
203.433	-6.14
203.906	-7.74
204.378	-10.34
204.85	-9.04
205.322	-12.14
205.794	-3.14
206.266	-7.94
206.739	-13.14
207.211	1.66
207.683	-7.94
208.155	-5.84
208.627	-6.04
209.099	-2.54
209.57	-6.64
210.042	-6.84
210.514	-7.84
210.986	-5.14
211.458	-11.94
211.93	-2.14
212.402	0.26
212.873	-8.14
213.345	-14.44
213.817	-12.64
214.288	-4.54
214.76	-10.34
215.232	-5.34
215.703	-8.94
216.175	-4.74
216.646	-8.04
217.118	-5.74
217.589	-7.14
218.061	-4.54
218.532	-12.04
219.004	-5.34
219.475	-7.14
219.946	-5.64
220.418	-14.64
220.889	2.66
221.36	1.06
221.832	-7.54
222.303	-6.64
222.774	-8.24
223.245	-10.64
223.717	-7.44
224.188	-3.34
224.659	-8.64
225.13	-2.74
225.601	-6.54
226.072	6.86
226.543	1.26
227.014	-3.44
227.485	-11.24
227.956	-7.84
228.427	-5.24
228.898	-2.94
229.369	1.36
229.839	-7.64
230.31	0.16
230.781	-1.04
231.252	-2.54
231.722	-6.94
232.193	-5.94
232.664	0.76
233.135	-2.14
233.605	1.96
234.076	-3.94
234.546	-1.04
235.017	1.16
235.487	-4.64
235.958	-3.94
236.428	0.06
236.899	4.06
237.369	-0.04
237.84	-0.94
238.31	4.36
238.78	-1.44
239.251	-0.34
239.721	2.96
240.191	7.16
240.662	-4.54
241.132	-6.94
241.602	-7.54
242.072	1.56
242.542	4.76
243.013	0.56
243.483	-3.24
243.953	-1.94
244.423	-6.24
244.893	-5.34
245.363	-3.44
245.833	-0.74
246.303	1.86
246.773	9.66
247.243	1.26
247.712	1.16
248.182	6.56
248.652	5.76
249.122	-9.44
249.592	12.16
250.061	22.56
250.531	29.06
251.001	12.96
251.471	15.96
251.94	13.46
252.41	6.16
252.879	-3.14
253.349	10.46
253.818	6.96
254.288	-0.94
254.757	7.76
255.227	-0.54
255.696	4.86
256.166	2.76
256.635	7.56
257.105	5.56
257.574	0.86
258.043	4.06
258.513	10.16
258.982	16.36
259.451	-2.44
259.92	8.76
260.389	10.36
260.859	12.06
261.328	3.66
261.797	11.66
262.266	-0.64
262.735	14.16
263.204	-2.04
263.673	-0.64
264.142	12.86
264.611	-2.94
265.08	2.16
265.549	2.16
266.018	5.16
266.487	-3.44
266.955	-3.64
267.424	-0.44
267.893	3.76
268.362	-1.54
268.83	2.56
269.299	6.96
269.768	1.46
270.236	7.46
270.705	4.86
271.174	2.26
271.642	5.66
272.111	3.86
272.579	18.76
273.048	22.66
273.516	25.26
273.985	31.26
274.453	23.76
274.922	14.96
275.39	7.86
275.858	6.16
276.327	12.16
276.795	18.66
277.263	7.36
277.731	24.46
278.2	52.76
278.668	53.46
279.136	44.36
279.604	17.96
280.072	17.46
280.54	9.76
281.008	7.26
281.477	16.06
281.945	9.66
282.413	10.06
282.881	11.56
283.348	10.16
283.816	12.96
284.284	17.86
284.752	16.46
285.22	9.56
285.688	13.16
286.156	18.76
286.623	45.26
287.091	50.76
287.559	32.26
288.026	21.46
288.494	13.96
288.962	4.96
289.429	6.16
289.897	18.26
290.364	11.86
290.832	14.96
291.3	10.76
291.767	11.06
292.234	18.96
292.702	12.66
293.169	15.96
293.637	21.26
294.104	19.86
294.571	8.56
295.039	14.36
295.506	12.06
295.973	15.66
296.44	19.66
296.908	20.16
297.375	20.86
297.842	21.46
298.309	17.06
298.776	16.06
299.243	16.46
299.71	8.66
300.177	20.06
300.644	18.56
301.111	19.16
301.578	21.36
302.045	16.76
302.512	21.96
302.979	21.26
303.446	14.86
303.913	15.96
304.379	15.56
304.846	21.96
305.313	23.26
305.78	18.96
306.246	21.46
306.713	23.36
307.18	21.96
307.646	26.76
308.113	25.76
308.579	19.76
309.046	24.36
309.512	28.16
309.979	20.46
310.445	25.76
310.912	24.36
311.378	34.16
311.845	24.46
312.311	35.66
312.777	36.26
313.244	30.56
313.71	39.26
314.176	30.26
314.642	28.66
315.109	25.76
315.575	33.76
316.041	34.86
316.507	32.26
316.973	35.06
317.439	34.76
317.905	32.26
318.371	35.36
318.837	34.36
319.303	33.06
319.769	27.96
320.235	33.16
320.701	37.46
321.167	32.06
321.633	30.76
322.099	37.96
322.564	46.06
323.03	41.16
323.496	37.46
323.962	40.76
324.427	35.96
324.893	40.76
325.359	40.06
325.824	33.36
326.29	34.96
326.755	33.06
327.221	42.96
327.686	38.36
328.152	45.26
328.617	41.06
329.083	49.06
329.548	52.36
330.014	45.56
330.479	39.26
330.944	40.86
331.41	44.96
331.875	44.16
332.34	44.06
332.805	37.26
333.271	43.66
333.736	45.66
334.201	49.06
334.666	51.46
335.131	47.36
335.596	53.86
336.061	47.26
336.526	36.06
336.991	49.56
337.456	57.66
337.921	50.76
338.386	42.46
338.851	40.06
339.316	49.56
339.781	44.56
340.246	51.46
340.711	44.06
341.175	48.56
341.64	46.76
342.105	51.96
342.569	58.26
343.034	52.46
343.499	51.56
343.963	57.76
344.428	58.56
344.893	56.86
345.357	62.46
345.822	59.66
346.286	67.56
346.751	71.56
347.215	65.86
347.679	72.26
348.144	98.86
348.608	82.06
349.073	67.66
349.537	72.16
350.001	76.16
350.465	87.86
350.93	78.46
351.394	77.66
351.858	72.36
352.322	86.16
352.786	81.36
353.25	97.96
353.715	107.16
354.179	101.56
354.643	125.06
355.107	123.86
355.571	109.56
356.035	100.86
356.498	115.76
356.962	123.06
357.426	130.76
357.89	114.46
358.354	91.46
358.818	85.06
359.281	83.76
359.745	77.16
360.209	79.96
360.673	73.66
361.136	78.76
361.6	79.46
362.064	87.56
362.527	87.06
362.991	95.26
363.454	84.06
363.918	77.66
364.381	77.16
364.845	85.66
365.308	89.96
365.772	85.56
366.235	89.56
366.698	85.56
367.162	86.46
367.625	90.26
368.088	86.76
368.552	85.56
369.015	93.46
369.478	97.16
369.941	108.96
370.404	98.06
370.867	106.76
371.331	108.16
371.794	116.56
372.257	111.46
372.72	117.16
373.183	108.36
373.646	107.76
374.109	98.96
374.572	104.06
375.035	110.46
375.497	109.06
375.96	109.76
376.423	104.96
376.886	114.96
377.349	113.86
377.811	108.86
378.274	110.76
378.737	106.06
379.199	114.76
379.662	117.46
380.125	120.66
380.587	117.06
381.05	120.56
381.512	132.66
381.975	137.06
382.437	133.76
382.9	134.16
383.362	136.66
383.825	147.36
384.287	148.86
384.75	143.96
385.212	141.56
385.674	139.16
386.136	137.26
386.599	126.16
387.061	132.86
387.523	136.46
387.985	137.36
388.447	146.36
388.91	144.36
389.372	162.46
389.834	148.06
390.296	147.56
390.758	164.36
391.22	170.86
391.682	219.06
392.144	297.06
392.606	243.06
393.068	168.96
393.529	171.36
393.991	159.96
394.453	154.96
394.915	163.26
395.377	198.96
395.838	222.96
396.3	163.36
396.762	144.06
397.224	138.96
397.685	130.66
398.147	139.06
398.608	136.86
399.07	134.56
399.531	138.06
399.993	148.36
400.454	158.56
400.916	148.26
401.377	148.96
401.839	154.16
402.3	158.96
402.762	170.66
403.223	189.96
403.684	177.06
404.145	162.46
404.607	164.96
405.068	173.16
405.529	172.76
405.99	196.06
406.451	172.56
406.913	178.26
407.374	167.46
407.835	162.16
408.296	169.86
408.757	173.96
409.218	201.56
409.679	179.96
410.14	185.16
410.601	180.26
411.062	189.26
411.522	202.16
411.983	196.26
412.444	177.66
412.905	181.76
413.366	188.16
413.826	194.96
414.287	223.66
414.748	263.56
415.208	260.86
415.669	214.46
416.13	220.06
416.59	215.96
417.051	223.96
417.511	232.26
417.972	245.16
418.432	251.46
418.893	295.36
419.353	254.16
419.814	212.86
420.274	196.96
420.734	187.56
421.195	204.96
421.655	201.96
422.115	206.76
422.576	196.06
423.036	207.66
423.496	216.16
423.956	225.76
424.416	240.46
424.876	273.66
425.336	271.16
425.797	262.76
426.257	259.56
426.717	247.96
427.177	245.26
427.637	224.66
428.097	238.36
428.556	247.46
429.016	284.16
429.476	272.56
429.936	286.16
430.396	282.66
430.856	295.66
431.315	328.36
431.775	361.66
432.235	400.06
432.694	360.56
433.154	372.46
433.614	406.36
434.073	358.86
434.533	293.76
434.993	293.06
435.452	290.76
435.912	297.56
436.371	296.06
436.83	291.86
437.29	276.36
437.749	256.26
438.209	256.06
438.668	282.06
439.127	306.16
439.587	277.46
440.046	263.16
440.505	274.36
440.964	290.46
441.424	335.56
441.883	323.46
442.342	267.56
442.801	230.46
443.26	232.76
443.719	232.96
444.178	228.56
444.637	216.86
445.096	228.76
445.555	225.16
446.014	231.56
446.473	233.66
446.932	233.56
447.391	236.16
447.849	238.66
448.308	229.36
448.767	231.16
449.226	248.16
449.685	244.86
450.143	252.76
450.602	244.96
451.061	230.96
451.519	235.76
451.978	242.66
452.436	241.56
452.895	242.96
453.353	260.26
453.812	245.56
454.27	240.46
454.729	251.66
455.187	250.16
455.646	256.76
456.104	250.86
456.562	266.56
457.021	277.06
457.479	274.96
457.937	275.96
458.395	263.86
458.854	255.36
459.312	258.56
459.77	286.26
460.228	266.96
460.686	252.86
461.144	255.96
461.602	253.36
462.06	252.26
462.518	262.76
462.976	265.36
463.434	260.76
463.892	272.36
464.35	288.66
464.808	296.66
465.266	274.56
465.724	277.26
466.181	270.76
466.639	283.26
467.097	296.16
467.555	308.26
468.012	310.06
468.47	316.76
468.928	339.06
469.385	346.26
469.843	346.56
470.3	363.96
470.758	374.06
471.215	394.26
471.673	426.26
472.13	420.26
472.588	431.66
473.045	389.26
473.503	390.56
473.96	413.46
474.417	409.36
474.875	444.86
475.332	493.96
475.789	475.06
476.246	479.56
476.704	506.86
477.161	523.96
477.618	534.16
478.075	577.86
478.532	633.36
478.989	708.26
479.446	830.36
479.903	786.26
480.36	830.66
480.817	886.26
481.274	990.86
481.731	1097.66
482.188	1194.46
482.645	1319.46
483.102	1426.36
483.558	1568.06
484.015	1621.56
484.472	1591.76
484.929	1537.66
485.385	1484.56
485.842	1455.86
486.299	1374.56
486.755	1335.86
487.212	1109.06
487.668	943.26
488.125	872.46
488.582	798.56
489.038	756.86
489.494	734.76
489.951	697.86
490.407	685.76
490.864	666.46
491.32	661.06
491.776	671.26
492.233	660.56
492.689	626.56
493.145	617.76
493.602	623.76
494.058	625.56
494.514	633.06
494.97	653.86
495.426	664.26
495.882	628.16
496.338	635.66
496.794	639.06
497.251	641.46
497.707	646.76
498.163	648.56
498.618	652.66
499.074	659.26
499.53	687.36
499.986	688.06
500.442	671.06
500.898	640.36
501.354	653.16
501.809	659.36
502.265	659.16
502.721	676.56
503.177	686.56
503.632	685.86
504.088	691.86
504.543	722.96
504.999	725.26
505.455	675.96
505.91	648.96
506.366	652.86
506.821	636.56
507.277	638.56
507.732	639.56
508.187	632.76
508.643	641.26
509.098	646.16
509.553	664.66
510.009	682.46
510.464	687.86
510.919	702.96
511.375	709.86
511.83	720.96
512.285	750.26
512.74	774.86
513.195	794.86
513.65	788.56
514.105	787.16
514.56	790.66
515.015	804.76
515.47	821.26
515.925	797.66
516.38	805.36
516.835	815.06
517.29	804.06
517.745	791.36
518.2	783.86
518.655	759.06
519.109	765.06
519.564	757.96
520.019	743.46
520.474	744.26
520.928	742.96
521.383	725.66
521.838	715.86
522.292	728.36
522.747	722.96
523.201	727.56
523.656	721.96
524.11	708.46
524.565	707.26
525.019	703.86
525.474	720.36
525.928	722.66
526.382	711.66
526.837	709.26
527.291	711.66
527.745	709.56
528.2	721.26
528.654	709.06
529.108	713.96
529.562	698.76
530.016	714.96
530.47	707.06
530.925	706.36
531.379	715.66
531.833	723.46
532.287	719.06
532.741	719.56
533.195	721.66
533.649	726.26
534.103	731.16
534.556	729.06
535.01	720.56
535.464	719.36
535.918	738.26
536.372	737.56
536.826	729.76
537.279	718.26
537.733	727.16
538.187	738.76
538.64	734.86
539.094	733.16
539.548	743.06
540.001	746.96
540.455	744.76
540.908	748.56
541.362	752.76
541.815	759.96
542.269	783.46
542.722	779.66
543.175	788.26
543.629	788.36
544.082	800.56
544.536	806.26
544.989	815.36
545.442	816.56
545.895	810.06
546.349	806.56
546.802	810.06
547.255	824.16
547.708	828.16
548.161	844.66
548.614	842.26
549.067	832.56
549.52	846.86
549.973	830.66
550.426	832.36
550.879	802.66
551.332	814.56
551.785	816.86
552.238	825.76
552.691	839.26
553.144	862.66
553.596	871.06
554.049	881.16
554.502	917.56
554.955	931.26
555.407	924.16
555.86	924.76
556.313	900.56
556.765	899.76
557.218	900.86
557.67	907.46
558.123	903.36
558.576	894.56
559.028	898.46
559.48	906.36
559.933	897.26
560.385	843.46
560.838	831.06
561.29	795.36
561.742	801.46
562.195	773.86
562.647	784.06
563.099	784.36
563.551	797.56
564.004	804.76
564.456	796.36
564.908	778.96
565.36	762.06
565.812	760.76
566.264	739.36
566.716	728.86
567.168	725.06
567.62	741.26
568.072	728.36
568.524	705.86
568.976	705.06
569.428	687.46
569.88	698.96
570.332	699.66
570.784	700.76
571.235	704.06
571.687	715.96
572.139	729.06
572.59	733.26
573.042	732.86
573.494	727.46
573.945	718.06
574.397	696.96
574.849	711.96
575.3	709.36
575.752	704.86
576.203	688.16
576.655	702.96
577.106	680.06
577.557	676.86
578.009	697.46
578.46	682.06
578.912	681.76
579.363	674.66
579.814	682.16
580.265	678.66
580.717	683.66
581.168	689.56
581.619	701.46
582.07	706.26
582.521	699.46
582.972	688.46
583.423	700.56
583.875	700.66
584.326	720.66
584.777	772.36
585.227	849.76
585.678	936.66
586.129	1020.76
586.58	1102.26
587.031	1187.86
587.482	1331.56
587.933	1509.16
588.384	1325.56
588.834	991.86
589.285	825.86
589.736	806.06
590.186	812.86
590.637	792.96
591.088	767.96
591.538	755.96
591.989	755.16
592.439	744.46
592.89	742.16
593.34	726.86
593.791	726.36
594.241	725.86
594.692	736.66
595.142	721.46
595.593	721.16
596.043	729.26
596.493	733.96
596.943	739.46
597.394	752.06
597.844	743.86
598.294	749.76
598.744	771.06
599.195	804.66
599.645	838.16
600.095	881.36
600.545	942.06
600.995	991.26
601.445	1053.46
601.895	1116.76
602.345	1174.06
602.795	1143.66
603.245	1094.56
603.695	1039.36
604.145	978.06
604.594	933.46
605.044	887.46
605.494	821.76
605.944	772.36
606.393	766.46
606.843	743.96
607.293	753.56
607.743	752.56
608.192	773.06
608.642	783.16
609.091	787.36
609.541	784.46
609.99	794.66
610.44	791.16
610.889	740.66
611.339	721.46
611.788	711.06
612.238	720.76
612.687	729.46
613.136	733.66
613.586	766.86
614.035	745.26
614.484	777.76
614.933	775.26
615.383	769.36
615.832	758.46
616.281	747.16
616.73	710.06
617.179	681.66
617.628	673.16
618.077	660.06
618.526	642.46
618.975	629.16
619.424	634.66
619.873	627.06
620.322	645.26
620.771	625.66
621.22	624.36
621.669	603.76
622.118	604.16
622.567	598.06
623.015	589.56
623.464	588.46
623.913	576.56
624.361	572.26
624.81	572.66
625.259	565.06
625.707	572.36
626.156	568.46
626.604	588.36
627.053	584.86
627.501	582.26
627.95	586.26
628.398	588.36
628.847	586.86
629.295	587.56
629.744	590.76
630.192	581.66
630.64	588.46
631.089	583.96
631.537	597.56
631.985	604.26
632.433	622.46
632.881	627.46
633.33	689.26
633.778	657.36
634.226	590.96
634.674	589.86
635.122	599.66
635.57	611.06
636.018	646.66
636.466	596.66
636.914	570.46
637.362	580.06
637.81	592.66
638.258	596.56
638.705	602.26
639.153	627.56
639.601	639.46
640.049	659.76
640.497	690.06
640.944	705.76
641.392	658.46
641.84	633.06
642.287	599.56
642.735	580.26
643.182	592.86
643.63	589.76
644.078	594.56
644.525	612.56
644.973	616.56
645.42	616.06
645.867	646.06
646.315	668.26
646.762	691.86
647.21	714.16
647.657	741.56
648.104	767.86
648.551	790.76
648.999	851.56
649.446	939.26
649.893	1040.16
650.34	1195.56
650.787	1454.36
651.234	1794.66
651.682	2325.56
652.129	3214.66
652.576	4638.46
653.023	6821.66
653.47	9328.06
653.917	11559.76
654.363	13256.36
654.81	14539.26
655.257	13859.96
655.704	9077.46
656.151	5380.86
656.598	3494.06
657.044	2487.06
657.491	1908.46
657.938	1520.66
658.385	1278.16
658.831	1103.36
659.278	986.26
659.724	876.76
660.171	802.46
660.618	744.46
661.064	707.56
661.511	686.16
661.957	674.06
662.404	656.96
662.85	679.06
663.296	644.96
663.743	582.66
664.189	563.66
664.635	543.46
665.082	534.26
665.528	536.96
665.974	525.96
666.42	526.36
666.867	530.96
667.313	503.06
667.759	499.06
668.205	493.46
668.651	499.56
669.097	495.16
669.543	512.56
669.989	491.26
670.435	470.06
670.881	454.56
671.327	464.06
671.773	488.86
672.219	503.16
672.665	558.16
673.11	597.16
673.556	646.16
674.002	687.16
674.448	667.56
674.893	559.86
675.339	485.66
675.785	454.06
676.23	431.06
676.676	415.36
677.122	398.26
677.567	383.06
678.013	381.46
678.458	372.16
678.904	368.36
679.349	364.76
679.794	369.46
680.24	363.46
680.685	364.26
681.131	355.56
681.576	362.26
682.021	354.56
682.466	358.76
682.912	360.36
683.357	370.86
683.802	397.26
684.247	425.76
684.692	477.06
685.137	508.06
685.583	551.86
686.028	573.26
686.473	533.16
686.918	460.76
687.363	429.36
687.807	407.46
688.252	375.16
688.697	369.76
689.142	347.46
689.587	339.56
690.032	333.46
690.477	354.66
690.921	360.16
691.366	395.36
691.811	415.56
692.255	441.86
692.7	482.66
693.145	527.46
693.589	734.56
694.034	1182.66
694.478	1595.96
694.923	1784.56
695.367	2302.86
695.812	1216.66
696.256	515.86
696.701	382.86
697.145	349.56
697.59	344.66
698.034	333.26
698.478	339.36
698.922	336.26
699.367	334.56
699.811	348.66
700.255	368.06
700.699	393.06
701.143	440.06
701.588	494.06
702.032	529.56
702.476	518.96
702.92	508.06
703.364	519.16
703.808	674.26
704.252	1094.86
704.696	1510.06
705.14	1714.96
705.584	2186.76
706.027	1094.56
706.471	544.36
706.915	407.46
707.359	356.36
707.803	327.96
708.246	318.76
708.69	321.96
709.134	321.56
709.577	317.26
710.021	324.56
710.465	309.26
710.908	309.36
711.352	313.26
711.795	322.36
712.239	359.66
712.682	393.06
713.126	433.56
713.569	475.06
714.012	381.66
714.456	333.56
714.899	315.36
715.342	289.76
715.786	260.86
716.229	271.46
716.672	267.06
717.115	254.56
717.558	253.16
718.002	256.36
718.445	274.16
718.888	295.86
719.331	297.96
719.774	314.36
720.217	308.66
720.66	292.36
721.103	271.86
721.546	265.06
721.989	252.36
722.432	241.46
722.874	250.16
723.317	248.16
723.76	239.86
724.203	270.76
724.645	337.36
725.088	466.76
725.531	588.16
725.974	664.66
726.416	561.56
726.859	318.16
727.301	257.16
727.744	241.96
728.187	241.56
728.629	254.36
729.071	247.96
729.514	267.66
729.956	288.76
730.399	291.76
730.841	298.06
731.283	283.26
731.726	271.06
732.168	267.16
732.61	278.06
733.053	296.86
733.495	329.06
733.937	363.66
734.379	420.76
734.821	454.36
735.263	570.96
735.705	890.36
736.148	1667.16
736.59	2679.36
737.032	3111.46
737.474	2524.46
737.916	829.46
738.357	435.36
738.799	337.06
739.241	307.06
739.683	299.66
740.125	307.36
740.567	304.06
741.008	320.76
741.45	325.46
741.892	325.06
742.334	348.76
742.775	365.96
743.217	346.16
743.658	283.16
744.1	265.36
744.542	278.86
744.983	317.46
745.425	351.86
745.866	343.96
746.307	300.96
746.749	284.86
747.19	330.46
747.632	484.46
748.073	941.36
748.514	1986.26
748.956	2940.46
749.397	3677.36
749.838	3069.16
750.279	3008.26
750.72	1521.56
751.162	564.96
751.603	330.86
752.044	262.56
752.485	223.06
752.926	213.76
753.367	214.16
753.808	203.16
754.249	200.36
754.69	193.06
755.131	190.56
755.572	186.36
756.013	182.76
756.453	181.66
756.894	192.26
757.335	194.06
757.776	192.46
758.216	200.66
758.657	204.26
759.098	209.86
759.538	237.06
759.979	281.36
760.42	397.26
760.86	764.06
761.301	1965.96
761.741	4623.16
762.182	6510.86
762.622	4572.06
763.063	1339.76
763.503	556.86
763.943	363.86
764.384	356.16
764.824	412.06
765.264	445.66
765.705	316.86
766.145	214.96
766.585	194.26
767.025	187.56
767.465	193.46
767.906	247.26
768.346	322.86
768.786	346.16
769.226	271.66
769.666	351.46
770.106	666.36
770.546	1665.26
770.986	2711.06
771.426	2376.16
771.866	815.06
772.306	342.46
772.745	213.96
773.185	184.56
773.625	174.86
774.065	168.96
774.505	201.96
774.944	319.96
775.384	690.96
775.824	1201.76
776.263	1154.86
776.703	500.76
777.142	223.56
777.582	164.36
778.021	140.36
778.461	141.56
778.9	141.76
779.34	134.06
779.779	119.96
780.219	115.66
780.658	111.36
781.097	113.76
781.537	114.06
781.976	108.66
782.415	105.36
782.855	108.06
783.294	106.16
783.733	108.16
784.172	112.66
784.611	105.26
785.05	107.86
785.489	116.56
785.928	119.46
786.367	130.76
786.806	124.66
787.245	127.16
787.684	149.46
788.123	147.26
788.562	132.86
789.001	132.56
789.44	127.26
789.879	121.26
790.317	117.46
790.756	135.66
791.195	137.26
791.634	152.26
792.072	216.56
792.511	387.16
792.95	1071.56
793.388	2207.86
793.827	1954.06
794.265	691.36
794.704	282.56
795.142	189.96
795.581	154.86
796.019	135.86
796.458	133.46
796.896	127.66
797.334	139.86
797.773	157.96
798.211	231.76
798.649	463.26
799.087	1065.56
799.526	1661.66
799.964	2076.46
800.402	2039.66
800.84	773.66
801.278	312.06
801.716	198.26
802.154	158.36
802.592	156.46
803.03	141.76
803.468	141.56
803.906	149.06
804.344	152.36
804.782	153.56
805.22	137.56
805.658	132.26
806.096	145.66
806.533	167.26
806.971	171.46
807.409	224.76
807.847	325.66
808.284	711.86
808.722	1965.16
809.16	3349.66
809.597	3277.26
810.035	5610.66
810.472	5793.46
810.91	2121.66
811.347	817.66
811.785	411.86
812.222	259.66
812.66	205.16
813.097	170.16
813.535	150.76
813.972	131.16
814.409	117.56
814.846	110.06
815.284	113.56
815.721	102.26
816.158	111.26
816.595	133.76
817.032	182.06
817.47	197.16
817.907	164.76
818.344	150.46
818.781	118.46
819.218	111.56
819.655	129.26
820.092	192.26
820.529	215.46
820.966	179.16
821.403	134.96
821.839	109.06
822.276	103.16
822.713	125.76
823.15	139.56
823.587	125.76
824.023	152.36
824.46	321.46
824.897	934.76
825.333	1384.86
825.77	591.16
826.206	238.76
826.643	144.86
827.08	102.76
827.516	86.86
827.953	82.26
828.389	83.16
828.825	69.76
829.262	72.26
829.698	72.46
830.135	67.26
830.571	63.06
831.007	61.96
831.443	65.26
831.88	61.46
832.316	64.76
832.752	66.36
833.188	69.76
833.624	65.96
834.06	70.86
834.497	62.56
834.933	72.86
835.369	76.36
835.805	65.16
836.241	81.96
836.677	80.26
837.112	95.36
837.548	106.66
837.984	140.56
838.42	207.06
838.856	519.16
839.292	1578.56
839.727	2332.56
840.163	1084.66
840.599	971.16
841.034	2100.06
841.47	2142.56
841.906	793.76
842.341	347.56
842.777	241.26
843.212	321.26
843.648	299.96
844.083	152.36
844.519	100.26
844.954	78.76
845.39	62.76
845.825	58.66
846.261	59.96
846.696	56.56
847.131	61.56
847.566	60.26
848.002	52.76
848.437	58.56
848.872	64.26
849.307	61.96
849.742	85.76
850.177	183.56
850.613	580.56
851.048	879.56
851.483	386.16
851.918	160.86
852.353	83.16
852.788	64.56
853.223	57.36
853.657	56.66
854.092	46.16
854.527	43.66
854.962	36.46
855.397	41.86
855.832	47.06
856.266	36.36
856.701	38.96
857.136	31.76
857.57	44.96
858.005	49.46
858.44	53.26
858.874	45.56
859.309	56.16
859.743	42.56
860.178	53.46
860.612	45.66
861.047	59.66
861.481	71.16
861.915	67.36
862.35	50.16
862.784	34.56
863.218	30.06
863.653	30.26
864.087	44.46
864.521	56.96
864.955	74.06
865.39	161.36
865.824	172.96
866.258	116.86
866.692	163.36
867.126	175.46
867.56	111.26
867.994	55.96
868.428	37.76
868.862	49.36
869.296	55.26
869.73	58.76
870.164	53.76
870.598	46.86
871.031	41.46
871.465	24.66
871.899	29.96
872.333	16.06
872.766	27.26
873.2	21.66
873.634	25.36
874.067	29.36
874.501	28.06
874.935	38.26
875.368	31.36
875.802	25.76
876.235	24.06
876.669	19.76
877.102	17.96
877.535	19.86
877.969	20.46
878.402	27.96
878.836	15.56
879.269	21.66
879.702	26.36
880.135	19.26
880.569	23.36
881.002	25.46
881.435	18.36
881.868	17.26
882.301	18.26
882.734	12.76
883.167	22.96
883.601	15.16
884.034	15.36
884.467	14.96
884.899	19.76
885.332	18.76
885.765	15.76
886.198	19.56
886.631	19.56
887.064	21.36
887.497	22.66
887.929	24.06
888.362	17.46
888.795	16.46
889.228	14.46
889.66	13.16
890.093	15.76
890.526	19.66
890.958	15.76
891.391	23.56
891.823	20.76
892.256	11.76
892.688	18.16
893.121	19.06
893.553	11.26
893.985	21.36
894.418	21.46
894.85	11.96
895.282	16.46
895.715	11.96
896.147	16.26
896.579	19.26
897.011	20.06
897.444	19.26
897.876	9.16
898.308	13.56
898.74	16.86
899.172	13.56
899.604	20.16
900.036	17.16
900.468	18.36
900.9	13.16
901.332	12.96
901.764	15.86
902.196	19.36
902.628	17.36
903.06	12.46
903.491	29.76
903.923	23.96
904.355	12.26
904.787	20.36
905.218	22.96
905.65	21.36
906.082	10.76
906.513	13.16
906.945	18.86
907.376	20.06
907.808	14.96
908.239	20.36
908.671	18.06
909.102	16.46
909.534	22.26
909.965	49.46
910.397	93.56
910.828	332.26
911.259	482.26
911.691	222.56
912.122	109.66
912.553	57.76
912.984	31.16
913.415	21.76
913.847	29.76
914.278	11.86
914.709	14.56
915.14	16.26
915.571	14.16
916.002	10.46
916.433	17.96
916.864	13.46
917.295	8.86
917.726	23.66
918.157	8.26
918.587	30.86
919.018	30.76
919.449	20.56
919.88	22.26
920.311	35.86
920.741	54.26
921.172	173.36
921.603	151.56
922.033	70.56
922.464	46.96
922.895	21.76
923.325	24.56
923.756	18.36
924.186	12.06
924.617	27.06
925.047	38.36
925.478	54.26
925.908	40.46
926.338	27.86
926.769	17.16
927.199	17.46
927.629	7.46
928.06	14.96
928.49	18.66
928.92	13.06
929.35	9.86
929.78	7.06
930.21	4.66
930.641	6.96
931.071	14.06
931.501	5.06
931.931	5.86
932.361	8.06
932.791	0.56
933.221	10.56
933.651	7.36
934.08	18.26
934.51	26.26
934.94	7.26
935.37	6.06
935.8	13.76
936.229	10.06
936.659	9.26
937.089	5.36
937.519	11.56
937.948	27.66
938.378	16.86
938.807	3.06
939.237	6.36
939.666	5.86
940.096	-5.84
940.525	12.06
940.955	5.86
941.384	4.26
941.814	-4.94
942.243	-9.44
942.672	9.86
943.102	-3.44
943.531	-1.14
943.96	1.26
944.39	1.46
944.819	1.26
945.248	3.26
945.677	-2.24
946.106	1.86
946.535	6.56
946.964	-5.74
947.393	5.66
947.822	-0.44
948.251	-2.14
948.68	2.26
949.109	3.16
949.538	7.06
949.967	1.26
950.396	-2.34
950.825	-8.14
951.254	-1.24
951.682	-7.44
952.111	5.06
952.54	3.66
952.969	-6.54
953.397	-7.74
953.826	-0.54
954.254	-7.34
954.683	1.76
955.112	-3.74
955.54	-7.04
955.969	0.76
956.397	2.26
956.826	-1.84
957.254	8.16
957.682	1.66
958.111	5.06
958.539	-2.74
958.967	2.26
959.396	1.76
959.824	-2.44
960.252	6.66
960.68	-8.24
961.109	-4.24
961.537	-8.84
961.965	-0.74
962.393	3.56
962.821	-4.74
963.249	-3.54
963.677	1.66
964.105	4.96
964.533	39.36
964.961	42.26
965.389	22.86
965.817	6.96
966.245	0.36
966.672	-2.64
967.1	-9.04
967.528	-0.54
967.956	-0.24
968.383	-4.44
968.811	3.56
969.239	-3.34
969.666	-3.44
970.094	-1.44
970.522	-0.04
970.949	2.06
971.377	-2.14
971.804	-4.14
972.232	-1.24
972.659	1.26
973.087	-5.94
973.514	-5.54
973.941	-3.54
974.369	6.86
974.796	1.46
975.223	-0.54
975.651	-2.34
976.078	-1.54
976.505	-3.94
976.932	3.76
977.359	15.56
977.786	16.86
978.214	1.96
978.641	-5.64
979.068	0.76
979.495	-4.34
979.922	-3.74
980.349	-2.04
980.776	4.36
981.202	-3.04
981.629	4.56
982.056	4.96
982.483	-2.04
982.91	1.16
983.337	-3.84
983.763	4.76
984.19	-3.14
984.617	-9.74
985.043	-5.94
985.47	-1.94
985.897	-2.34
986.323	-10.44
986.75	1.46
987.176	-3.34
987.603	-3.04
988.029	-2.44
988.456	-2.44
988.882	1.66
989.308	-10.54
989.735	-3.94
990.161	-1.04
990.587	-2.04
991.014	-5.94
991.44	9.06
991.866	-4.24
992.292	-8.74
992.719	-7.54
993.145	-1.14
993.571	-2.14
993.997	-3.84
994.423	3.26
994.849	-5.24
995.275	-0.94
995.701	0.26
996.127	-3.94
996.553	2.36
996.979	-8.04
997.405	-2.54
997.83	-10.74
998.256	-6.94
998.682	-6.24
999.108	-9.94
999.534	-2.64
999.959	-5.84
1000.385	-9.04
1000.811	-5.34
1001.236	-15.54
1001.662	-11.34
1002.087	-9.24
1002.513	-7.14
1002.938	-0.54
1003.364	-6.54
1003.789	-3.14
1004.215	5.96
1004.64	-1.64
1005.066	-0.34
1005.491	-4.24
1005.916	-2.64
1006.342	-1.84
1006.767	-6.54
1007.192	5.76
1007.617	-12.44
1008.042	-7.54
1008.468	-9.54
1008.893	-8.64
1009.318	-11.24
1009.743	-10.94
1010.168	1.06
1010.593	-0.34
1011.018	-6.34
1011.443	0.86
1011.868	2.66
1012.293	-4.54
1012.718	-6.44
1013.143	-3.34
1013.567	4.56
1013.992	-7.14
1014.417	-21.04
1014.842	1.06
1015.267	-6.24
1015.691	-2.74
1016.116	-2.14
1016.541	-1.34
1016.965	-0.84
1017.39	3.66
1017.814	-4.74
1018.239	-3.64
1018.663	-5.54
1019.088	-13.54
1019.512	-1.84
1019.937	-5.84
1020.361	-8.44
1020.785	-9.04
1021.21	-5.24
1021.634	-8.54
1022.058	0.36
1022.483	0.96
1022.907	-5.94
1023.331	-6.44
1023.755	-1.74
1024.179	1.36
1024.604	-9.24
1025.028	-5.14
1025.452	1.96
1025.876	-2.14
1026.3	1.46
1026.724	-12.64
1027.148	-2.74
1027.572	-6.64
1027.996	-4.24
1028.42	-8.84
1028.843	-5.74
1029.267	-9.54
1029.691	-3.14
1030.115	-11.24
1030.539	-3.64
1030.962	-7.84
1031.386	-8.74
1031.81	-4.14
1032.233	-3.44
1032.657	-6.14
1033.08	-8.24
1033.504	-5.14
1033.927	-3.04
1034.351	-5.44
1034.774	-3.24
1035.198	-2.74
1035.621	-5.54
1036.045	-6.84
1036.468	3.76
1036.891	-10.84
1037.315	-11.74
1037.738	-17.64
1038.161	-3.44
1038.584	-6.34
1039.008	-9.74
1039.431	-0.74
1039.854	-9.44
1040.277	-7.94
1040.7	-14.14
1041.123	-4.64
1041.546	-6.54
1041.969	-5.54
1042.392	-7.64
1042.815	-7.04
1043.238	-2.74
1043.661	-1.64
1044.084	-8.14
1044.507	-7.84
1044.93	-7.34
1045.352	-6.34
1045.775	-3.84
1046.198	2.46
1046.621	-1.94
1047.043	2.46
1047.466	3.76
1047.889	0.16
1048.311	-2.34
1048.734	-2.64
1049.156	-4.34
1049.579	-1.24
1050.001	1.06
1050.424	3.76
1050.846	-11.54
1051.269	-3.24
1051.691	-4.24
1052.113	-6.24
1052.536	4.76
1052.958	-6.74
1053.38	-4.44
1053.802	-6.44
1054.225	-2.54
1054.647	-11.04
1055.069	-6.94
1055.491	2.96
1055.913	-12.74
1056.335	-1.44
1056.757	-9.64
1057.179	-9.44
1057.601	-8.34
1058.023	-6.24
1058.445	-7.74
1058.867	-7.54
1059.289	-3.94
1059.711	-9.74
1060.133	-6.54
1060.555	-6.34
1060.976	-5.24
1061.398	-6.64
1061.82	-9.54
1062.241	-3.44
1062.663	-12.04
1063.085	-6.14
1063.506	-5.84
1063.928	-8.84
1064.35	-4.64
1064.771	-11.44
1065.193	-1.34
1065.614	-6.14
1066.035	-0.14
1066.457	-7.04
1066.878	3.46
1067.3	-8.74
1067.721	-6.84
1068.142	-5.74
1068.564	-6.54
1068.985	-5.84
1069.406	-9.84
1069.827	-3.44
1070.248	-6.14
1070.67	-6.04
1071.091	-6.64
1071.512	-3.34
1071.933	-6.44
1072.354	-4.54
1072.775	-3.54
1073.196	-7.24
1073.617	-5.34
1074.038	-3.64
1074.459	-8.24
1074.88	-9.34
1075.3	1.76
1075.721	-6.74
1076.142	-2.44
1076.563	-4.14
1076.983	-8.24
1077.404	-8.04
1077.825	-11.84
1078.246	-6.84
1078.666	-17.64
1079.087	-1.94
1079.507	-10.94
1079.928	-2.94
1080.348	-1.34
1080.769	-6.34
1081.189	-1.44
1081.61	-5.64
1082.03	-6.34
1082.451	-9.84
1082.871	0.56
1083.291	-10.14
1083.711	-10.24
1084.132	-9.34
1084.552	-6.04
1084.972	-4.44
1085.392	-12.64
1085.813	-6.54
1086.233	-7.84
1086.653	-8.14
1087.073	-9.24
1087.493	-12.44
1087.913	-6.04
1088.333	-8.04
1088.753	-7.74
1089.173	-1.14
1089.593	-7.44
1090.013	-0.04
1090.433	-2.34
1090.852	-6.74
1091.272	-2.34
1091.692	-6.14
1092.112	-9.24
1092.531	-8.34
1092.951	-15.54
1093.371	-3.24
1093.79	-1.04
1094.21	-1.94
1094.63	-7.84
1095.049	-13.74
1095.469	-6.34
1095.888	-5.24
1096.308	1.96
1096.727	0.46
1097.146	-9.04
1097.566	-3.74
1097.985	-7.44
1098.405	-5.54
1098.824	-4.74
1099.243	-5.64
1099.662	-5.14
1100.082	-6.94
1100.501	-4.94
1100.92	-8.54
1101.339	-5.34
1101.758	-6.04
