Data from 20171114-ORNL-Ar_H_NY_Subt18_08-08-32-854.txt Node
Date: Tue Nov 14 08:08:32 EST 2017
User: Ender
Spectrometer: HR+D1039
Trigger mode: 0
Integration Time (sec): 2.730000E-2
Scans to average: 10
Electric dark correction enabled: true
Nonlinearity correction enabled: false
Boxcar width: 0
XAxis mode: Wavelengths
Number of Pixels in Spectrum: 2048
>>>>>Begin Spectral Data<<<<<
187.836	1.21
188.309	1.21
188.782	1.21
189.255	-5.19
189.728	-0.39
190.201	0.91
190.674	3.61
191.147	-4.99
191.619	-2.79
192.092	2.01
192.565	7.71
193.038	-2.39
193.511	-1.09
193.984	0.21
194.456	1.41
194.929	4.61
195.402	-5.59
195.874	0.71
196.347	-0.69
196.82	-7.69
197.292	0.61
197.765	-0.09
198.237	-8.79
198.71	2.91
199.182	-3.29
199.655	7.11
200.127	2.91
200.6	-0.99
201.072	-5.19
201.544	-7.89
202.017	0.71
202.489	0.51
202.961	1.01
203.433	-9.59
203.906	-6.49
204.378	-5.39
204.85	-3.89
205.322	-7.89
205.794	-0.49
206.266	-9.29
206.739	-8.29
207.211	4.81
207.683	-6.89
208.155	-5.49
208.627	-7.49
209.099	-9.49
209.57	-6.29
210.042	-4.09
210.514	-5.89
210.986	-2.49
211.458	-12.39
211.93	-3.49
212.402	-3.39
212.873	-7.29
213.345	-7.09
213.817	-15.79
214.288	-9.79
214.76	-7.29
215.232	-6.89
215.703	-6.09
216.175	-3.99
216.646	-5.49
217.118	-8.59
217.589	-6.09
218.061	0.11
218.532	-6.89
219.004	-4.99
219.475	-3.79
219.946	-3.99
220.418	-9.29
220.889	1.61
221.36	8.11
221.832	-8.19
222.303	-4.49
222.774	0.51
223.245	-1.19
223.717	-6.39
224.188	-10.59
224.659	-7.69
225.13	-9.49
225.601	-5.49
226.072	-2.59
226.543	1.81
227.014	3.11
227.485	0.21
227.956	-6.69
228.427	-7.49
228.898	-1.09
229.369	6.01
229.839	-1.69
230.31	-9.09
230.781	-1.09
231.252	-4.49
231.722	-3.39
232.193	-6.19
232.664	-6.79
233.135	-10.09
233.605	-5.89
234.076	-4.49
234.546	-4.79
235.017	2.61
235.487	-2.09
235.958	0.91
236.428	-5.99
236.899	-2.09
237.369	-3.39
237.84	-4.69
238.31	-1.59
238.78	5.41
239.251	-6.79
239.721	-4.09
240.191	-5.69
240.662	-3.09
241.132	5.01
241.602	-6.29
242.072	-0.89
242.542	4.11
243.013	-3.59
243.483	-5.19
243.953	3.41
244.423	-3.39
244.893	-5.69
245.363	3.31
245.833	3.11
246.303	-7.19
246.773	-0.19
247.243	-4.79
247.712	2.31
248.182	0.91
248.652	6.31
249.122	-5.99
249.592	1.41
250.061	3.91
250.531	13.31
251.001	5.81
251.471	11.61
251.94	6.11
252.41	-0.69
252.879	-6.19
253.349	8.71
253.818	5.91
254.288	-2.19
254.757	3.61
255.227	-6.79
255.696	-3.89
256.166	2.31
256.635	2.11
257.105	3.71
257.574	-0.19
258.043	4.51
258.513	-1.89
258.982	3.11
259.451	2.51
259.92	3.61
260.389	2.61
260.859	14.51
261.328	5.01
261.797	2.31
262.266	2.91
262.735	10.31
263.204	0.91
263.673	-0.89
264.142	1.41
264.611	-1.79
265.08	-9.29
265.549	0.71
266.018	4.41
266.487	1.71
266.955	-3.19
267.424	-2.79
267.893	9.41
268.362	1.01
268.83	-2.79
269.299	3.71
269.768	1.51
270.236	2.81
270.705	1.01
271.174	0.31
271.642	5.61
272.111	0.41
272.579	3.11
273.048	1.71
273.516	6.31
273.985	6.61
274.453	7.51
274.922	9.51
275.39	5.71
275.858	5.71
276.327	8.21
276.795	9.01
277.263	3.61
277.731	14.91
278.2	16.41
278.668	17.21
279.136	18.51
279.604	5.01
280.072	8.91
280.54	3.71
281.008	3.51
281.477	5.41
281.945	7.21
282.413	14.81
282.881	9.31
283.348	7.61
283.816	15.31
284.284	12.51
284.752	20.71
285.22	10.11
285.688	9.81
286.156	2.31
286.623	17.61
287.091	12.41
287.559	14.51
288.026	12.41
288.494	16.81
288.962	0.31
289.429	3.91
289.897	15.71
290.364	13.41
290.832	15.11
291.3	13.51
291.767	19.61
292.234	12.91
292.702	9.71
293.169	19.31
293.637	15.11
294.104	15.51
294.571	3.01
295.039	12.21
295.506	8.21
295.973	10.31
296.44	8.01
296.908	16.21
297.375	11.21
297.842	19.51
298.309	16.41
298.776	10.71
299.243	16.51
299.71	11.31
300.177	19.51
300.644	16.31
301.111	18.51
301.578	26.11
302.045	16.31
302.512	23.01
302.979	25.51
303.446	21.11
303.913	20.71
304.379	14.81
304.846	24.81
305.313	23.71
305.78	17.91
306.246	22.01
306.713	19.31
307.18	23.71
307.646	23.61
308.113	26.11
308.579	25.41
309.046	23.31
309.512	23.51
309.979	15.21
310.445	27.81
310.912	21.71
311.378	31.91
311.845	29.51
312.311	29.11
312.777	34.21
313.244	35.31
313.71	34.61
314.176	26.31
314.642	33.71
315.109	30.01
315.575	36.31
316.041	37.81
316.507	17.51
316.973	34.01
317.439	34.11
317.905	35.71
318.371	33.71
318.837	32.61
319.303	32.81
319.769	28.31
320.235	26.01
320.701	32.61
321.167	36.41
321.633	32.71
322.099	29.81
322.564	36.01
323.03	38.11
323.496	38.61
323.962	33.61
324.427	33.51
324.893	38.21
325.359	34.31
325.824	29.71
326.29	38.41
326.755	38.91
327.221	37.01
327.686	33.51
328.152	41.01
328.617	40.91
329.083	51.11
329.548	52.31
330.014	49.21
330.479	37.31
330.944	42.21
331.41	40.91
331.875	46.91
332.34	38.51
332.805	33.91
333.271	48.41
333.736	44.51
334.201	44.11
334.666	43.11
335.131	54.41
335.596	46.71
336.061	45.41
336.526	38.91
336.991	48.81
337.456	52.51
337.921	46.91
338.386	40.31
338.851	43.01
339.316	45.21
339.781	41.71
340.246	46.31
340.711	45.21
341.175	51.71
341.64	45.51
342.105	48.61
342.569	51.11
343.034	56.01
343.499	48.51
343.963	54.21
344.428	56.41
344.893	62.01
345.357	60.21
345.822	56.41
346.286	62.61
346.751	74.31
347.215	65.51
347.679	73.21
348.144	95.01
348.608	84.01
349.073	68.51
349.537	74.01
350.001	77.91
350.465	86.81
350.93	77.91
351.394	79.61
351.858	73.01
352.322	89.81
352.786	84.41
353.25	94.11
353.715	106.51
354.179	99.01
354.643	121.31
355.107	114.61
355.571	102.51
356.035	96.61
356.498	111.81
356.962	117.41
357.426	118.71
357.89	107.61
358.354	90.21
358.818	78.31
359.281	76.11
359.745	72.91
360.209	79.01
360.673	74.21
361.136	77.41
361.6	84.61
362.064	83.91
362.527	86.31
362.991	89.11
363.454	81.21
363.918	78.91
364.381	76.91
364.845	83.31
365.308	86.11
365.772	84.81
366.235	86.01
366.698	85.81
367.162	82.71
367.625	79.21
368.088	86.61
368.552	83.71
369.015	92.71
369.478	96.81
369.941	92.81
370.404	99.91
370.867	104.51
371.331	108.91
371.794	107.31
372.257	100.71
372.72	109.51
373.183	109.71
373.646	93.81
374.109	100.31
374.572	107.41
375.035	101.71
375.497	101.61
375.96	106.21
376.423	105.61
376.886	112.61
377.349	116.51
377.811	108.41
378.274	101.91
378.737	112.01
379.199	113.81
379.662	102.31
380.125	116.81
380.587	117.91
381.05	112.21
381.512	117.91
381.975	131.71
382.437	122.61
382.9	120.31
383.362	125.11
383.825	139.21
384.287	128.21
384.75	121.31
385.212	133.81
385.674	140.41
386.136	131.31
386.599	124.41
387.061	123.61
387.523	124.71
387.985	127.81
388.447	131.01
388.91	136.61
389.372	139.41
389.834	136.01
390.296	138.51
390.758	139.51
391.22	145.01
391.682	164.61
392.144	191.51
392.606	172.51
393.068	151.81
393.529	161.71
393.991	150.81
394.453	138.31
394.915	148.51
395.377	152.71
395.838	153.61
396.3	145.01
396.762	145.11
397.224	140.41
397.685	144.11
398.147	138.81
398.608	140.01
399.07	131.71
399.531	138.81
399.993	147.71
400.454	163.31
400.916	153.51
401.377	153.11
401.839	162.91
402.3	160.11
402.762	176.11
403.223	184.81
403.684	179.21
404.145	165.91
404.607	168.61
405.068	173.61
405.529	171.61
405.99	183.41
406.451	183.41
406.913	185.01
407.374	169.71
407.835	168.41
408.296	178.11
408.757	189.31
409.218	198.81
409.679	185.61
410.14	186.41
410.601	188.01
411.062	185.51
411.522	186.91
411.983	187.61
412.444	183.91
412.905	190.01
413.366	197.51
413.826	210.51
414.287	227.71
414.748	277.61
415.208	260.21
415.669	225.91
416.13	225.01
416.59	218.21
417.051	237.31
417.511	244.21
417.972	258.51
418.432	266.11
418.893	307.81
419.353	267.01
419.814	217.11
420.274	194.01
420.734	191.11
421.195	213.61
421.655	202.91
422.115	210.01
422.576	206.41
423.036	208.61
423.496	222.91
423.956	233.51
424.416	244.51
424.876	285.61
425.336	278.21
425.797	278.31
426.257	270.81
426.717	261.41
427.177	246.01
427.637	238.01
428.097	248.71
428.556	261.51
429.016	283.41
429.476	270.41
429.936	284.51
430.396	291.61
430.856	305.01
431.315	319.51
431.775	371.31
432.235	393.81
432.694	366.81
433.154	380.31
433.614	411.41
434.073	361.41
434.533	303.21
434.993	278.61
435.452	297.71
435.912	303.11
436.371	297.51
436.83	302.91
437.29	278.81
437.749	267.21
438.209	265.21
438.668	295.91
439.127	299.11
439.587	278.01
440.046	260.71
440.505	277.71
440.964	287.61
441.424	338.41
441.883	337.71
442.342	278.91
442.801	242.71
443.26	242.71
443.719	239.61
444.178	237.01
444.637	227.71
445.096	237.31
445.555	243.11
446.014	243.21
446.473	250.01
446.932	252.71
447.391	241.11
447.849	250.01
448.308	235.71
448.767	236.91
449.226	258.91
449.685	256.71
450.143	268.21
450.602	260.41
451.061	249.51
451.519	247.01
451.978	255.91
452.436	245.51
452.895	256.11
453.353	274.81
453.812	262.11
454.27	260.71
454.729	256.01
455.187	261.81
455.646	267.91
456.104	272.71
456.562	282.31
457.021	287.51
457.479	272.81
457.937	291.91
458.395	284.61
458.854	269.11
459.312	276.01
459.77	294.31
460.228	278.61
460.686	259.81
461.144	267.01
461.602	262.51
462.06	266.91
462.518	277.81
462.976	283.31
463.434	281.11
463.892	273.31
464.35	290.31
464.808	302.91
465.266	287.11
465.724	291.61
466.181	291.11
466.639	288.51
467.097	310.71
467.555	319.11
468.012	320.31
468.47	331.71
468.928	353.31
469.385	364.31
469.843	364.41
470.3	370.61
470.758	393.81
471.215	410.31
471.673	439.91
472.13	436.41
472.588	446.51
473.045	399.71
473.503	410.91
473.96	422.11
474.417	421.51
474.875	456.71
475.332	506.71
475.789	501.41
476.246	490.81
476.704	519.11
477.161	534.71
477.618	554.81
478.075	599.31
478.532	645.21
478.989	712.11
479.446	826.41
479.903	798.41
480.36	824.41
480.817	875.91
481.274	968.51
481.731	1071.21
482.188	1142.91
482.645	1259.31
483.102	1363.21
483.558	1483.21
484.015	1534.11
484.472	1508.91
484.929	1463.61
485.385	1423.31
485.842	1383.91
486.299	1328.91
486.755	1301.51
487.212	1108.41
487.668	950.71
488.125	862.41
488.582	795.61
489.038	766.51
489.494	732.71
489.951	711.41
490.407	696.81
490.864	670.71
491.32	668.31
491.776	674.91
492.233	666.21
492.689	648.81
493.145	633.71
493.602	628.91
494.058	645.91
494.514	646.21
494.97	674.61
495.426	684.51
495.882	660.91
496.338	639.91
496.794	652.51
497.251	642.51
497.707	658.61
498.163	662.11
498.618	667.71
499.074	673.01
499.53	698.91
499.986	704.71
500.442	669.81
500.898	651.61
501.354	642.11
501.809	654.31
502.265	654.81
502.721	662.81
503.177	675.11
503.632	683.81
504.088	679.61
504.543	706.31
504.999	729.91
505.455	688.71
505.91	669.11
506.366	679.01
506.821	667.81
507.277	668.11
507.732	666.91
508.187	665.91
508.643	677.01
509.098	678.51
509.553	691.51
510.009	705.51
510.464	713.21
510.919	723.71
511.375	737.21
511.83	748.61
512.285	755.11
512.74	806.21
513.195	816.81
513.65	798.71
514.105	798.51
514.56	814.51
515.015	826.81
515.47	841.41
515.925	810.31
516.38	814.41
516.835	822.91
517.29	820.11
517.745	811.01
518.2	797.91
518.655	785.61
519.109	772.81
519.564	784.81
520.019	767.51
520.474	756.41
520.928	758.61
521.383	748.71
521.838	743.41
522.292	752.41
522.747	746.61
523.201	741.81
523.656	742.01
524.11	727.51
524.565	729.91
525.019	712.91
525.474	739.61
525.928	736.61
526.382	737.01
526.837	740.41
527.291	738.71
527.745	729.41
528.2	732.11
528.654	719.21
529.108	727.51
529.562	729.51
530.016	724.21
530.47	725.51
530.925	729.51
531.379	727.51
531.833	742.01
532.287	732.51
532.741	732.91
533.195	736.01
533.649	743.11
534.103	746.11
534.556	737.81
535.01	735.51
535.464	730.91
535.918	748.61
536.372	747.51
536.826	753.61
537.279	740.51
537.733	749.31
538.187	745.61
538.64	732.41
539.094	755.31
539.548	760.01
540.001	752.01
540.455	768.01
540.908	773.81
541.362	780.41
541.815	775.21
542.269	796.51
542.722	795.51
543.175	806.51
543.629	808.71
544.082	814.81
544.536	816.31
544.989	823.31
545.442	834.21
545.895	845.61
546.349	834.01
546.802	836.11
547.255	844.01
547.708	853.81
548.161	854.01
548.614	867.21
549.067	878.41
549.52	868.51
549.973	846.91
550.426	862.71
550.879	851.11
551.332	835.71
551.785	848.91
552.238	855.91
552.691	861.51
553.144	887.61
553.596	888.31
554.049	905.11
554.502	936.81
554.955	962.21
555.407	953.11
555.86	946.01
556.313	941.81
556.765	922.31
557.218	925.41
557.67	926.91
558.123	924.41
558.576	915.81
559.028	920.91
559.48	926.61
559.933	917.11
560.385	883.11
560.838	855.31
561.29	829.91
561.742	824.81
562.195	811.81
562.647	811.21
563.099	815.41
563.551	810.01
564.004	831.31
564.456	808.11
564.908	804.31
565.36	770.71
565.812	766.91
566.264	760.71
566.716	752.31
567.168	739.21
567.62	753.41
568.072	731.51
568.524	724.11
568.976	721.41
569.428	710.31
569.88	718.61
570.332	727.01
570.784	725.41
571.235	727.91
571.687	733.61
572.139	736.61
572.59	746.41
573.042	754.61
573.494	745.91
573.945	736.41
574.397	724.21
574.849	727.01
575.3	727.81
575.752	709.91
576.203	718.31
576.655	718.81
577.106	710.51
577.557	697.91
578.009	697.31
578.46	701.71
578.912	696.01
579.363	697.91
579.814	696.61
580.265	690.11
580.717	706.41
581.168	709.01
581.619	718.11
582.07	711.11
582.521	704.21
582.972	705.91
583.423	706.11
583.875	706.31
584.326	728.41
584.777	745.71
585.227	768.21
585.678	800.61
586.129	829.61
586.58	863.71
587.031	893.41
587.482	939.71
587.933	1009.41
588.384	949.21
588.834	851.81
589.285	817.91
589.736	817.01
590.186	815.81
590.637	807.81
591.088	795.21
591.538	773.11
591.989	761.11
592.439	755.01
592.89	749.91
593.34	734.51
593.791	740.71
594.241	735.21
594.692	726.71
595.142	725.11
595.593	725.11
596.043	733.91
596.493	736.11
596.943	750.21
597.394	762.71
597.844	759.21
598.294	764.91
598.744	806.91
599.195	814.61
599.645	872.71
600.095	909.41
600.545	963.31
600.995	1014.51
601.445	1073.71
601.895	1146.61
602.345	1186.21
602.795	1159.91
603.245	1131.81
603.695	1064.71
604.145	1003.31
604.594	959.11
605.044	902.81
605.494	847.71
605.944	790.81
606.393	789.31
606.843	773.71
607.293	770.11
607.743	770.01
608.192	780.71
608.642	783.71
609.091	794.31
609.541	810.01
609.99	786.91
610.44	803.21
610.889	750.61
611.339	724.91
611.788	717.61
612.238	731.41
612.687	731.41
613.136	737.81
613.586	740.21
614.035	738.61
614.484	747.71
614.933	752.51
615.383	743.21
615.832	745.61
616.281	734.71
616.73	700.91
617.179	686.61
617.628	680.41
618.077	666.91
618.526	653.71
618.975	653.61
619.424	633.21
619.873	640.81
620.322	645.81
620.771	633.31
621.22	630.91
621.669	625.71
622.118	622.61
622.567	603.91
623.015	600.91
623.464	595.91
623.913	595.11
624.361	581.71
624.81	580.31
625.259	581.11
625.707	594.91
626.156	589.81
626.604	591.11
627.053	595.31
627.501	592.81
627.95	592.51
628.398	610.21
628.847	589.51
629.295	599.41
629.744	593.01
630.192	591.61
630.64	578.21
631.089	575.61
631.537	577.51
631.985	561.51
632.433	572.71
632.881	564.81
633.33	586.01
633.778	572.61
634.226	567.81
634.674	559.41
635.122	566.81
635.57	579.41
636.018	597.91
636.466	590.21
636.914	586.91
637.362	598.21
637.81	606.81
638.258	608.11
638.705	605.01
639.153	643.71
639.601	647.81
640.049	675.31
640.497	689.31
640.944	722.01
641.392	676.81
641.84	635.11
642.287	616.61
642.735	583.91
643.182	592.31
643.63	602.31
644.078	598.81
644.525	600.81
644.973	607.31
645.42	625.71
645.867	638.31
646.315	662.11
646.762	683.71
647.21	713.71
647.657	736.61
648.104	777.01
648.551	789.81
648.999	861.91
649.446	923.21
649.893	1018.11
650.34	1166.51
650.787	1394.31
651.234	1705.91
651.682	2220.51
652.129	3016.31
652.576	4271.51
653.023	6250.41
653.47	8427.01
653.917	10428.61
654.363	11956.61
654.81	13091.21
655.257	12396.31
655.704	8222.11
656.151	4979.61
656.598	3245.41
657.044	2336.81
657.491	1806.41
657.938	1466.91
658.385	1233.31
658.831	1082.21
659.278	959.11
659.724	865.81
660.171	800.71
660.618	730.11
661.064	700.51
661.511	682.51
661.957	669.11
662.404	667.01
662.85	665.41
663.296	646.91
663.743	586.01
664.189	562.81
664.635	554.81
665.082	551.71
665.528	553.51
665.974	540.51
666.42	528.31
666.867	531.31
667.313	507.21
667.759	490.31
668.205	479.81
668.651	474.21
669.097	470.01
669.543	466.41
669.989	469.81
670.435	463.31
670.881	464.41
671.327	468.41
671.773	494.81
672.219	516.61
672.665	574.41
673.11	625.11
673.556	669.01
674.002	699.81
674.448	688.31
674.893	584.91
675.339	504.01
675.785	455.81
676.23	433.51
676.676	413.01
677.122	404.51
677.567	398.11
678.013	389.61
678.458	387.91
678.904	379.51
679.349	372.41
679.794	373.31
680.24	373.91
680.685	373.21
681.131	367.01
681.576	370.31
682.021	372.51
682.466	367.31
682.912	370.31
683.357	373.81
683.802	399.31
684.247	434.51
684.692	487.91
685.137	515.21
685.583	573.21
686.028	583.81
686.473	538.91
686.918	464.41
687.363	444.61
687.807	418.21
688.252	390.31
688.697	374.01
689.142	359.21
689.587	352.51
690.032	350.61
690.477	359.31
690.921	374.21
691.366	403.01
691.811	426.41
692.255	447.51
692.7	484.91
693.145	533.41
693.589	754.11
694.034	1227.81
694.478	1653.41
694.923	1841.71
695.367	2374.31
695.812	1275.11
696.256	535.91
696.701	394.41
697.145	360.81
697.59	344.71
698.034	346.61
698.478	347.21
698.922	341.01
699.367	340.51
699.811	352.11
700.255	365.71
700.699	398.21
701.143	447.91
701.588	504.91
702.032	549.81
702.476	542.71
702.92	516.71
703.364	524.61
703.808	697.81
704.252	1129.81
704.696	1570.21
705.14	1772.61
705.584	2231.61
706.027	1130.81
706.471	552.01
706.915	424.41
707.359	375.01
707.803	339.61
708.246	330.01
708.69	331.01
709.134	335.31
709.577	326.11
710.021	331.11
710.465	326.31
710.908	317.31
711.352	322.01
711.795	338.41
712.239	369.61
712.682	412.31
713.126	440.61
713.569	474.31
714.012	381.31
714.456	323.71
714.899	307.11
715.342	293.31
715.786	280.41
716.229	271.61
716.672	262.41
717.115	260.61
717.558	261.31
718.002	267.01
718.445	282.61
718.888	296.01
719.331	312.31
719.774	334.31
720.217	319.91
720.66	302.31
721.103	288.11
721.546	269.41
721.989	264.91
722.432	244.81
722.874	244.31
723.317	244.21
723.76	249.21
724.203	275.81
724.645	330.91
725.088	478.01
725.531	608.41
725.974	677.81
726.416	570.81
726.859	323.11
727.301	251.41
727.744	250.71
728.187	248.61
728.629	255.61
729.071	269.81
729.514	268.31
729.956	288.71
730.399	297.41
730.841	299.51
731.283	285.81
731.726	292.21
732.168	280.41
732.61	282.51
733.053	306.01
733.495	344.51
733.937	376.31
734.379	422.61
734.821	470.01
735.263	580.91
735.705	910.31
736.148	1736.91
736.59	2781.71
737.032	3189.31
737.474	2635.91
737.916	877.21
738.357	463.31
738.799	350.81
739.241	319.21
739.683	298.81
740.125	319.21
740.567	324.71
741.008	341.81
741.45	330.91
741.892	339.51
742.334	378.21
742.775	392.21
743.217	369.41
743.658	290.21
744.1	269.11
744.542	282.01
744.983	341.31
745.425	373.21
745.866	365.61
746.307	298.71
746.749	304.31
747.19	349.11
747.632	499.41
748.073	984.71
748.514	2050.41
748.956	3047.21
749.397	3857.61
749.838	3176.21
750.279	3109.41
750.72	1590.81
751.162	586.31
751.603	348.61
752.044	269.71
752.485	226.81
752.926	224.01
753.367	219.91
753.808	208.81
754.249	200.81
754.69	195.71
755.131	197.31
755.572	191.91
756.013	185.91
756.453	194.71
756.894	198.81
757.335	199.91
757.776	213.11
758.216	209.11
758.657	212.21
759.098	212.21
759.538	244.01
759.979	282.71
760.42	401.41
760.86	799.91
761.301	2058.31
761.741	4851.31
762.182	6742.01
762.622	4771.61
763.063	1412.21
763.503	575.41
763.943	352.11
764.384	305.11
764.824	296.51
765.264	284.41
765.705	242.91
766.145	200.71
766.585	185.51
767.025	184.21
767.465	173.01
767.906	197.61
768.346	235.51
768.786	242.51
769.226	236.21
769.666	337.71
770.106	684.01
770.546	1714.51
770.986	2793.61
771.426	2461.61
771.866	833.31
772.306	345.81
772.745	215.91
773.185	175.91
773.625	173.71
774.065	161.71
774.505	179.01
774.944	238.51
775.384	439.61
775.824	717.21
776.263	681.51
776.703	326.31
777.142	175.81
777.582	143.61
778.021	136.91
778.461	137.51
778.9	134.81
779.34	132.11
779.779	116.61
780.219	117.31
780.658	107.81
781.097	118.91
781.537	118.11
781.976	113.61
782.415	105.81
782.855	102.91
783.294	109.21
783.733	107.81
784.172	108.01
784.611	108.71
785.05	112.51
785.489	118.21
785.928	128.11
786.367	127.61
786.806	126.21
787.245	142.61
787.684	140.41
788.123	159.71
788.562	146.41
789.001	129.81
789.44	131.21
789.879	122.71
790.317	124.01
790.756	132.41
791.195	136.11
791.634	163.01
792.072	225.21
792.511	412.41
792.95	1118.61
793.388	2255.31
793.827	1986.31
794.265	708.51
794.704	298.41
795.142	197.51
795.581	158.81
796.019	143.61
796.458	139.91
796.896	133.81
797.334	138.91
797.773	167.61
798.211	237.01
798.649	488.31
799.087	1106.21
799.526	1712.91
799.964	2161.01
800.402	2090.61
800.84	799.11
801.278	321.11
801.716	200.71
802.154	165.01
802.592	150.11
803.03	145.71
803.468	146.71
803.906	155.81
804.344	157.21
804.782	150.11
805.22	135.11
805.658	140.21
806.096	155.51
806.533	162.61
806.971	185.61
807.409	233.21
807.847	354.31
808.284	744.11
808.722	2067.51
809.16	3480.71
809.597	3406.41
810.035	5850.71
810.472	6007.31
810.91	2219.11
811.347	863.41
811.785	438.31
812.222	272.31
812.66	214.61
813.097	173.71
813.535	146.01
813.972	138.51
814.409	126.61
814.846	116.21
815.284	119.21
815.721	104.81
816.158	109.81
816.595	115.51
817.032	168.21
817.47	196.81
817.907	135.61
818.344	109.41
818.781	106.01
819.218	105.01
819.655	133.81
820.092	201.91
820.529	220.71
820.966	185.21
821.403	136.81
821.839	103.71
822.276	104.51
822.713	134.71
823.15	142.91
823.587	119.11
824.023	166.91
824.46	332.81
824.897	979.01
825.333	1410.11
825.77	610.31
826.206	246.81
826.643	147.11
827.08	102.51
827.516	88.41
827.953	80.11
828.389	79.21
828.825	79.61
829.262	67.71
829.698	63.81
830.135	71.21
830.571	62.31
831.007	67.71
831.443	71.41
831.88	68.31
832.316	68.81
832.752	68.11
833.188	65.81
833.624	69.01
834.06	72.11
834.497	74.01
834.933	75.41
835.369	85.81
835.805	69.71
836.241	82.11
836.677	83.41
837.112	102.41
837.548	114.01
837.984	151.31
838.42	222.61
838.856	560.31
839.292	1638.11
839.727	2424.11
840.163	1136.81
840.599	1021.81
841.034	2197.91
841.47	2213.61
841.906	815.61
842.341	348.21
842.777	228.01
843.212	232.41
843.648	209.31
844.083	114.61
844.519	96.31
844.954	72.91
845.39	57.61
845.825	56.11
846.261	56.11
846.696	54.11
847.131	58.31
847.566	61.91
848.002	54.31
848.437	57.41
848.872	62.51
849.307	68.41
849.742	90.51
850.177	201.01
850.613	604.61
851.048	907.01
851.483	406.41
851.918	159.71
852.353	96.91
852.788	60.51
853.223	53.91
853.657	53.71
854.092	52.31
854.527	41.21
854.962	42.31
855.397	49.21
855.832	53.11
856.266	48.21
856.701	47.41
857.136	36.91
857.57	40.31
858.005	55.51
858.44	61.31
858.874	53.21
859.309	56.41
859.743	43.81
860.178	48.91
860.612	51.81
861.047	55.81
861.481	77.41
861.915	80.81
862.35	54.31
862.784	36.71
863.218	42.81
863.653	35.81
864.087	46.41
864.521	56.11
864.955	72.11
865.39	167.41
865.824	185.51
866.258	118.41
866.692	181.01
867.126	188.41
867.56	115.51
867.994	65.31
868.428	43.21
868.862	52.71
869.296	57.51
869.73	64.11
870.164	56.91
870.598	49.11
871.031	39.71
871.465	34.91
871.899	30.81
872.333	23.71
872.766	21.81
873.2	29.11
873.634	33.11
874.067	24.11
874.501	23.41
874.935	32.81
875.368	33.61
875.802	32.91
876.235	24.91
876.669	28.71
877.102	23.91
877.535	31.21
877.969	22.81
878.402	28.01
878.836	26.01
879.269	23.81
879.702	25.01
880.135	17.91
880.569	23.91
881.002	24.91
881.435	25.01
881.868	20.71
882.301	24.01
882.734	18.01
883.167	30.01
883.601	20.41
884.034	26.11
884.467	16.31
884.899	22.71
885.332	15.81
885.765	19.91
886.198	9.91
886.631	17.81
887.064	22.61
887.497	20.21
887.929	27.01
888.362	15.81
888.795	16.81
889.228	19.71
889.66	20.81
890.093	13.41
890.526	15.71
890.958	20.81
891.391	20.11
891.823	23.81
892.256	21.91
892.688	14.51
893.121	20.11
893.553	16.01
893.985	26.41
894.418	14.71
894.85	14.61
895.282	15.61
895.715	13.61
896.147	21.51
896.579	16.01
897.011	19.91
897.444	17.21
897.876	18.51
898.308	17.81
898.74	18.01
899.172	11.91
899.604	27.11
900.036	21.11
900.468	15.41
900.9	12.21
901.332	16.81
901.764	18.61
902.196	18.41
902.628	16.81
903.06	16.91
903.491	28.91
903.923	27.41
904.355	26.81
904.787	24.11
905.218	25.41
905.65	22.31
906.082	15.61
906.513	16.81
906.945	15.61
907.376	14.21
907.808	16.21
908.239	20.31
908.671	25.21
909.102	23.81
909.534	29.11
909.965	53.81
910.397	99.61
910.828	336.11
911.259	489.81
911.691	227.01
912.122	113.61
912.553	49.81
912.984	31.51
913.415	26.11
913.847	26.31
914.278	13.91
914.709	16.21
915.14	16.51
915.571	19.01
916.002	15.81
916.433	19.51
916.864	20.41
917.295	16.51
917.726	23.01
918.157	19.91
918.587	27.31
919.018	19.41
919.449	23.81
919.88	25.81
920.311	39.51
920.741	48.31
921.172	180.91
921.603	156.51
922.033	73.31
922.464	47.51
922.895	25.71
923.325	21.31
923.756	11.31
924.186	11.51
924.617	16.01
925.047	24.01
925.478	29.21
925.908	24.31
926.338	17.01
926.769	12.71
927.199	22.11
927.629	6.31
928.06	20.01
928.49	18.91
928.92	16.21
929.35	10.01
929.78	13.71
930.21	6.21
930.641	5.21
931.071	8.21
931.501	2.91
931.931	15.81
932.361	6.51
932.791	2.61
933.221	4.31
933.651	7.21
934.08	18.21
934.51	33.61
934.94	11.21
935.37	10.81
935.8	17.31
936.229	11.51
936.659	12.91
937.089	10.71
937.519	17.11
937.948	28.91
938.378	17.01
938.807	10.51
939.237	3.11
939.666	7.11
940.096	-4.39
940.525	3.31
940.955	-3.29
941.384	4.31
941.814	-1.19
942.243	0.71
942.672	3.01
943.102	-1.79
943.531	-5.69
943.96	1.91
944.39	4.61
944.819	-1.59
945.248	4.01
945.677	6.01
946.106	7.81
946.535	3.21
946.964	0.61
947.393	7.41
947.822	1.61
948.251	-0.89
948.68	5.01
949.109	5.11
949.538	7.51
949.967	6.91
950.396	1.51
950.825	2.31
951.254	-3.39
951.682	-5.99
952.111	4.41
952.54	6.91
952.969	-2.49
953.397	-5.69
953.826	5.21
954.254	-5.89
954.683	-4.19
955.112	-6.19
955.54	-3.99
955.969	0.41
956.397	8.91
956.826	4.11
957.254	5.81
957.682	2.01
958.111	6.41
958.539	-0.09
958.967	2.91
959.396	-0.69
959.824	2.01
960.252	-0.39
960.68	-5.09
961.109	-0.19
961.537	-3.79
961.965	3.21
962.393	0.41
962.821	-1.49
963.249	2.51
963.677	1.31
964.105	9.31
964.533	46.31
964.961	41.41
965.389	23.51
965.817	8.21
966.245	1.01
966.672	-0.59
967.1	-9.79
967.528	-1.09
967.956	-5.39
968.383	-2.39
968.811	-4.29
969.239	-4.19
969.666	-2.59
970.094	1.01
970.522	-2.59
970.949	3.81
971.377	-6.19
971.804	-2.49
972.232	-1.19
972.659	-2.99
973.087	-0.49
973.514	-6.09
973.941	-1.09
974.369	2.61
974.796	0.71
975.223	-3.39
975.651	-7.39
976.078	-1.99
976.505	-1.69
976.932	4.21
977.359	15.21
977.786	14.71
978.214	-2.09
978.641	-5.59
979.068	-3.79
979.495	-3.09
979.922	-1.99
980.349	-5.49
980.776	4.31
981.202	-6.99
981.629	3.31
982.056	9.31
982.483	-0.99
982.91	-0.99
983.337	-7.39
983.763	4.71
984.19	-2.29
984.617	-5.39
985.043	-4.19
985.47	-5.59
985.897	-7.99
986.323	-11.49
986.75	3.01
987.176	-4.79
987.603	2.71
988.029	-1.09
988.456	-1.69
988.882	-4.29
989.308	-7.09
989.735	-10.59
990.161	1.91
990.587	-2.29
991.014	0.61
991.44	6.11
991.866	-0.49
992.292	-9.59
992.719	-2.19
993.145	2.11
993.571	-7.89
993.997	-3.49
994.423	1.11
994.849	-5.89
995.275	-1.69
995.701	-3.19
996.127	-4.09
996.553	-0.39
996.979	-2.89
997.405	-1.79
997.83	-5.39
998.256	-11.39
998.682	-7.59
999.108	-10.79
999.534	-1.19
999.959	-0.99
1000.385	-4.79
1000.811	0.61
1001.236	-10.19
1001.662	-11.99
1002.087	-8.39
1002.513	-1.19
1002.938	3.91
1003.364	-2.89
1003.789	-3.49
1004.215	0.31
1004.64	-4.39
1005.066	3.81
1005.491	-3.19
1005.916	-2.49
1006.342	-2.69
1006.767	-11.69
1007.192	1.11
1007.617	-2.49
1008.042	-3.99
1008.468	-3.49
1008.893	-0.89
1009.318	-2.19
1009.743	3.51
1010.168	1.21
1010.593	1.81
1011.018	-7.29
1011.443	0.41
1011.868	-0.89
1012.293	-1.29
1012.718	-6.69
1013.143	3.11
1013.567	0.61
1013.992	-9.19
1014.417	-12.79
1014.842	-8.59
1015.267	-7.69
1015.691	-10.59
1016.116	7.01
1016.541	-1.49
1016.965	1.21
1017.39	4.21
1017.814	3.41
1018.239	7.01
1018.663	-10.59
1019.088	-17.09
1019.512	-4.59
1019.937	3.11
1020.361	-5.49
1020.785	-11.69
1021.21	-0.89
1021.634	-3.09
1022.058	-1.29
1022.483	-1.79
1022.907	-1.49
1023.331	-3.69
1023.755	-4.39
1024.179	-1.09
1024.604	-6.39
1025.028	-3.39
1025.452	-4.29
1025.876	-2.69
1026.3	-0.69
1026.724	-10.99
1027.148	-3.29
1027.572	-15.29
1027.996	-0.69
1028.42	-3.39
1028.843	-10.39
1029.267	-10.19
1029.691	2.01
1030.115	-6.09
1030.539	-4.79
1030.962	-11.29
1031.386	-10.89
1031.81	-1.59
1032.233	-1.69
1032.657	-5.99
1033.08	-0.49
1033.504	-5.29
1033.927	1.41
1034.351	-2.89
1034.774	-5.09
1035.198	-2.89
1035.621	-5.59
1036.045	-4.49
1036.468	3.31
1036.891	-9.29
1037.315	-8.09
1037.738	-6.79
1038.161	2.01
1038.584	-4.09
1039.008	-0.19
1039.431	-5.19
1039.854	0.21
1040.277	-6.99
1040.7	-10.09
1041.123	3.91
1041.546	-7.99
1041.969	-9.19
1042.392	-9.89
1042.815	-0.89
1043.238	1.71
1043.661	2.31
1044.084	-6.49
1044.507	-6.79
1044.93	-5.59
1045.352	-7.59
1045.775	-0.39
1046.198	0.71
1046.621	-0.79
1047.043	2.11
1047.466	8.81
1047.889	-5.09
1048.311	-6.09
1048.734	-0.79
1049.156	-6.99
1049.579	-3.99
1050.001	-0.69
1050.424	1.91
1050.846	-6.79
1051.269	-5.99
1051.691	-3.79
1052.113	-3.99
1052.536	-0.79
1052.958	-4.59
1053.38	-6.39
1053.802	-10.19
1054.225	3.31
1054.647	-13.59
1055.069	-10.49
1055.491	2.21
1055.913	-6.69
1056.335	-5.09
1056.757	-4.29
1057.179	-4.09
1057.601	-7.89
1058.023	-5.39
1058.445	-9.09
1058.867	-6.29
1059.289	-6.79
1059.711	-7.99
1060.133	-0.39
1060.555	-9.49
1060.976	-8.39
1061.398	-8.59
1061.82	-6.89
1062.241	-9.39
1062.663	-9.09
1063.085	-2.89
1063.506	0.61
1063.928	-6.29
1064.35	-4.89
1064.771	-5.29
1065.193	-2.49
1065.614	-11.59
1066.035	-5.79
1066.457	-4.79
1066.878	1.21
1067.3	-8.39
1067.721	-3.59
1068.142	-7.59
1068.564	-4.59
1068.985	-2.99
1069.406	-9.19
1069.827	-4.09
1070.248	-3.09
1070.67	-9.09
1071.091	-2.39
1071.512	-5.69
1071.933	-7.59
1072.354	-5.19
1072.775	-10.49
1073.196	-5.39
1073.617	-9.89
1074.038	-3.39
1074.459	-3.99
1074.88	-8.19
1075.3	-3.69
1075.721	-3.69
1076.142	1.31
1076.563	-8.69
1076.983	-9.19
1077.404	-5.59
1077.825	-10.09
1078.246	-2.99
1078.666	-9.69
1079.087	-6.19
1079.507	-8.59
1079.928	0.11
1080.348	-9.39
1080.769	-7.99
1081.189	-5.69
1081.61	-6.29
1082.03	-7.39
1082.451	-6.29
1082.871	-5.39
1083.291	-10.09
1083.711	-6.79
1084.132	-6.09
1084.552	-3.69
1084.972	-6.79
1085.392	-10.29
1085.813	-10.39
1086.233	-8.69
1086.653	-6.79
1087.073	-9.89
1087.493	-5.79
1087.913	-4.19
1088.333	-6.89
1088.753	-1.79
1089.173	2.01
1089.593	3.11
1090.013	1.91
1090.433	0.01
1090.852	-5.09
1091.272	2.01
1091.692	-2.09
1092.112	-1.99
1092.531	-11.29
1092.951	-16.29
1093.371	-2.59
1093.79	-0.59
1094.21	-4.79
1094.63	-10.39
1095.049	-3.89
1095.469	0.81
1095.888	-2.39
1096.308	-0.29
1096.727	2.31
1097.146	-4.39
1097.566	1.61
1097.985	-9.59
1098.405	-0.19
1098.824	-5.99
1099.243	-14.19
1099.662	-9.29
1100.082	-9.39
1100.501	0.41
1100.92	-10.89
1101.339	-2.89
1101.758	-7.99
