Data from 20171114-ORNL-Ar_H_NY_Subt18_08-05-38-969.txt Node
Date: Tue Nov 14 08:05:38 EST 2017
User: Ender
Spectrometer: HR+D1039
Trigger mode: 0
Integration Time (sec): 2.730000E-2
Scans to average: 10
Electric dark correction enabled: true
Nonlinearity correction enabled: false
Boxcar width: 0
XAxis mode: Wavelengths
Number of Pixels in Spectrum: 2048
>>>>>Begin Spectral Data<<<<<
187.836	-0.52
188.309	-0.52
188.782	-0.52
189.255	1.78
189.728	-2.72
190.201	9.38
190.674	-1.22
191.147	0.98
191.619	-11.12
192.092	-1.22
192.565	4.98
193.038	2.18
193.511	3.48
193.984	-5.72
194.456	-4.62
194.929	2.18
195.402	-0.02
195.874	2.18
196.347	-5.12
196.82	-8.42
197.292	0.48
197.765	-2.52
198.237	-5.42
198.71	1.78
199.182	-2.72
199.655	-0.52
200.127	-1.32
200.6	-7.52
201.072	-4.52
201.544	-8.32
202.017	-5.52
202.489	2.18
202.961	-7.52
203.433	-6.42
203.906	-9.52
204.378	-5.72
204.85	-4.42
205.322	-8.42
205.794	-4.72
206.266	-3.32
206.739	-9.22
207.211	6.18
207.683	-5.32
208.155	-8.12
208.627	-8.72
209.099	-6.62
209.57	-10.12
210.042	-5.82
210.514	-5.62
210.986	0.68
211.458	-7.42
211.93	-3.42
212.402	3.68
212.873	-4.22
213.345	-9.42
213.817	-6.82
214.288	-0.82
214.76	-11.82
215.232	-2.62
215.703	0.68
216.175	-3.22
216.646	-4.22
217.118	-9.72
217.589	-4.32
218.061	-6.32
218.532	-9.42
219.004	0.78
219.475	-5.12
219.946	-4.02
220.418	-5.42
220.889	4.48
221.36	9.98
221.832	-1.22
222.303	-8.32
222.774	-2.62
223.245	-7.62
223.717	-4.22
224.188	-2.32
224.659	-9.82
225.13	-2.02
225.601	-4.02
226.072	-4.12
226.543	-4.22
227.014	-2.22
227.485	0.38
227.956	-9.52
228.427	-2.92
228.898	-4.62
229.369	4.28
229.839	-3.82
230.31	-6.82
230.781	-0.12
231.252	-2.92
231.722	-8.02
232.193	-2.52
232.664	-5.72
233.135	4.88
233.605	2.48
234.076	-8.22
234.546	1.98
235.017	-1.12
235.487	-3.12
235.958	4.78
236.428	-6.92
236.899	2.58
237.369	3.08
237.84	-0.52
238.31	3.68
238.78	1.88
239.251	2.08
239.721	4.88
240.191	2.28
240.662	-3.62
241.132	0.98
241.602	-5.92
242.072	-0.52
242.542	4.78
243.013	-4.02
243.483	7.68
243.953	6.38
244.423	4.38
244.893	-4.22
245.363	6.08
245.833	1.08
246.303	0.78
246.773	7.18
247.243	1.18
247.712	3.18
248.182	5.78
248.652	3.18
249.122	-2.72
249.592	7.58
250.061	23.68
250.531	34.68
251.001	13.88
251.471	24.88
251.94	14.48
252.41	4.28
252.879	0.38
253.349	15.18
253.818	9.88
254.288	3.08
254.757	6.78
255.227	1.18
255.696	8.28
256.166	3.48
256.635	4.98
257.105	9.58
257.574	4.98
258.043	10.78
258.513	14.28
258.982	20.08
259.451	7.78
259.92	12.78
260.389	8.88
260.859	14.48
261.328	12.48
261.797	17.18
262.266	4.08
262.735	5.38
263.204	-1.62
263.673	1.18
264.142	7.68
264.611	1.08
265.08	4.88
265.549	0.88
266.018	8.08
266.487	-9.02
266.955	1.38
267.424	3.58
267.893	6.18
268.362	2.08
268.83	0.28
269.299	7.68
269.768	5.88
270.236	4.68
270.705	0.48
271.174	13.38
271.642	8.68
272.111	6.08
272.579	19.18
273.048	23.88
273.516	36.68
273.985	25.28
274.453	25.58
274.922	17.88
275.39	8.68
275.858	4.38
276.327	13.28
276.795	19.68
277.263	4.38
277.731	32.58
278.2	52.68
278.668	59.48
279.136	51.08
279.604	18.48
280.072	18.38
280.54	9.48
281.008	13.18
281.477	19.98
281.945	11.48
282.413	14.58
282.881	16.38
283.348	7.18
283.816	16.48
284.284	17.18
284.752	15.68
285.22	15.68
285.688	14.48
286.156	26.38
286.623	48.38
287.091	54.98
287.559	28.48
288.026	20.98
288.494	18.28
288.962	6.08
289.429	6.78
289.897	10.08
290.364	16.28
290.832	18.08
291.3	9.68
291.767	19.28
292.234	26.68
292.702	15.68
293.169	22.88
293.637	24.28
294.104	18.88
294.571	12.28
295.039	11.28
295.506	14.88
295.973	19.18
296.44	15.08
296.908	19.18
297.375	16.98
297.842	22.18
298.309	13.18
298.776	18.58
299.243	20.78
299.71	17.28
300.177	19.48
300.644	23.28
301.111	17.78
301.578	23.18
302.045	16.58
302.512	23.38
302.979	24.58
303.446	26.88
303.913	18.68
304.379	22.28
304.846	30.58
305.313	31.38
305.78	18.78
306.246	21.18
306.713	22.48
307.18	26.58
307.646	28.48
308.113	30.28
308.579	25.58
309.046	26.28
309.512	27.18
309.979	20.88
310.445	33.58
310.912	28.38
311.378	33.08
311.845	27.98
312.311	32.28
312.777	36.18
313.244	36.98
313.71	39.68
314.176	26.98
314.642	33.88
315.109	38.18
315.575	39.18
316.041	38.88
316.507	31.68
316.973	32.88
317.439	34.78
317.905	40.18
318.371	34.58
318.837	39.68
319.303	32.28
319.769	30.98
320.235	36.38
320.701	35.68
321.167	40.58
321.633	36.48
322.099	42.58
322.564	47.68
323.03	38.08
323.496	43.18
323.962	48.28
324.427	36.68
324.893	47.28
325.359	40.98
325.824	40.58
326.29	37.28
326.755	41.18
327.221	40.98
327.686	39.88
328.152	45.58
328.617	42.98
329.083	46.58
329.548	52.18
330.014	48.48
330.479	41.18
330.944	41.38
331.41	45.68
331.875	47.18
332.34	48.58
332.805	42.38
333.271	50.38
333.736	44.78
334.201	53.38
334.666	54.18
335.131	60.98
335.596	52.18
336.061	53.38
336.526	38.08
336.991	53.78
337.456	57.48
337.921	48.68
338.386	39.28
338.851	45.98
339.316	48.48
339.781	45.88
340.246	52.88
340.711	48.68
341.175	48.48
341.64	47.68
342.105	55.18
342.569	56.68
343.034	61.28
343.499	59.68
343.963	57.28
344.428	66.78
344.893	61.78
345.357	63.48
345.822	63.38
346.286	65.78
346.751	76.88
347.215	72.68
347.679	76.98
348.144	93.98
348.608	82.78
349.073	78.88
349.537	76.08
350.001	78.28
350.465	91.98
350.93	79.28
351.394	79.38
351.858	74.68
352.322	88.68
352.786	85.08
353.25	105.18
353.715	112.78
354.179	101.68
354.643	120.48
355.107	131.28
355.571	106.28
356.035	108.08
356.498	121.28
356.962	125.58
357.426	138.58
357.89	127.68
358.354	92.18
358.818	80.28
359.281	82.58
359.745	74.98
360.209	78.18
360.673	76.48
361.136	82.68
361.6	88.08
362.064	91.98
362.527	89.68
362.991	90.48
363.454	82.78
363.918	76.18
364.381	81.68
364.845	81.58
365.308	87.78
365.772	88.68
366.235	87.08
366.698	88.08
367.162	84.28
367.625	88.88
368.088	92.28
368.552	90.88
369.015	91.68
369.478	96.18
369.941	98.18
370.404	96.88
370.867	106.58
371.331	104.58
371.794	122.08
372.257	112.98
372.72	123.48
373.183	111.38
373.646	106.68
374.109	101.18
374.572	105.08
375.035	107.18
375.497	111.78
375.96	110.68
376.423	105.48
376.886	118.08
377.349	111.08
377.811	105.48
378.274	106.68
378.737	111.78
379.199	115.18
379.662	119.48
380.125	115.18
380.587	114.18
381.05	119.68
381.512	121.58
381.975	129.88
382.437	134.28
382.9	127.48
383.362	137.08
383.825	141.08
384.287	147.78
384.75	142.68
385.212	143.88
385.674	141.88
386.136	140.88
386.599	133.48
387.061	134.68
387.523	127.88
387.985	135.38
388.447	145.48
388.91	140.28
389.372	158.28
389.834	154.78
390.296	143.68
390.758	151.28
391.22	166.88
391.682	203.48
392.144	288.68
392.606	222.08
393.068	163.78
393.529	168.38
393.991	155.58
394.453	147.38
394.915	158.98
395.377	180.08
395.838	208.38
396.3	159.18
396.762	143.48
397.224	133.48
397.685	131.08
398.147	132.68
398.608	131.88
399.07	126.28
399.531	134.48
399.993	142.88
400.454	156.78
400.916	142.08
401.377	146.78
401.839	152.98
402.3	156.98
402.762	171.28
403.223	182.08
403.684	175.68
404.145	161.38
404.607	162.78
405.068	170.88
405.529	175.38
405.99	181.18
406.451	170.68
406.913	170.58
407.374	163.18
407.835	159.28
408.296	169.48
408.757	176.28
409.218	188.98
409.679	184.88
410.14	173.68
410.601	179.78
411.062	190.68
411.522	186.98
411.983	194.28
412.444	174.08
412.905	182.88
413.366	181.68
413.826	196.78
414.287	221.98
414.748	255.28
415.208	256.98
415.669	212.18
416.13	212.38
416.59	201.78
417.051	210.38
417.511	221.28
417.972	235.48
418.432	252.78
418.893	284.58
419.353	256.38
419.814	200.98
420.274	186.38
420.734	186.08
421.195	203.68
421.655	195.68
422.115	194.18
422.576	198.18
423.036	202.48
423.496	208.18
423.956	212.58
424.416	231.48
424.876	271.18
425.336	268.38
425.797	260.58
426.257	259.98
426.717	245.08
427.177	239.38
427.637	236.38
428.097	235.48
428.556	247.28
429.016	273.28
429.476	268.48
429.936	279.88
430.396	284.48
430.856	304.08
431.315	321.48
431.775	358.28
432.235	385.38
432.694	356.98
433.154	369.68
433.614	395.68
434.073	340.68
434.533	292.48
434.993	273.88
435.452	286.08
435.912	296.48
436.371	291.58
436.83	294.18
437.29	273.88
437.749	249.88
438.209	243.28
438.668	281.08
439.127	297.98
439.587	272.08
440.046	259.78
440.505	267.08
440.964	285.78
441.424	324.18
441.883	323.68
442.342	261.48
442.801	226.58
443.26	225.38
443.719	224.38
444.178	219.88
444.637	213.48
445.096	226.38
445.555	219.08
446.014	225.98
446.473	230.18
446.932	232.88
447.391	227.68
447.849	224.28
448.308	218.68
448.767	223.08
449.226	240.38
449.685	240.48
450.143	258.28
450.602	241.88
451.061	225.28
451.519	233.28
451.978	238.08
452.436	240.68
452.895	244.88
453.353	256.68
453.812	239.28
454.27	239.18
454.729	242.18
455.187	241.48
455.646	250.98
456.104	248.58
456.562	262.98
457.021	260.38
457.479	261.98
457.937	268.68
458.395	264.48
458.854	251.48
459.312	255.18
459.77	272.98
460.228	258.68
460.686	244.68
461.144	250.18
461.602	244.98
462.06	244.08
462.518	256.78
462.976	249.78
463.434	258.98
463.892	268.28
464.35	282.58
464.808	286.88
465.266	265.38
465.724	271.88
466.181	270.18
466.639	273.88
467.097	296.68
467.555	303.88
468.012	304.68
468.47	306.88
468.928	340.38
469.385	345.48
469.843	355.18
470.3	356.48
470.758	368.48
471.215	398.88
471.673	415.68
472.13	411.78
472.588	416.38
473.045	377.88
473.503	385.58
473.96	401.48
474.417	402.38
474.875	437.88
475.332	483.88
475.789	463.38
476.246	473.68
476.704	488.88
477.161	518.18
477.618	525.28
478.075	575.68
478.532	632.68
478.989	698.88
479.446	817.98
479.903	776.98
480.36	829.48
480.817	873.98
481.274	976.48
481.731	1088.08
482.188	1170.28
482.645	1313.78
483.102	1429.28
483.558	1558.88
484.015	1608.48
484.472	1583.38
484.929	1533.28
485.385	1484.18
485.842	1453.58
486.299	1391.38
486.755	1317.38
487.212	1121.38
487.668	944.98
488.125	868.08
488.582	799.78
489.038	763.78
489.494	725.58
489.951	706.08
490.407	680.58
490.864	658.48
491.32	655.78
491.776	645.48
492.233	654.18
492.689	621.48
493.145	613.08
493.602	617.38
494.058	618.58
494.514	620.48
494.97	650.18
495.426	648.18
495.882	632.08
496.338	625.38
496.794	638.88
497.251	633.58
497.707	647.68
498.163	645.28
498.618	654.18
499.074	657.28
499.53	688.98
499.986	684.28
500.442	660.98
500.898	640.08
501.354	629.58
501.809	640.08
502.265	644.68
502.721	668.58
503.177	672.58
503.632	671.78
504.088	685.08
504.543	719.28
504.999	720.68
505.455	667.78
505.91	648.18
506.366	636.18
506.821	628.88
507.277	631.08
507.732	630.68
508.187	623.78
508.643	643.08
509.098	637.68
509.553	657.98
510.009	682.18
510.464	679.28
510.919	685.28
511.375	692.18
511.83	715.18
512.285	733.18
512.74	770.08
513.195	797.78
513.65	783.08
514.105	775.28
514.56	785.28
515.015	805.58
515.47	820.08
515.925	804.28
516.38	794.78
516.835	791.78
517.29	780.98
517.745	791.68
518.2	766.78
518.655	763.08
519.109	749.98
519.564	754.18
520.019	742.48
520.474	735.78
520.928	750.28
521.383	727.28
521.838	715.18
522.292	718.28
522.747	712.68
523.201	715.58
523.656	702.58
524.11	695.18
524.565	691.98
525.019	698.28
525.474	715.38
525.928	711.48
526.382	705.38
526.837	708.58
527.291	712.08
527.745	714.58
528.2	712.18
528.654	698.08
529.108	695.48
529.562	692.88
530.016	696.08
530.47	690.58
530.925	703.18
531.379	707.28
531.833	714.18
532.287	702.78
532.741	706.98
533.195	721.38
533.649	720.38
534.103	724.68
534.556	719.28
535.01	722.28
535.464	726.38
535.918	732.68
536.372	732.58
536.826	721.88
537.279	713.28
537.733	716.18
538.187	722.68
538.64	721.88
539.094	726.28
539.548	727.18
540.001	735.28
540.455	729.18
540.908	741.08
541.362	743.78
541.815	764.48
542.269	766.48
542.722	757.98
543.175	777.88
543.629	777.38
544.082	800.78
544.536	789.28
544.989	786.98
545.442	804.38
545.895	796.18
546.349	799.48
546.802	791.08
547.255	805.68
547.708	803.88
548.161	824.08
548.614	824.28
549.067	839.18
549.52	823.18
549.973	819.48
550.426	808.38
550.879	799.98
551.332	806.68
551.785	809.18
552.238	808.68
552.691	827.98
553.144	829.58
553.596	851.98
554.049	870.18
554.502	899.58
554.955	915.98
555.407	914.68
555.86	901.38
556.313	902.68
556.765	879.18
557.218	886.18
557.67	892.98
558.123	881.38
558.576	877.98
559.028	874.28
559.48	891.28
559.933	884.98
560.385	846.88
560.838	823.58
561.29	788.58
561.742	784.18
562.195	765.38
562.647	773.98
563.099	771.18
563.551	768.88
564.004	790.68
564.456	772.28
564.908	770.88
565.36	750.38
565.812	732.68
566.264	730.58
566.716	724.68
567.168	717.38
567.62	726.78
568.072	711.08
568.524	698.08
568.976	687.28
569.428	672.78
569.88	681.78
570.332	680.88
570.784	688.48
571.235	678.18
571.687	693.48
572.139	708.58
572.59	710.98
573.042	708.58
573.494	709.88
573.945	710.18
574.397	679.08
574.849	692.38
575.3	683.28
575.752	687.68
576.203	682.88
576.655	686.48
577.106	677.38
577.557	680.08
578.009	668.38
578.46	664.48
578.912	659.38
579.363	655.98
579.814	673.18
580.265	665.78
580.717	671.28
581.168	671.58
581.619	673.18
582.07	676.38
582.521	670.18
582.972	665.58
583.423	687.28
583.875	683.08
584.326	693.98
584.777	740.28
585.227	812.08
585.678	891.68
586.129	968.78
586.58	1042.28
587.031	1118.98
587.482	1264.88
587.933	1442.48
588.384	1259.28
588.834	947.78
589.285	795.68
589.736	776.98
590.186	771.68
590.637	759.18
591.088	745.78
591.538	737.18
591.989	735.68
592.439	710.38
592.89	712.68
593.34	702.78
593.791	696.88
594.241	700.18
594.692	705.58
595.142	699.28
595.593	696.48
596.043	708.78
596.493	707.08
596.943	707.68
597.394	713.18
597.844	712.98
598.294	726.08
598.744	746.98
599.195	768.18
599.645	807.68
600.095	847.78
600.545	909.48
600.995	960.58
601.445	1004.38
601.895	1080.68
602.345	1127.68
602.795	1105.68
603.245	1055.18
603.695	996.68
604.145	941.58
604.594	897.78
605.044	859.48
605.494	788.68
605.944	746.88
606.393	722.88
606.843	712.18
607.293	723.58
607.743	710.58
608.192	737.88
608.642	751.78
609.091	746.88
609.541	759.88
609.99	757.98
610.44	751.08
610.889	714.78
611.339	700.78
611.788	678.98
612.238	684.78
612.687	711.08
613.136	717.48
613.586	732.08
614.035	719.28
614.484	747.08
614.933	735.68
615.383	730.98
615.832	729.28
616.281	714.98
616.73	677.88
617.179	653.68
617.628	640.18
618.077	625.38
618.526	604.38
618.975	612.18
619.424	603.68
619.873	600.28
620.322	611.08
620.771	597.48
621.22	598.68
621.669	580.08
622.118	579.88
622.567	569.68
623.015	561.68
623.464	557.88
623.913	550.88
624.361	546.38
624.81	546.78
625.259	541.48
625.707	544.48
626.156	547.38
626.604	550.08
627.053	547.18
627.501	552.78
627.95	557.98
628.398	564.08
628.847	563.48
629.295	553.28
629.744	556.88
630.192	561.08
630.64	562.78
631.089	558.18
631.537	568.48
631.985	568.88
632.433	588.08
632.881	591.18
633.33	631.38
633.778	617.58
634.226	557.68
634.674	552.08
635.122	563.18
635.57	580.88
636.018	610.98
636.466	562.58
636.914	542.28
637.362	557.88
637.81	562.88
638.258	564.38
638.705	562.78
639.153	599.28
639.601	600.78
640.049	622.28
640.497	655.18
640.944	672.98
641.392	618.18
641.84	600.68
642.287	572.58
642.735	569.98
643.182	556.78
643.63	556.58
644.078	559.78
644.525	581.78
644.973	589.18
645.42	591.78
645.867	603.48
646.315	622.98
646.762	644.78
647.21	685.78
647.657	697.68
648.104	730.08
648.551	754.28
648.999	808.98
649.446	890.98
649.893	977.48
650.34	1123.18
650.787	1339.78
651.234	1682.78
651.682	2172.68
652.129	2982.38
652.576	4276.48
653.023	6282.78
653.47	8667.98
653.917	10888.08
654.363	12623.88
654.81	13998.48
655.257	13323.98
655.704	8741.88
656.151	5174.98
656.598	3349.28
657.044	2380.18
657.491	1828.78
657.938	1450.88
658.385	1211.78
658.831	1047.78
659.278	942.88
659.724	833.38
660.171	767.88
660.618	703.28
661.064	670.78
661.511	650.18
661.957	628.98
662.404	627.78
662.85	634.58
663.296	611.78
663.743	542.68
664.189	518.58
664.635	521.08
665.082	518.98
665.528	510.08
665.974	502.48
666.42	492.38
666.867	484.38
667.313	471.58
667.759	465.68
668.205	460.28
668.651	459.88
669.097	471.78
669.543	476.18
669.989	448.68
670.435	440.78
670.881	435.78
671.327	439.68
671.773	446.78
672.219	474.18
672.665	524.58
673.11	567.48
673.556	604.48
674.002	645.28
674.448	635.68
674.893	530.68
675.339	456.88
675.785	418.98
676.23	411.88
676.676	373.28
677.122	371.68
677.567	363.88
678.013	357.08
678.458	353.18
678.904	354.08
679.349	337.68
679.794	336.48
680.24	337.98
680.685	339.98
681.131	340.08
681.576	336.68
682.021	347.78
682.466	341.48
682.912	336.78
683.357	337.08
683.802	363.18
684.247	392.18
684.692	436.78
685.137	483.48
685.583	508.08
686.028	543.38
686.473	492.08
686.918	428.38
687.363	396.78
687.807	376.88
688.252	356.38
688.697	349.38
689.142	326.88
689.587	320.48
690.032	308.18
690.477	327.68
690.921	335.28
691.366	361.78
691.811	383.68
692.255	419.38
692.7	431.58
693.145	482.28
693.589	660.48
694.034	1072.68
694.478	1482.08
694.923	1680.38
695.367	2204.88
695.812	1158.68
696.256	479.68
696.701	356.18
697.145	332.48
697.59	318.88
698.034	306.78
698.478	320.68
698.922	316.78
699.367	316.98
699.811	333.88
700.255	339.98
700.699	360.78
701.143	403.98
701.588	463.18
702.032	486.58
702.476	490.78
702.92	467.88
703.364	466.58
703.808	600.18
704.252	970.98
704.696	1384.48
705.14	1605.48
705.584	2078.18
706.027	1025.48
706.471	505.18
706.915	375.98
707.359	345.98
707.803	307.58
708.246	290.78
708.69	301.78
709.134	303.38
709.577	299.58
710.021	298.58
710.465	290.08
710.908	291.68
711.352	286.18
711.795	294.28
712.239	339.68
712.682	375.58
713.126	399.08
713.569	440.18
714.012	356.18
714.456	309.38
714.899	291.88
715.342	266.98
715.786	251.18
716.229	242.98
716.672	241.28
717.115	242.08
717.558	241.28
718.002	249.48
718.445	245.48
718.888	280.18
719.331	278.38
719.774	298.68
720.217	289.88
720.66	271.28
721.103	256.78
721.546	244.38
721.989	241.28
722.432	223.48
722.874	224.58
723.317	221.68
723.76	230.08
724.203	239.78
724.645	293.88
725.088	417.78
725.531	537.18
725.974	625.08
726.416	527.78
726.859	293.98
727.301	240.68
727.744	226.88
728.187	226.38
728.629	226.68
729.071	227.58
729.514	244.88
729.956	264.98
730.399	269.28
730.841	282.78
731.283	262.68
731.726	256.18
732.168	249.98
732.61	248.08
733.053	275.08
733.495	297.88
733.937	330.68
734.379	379.18
734.821	411.48
735.263	512.08
735.705	779.78
736.148	1473.48
736.59	2430.38
737.032	2951.38
737.474	2412.98
737.916	773.78
738.357	413.48
738.799	307.88
739.241	286.38
739.683	269.08
740.125	277.88
740.567	286.48
741.008	306.68
741.45	300.58
741.892	305.98
742.334	330.88
742.775	347.08
743.217	325.48
743.658	264.28
744.1	246.38
744.542	247.18
744.983	296.88
745.425	331.98
745.866	337.18
746.307	270.08
746.749	274.68
747.19	303.48
747.632	426.48
748.073	822.88
748.514	1749.38
748.956	2715.88
749.397	3414.68
749.838	2824.08
750.279	2868.48
750.72	1431.08
751.162	528.68
751.603	305.68
752.044	238.48
752.485	213.48
752.926	201.08
753.367	191.78
753.808	190.78
754.249	184.68
754.69	179.28
755.131	168.78
755.572	171.58
756.013	165.98
756.453	174.48
756.894	182.98
757.335	183.58
757.776	194.08
758.216	182.78
758.657	191.18
759.098	191.78
759.538	216.78
759.979	253.28
760.42	354.28
760.86	656.48
761.301	1691.78
761.741	4165.88
762.182	6230.08
762.622	4382.38
763.063	1254.18
763.503	517.28
763.943	328.58
764.384	308.88
764.824	368.98
765.264	404.38
765.705	279.88
766.145	195.78
766.585	178.48
767.025	162.98
767.465	174.58
767.906	222.98
768.346	295.68
768.786	314.78
769.226	246.58
769.666	294.78
770.106	579.38
770.546	1451.48
770.986	2532.68
771.426	2298.08
771.866	755.18
772.306	311.78
772.745	197.08
773.185	168.28
773.625	165.48
774.065	149.18
774.505	183.68
774.944	288.98
775.384	609.78
775.824	1132.58
776.263	1121.18
776.703	474.88
777.142	203.18
777.582	151.38
778.021	136.48
778.461	132.68
778.9	132.78
779.34	128.78
779.779	112.68
780.219	107.88
780.658	100.78
781.097	105.18
781.537	107.08
781.976	101.58
782.415	105.28
782.855	95.98
783.294	107.18
783.733	98.38
784.172	109.68
784.611	97.68
785.05	99.78
785.489	103.28
785.928	111.78
786.367	109.88
786.806	116.48
787.245	125.68
787.684	130.38
788.123	144.68
788.562	128.28
789.001	126.08
789.44	116.88
789.879	105.08
790.317	113.88
790.756	121.48
791.195	123.28
791.634	138.08
792.072	193.38
792.511	337.48
792.95	936.68
793.388	2031.78
793.827	1882.08
794.265	653.18
794.704	266.88
795.142	175.88
795.581	141.98
796.019	129.38
796.458	116.48
796.896	114.28
797.334	125.38
797.773	148.08
798.211	204.98
798.649	404.38
799.087	962.28
799.526	1517.58
799.964	1911.98
800.402	1941.98
800.84	728.88
801.278	284.48
801.716	170.88
802.154	140.48
802.592	141.68
803.03	136.28
803.468	125.38
803.906	138.78
804.344	134.88
804.782	132.78
805.22	130.98
805.658	120.08
806.096	138.98
806.533	148.08
806.971	168.58
807.409	204.58
807.847	294.58
808.284	612.08
808.722	1734.28
809.16	3147.98
809.597	2932.08
810.035	5147.08
810.472	5630.78
810.91	2012.18
811.347	752.98
811.785	385.48
812.222	242.48
812.66	181.98
813.097	159.08
813.535	139.78
813.972	118.88
814.409	115.88
814.846	98.38
815.284	103.08
815.721	93.08
816.158	100.38
816.595	112.78
817.032	171.18
817.47	184.78
817.907	166.58
818.344	132.48
818.781	106.38
819.218	93.98
819.655	121.58
820.092	177.78
820.529	210.78
820.966	166.48
821.403	118.38
821.839	103.98
822.276	102.98
822.713	118.28
823.15	134.98
823.587	106.48
824.023	141.78
824.46	285.58
824.897	838.18
825.333	1307.58
825.77	565.78
826.206	219.98
826.643	139.58
827.08	95.78
827.516	82.38
827.953	71.38
828.389	77.28
828.825	65.58
829.262	66.78
829.698	57.78
830.135	57.58
830.571	56.28
831.007	55.38
831.443	64.18
831.88	64.68
832.316	56.48
832.752	58.28
833.188	61.78
833.624	57.48
834.06	60.28
834.497	62.68
834.933	73.68
835.369	73.58
835.805	63.18
836.241	68.58
836.677	77.88
837.112	80.28
837.548	90.68
837.984	129.28
838.42	190.38
838.856	460.98
839.292	1435.18
839.727	2229.18
840.163	1036.08
840.599	857.88
841.034	1915.78
841.47	2063.18
841.906	737.68
842.341	314.38
842.777	213.68
843.212	287.28
843.648	295.28
844.083	148.88
844.519	90.38
844.954	71.08
845.39	57.78
845.825	61.28
846.261	56.28
846.696	51.28
847.131	46.38
847.566	56.38
848.002	54.98
848.437	49.88
848.872	57.58
849.307	52.58
849.742	81.98
850.177	169.48
850.613	515.28
851.048	848.78
851.483	363.88
851.918	147.08
852.353	76.38
852.788	51.78
853.223	52.28
853.657	50.18
854.092	43.48
854.527	36.88
854.962	37.48
855.397	34.88
855.832	45.88
856.266	37.48
856.701	36.68
857.136	37.88
857.57	36.48
858.005	46.08
858.44	57.58
858.874	42.98
859.309	52.08
859.743	45.98
860.178	38.38
860.612	38.68
861.047	53.88
861.481	73.08
861.915	69.68
862.35	54.78
862.784	33.68
863.218	31.28
863.653	32.48
864.087	38.18
864.521	52.48
864.955	58.48
865.39	149.88
865.824	165.38
866.258	108.38
866.692	156.28
867.126	166.08
867.56	104.48
867.994	51.68
868.428	32.48
868.862	41.08
869.296	51.08
869.73	45.08
870.164	47.78
870.598	47.08
871.031	32.98
871.465	27.58
871.899	27.28
872.333	20.58
872.766	24.68
873.2	25.68
873.634	28.28
874.067	23.88
874.501	25.78
874.935	36.18
875.368	28.18
875.802	26.38
876.235	24.58
876.669	26.18
877.102	20.88
877.535	25.48
877.969	19.98
878.402	21.58
878.836	17.58
879.269	15.48
879.702	23.38
880.135	21.68
880.569	16.08
881.002	22.78
881.435	20.28
881.868	17.38
882.301	21.68
882.734	17.28
883.167	21.88
883.601	15.38
884.034	18.88
884.467	11.38
884.899	16.38
885.332	16.18
885.765	15.08
886.198	12.58
886.631	16.78
887.064	16.08
887.497	17.98
887.929	21.98
888.362	20.18
888.795	11.58
889.228	12.78
889.66	21.38
890.093	13.58
890.526	18.18
890.958	12.48
891.391	18.78
891.823	20.08
892.256	12.18
892.688	11.88
893.121	15.28
893.553	19.58
893.985	25.08
894.418	21.08
894.85	12.58
895.282	15.38
895.715	12.98
896.147	11.38
896.579	16.78
897.011	12.08
897.444	17.58
897.876	11.88
898.308	12.48
898.74	13.28
899.172	12.28
899.604	24.78
900.036	17.08
900.468	10.78
900.9	9.58
901.332	15.08
901.764	11.18
902.196	22.88
902.628	17.98
903.06	19.98
903.491	28.38
903.923	24.78
904.355	19.18
904.787	16.38
905.218	17.88
905.65	21.18
906.082	13.48
906.513	3.68
906.945	16.48
907.376	10.88
907.808	20.88
908.239	22.38
908.671	23.18
909.102	25.48
909.534	23.58
909.965	46.78
910.397	87.18
910.828	291.68
911.259	457.98
911.691	208.88
912.122	107.18
912.553	50.98
912.984	33.48
913.415	23.78
913.847	21.68
914.278	12.08
914.709	11.18
915.14	16.58
915.571	24.48
916.002	11.98
916.433	16.18
916.864	20.28
917.295	12.58
917.726	16.48
918.157	17.68
918.587	21.98
919.018	17.68
919.449	24.78
919.88	25.98
920.311	30.48
920.741	46.88
921.172	156.88
921.603	137.98
922.033	68.08
922.464	44.48
922.895	18.48
923.325	25.08
923.756	11.88
924.186	9.48
924.617	24.88
925.047	35.88
925.478	49.68
925.908	38.18
926.338	20.48
926.769	15.28
927.199	15.18
927.629	9.38
928.06	15.48
928.49	20.98
928.92	13.98
929.35	13.88
929.78	12.08
930.21	8.38
930.641	9.98
931.071	8.38
931.501	-0.82
931.931	3.28
932.361	12.58
932.791	1.28
933.221	2.98
933.651	2.28
934.08	13.18
934.51	30.38
934.94	9.18
935.37	9.38
935.8	10.78
936.229	7.58
936.659	11.88
937.089	0.58
937.519	7.98
937.948	22.48
938.378	20.58
938.807	4.18
939.237	2.78
939.666	8.08
940.096	-0.02
940.525	0.88
940.955	0.78
941.384	1.08
941.814	-4.02
942.243	-4.42
942.672	0.38
943.102	-6.42
943.531	-5.52
943.96	2.68
944.39	-2.62
944.819	-3.72
945.248	-1.42
945.677	4.08
946.106	4.48
946.535	6.28
946.964	1.78
947.393	2.48
947.822	-2.82
948.251	-3.62
948.68	-0.02
949.109	0.48
949.538	6.58
949.967	-0.62
950.396	-1.82
950.825	-1.12
951.254	1.98
951.682	-1.72
952.111	-0.22
952.54	8.88
952.969	-6.42
953.397	-8.02
953.826	4.88
954.254	-2.72
954.683	3.78
955.112	-1.62
955.54	1.28
955.969	-2.82
956.397	-5.42
956.826	-2.52
957.254	2.78
957.682	2.08
958.111	4.08
958.539	-1.82
958.967	-2.22
959.396	1.78
959.824	3.38
960.252	2.28
960.68	-6.72
961.109	0.18
961.537	-4.42
961.965	2.58
962.393	-0.22
962.821	-8.42
963.249	-6.32
963.677	-3.82
964.105	1.88
964.533	43.08
964.961	35.48
965.389	19.58
965.817	5.68
966.245	1.38
966.672	-2.02
967.1	-5.42
967.528	0.48
967.956	-4.02
968.383	-4.72
968.811	2.08
969.239	0.18
969.666	-1.32
970.094	2.08
970.522	-6.42
970.949	-0.82
971.377	-4.42
971.804	1.78
972.232	-4.72
972.659	-2.72
973.087	-3.32
973.514	-2.72
973.941	-9.82
974.369	6.08
974.796	3.98
975.223	-4.52
975.651	-2.32
976.078	0.98
976.505	-5.72
976.932	3.88
977.359	20.38
977.786	13.38
978.214	0.78
978.641	-4.92
979.068	-2.62
979.495	-3.42
979.922	-5.52
980.349	-0.92
980.776	4.08
981.202	-0.42
981.629	2.48
982.056	-3.52
982.483	-11.12
982.91	3.08
983.337	-7.92
983.763	-4.32
984.19	-2.62
984.617	-6.42
985.043	-8.42
985.47	-6.32
985.897	-0.32
986.323	-2.12
986.75	-0.62
987.176	-2.72
987.603	-0.92
988.029	7.58
988.456	-8.42
988.882	-0.92
989.308	-10.62
989.735	-3.02
990.161	-2.62
990.587	-4.82
991.014	-2.72
991.44	6.68
991.866	-1.62
992.292	-4.12
992.719	-2.22
993.145	4.48
993.571	-7.92
993.997	-3.72
994.423	-2.12
994.849	-7.72
995.275	0.78
995.701	-8.72
996.127	-9.62
996.553	-0.82
996.979	-7.32
997.405	-4.82
997.83	-4.82
998.256	-7.82
998.682	-10.92
999.108	-7.72
999.534	-0.12
999.959	-1.82
1000.385	-10.22
1000.811	-3.92
1001.236	-8.32
1001.662	-8.22
1002.087	-5.42
1002.513	-4.32
1002.938	-3.22
1003.364	-1.72
1003.789	-3.12
1004.215	6.08
1004.64	-5.42
1005.066	1.38
1005.491	-3.72
1005.916	-2.32
1006.342	0.48
1006.767	-10.82
1007.192	-2.32
1007.617	-5.02
1008.042	-6.12
1008.468	-8.22
1008.893	-3.72
1009.318	-5.62
1009.743	-1.92
1010.168	3.58
1010.593	-2.82
1011.018	-12.12
1011.443	-1.92
1011.868	4.18
1012.293	0.78
1012.718	-0.82
1013.143	-2.12
1013.567	-2.92
1013.992	-7.92
1014.417	-14.02
1014.842	1.38
1015.267	-5.02
1015.691	-2.02
1016.116	3.98
1016.541	0.88
1016.965	4.38
1017.39	2.18
1017.814	-2.92
1018.239	-0.52
1018.663	-5.62
1019.088	-11.52
1019.512	-0.52
1019.937	-4.12
1020.361	-9.52
1020.785	-13.12
1021.21	-6.22
1021.634	-3.92
1022.058	-1.62
1022.483	-2.32
1022.907	-5.52
1023.331	-4.62
1023.755	-4.12
1024.179	-8.92
1024.604	-12.52
1025.028	-8.22
1025.452	-7.32
1025.876	-2.72
1026.3	0.48
1026.724	-11.42
1027.148	-9.22
1027.572	-6.52
1027.996	-7.02
1028.42	-6.62
1028.843	-13.22
1029.267	-0.62
1029.691	-2.22
1030.115	-5.92
1030.539	-4.92
1030.962	-5.52
1031.386	-9.92
1031.81	-6.02
1032.233	-1.02
1032.657	-5.82
1033.08	-6.92
1033.504	-8.92
1033.927	-3.72
1034.351	-2.62
1034.774	-2.22
1035.198	2.28
1035.621	-6.12
1036.045	-12.12
1036.468	1.38
1036.891	-9.52
1037.315	-9.72
1037.738	-11.12
1038.161	-6.92
1038.584	-5.52
1039.008	-7.02
1039.431	-0.72
1039.854	-2.72
1040.277	-13.12
1040.7	-12.52
1041.123	-2.62
1041.546	-6.92
1041.969	-5.52
1042.392	-6.52
1042.815	-7.52
1043.238	-3.92
1043.661	-1.32
1044.084	-5.92
1044.507	-8.42
1044.93	-3.22
1045.352	-7.72
1045.775	-2.92
1046.198	-4.32
1046.621	-2.42
1047.043	0.08
1047.466	2.38
1047.889	-3.72
1048.311	-10.12
1048.734	-7.32
1049.156	0.88
1049.579	-8.82
1050.001	-0.12
1050.424	-2.22
1050.846	-11.32
1051.269	-1.12
1051.691	-7.62
1052.113	-4.12
1052.536	-1.62
1052.958	-7.32
1053.38	-9.22
1053.802	-8.62
1054.225	-1.52
1054.647	-11.02
1055.069	-9.42
1055.491	0.88
1055.913	-10.02
1056.335	-5.32
1056.757	-9.92
1057.179	-10.32
1057.601	-11.22
1058.023	-9.22
1058.445	-2.02
1058.867	-10.22
1059.289	-3.72
1059.711	-6.42
1060.133	-7.42
1060.555	-7.32
1060.976	-8.72
1061.398	-6.12
1061.82	-6.52
1062.241	-8.02
1062.663	-6.32
1063.085	-5.62
1063.506	-6.72
1063.928	-0.92
1064.35	3.08
1064.771	-14.82
1065.193	-7.12
1065.614	-8.32
1066.035	-3.72
1066.457	2.58
1066.878	1.88
1067.3	-11.42
1067.721	0.98
1068.142	-8.02
1068.564	-1.42
1068.985	-7.22
1069.406	-9.42
1069.827	-7.52
1070.248	-0.12
1070.67	-11.72
1071.091	-8.72
1071.512	-3.32
1071.933	-4.12
1072.354	-6.12
1072.775	-7.02
1073.196	-8.52
1073.617	-1.72
1074.038	-11.32
1074.459	-5.22
1074.88	-6.72
1075.3	5.08
1075.721	-9.02
1076.142	-2.02
1076.563	-4.12
1076.983	-12.12
1077.404	-5.42
1077.825	-12.02
1078.246	-10.42
1078.666	-15.02
1079.087	-7.62
1079.507	-9.72
1079.928	-5.12
1080.348	-5.32
1080.769	-8.72
1081.189	-2.32
1081.61	-4.02
1082.03	-6.42
1082.451	-3.42
1082.871	-10.22
1083.291	-12.72
1083.711	-9.22
1084.132	-9.92
1084.552	-1.42
1084.972	1.48
1085.392	-7.52
1085.813	-10.52
1086.233	-7.32
1086.653	-7.42
1087.073	-6.12
1087.493	-7.12
1087.913	-5.42
1088.333	-9.32
1088.753	-6.82
1089.173	3.88
1089.593	-6.82
1090.013	-3.82
1090.433	-4.32
1090.852	-5.32
1091.272	0.78
1091.692	-5.92
1092.112	-3.32
1092.531	-5.82
1092.951	-12.02
1093.371	-6.72
1093.79	-3.12
1094.21	-7.12
1094.63	-9.22
1095.049	-9.62
1095.469	-5.22
1095.888	0.08
1096.308	-1.12
1096.727	2.08
1097.146	-9.72
1097.566	-5.62
1097.985	-6.72
1098.405	-2.82
1098.824	-11.42
1099.243	-6.72
1099.662	-6.42
1100.082	-7.22
1100.501	-2.82
1100.92	-4.62
1101.339	-6.42
1101.758	-6.72
