Data from 20171114-ORNL-Ar_H_NY_Subt18_08-09-16-317.txt Node
Date: Tue Nov 14 08:09:16 EST 2017
User: Ender
Spectrometer: HR+D1039
Trigger mode: 0
Integration Time (sec): 2.730000E-2
Scans to average: 10
Electric dark correction enabled: true
Nonlinearity correction enabled: false
Boxcar width: 0
XAxis mode: Wavelengths
Number of Pixels in Spectrum: 2048
>>>>>Begin Spectral Data<<<<<
187.836	-0.42
188.309	-0.42
188.782	-0.42
189.255	3.28
189.728	-1.52
190.201	6.18
190.674	2.08
191.147	7.88
191.619	-8.72
192.092	-0.32
192.565	7.08
193.038	-1.72
193.511	-2.22
193.984	-1.92
194.456	-3.82
194.929	2.28
195.402	-4.12
195.874	-4.02
196.347	0.98
196.82	-1.72
197.292	2.98
197.765	-0.22
198.237	-5.72
198.71	6.68
199.182	-3.72
199.655	4.38
200.127	-0.52
200.6	3.48
201.072	-1.22
201.544	-1.22
202.017	-0.52
202.489	3.08
202.961	-0.62
203.433	-4.72
203.906	-1.92
204.378	-5.72
204.85	-2.02
205.322	-7.22
205.794	0.88
206.266	1.88
206.739	-8.62
207.211	4.78
207.683	-9.72
208.155	-3.02
208.627	-5.82
209.099	-3.82
209.57	-7.02
210.042	-2.02
210.514	-4.22
210.986	-5.42
211.458	-9.52
211.93	-1.32
212.402	2.48
212.873	-6.92
213.345	-9.52
213.817	-7.02
214.288	-9.32
214.76	-19.32
215.232	-10.42
215.703	-1.52
216.175	-3.52
216.646	-7.22
217.118	-6.42
217.589	-0.32
218.061	2.38
218.532	-3.02
219.004	-2.82
219.475	-0.12
219.946	-5.42
220.418	-8.62
220.889	9.28
221.36	-3.42
221.832	-3.72
222.303	-3.52
222.774	-4.32
223.245	-9.02
223.717	-6.72
224.188	-7.32
224.659	-12.22
225.13	-4.22
225.601	-0.72
226.072	1.08
226.543	-1.82
227.014	3.38
227.485	-3.52
227.956	-9.82
228.427	-1.72
228.898	-5.02
229.369	-4.92
229.839	-7.22
230.31	-7.72
230.781	0.78
231.252	0.08
231.722	-5.02
232.193	1.18
232.664	-3.42
233.135	-4.52
233.605	-7.52
234.076	-5.22
234.546	-4.12
235.017	3.88
235.487	-2.12
235.958	-5.32
236.428	-1.32
236.899	-4.82
237.369	-5.92
237.84	-6.92
238.31	-1.62
238.78	-5.02
239.251	-10.42
239.721	-6.92
240.191	-2.62
240.662	0.38
241.132	-3.42
241.602	-4.92
242.072	0.88
242.542	1.48
243.013	-5.12
243.483	-1.52
243.953	0.08
244.423	-1.12
244.893	-8.92
245.363	-1.72
245.833	-3.52
246.303	-2.52
246.773	1.48
247.243	6.48
247.712	-2.42
248.182	-0.82
248.652	-1.42
249.122	-4.72
249.592	-3.42
250.061	1.18
250.531	5.08
251.001	-8.82
251.471	4.98
251.94	4.38
252.41	-1.52
252.879	-5.12
253.349	4.58
253.818	4.58
254.288	-5.52
254.757	-1.02
255.227	-3.52
255.696	-5.92
256.166	1.78
256.635	-3.92
257.105	3.28
257.574	-3.42
258.043	2.28
258.513	-5.92
258.982	3.78
259.451	-5.52
259.92	-2.02
260.389	-1.72
260.859	6.88
261.328	2.68
261.797	0.48
262.266	-5.12
262.735	-0.72
263.204	2.38
263.673	0.58
264.142	5.78
264.611	-3.12
265.08	-9.02
265.549	-8.92
266.018	1.98
266.487	-8.62
266.955	-6.72
267.424	-1.12
267.893	-2.12
268.362	-1.52
268.83	-5.82
269.299	7.48
269.768	-1.62
270.236	3.08
270.705	-4.12
271.174	-8.52
271.642	-0.02
272.111	0.18
272.579	-2.72
273.048	-0.22
273.516	0.48
273.985	1.88
274.453	3.48
274.922	7.38
275.39	2.48
275.858	-1.72
276.327	0.88
276.795	11.88
277.263	-2.12
277.731	8.98
278.2	3.88
278.668	3.48
279.136	9.68
279.604	-1.82
280.072	6.68
280.54	6.08
281.008	3.28
281.477	7.38
281.945	1.28
282.413	7.78
282.881	8.98
283.348	-2.02
283.816	8.08
284.284	7.88
284.752	10.58
285.22	1.98
285.688	9.38
286.156	9.08
286.623	14.38
287.091	7.28
287.559	14.88
288.026	6.18
288.494	8.78
288.962	-1.12
289.429	9.88
289.897	6.08
290.364	5.28
290.832	13.68
291.3	7.58
291.767	6.88
292.234	10.98
292.702	7.78
293.169	8.38
293.637	15.98
294.104	13.08
294.571	0.88
295.039	5.58
295.506	9.68
295.973	12.38
296.44	12.28
296.908	10.78
297.375	7.58
297.842	9.18
298.309	5.98
298.776	7.88
299.243	11.78
299.71	9.28
300.177	14.98
300.644	13.78
301.111	11.68
301.578	15.08
302.045	8.48
302.512	15.68
302.979	17.68
303.446	17.08
303.913	6.38
304.379	4.68
304.846	11.68
305.313	20.18
305.78	7.48
306.246	17.08
306.713	15.98
307.18	18.58
307.646	18.68
308.113	16.28
308.579	12.38
309.046	14.08
309.512	17.08
309.979	8.88
310.445	13.88
310.912	14.08
311.378	27.18
311.845	19.58
312.311	24.58
312.777	27.48
313.244	24.28
313.71	26.08
314.176	19.08
314.642	16.78
315.109	11.58
315.575	19.18
316.041	23.18
316.507	20.28
316.973	19.68
317.439	21.78
317.905	31.18
318.371	28.48
318.837	22.18
319.303	19.08
319.769	28.18
320.235	20.18
320.701	23.68
321.167	24.18
321.633	17.78
322.099	28.88
322.564	29.98
323.03	25.88
323.496	29.38
323.962	29.68
324.427	24.08
324.893	24.48
325.359	28.68
325.824	21.98
326.29	20.58
326.755	29.78
327.221	33.08
327.686	22.98
328.152	39.58
328.617	25.08
329.083	36.28
329.548	38.98
330.014	36.28
330.479	33.98
330.944	32.88
331.41	36.78
331.875	34.08
332.34	38.18
332.805	28.28
333.271	32.38
333.736	31.78
334.201	37.38
334.666	38.98
335.131	40.78
335.596	41.18
336.061	32.18
336.526	28.08
336.991	33.48
337.456	37.58
337.921	37.18
338.386	37.38
338.851	31.08
339.316	42.68
339.781	36.68
340.246	41.88
340.711	38.68
341.175	37.78
341.64	34.98
342.105	41.68
342.569	46.78
343.034	47.38
343.499	42.58
343.963	40.78
344.428	54.38
344.893	53.18
345.357	45.68
345.822	49.68
346.286	51.48
346.751	53.28
347.215	54.18
347.679	48.28
348.144	67.58
348.608	63.68
349.073	56.08
349.537	60.18
350.001	55.68
350.465	71.38
350.93	61.68
351.394	62.18
351.858	57.58
352.322	73.48
352.786	61.88
353.25	75.78
353.715	80.08
354.179	74.18
354.643	86.28
355.107	89.28
355.571	79.28
356.035	76.08
356.498	86.88
356.962	80.18
357.426	98.48
357.89	90.38
358.354	69.38
358.818	67.98
359.281	67.38
359.745	62.18
360.209	55.68
360.673	58.18
361.136	64.38
361.6	72.98
362.064	69.38
362.527	65.48
362.991	72.08
363.454	67.28
363.918	59.48
364.381	65.58
364.845	69.48
365.308	72.98
365.772	77.68
366.235	71.08
366.698	70.78
367.162	65.58
367.625	64.88
368.088	67.18
368.552	70.98
369.015	72.38
369.478	72.28
369.941	80.98
370.404	73.58
370.867	83.38
371.331	82.38
371.794	83.48
372.257	82.58
372.72	85.88
373.183	80.48
373.646	75.88
374.109	80.28
374.572	86.38
375.035	85.68
375.497	85.98
375.96	82.58
376.423	93.88
376.886	95.08
377.349	89.28
377.811	82.98
378.274	89.88
378.737	90.98
379.199	97.08
379.662	89.38
380.125	98.58
380.587	88.18
381.05	92.78
381.512	94.98
381.975	100.58
382.437	103.48
382.9	90.08
383.362	108.98
383.825	107.58
384.287	98.88
384.75	101.98
385.212	108.38
385.674	111.18
386.136	117.88
386.599	109.68
387.061	104.38
387.523	112.08
387.985	111.38
388.447	115.88
388.91	109.18
389.372	114.98
389.834	115.48
390.296	107.78
390.758	117.88
391.22	118.88
391.682	131.38
392.144	133.88
392.606	128.88
393.068	117.98
393.529	124.78
393.991	126.28
394.453	115.98
394.915	116.88
395.377	117.28
395.838	119.98
396.3	120.88
396.762	123.58
397.224	121.18
397.685	121.38
398.147	115.68
398.608	114.78
399.07	119.78
399.531	123.08
399.993	127.68
400.454	133.68
400.916	139.08
401.377	129.18
401.839	133.78
402.3	145.88
402.762	146.58
403.223	161.68
403.684	148.58
404.145	148.78
404.607	147.58
405.068	149.58
405.529	152.58
405.99	168.38
406.451	154.08
406.913	154.98
407.374	154.48
407.835	153.08
408.296	152.28
408.757	157.68
409.218	166.98
409.679	166.88
410.14	170.28
410.601	157.98
411.062	161.98
411.522	172.18
411.983	163.88
412.444	165.48
412.905	166.68
413.366	174.48
413.826	189.28
414.287	206.18
414.748	249.88
415.208	236.38
415.669	203.48
416.13	194.48
416.59	195.78
417.051	203.88
417.511	216.38
417.972	226.78
418.432	239.78
418.893	276.28
419.353	244.18
419.814	198.78
420.274	176.08
420.734	169.88
421.195	186.78
421.655	177.08
422.115	183.38
422.576	190.98
423.036	192.48
423.496	200.98
423.956	202.08
424.416	219.08
424.876	254.28
425.336	250.48
425.797	241.18
426.257	235.58
426.717	229.48
427.177	224.18
427.637	210.68
428.097	219.18
428.556	228.38
429.016	256.18
429.476	242.68
429.936	247.48
430.396	262.28
430.856	261.88
431.315	283.88
431.775	317.98
432.235	347.58
432.694	320.78
433.154	329.88
433.614	356.58
434.073	308.48
434.533	270.38
434.993	249.18
435.452	258.88
435.912	271.38
436.371	262.08
436.83	253.28
437.29	251.38
437.749	228.38
438.209	234.88
438.668	261.38
439.127	273.38
439.587	246.68
440.046	232.48
440.505	248.78
440.964	258.88
441.424	302.58
441.883	289.88
442.342	242.48
442.801	217.48
443.26	218.28
443.719	215.78
444.178	213.58
444.637	203.18
445.096	217.68
445.555	218.28
446.014	216.28
446.473	230.38
446.932	227.78
447.391	220.58
447.849	228.08
448.308	214.98
448.767	220.08
449.226	229.88
449.685	236.78
450.143	248.28
450.602	234.68
451.061	223.08
451.519	230.98
451.978	224.38
452.436	223.18
452.895	234.88
453.353	247.08
453.812	243.38
454.27	234.08
454.729	230.38
455.187	230.48
455.646	245.48
456.104	244.08
456.562	251.28
457.021	266.08
457.479	251.38
457.937	275.98
458.395	256.08
458.854	249.68
459.312	253.48
459.77	263.18
460.228	249.98
460.686	239.18
461.144	248.88
461.602	246.48
462.06	240.08
462.518	253.18
462.976	251.98
463.434	248.08
463.892	260.88
464.35	274.08
464.808	278.48
465.266	266.78
465.724	265.38
466.181	275.98
466.639	269.78
467.097	287.28
467.555	296.18
468.012	301.48
468.47	301.78
468.928	325.88
469.385	342.18
469.843	344.38
470.3	349.38
470.758	356.18
471.215	369.08
471.673	397.58
472.13	393.98
472.588	401.98
473.045	365.18
473.503	372.08
473.96	382.68
474.417	400.28
474.875	420.18
475.332	463.38
475.789	451.98
476.246	458.78
476.704	485.28
477.161	494.78
477.618	523.58
478.075	538.08
478.532	586.98
478.989	653.68
479.446	767.08
479.903	724.28
480.36	759.68
480.817	806.98
481.274	888.38
481.731	979.08
482.188	1048.48
482.645	1170.08
483.102	1246.38
483.558	1356.78
484.015	1392.08
484.472	1377.98
484.929	1348.78
485.385	1297.28
485.842	1270.58
486.299	1207.18
486.755	1195.48
487.212	1011.58
487.668	866.78
488.125	797.58
488.582	738.28
489.038	702.98
489.494	674.18
489.951	662.88
490.407	646.18
490.864	628.48
491.32	618.08
491.776	626.68
492.233	628.98
492.689	592.38
493.145	593.88
493.602	588.18
494.058	599.68
494.514	597.38
494.97	619.38
495.426	633.88
495.882	619.58
496.338	601.68
496.794	604.28
497.251	603.08
497.707	616.18
498.163	612.38
498.618	620.48
499.074	625.78
499.53	656.38
499.986	651.18
500.442	629.38
500.898	611.88
501.354	605.78
501.809	607.28
502.265	602.68
502.721	613.28
503.177	627.68
503.632	630.88
504.088	643.08
504.543	652.18
504.999	671.78
505.455	641.08
505.91	632.08
506.366	630.48
506.821	637.68
507.277	623.08
507.732	622.98
508.187	623.98
508.643	634.28
509.098	635.98
509.553	657.98
510.009	660.18
510.464	669.78
510.919	681.88
511.375	682.68
511.83	695.28
512.285	711.18
512.74	748.28
513.195	776.38
513.65	752.78
514.105	758.58
514.56	753.38
515.015	781.68
515.47	793.18
515.925	767.58
516.38	776.88
516.835	789.78
517.29	770.38
517.745	769.88
518.2	759.88
518.655	742.18
519.109	735.68
519.564	731.98
520.019	732.18
520.474	716.28
520.928	721.38
521.383	722.18
521.838	707.88
522.292	703.78
522.747	699.98
523.201	703.78
523.656	696.48
524.11	689.88
524.565	690.58
525.019	699.38
525.474	696.68
525.928	693.38
526.382	683.58
526.837	695.38
527.291	702.08
527.745	695.18
528.2	690.18
528.654	679.58
529.108	673.58
529.562	691.18
530.016	687.98
530.47	682.48
530.925	687.08
531.379	696.88
531.833	697.48
532.287	692.78
532.741	699.28
533.195	699.48
533.649	705.18
534.103	705.08
534.556	710.88
535.01	710.78
535.464	693.48
535.918	709.98
536.372	721.78
536.826	718.08
537.279	701.18
537.733	708.28
538.187	707.68
538.64	706.38
539.094	725.28
539.548	725.68
540.001	714.38
540.455	712.28
540.908	730.68
541.362	729.18
541.815	741.98
542.269	755.18
542.722	758.48
543.175	770.48
543.629	771.58
544.082	803.08
544.536	796.18
544.989	780.38
545.442	784.58
545.895	789.98
546.349	785.38
546.802	794.08
547.255	794.18
547.708	809.68
548.161	815.18
548.614	818.78
549.067	830.18
549.52	816.88
549.973	813.88
550.426	801.48
550.879	800.28
551.332	798.48
551.785	804.98
552.238	809.48
552.691	822.08
553.144	829.48
553.596	848.88
554.049	872.08
554.502	901.68
554.955	901.88
555.407	904.38
555.86	889.38
556.313	882.48
556.765	878.38
557.218	874.98
557.67	880.38
558.123	870.88
558.576	875.58
559.028	883.88
559.48	885.88
559.933	881.48
560.385	847.58
560.838	814.18
561.29	786.58
561.742	786.98
562.195	780.98
562.647	765.68
563.099	787.68
563.551	782.08
564.004	794.88
564.456	779.68
564.908	760.48
565.36	750.58
565.812	725.28
566.264	730.08
566.716	714.88
567.168	710.68
567.62	715.98
568.072	697.38
568.524	695.38
568.976	684.08
569.428	689.78
569.88	684.68
570.332	691.78
570.784	690.88
571.235	687.78
571.687	708.68
572.139	703.88
572.59	714.88
573.042	705.78
573.494	721.68
573.945	713.78
574.397	692.18
574.849	702.58
575.3	691.98
575.752	689.28
576.203	685.18
576.655	695.58
577.106	675.18
577.557	664.78
578.009	668.38
578.46	676.78
578.912	667.58
579.363	676.28
579.814	672.68
580.265	666.28
580.717	680.58
581.168	679.68
581.619	692.38
582.07	689.88
582.521	670.78
582.972	663.38
583.423	677.48
583.875	672.68
584.326	690.08
584.777	712.18
585.227	719.18
585.678	734.18
586.129	739.18
586.58	768.38
587.031	786.48
587.482	811.78
587.933	835.08
588.384	819.28
588.834	796.88
589.285	778.68
589.736	777.68
590.186	774.28
590.637	762.58
591.088	750.28
591.538	748.78
591.989	740.58
592.439	733.78
592.89	712.28
593.34	714.58
593.791	710.68
594.241	699.78
594.692	700.08
595.142	697.48
595.593	697.08
596.043	709.88
596.493	709.38
596.943	715.28
597.394	731.18
597.844	728.68
598.294	742.28
598.744	766.78
599.195	780.48
599.645	838.98
600.095	872.58
600.545	936.68
600.995	972.28
601.445	1045.68
601.895	1094.48
602.345	1146.78
602.795	1130.08
603.245	1071.08
603.695	1028.68
604.145	973.48
604.594	926.68
605.044	870.88
605.494	814.18
605.944	764.48
606.393	757.08
606.843	730.18
607.293	739.38
607.743	737.08
608.192	753.18
608.642	758.18
609.091	760.58
609.541	765.08
609.99	770.18
610.44	761.38
610.889	724.58
611.339	711.08
611.788	690.68
612.238	699.68
612.687	710.78
613.136	708.28
613.586	714.58
614.035	710.58
614.484	719.88
614.933	724.68
615.383	711.68
615.832	716.38
616.281	708.48
616.73	685.98
617.179	660.58
617.628	650.88
618.077	640.28
618.526	622.38
618.975	620.18
619.424	614.68
619.873	625.08
620.322	621.58
620.771	603.48
621.22	605.68
621.669	601.08
622.118	592.48
622.567	595.58
623.015	573.78
623.464	569.68
623.913	567.38
624.361	552.98
624.81	548.68
625.259	560.48
625.707	565.78
626.156	563.08
626.604	578.48
627.053	575.48
627.501	571.38
627.95	574.38
628.398	593.38
628.847	569.38
629.295	582.58
629.744	583.28
630.192	565.68
630.64	557.88
631.089	560.28
631.537	544.98
631.985	539.88
632.433	539.68
632.881	531.68
633.33	538.98
633.778	522.58
634.226	531.98
634.674	547.38
635.122	545.08
635.57	561.18
636.018	569.28
636.466	569.68
636.914	559.48
637.362	575.18
637.81	581.98
638.258	583.78
638.705	589.58
639.153	612.28
639.601	629.08
640.049	659.18
640.497	689.18
640.944	697.28
641.392	658.48
641.84	626.18
642.287	591.58
642.735	562.18
643.182	567.78
643.63	563.58
644.078	572.88
644.525	573.48
644.973	584.98
645.42	598.48
645.867	622.38
646.315	637.18
646.762	656.48
647.21	688.68
647.657	713.78
648.104	731.78
648.551	756.18
648.999	818.48
649.446	894.58
649.893	970.38
650.34	1116.28
650.787	1324.98
651.234	1638.48
651.682	2104.28
652.129	2879.18
652.576	4100.18
653.023	5982.28
653.47	8041.88
653.917	9915.98
654.363	11351.88
654.81	12419.68
655.257	11780.28
655.704	7799.88
656.151	4697.58
656.598	3086.98
657.044	2220.98
657.491	1725.98
657.938	1394.68
658.385	1175.48
658.831	1037.28
659.278	944.78
659.724	821.98
660.171	766.68
660.618	704.88
661.064	679.18
661.511	657.18
661.957	650.28
662.404	637.28
662.85	648.78
663.296	616.58
663.743	557.78
664.189	543.38
664.635	542.28
665.082	536.68
665.528	532.88
665.974	527.48
666.42	514.48
666.867	507.28
667.313	487.08
667.759	465.68
668.205	464.48
668.651	458.08
669.097	454.28
669.543	453.98
669.989	454.08
670.435	451.78
670.881	450.78
671.327	460.98
671.773	475.88
672.219	518.78
672.665	568.68
673.11	607.18
673.556	642.18
674.002	694.28
674.448	670.28
674.893	560.98
675.339	489.98
675.785	455.88
676.23	435.18
676.676	410.08
677.122	400.28
677.567	390.58
678.013	381.78
678.458	370.08
678.904	371.68
679.349	352.18
679.794	364.58
680.24	366.38
680.685	358.08
681.131	357.58
681.576	359.18
682.021	371.88
682.466	366.98
682.912	352.28
683.357	361.58
683.802	401.18
684.247	434.88
684.692	466.58
685.137	512.78
685.583	550.78
686.028	581.28
686.473	533.08
686.918	463.08
687.363	430.98
687.807	402.38
688.252	381.48
688.697	361.98
689.142	347.78
689.587	342.68
690.032	342.18
690.477	348.38
690.921	358.58
691.366	403.08
691.811	414.28
692.255	447.18
692.7	476.88
693.145	537.88
693.589	760.48
694.034	1220.98
694.478	1614.68
694.923	1789.28
695.367	2314.78
695.812	1238.88
696.256	513.68
696.701	379.18
697.145	357.48
697.59	332.78
698.034	330.38
698.478	333.78
698.922	325.98
699.367	334.48
699.811	339.48
700.255	367.78
700.699	393.88
701.143	429.38
701.588	486.08
702.032	534.08
702.476	533.28
702.92	506.08
703.364	518.98
703.808	688.38
704.252	1121.08
704.696	1551.48
705.14	1735.88
705.584	2182.68
706.027	1100.88
706.471	548.28
706.915	413.48
707.359	362.78
707.803	334.78
708.246	332.18
708.69	324.48
709.134	326.88
709.577	318.68
710.021	328.38
710.465	319.28
710.908	312.18
711.352	311.68
711.795	327.58
712.239	366.98
712.682	396.88
713.126	424.18
713.569	466.18
714.012	370.08
714.456	314.68
714.899	295.38
715.342	279.38
715.786	267.78
716.229	271.78
716.672	267.58
717.115	256.28
717.558	255.98
718.002	256.58
718.445	265.48
718.888	293.08
719.331	304.88
719.774	317.08
720.217	312.98
720.66	298.58
721.103	280.88
721.546	258.88
721.989	256.08
722.432	239.58
722.874	240.48
723.317	235.98
723.76	242.18
724.203	266.38
724.645	334.68
725.088	475.48
725.531	587.68
725.974	651.78
726.416	553.48
726.859	320.28
727.301	250.28
727.744	241.58
728.187	239.78
728.629	242.88
729.071	259.88
729.514	268.48
729.956	277.08
730.399	292.08
730.841	303.58
731.283	278.98
731.726	270.58
732.168	274.08
732.61	278.68
733.053	310.68
733.495	328.68
733.937	367.68
734.379	414.48
734.821	463.18
735.263	582.68
735.705	922.58
736.148	1739.38
736.59	2736.58
737.032	3131.08
737.474	2558.28
737.916	859.98
738.357	446.98
738.799	343.78
739.241	322.68
739.683	298.68
740.125	299.98
740.567	313.78
741.008	327.88
741.45	331.68
741.892	331.98
742.334	366.98
742.775	369.58
743.217	351.18
743.658	280.68
744.1	269.98
744.542	281.88
744.983	330.28
745.425	359.18
745.866	357.48
746.307	293.88
746.749	289.28
747.19	344.68
747.632	489.88
748.073	978.68
748.514	2033.58
748.956	2998.18
749.397	3769.38
749.838	3136.78
750.279	3040.98
750.72	1565.98
751.162	584.48
751.603	344.58
752.044	259.98
752.485	232.08
752.926	224.28
753.367	207.18
753.808	204.78
754.249	199.78
754.69	192.98
755.131	195.28
755.572	193.08
756.013	191.98
756.453	187.08
756.894	198.88
757.335	197.88
757.776	210.48
758.216	209.08
758.657	207.78
759.098	217.68
759.538	245.38
759.979	282.48
760.42	396.88
760.86	791.08
761.301	2064.98
761.741	4814.08
762.182	6576.78
762.622	4662.88
763.063	1399.18
763.503	566.18
763.943	337.08
764.384	276.68
764.824	244.08
765.264	234.58
765.705	214.98
766.145	198.28
766.585	185.78
767.025	179.78
767.465	174.88
767.906	189.68
768.346	201.78
768.786	207.28
769.226	226.78
769.666	329.28
770.106	682.38
770.546	1722.68
770.986	2748.88
771.426	2422.28
771.866	823.38
772.306	336.78
772.745	216.08
773.185	169.98
773.625	168.08
774.065	151.98
774.505	165.18
774.944	215.68
775.384	376.38
775.824	594.28
776.263	575.88
776.703	288.08
777.142	164.58
777.582	143.58
778.021	126.88
778.461	130.78
778.9	134.78
779.34	133.88
779.779	120.18
780.219	109.48
780.658	108.98
781.097	121.18
781.537	118.98
781.976	110.68
782.415	108.48
782.855	107.18
783.294	110.18
783.733	99.98
784.172	109.48
784.611	111.68
785.05	112.38
785.489	113.58
785.928	119.28
786.367	127.28
786.806	120.48
787.245	133.38
787.684	144.48
788.123	153.18
788.562	141.58
789.001	132.38
789.44	129.88
789.879	122.48
790.317	124.78
790.756	131.38
791.195	131.48
791.634	148.78
792.072	211.78
792.511	403.78
792.95	1116.58
793.388	2226.58
793.827	1952.98
794.265	699.18
794.704	294.98
795.142	194.38
795.581	155.78
796.019	143.38
796.458	139.88
796.896	128.58
797.334	137.18
797.773	163.88
798.211	231.28
798.649	490.08
799.087	1104.98
799.526	1712.48
799.964	2150.48
800.402	2059.68
800.84	790.38
801.278	317.88
801.716	197.78
802.154	159.88
802.592	153.28
803.03	137.58
803.468	145.08
803.906	158.98
804.344	159.38
804.782	149.68
805.22	144.48
805.658	138.78
806.096	160.58
806.533	167.18
806.971	180.38
807.409	230.78
807.847	348.38
808.284	751.38
808.722	2027.28
809.16	3454.58
809.597	3420.68
810.035	5799.78
810.472	5914.38
810.91	2194.38
811.347	841.88
811.785	430.18
812.222	277.18
812.66	211.28
813.097	177.18
813.535	151.88
813.972	137.78
814.409	116.38
814.846	105.98
815.284	113.58
815.721	101.98
816.158	101.68
816.595	115.68
817.032	159.18
817.47	178.58
817.907	129.88
818.344	103.38
818.781	103.18
819.218	103.98
819.655	134.88
820.092	193.38
820.529	219.98
820.966	180.08
821.403	128.68
821.839	107.28
822.276	97.48
822.713	133.58
823.15	139.58
823.587	124.58
824.023	168.68
824.46	348.58
824.897	979.98
825.333	1391.98
825.77	604.18
826.206	243.18
826.643	144.88
827.08	106.58
827.516	88.58
827.953	82.98
828.389	83.18
828.825	74.78
829.262	75.88
829.698	64.78
830.135	73.48
830.571	64.78
831.007	71.78
831.443	66.18
831.88	65.28
832.316	69.08
832.752	72.68
833.188	70.88
833.624	68.48
834.06	71.98
834.497	69.08
834.933	73.28
835.369	74.38
835.805	69.78
836.241	77.28
836.677	84.28
837.112	87.18
837.548	111.08
837.984	140.68
838.42	221.58
838.856	555.58
839.292	1640.68
839.727	2370.18
840.163	1122.58
840.599	1014.78
841.034	2192.08
841.47	2167.58
841.906	806.28
842.341	353.68
842.777	206.08
843.212	206.88
843.648	192.88
844.083	118.58
844.519	85.18
844.954	77.08
845.39	59.48
845.825	61.78
846.261	59.38
846.696	53.48
847.131	59.58
847.566	57.58
848.002	58.18
848.437	61.68
848.872	61.68
849.307	65.28
849.742	87.88
850.177	194.28
850.613	603.78
851.048	909.58
851.483	389.58
851.918	162.98
852.353	91.28
852.788	55.58
853.223	52.08
853.657	50.58
854.092	51.68
854.527	44.88
854.962	41.08
855.397	54.68
855.832	57.18
856.266	40.58
856.701	42.38
857.136	33.58
857.57	41.88
858.005	55.98
858.44	62.88
858.874	46.48
859.309	53.28
859.743	43.38
860.178	51.08
860.612	43.68
861.047	50.18
861.481	76.38
861.915	80.88
862.35	56.48
862.784	40.88
863.218	41.68
863.653	34.08
864.087	45.98
864.521	56.68
864.955	75.78
865.39	164.88
865.824	178.18
866.258	124.08
866.692	179.38
867.126	189.28
867.56	108.08
867.994	50.28
868.428	38.58
868.862	55.08
869.296	67.38
869.73	61.78
870.164	54.58
870.598	54.48
871.031	38.68
871.465	34.68
871.899	31.58
872.333	23.68
872.766	25.08
873.2	20.28
873.634	37.68
874.067	27.08
874.501	28.88
874.935	36.58
875.368	31.18
875.802	32.98
876.235	20.78
876.669	27.98
877.102	25.48
877.535	31.08
877.969	30.88
878.402	30.28
878.836	18.78
879.269	23.48
879.702	31.38
880.135	20.48
880.569	18.58
881.002	27.88
881.435	20.88
881.868	20.18
882.301	25.48
882.734	20.28
883.167	18.28
883.601	21.88
884.034	20.88
884.467	17.48
884.899	23.48
885.332	18.38
885.765	17.28
886.198	15.78
886.631	19.78
887.064	20.38
887.497	24.08
887.929	21.38
888.362	18.78
888.795	17.48
889.228	22.38
889.66	19.98
890.093	21.98
890.526	19.18
890.958	14.28
891.391	14.18
891.823	16.38
892.256	14.58
892.688	17.38
893.121	20.78
893.553	17.18
893.985	26.78
894.418	19.58
894.85	15.58
895.282	16.88
895.715	21.98
896.147	15.78
896.579	13.08
897.011	13.78
897.444	21.08
897.876	17.98
898.308	22.98
898.74	12.38
899.172	12.18
899.604	20.98
900.036	27.38
900.468	17.48
900.9	20.28
901.332	18.08
901.764	7.68
902.196	15.38
902.628	17.08
903.06	16.18
903.491	32.58
903.923	31.28
904.355	23.88
904.787	26.98
905.218	17.98
905.65	26.98
906.082	10.68
906.513	9.88
906.945	18.58
907.376	18.68
907.808	19.08
908.239	21.88
908.671	18.48
909.102	25.28
909.534	28.38
909.965	49.98
910.397	100.18
910.828	338.58
911.259	491.88
911.691	226.18
912.122	116.38
912.553	56.18
912.984	33.98
913.415	21.28
913.847	24.88
914.278	13.98
914.709	12.58
915.14	18.98
915.571	17.18
916.002	16.98
916.433	21.48
916.864	20.68
917.295	11.98
917.726	19.88
918.157	21.18
918.587	29.38
919.018	21.88
919.449	16.68
919.88	28.18
920.311	33.98
920.741	54.38
921.172	173.58
921.603	149.88
922.033	73.58
922.464	48.58
922.895	24.38
923.325	17.68
923.756	10.98
924.186	14.58
924.617	14.18
925.047	22.98
925.478	24.58
925.908	20.38
926.338	16.18
926.769	11.98
927.199	21.18
927.629	6.98
928.06	22.58
928.49	15.98
928.92	15.98
929.35	6.88
929.78	13.18
930.21	4.38
930.641	6.48
931.071	13.68
931.501	3.98
931.931	11.48
932.361	7.68
932.791	12.28
933.221	5.18
933.651	9.18
934.08	16.38
934.51	30.58
934.94	12.18
935.37	7.08
935.8	9.38
936.229	5.78
936.659	14.48
937.089	5.68
937.519	12.88
937.948	19.58
938.378	15.68
938.807	8.08
939.237	5.78
939.666	3.18
940.096	-5.12
940.525	7.98
940.955	8.08
941.384	6.18
941.814	-2.42
942.243	-2.72
942.672	1.98
943.102	-2.02
943.531	-0.22
943.96	5.98
944.39	2.08
944.819	-2.12
945.248	7.58
945.677	1.68
946.106	-1.52
946.535	6.88
946.964	5.18
947.393	7.28
947.822	1.78
948.251	-2.02
948.68	4.48
949.109	14.08
949.538	4.78
949.967	6.18
950.396	1.48
950.825	-1.22
951.254	2.18
951.682	-10.42
952.111	7.88
952.54	2.58
952.969	-0.72
953.397	-5.32
953.826	-6.12
954.254	-7.32
954.683	-1.12
955.112	-1.02
955.54	-1.62
955.969	6.28
956.397	-4.52
956.826	-2.92
957.254	1.88
957.682	2.68
958.111	7.58
958.539	-1.42
958.967	-0.82
959.396	-2.12
959.824	3.38
960.252	0.98
960.68	-0.92
961.109	-2.82
961.537	-2.02
961.965	3.98
962.393	0.38
962.821	-0.22
963.249	-2.72
963.677	4.58
964.105	6.38
964.533	52.88
964.961	46.48
965.389	25.98
965.817	10.58
966.245	6.48
966.672	2.18
967.1	-1.32
967.528	1.48
967.956	-5.72
968.383	0.68
968.811	0.18
969.239	0.08
969.666	-6.22
970.094	1.28
970.522	1.18
970.949	-7.22
971.377	-1.82
971.804	-3.92
972.232	0.38
972.659	-1.32
973.087	-7.72
973.514	3.48
973.941	0.18
974.369	2.38
974.796	3.58
975.223	0.48
975.651	-5.22
976.078	8.38
976.505	2.78
976.932	1.98
977.359	17.28
977.786	9.98
978.214	7.68
978.641	-3.42
979.068	1.38
979.495	-4.52
979.922	-0.52
980.349	-7.82
980.776	3.28
981.202	-0.52
981.629	11.58
982.056	8.08
982.483	-5.42
982.91	2.48
983.337	0.48
983.763	3.28
984.19	-6.72
984.617	-4.52
985.043	-7.22
985.47	1.38
985.897	1.78
986.323	-12.92
986.75	8.08
987.176	-2.22
987.603	-4.32
988.029	-4.22
988.456	-0.22
988.882	3.88
989.308	-7.52
989.735	-3.82
990.161	1.48
990.587	-4.92
991.014	-4.02
991.44	4.68
991.866	-2.02
992.292	-0.92
992.719	-2.32
993.145	7.08
993.571	-3.12
993.997	0.88
994.423	2.28
994.849	-2.22
995.275	2.98
995.701	2.48
996.127	-4.62
996.553	3.38
996.979	-0.12
997.405	-1.32
997.83	-3.42
998.256	-3.62
998.682	-0.22
999.108	-8.02
999.534	3.18
999.959	-1.12
1000.385	-3.12
1000.811	-6.72
1001.236	-10.72
1001.662	-8.12
1002.087	-0.02
1002.513	3.18
1002.938	4.08
1003.364	1.78
1003.789	1.68
1004.215	8.98
1004.64	-1.12
1005.066	4.18
1005.491	0.98
1005.916	-0.32
1006.342	-2.82
1006.767	-2.12
1007.192	3.18
1007.617	-0.42
1008.042	-7.22
1008.468	-4.62
1008.893	-2.32
1009.318	-5.32
1009.743	1.68
1010.168	1.98
1010.593	7.78
1011.018	-13.72
1011.443	3.28
1011.868	0.78
1012.293	1.28
1012.718	-5.82
1013.143	-0.32
1013.567	5.28
1013.992	-3.62
1014.417	-9.82
1014.842	-3.12
1015.267	-5.82
1015.691	-2.72
1016.116	9.08
1016.541	0.58
1016.965	6.58
1017.39	4.98
1017.814	-0.62
1018.239	-2.22
1018.663	-6.02
1019.088	-6.22
1019.512	-2.52
1019.937	-1.12
1020.361	1.98
1020.785	-8.22
1021.21	-0.32
1021.634	-1.12
1022.058	4.18
1022.483	-1.82
1022.907	-5.32
1023.331	-3.12
1023.755	-5.92
1024.179	-2.02
1024.604	-2.22
1025.028	-5.72
1025.452	-7.12
1025.876	-0.82
1026.3	-1.32
1026.724	-9.92
1027.148	-1.32
1027.572	-2.72
1027.996	-5.72
1028.42	-0.82
1028.843	-0.42
1029.267	-1.02
1029.691	2.38
1030.115	-10.02
1030.539	-11.42
1030.962	-13.02
1031.386	-15.12
1031.81	-1.82
1032.233	-2.02
1032.657	3.28
1033.08	2.28
1033.504	0.08
1033.927	-4.22
1034.351	3.88
1034.774	-4.02
1035.198	-1.52
1035.621	-1.22
1036.045	-4.82
1036.468	-0.42
1036.891	-10.12
1037.315	-0.92
1037.738	-6.62
1038.161	1.18
1038.584	-8.72
1039.008	-5.72
1039.431	-5.92
1039.854	0.08
1040.277	-1.82
1040.7	-5.62
1041.123	-2.02
1041.546	-7.02
1041.969	-0.52
1042.392	-6.92
1042.815	0.98
1043.238	1.68
1043.661	2.68
1044.084	-7.32
1044.507	-3.92
1044.93	-2.52
1045.352	-7.82
1045.775	-2.82
1046.198	-1.52
1046.621	0.38
1047.043	0.88
1047.466	5.38
1047.889	0.08
1048.311	-4.32
1048.734	-2.82
1049.156	-2.22
1049.579	1.08
1050.001	-9.32
1050.424	-4.22
1050.846	-3.32
1051.269	-5.32
1051.691	-8.72
1052.113	-10.72
1052.536	1.18
1052.958	-5.12
1053.38	-2.62
1053.802	-12.12
1054.225	1.08
1054.647	-7.52
1055.069	-4.12
1055.491	6.48
1055.913	-8.42
1056.335	-1.32
1056.757	-4.32
1057.179	-4.12
1057.601	-8.82
1058.023	3.08
1058.445	0.28
1058.867	-6.22
1059.289	-4.22
1059.711	-6.32
1060.133	-1.12
1060.555	-1.52
1060.976	-5.12
1061.398	-4.12
1061.82	-3.42
1062.241	-11.02
1062.663	-6.02
1063.085	-7.22
1063.506	0.78
1063.928	-8.72
1064.35	-1.22
1064.771	-8.82
1065.193	0.78
1065.614	-10.82
1066.035	-1.52
1066.457	-4.92
1066.878	0.08
1067.3	-8.72
1067.721	-6.22
1068.142	-11.82
1068.564	-3.22
1068.985	-9.62
1069.406	-5.12
1069.827	-3.02
1070.248	-0.22
1070.67	-0.22
1071.091	-5.02
1071.512	-0.82
1071.933	-12.02
1072.354	-8.32
1072.775	-9.42
1073.196	-2.12
1073.617	-3.52
1074.038	-8.82
1074.459	0.08
1074.88	-5.62
1075.3	2.78
1075.721	-9.22
1076.142	-2.22
1076.563	-2.82
1076.983	-10.62
1077.404	-12.72
1077.825	-9.22
1078.246	-1.52
1078.666	-13.62
1079.087	-0.62
1079.507	-7.22
1079.928	-0.52
1080.348	-2.72
1080.769	-1.72
1081.189	-3.92
1081.61	-2.12
1082.03	-5.62
1082.451	-4.92
1082.871	-0.82
1083.291	-8.32
1083.711	-8.32
1084.132	-5.32
1084.552	-6.12
1084.972	0.18
1085.392	-5.12
1085.813	-13.42
1086.233	-11.52
1086.653	-5.72
1087.073	-8.72
1087.493	-6.72
1087.913	-6.42
1088.333	-3.32
1088.753	-6.82
1089.173	4.08
1089.593	-4.92
1090.013	4.28
1090.433	0.48
1090.852	-9.22
1091.272	-1.82
1091.692	-0.02
1092.112	2.68
1092.531	-3.52
1092.951	-12.22
1093.371	-4.22
1093.79	0.08
1094.21	-6.12
1094.63	-8.82
1095.049	-3.22
1095.469	-1.72
1095.888	-7.32
1096.308	1.68
1096.727	4.38
1097.146	-3.82
1097.566	-4.92
1097.985	0.58
1098.405	1.08
1098.824	-2.12
1099.243	-8.12
1099.662	-13.22
1100.082	-3.12
1100.501	0.08
1100.92	-6.72
1101.339	-2.92
1101.758	-3.42
