Data from 20171114-ORNL-Ar_H_NY_Subt18_08-05-08-395.txt Node
Date: Tue Nov 14 08:05:08 EST 2017
User: Ender
Spectrometer: HR+D1039
Trigger mode: 0
Integration Time (sec): 2.730000E-2
Scans to average: 10
Electric dark correction enabled: true
Nonlinearity correction enabled: false
Boxcar width: 0
XAxis mode: Wavelengths
Number of Pixels in Spectrum: 2048
>>>>>Begin Spectral Data<<<<<
187.836	-7.76
188.309	-7.76
188.782	-7.76
189.255	5.04
189.728	-0.76
190.201	4.94
190.674	0.84
191.147	3.94
191.619	-8.86
192.092	-2.36
192.565	4.34
193.038	2.54
193.511	-1.66
193.984	-1.46
194.456	2.64
194.929	-1.36
195.402	-1.06
195.874	0.94
196.347	-2.36
196.82	-7.46
197.292	2.34
197.765	-5.66
198.237	-3.16
198.71	-0.36
199.182	-3.36
199.655	1.64
200.127	1.14
200.6	-4.46
201.072	-0.16
201.544	-5.96
202.017	-4.36
202.489	3.34
202.961	-7.36
203.433	0.64
203.906	-3.86
204.378	-6.76
204.85	0.54
205.322	-11.36
205.794	-0.56
206.266	-2.66
206.739	-3.96
207.211	3.54
207.683	-4.26
208.155	-6.56
208.627	-7.16
209.099	-1.36
209.57	-7.06
210.042	-10.36
210.514	-1.26
210.986	-3.86
211.458	-6.76
211.93	-1.56
212.402	-2.76
212.873	-7.26
213.345	-10.36
213.817	-14.86
214.288	-6.36
214.76	-9.96
215.232	2.34
215.703	-3.36
216.175	-5.16
216.646	-3.56
217.118	-6.16
217.589	-2.96
218.061	1.04
218.532	-4.96
219.004	-6.16
219.475	-4.06
219.946	-2.46
220.418	-6.66
220.889	6.94
221.36	-3.66
221.832	-2.86
222.303	-4.66
222.774	2.74
223.245	-10.66
223.717	-5.96
224.188	-4.36
224.659	-2.66
225.13	-8.46
225.601	-3.26
226.072	-1.86
226.543	2.04
227.014	2.44
227.485	-7.86
227.956	-5.86
228.427	0.04
228.898	-3.86
229.369	0.04
229.839	-4.46
230.31	-8.66
230.781	0.24
231.252	-0.46
231.722	-2.56
232.193	-5.96
232.664	-1.26
233.135	2.14
233.605	3.44
234.076	-4.56
234.546	3.04
235.017	6.24
235.487	0.04
235.958	-1.36
236.428	-0.86
236.899	5.14
237.369	2.04
237.84	0.64
238.31	7.24
238.78	2.54
239.251	6.44
239.721	2.74
240.191	7.64
240.662	1.14
241.132	-5.06
241.602	2.94
242.072	3.74
242.542	8.64
243.013	1.04
243.483	6.64
243.953	6.24
244.423	0.04
244.893	-5.96
245.363	8.94
245.833	2.54
246.303	-1.06
246.773	6.44
247.243	1.54
247.712	2.24
248.182	13.24
248.652	7.34
249.122	3.64
249.592	15.24
250.061	24.44
250.531	35.64
251.001	10.44
251.471	26.24
251.94	23.24
252.41	4.44
252.879	-0.96
253.349	11.24
253.818	13.14
254.288	5.94
254.757	1.94
255.227	1.84
255.696	6.44
256.166	6.14
256.635	8.74
257.105	13.84
257.574	11.24
258.043	20.94
258.513	9.84
258.982	18.14
259.451	12.54
259.92	14.54
260.389	6.64
260.859	16.64
261.328	14.04
261.797	12.44
262.266	7.74
262.735	15.04
263.204	5.14
263.673	2.94
264.142	7.44
264.611	-3.86
265.08	3.64
265.549	0.14
266.018	6.34
266.487	-1.36
266.955	-1.46
267.424	2.04
267.893	4.14
268.362	1.44
268.83	5.14
269.299	12.24
269.768	11.24
270.236	6.94
270.705	9.24
271.174	13.94
271.642	12.04
272.111	6.34
272.579	19.94
273.048	20.74
273.516	29.94
273.985	29.84
274.453	26.34
274.922	19.54
275.39	15.24
275.858	10.84
276.327	8.94
276.795	23.64
277.263	13.24
277.731	30.24
278.2	53.94
278.668	63.44
279.136	50.04
279.604	25.74
280.072	18.44
280.54	12.14
281.008	12.24
281.477	13.54
281.945	13.84
282.413	16.74
282.881	14.24
283.348	11.24
283.816	19.44
284.284	14.94
284.752	23.64
285.22	15.54
285.688	19.44
286.156	16.84
286.623	40.24
287.091	52.64
287.559	27.14
288.026	21.44
288.494	22.84
288.962	13.44
289.429	17.14
289.897	16.84
290.364	12.44
290.832	18.44
291.3	15.14
291.767	16.64
292.234	18.34
292.702	15.14
293.169	19.64
293.637	25.54
294.104	21.84
294.571	11.94
295.039	13.74
295.506	20.64
295.973	19.54
296.44	15.94
296.908	16.64
297.375	18.14
297.842	26.54
298.309	22.24
298.776	16.04
299.243	23.94
299.71	14.84
300.177	17.84
300.644	20.84
301.111	19.44
301.578	22.74
302.045	16.44
302.512	24.94
302.979	26.14
303.446	27.74
303.913	23.64
304.379	14.54
304.846	28.04
305.313	30.44
305.78	22.14
306.246	32.14
306.713	30.74
307.18	30.94
307.646	28.04
308.113	36.14
308.579	28.14
309.046	24.04
309.512	32.64
309.979	23.34
310.445	26.74
310.912	33.64
311.378	30.74
311.845	35.44
312.311	32.44
312.777	31.84
313.244	35.24
313.71	45.14
314.176	33.34
314.642	36.84
315.109	33.64
315.575	36.44
316.041	41.24
316.507	39.34
316.973	43.34
317.439	34.64
317.905	37.34
318.371	36.84
318.837	33.64
319.303	38.34
319.769	35.44
320.235	42.34
320.701	43.14
321.167	38.74
321.633	41.04
322.099	37.84
322.564	45.64
323.03	40.54
323.496	37.14
323.962	47.44
324.427	42.44
324.893	47.64
325.359	41.74
325.824	39.24
326.29	39.24
326.755	41.74
327.221	40.54
327.686	50.74
328.152	48.94
328.617	42.34
329.083	48.84
329.548	53.84
330.014	45.34
330.479	41.34
330.944	47.94
331.41	43.04
331.875	40.74
332.34	42.74
332.805	49.04
333.271	44.14
333.736	42.84
334.201	48.94
334.666	52.74
335.131	54.34
335.596	57.04
336.061	53.44
336.526	46.74
336.991	50.94
337.456	55.94
337.921	53.34
338.386	50.24
338.851	46.64
339.316	49.54
339.781	48.94
340.246	52.64
340.711	49.14
341.175	53.74
341.64	46.64
342.105	58.94
342.569	59.04
343.034	61.44
343.499	55.24
343.963	50.64
344.428	65.94
344.893	63.54
345.357	63.44
345.822	61.44
346.286	69.34
346.751	78.64
347.215	67.34
347.679	72.44
348.144	100.14
348.608	86.04
349.073	70.94
349.537	79.54
350.001	82.44
350.465	93.64
350.93	86.54
351.394	81.54
351.858	71.74
352.322	87.54
352.786	84.04
353.25	104.84
353.715	111.04
354.179	110.54
354.643	126.34
355.107	129.54
355.571	105.14
356.035	109.84
356.498	118.04
356.962	122.74
357.426	131.04
357.89	116.94
358.354	91.14
358.818	90.74
359.281	83.04
359.745	85.64
360.209	83.04
360.673	78.04
361.136	89.34
361.6	92.14
362.064	84.84
362.527	91.14
362.991	87.54
363.454	87.74
363.918	74.74
364.381	82.84
364.845	88.94
365.308	89.54
365.772	83.64
366.235	85.04
366.698	85.24
367.162	90.04
367.625	82.34
368.088	90.44
368.552	91.74
369.015	92.24
369.478	101.24
369.941	97.44
370.404	96.34
370.867	99.24
371.331	110.64
371.794	120.44
372.257	113.84
372.72	117.54
373.183	115.44
373.646	99.64
374.109	109.34
374.572	102.94
375.035	105.24
375.497	111.34
375.96	103.04
376.423	107.94
376.886	116.94
377.349	107.34
377.811	104.04
378.274	108.34
378.737	106.44
379.199	112.14
379.662	116.94
380.125	114.14
380.587	114.34
381.05	128.04
381.512	127.94
381.975	136.64
382.437	125.04
382.9	125.34
383.362	129.54
383.825	141.44
384.287	152.44
384.75	140.74
385.212	136.84
385.674	144.14
386.136	138.64
386.599	126.44
387.061	132.44
387.523	133.34
387.985	137.14
388.447	143.24
388.91	140.54
389.372	157.34
389.834	154.44
390.296	142.64
390.758	151.44
391.22	168.24
391.682	201.84
392.144	298.74
392.606	230.94
393.068	167.84
393.529	159.14
393.991	149.94
394.453	149.24
394.915	160.34
395.377	188.64
395.838	207.24
396.3	156.24
396.762	145.04
397.224	137.64
397.685	132.84
398.147	123.04
398.608	130.04
399.07	131.04
399.531	138.44
399.993	145.14
400.454	148.34
400.916	145.74
401.377	146.84
401.839	146.64
402.3	154.64
402.762	167.54
403.223	178.24
403.684	174.74
404.145	158.54
404.607	161.14
405.068	162.54
405.529	172.04
405.99	193.44
406.451	178.74
406.913	173.74
407.374	164.64
407.835	158.54
408.296	167.14
408.757	168.04
409.218	179.84
409.679	180.74
410.14	178.34
410.601	177.04
411.062	175.24
411.522	180.14
411.983	181.14
412.444	172.84
412.905	186.34
413.366	184.04
413.826	192.64
414.287	217.34
414.748	257.74
415.208	256.14
415.669	216.34
416.13	207.14
416.59	198.24
417.051	208.64
417.511	215.44
417.972	234.44
418.432	250.94
418.893	285.44
419.353	250.64
419.814	194.74
420.274	176.84
420.734	177.34
421.195	191.94
421.655	195.54
422.115	192.14
422.576	191.74
423.036	196.34
423.496	205.84
423.956	218.54
424.416	226.74
424.876	268.64
425.336	263.44
425.797	260.34
426.257	252.94
426.717	242.14
427.177	230.54
427.637	223.24
428.097	234.54
428.556	244.04
429.016	269.94
429.476	260.84
429.936	272.44
430.396	276.54
430.856	284.74
431.315	318.64
431.775	352.54
432.235	378.34
432.694	350.54
433.154	359.34
433.614	381.14
434.073	343.34
434.533	287.54
434.993	273.44
435.452	287.94
435.912	295.74
436.371	287.04
436.83	287.04
437.29	260.04
437.749	252.14
438.209	242.44
438.668	272.64
439.127	287.04
439.587	263.44
440.046	249.74
440.505	259.34
440.964	284.84
441.424	320.84
441.883	304.14
442.342	259.14
442.801	224.14
443.26	218.64
443.719	215.84
444.178	213.64
444.637	214.54
445.096	220.04
445.555	223.44
446.014	219.74
446.473	226.14
446.932	235.24
447.391	230.54
447.849	222.04
448.308	215.04
448.767	216.94
449.226	231.34
449.685	232.14
450.143	245.84
450.602	230.44
451.061	231.34
451.519	226.54
451.978	236.74
452.436	234.94
452.895	237.24
453.353	251.54
453.812	239.84
454.27	235.94
454.729	241.94
455.187	240.64
455.646	246.14
456.104	241.74
456.562	251.84
457.021	264.74
457.479	254.84
457.937	272.64
458.395	267.24
458.854	250.04
459.312	252.84
459.77	272.84
460.228	250.44
460.686	241.44
461.144	246.14
461.602	239.54
462.06	243.64
462.518	247.14
462.976	248.54
463.434	257.24
463.892	261.54
464.35	272.34
464.808	280.64
465.266	269.04
465.724	272.34
466.181	268.94
466.639	268.14
467.097	286.34
467.555	300.74
468.012	309.74
468.47	302.34
468.928	321.24
469.385	342.64
469.843	347.84
470.3	350.64
470.758	364.84
471.215	385.34
471.673	408.34
472.13	397.44
472.588	418.54
473.045	371.14
473.503	373.14
473.96	387.64
474.417	406.74
474.875	429.54
475.332	470.34
475.789	447.74
476.246	467.24
476.704	484.14
477.161	501.14
477.618	514.64
478.075	550.64
478.532	616.44
478.989	688.04
479.446	797.84
479.903	772.74
480.36	807.94
480.817	875.14
481.274	967.24
481.731	1068.64
482.188	1162.24
482.645	1290.74
483.102	1409.44
483.558	1537.94
484.015	1602.64
484.472	1582.84
484.929	1520.64
485.385	1462.14
485.842	1414.44
486.299	1361.44
486.755	1294.14
487.212	1078.24
487.668	915.04
488.125	855.64
488.582	777.44
489.038	744.84
489.494	715.04
489.951	690.14
490.407	666.14
490.864	653.34
491.32	631.94
491.776	644.84
492.233	646.64
492.689	606.84
493.145	607.24
493.602	598.44
494.058	613.14
494.514	608.24
494.97	634.74
495.426	644.84
495.882	614.24
496.338	609.24
496.794	616.84
497.251	620.74
497.707	633.84
498.163	639.74
498.618	646.84
499.074	640.84
499.53	683.74
499.986	678.14
500.442	656.84
500.898	636.14
501.354	623.94
501.809	632.54
502.265	641.34
502.721	663.04
503.177	669.84
503.632	656.24
504.088	674.74
504.543	714.04
504.999	706.34
505.455	654.24
505.91	631.84
506.366	638.54
506.821	621.24
507.277	615.94
507.732	621.54
508.187	619.94
508.643	631.14
509.098	634.54
509.553	648.74
510.009	659.64
510.464	662.44
510.919	687.74
511.375	684.34
511.83	700.04
512.285	718.64
512.74	755.04
513.195	782.44
513.65	764.94
514.105	764.74
514.56	761.84
515.015	790.24
515.47	813.54
515.925	785.24
516.38	785.04
516.835	794.04
517.29	781.34
517.745	774.74
518.2	754.34
518.655	745.54
519.109	741.04
519.564	737.54
520.019	719.44
520.474	718.54
520.928	726.64
521.383	724.64
521.838	709.04
522.292	706.84
522.747	713.04
523.201	706.74
523.656	689.54
524.11	684.84
524.565	688.44
525.019	679.04
525.474	696.54
525.928	697.04
526.382	693.84
526.837	693.64
527.291	684.54
527.745	695.54
528.2	691.44
528.654	678.34
529.108	683.44
529.562	690.64
530.016	687.34
530.47	675.84
530.925	679.74
531.379	693.64
531.833	697.54
532.287	693.24
532.741	708.14
533.195	702.34
533.649	701.44
534.103	719.24
534.556	697.54
535.01	707.44
535.464	705.84
535.918	707.64
536.372	716.94
536.826	703.34
537.279	698.94
537.733	699.64
538.187	716.14
538.64	704.64
539.094	721.54
539.548	713.54
540.001	715.54
540.455	712.44
540.908	719.34
541.362	728.34
541.815	742.74
542.269	746.04
542.722	752.94
543.175	757.04
543.629	758.64
544.082	772.54
544.536	774.04
544.989	771.54
545.442	779.74
545.895	775.04
546.349	766.44
546.802	775.74
547.255	780.44
547.708	790.84
548.161	799.54
548.614	808.64
549.067	815.94
549.52	808.74
549.973	797.04
550.426	796.04
550.879	774.84
551.332	793.64
551.785	787.64
552.238	783.94
552.691	800.94
553.144	818.84
553.596	844.74
554.049	857.44
554.502	871.34
554.955	895.24
555.407	892.54
555.86	880.94
556.313	881.84
556.765	865.64
557.218	871.14
557.67	863.74
558.123	858.34
558.576	854.14
559.028	859.44
559.48	864.84
559.933	858.54
560.385	816.54
560.838	791.54
561.29	758.04
561.742	757.14
562.195	748.24
562.647	750.44
563.099	757.24
563.551	756.34
564.004	760.14
564.456	747.24
564.908	741.04
565.36	739.24
565.812	708.44
566.264	703.54
566.716	703.74
567.168	694.04
567.62	700.04
568.072	673.64
568.524	672.24
568.976	667.64
569.428	652.94
569.88	655.64
570.332	663.34
570.784	658.54
571.235	667.84
571.687	675.74
572.139	677.94
572.59	691.84
573.042	691.04
573.494	693.14
573.945	696.44
574.397	663.74
574.849	670.74
575.3	675.24
575.752	657.54
576.203	670.14
576.655	670.24
577.106	643.74
577.557	653.14
578.009	660.04
578.46	653.74
578.912	644.34
579.363	636.74
579.814	640.24
580.265	637.54
580.717	640.44
581.168	657.54
581.619	659.14
582.07	663.74
582.521	658.14
582.972	653.14
583.423	655.74
583.875	659.84
584.326	674.64
584.777	719.84
585.227	789.14
585.678	871.14
586.129	951.34
586.58	1012.24
587.031	1105.14
587.482	1250.34
587.933	1429.94
588.384	1239.74
588.834	932.54
589.285	773.64
589.736	753.14
590.186	745.04
590.637	744.04
591.088	717.34
591.538	716.34
591.989	699.54
592.439	690.14
592.89	695.64
593.34	682.14
593.791	687.64
594.241	673.94
594.692	687.44
595.142	672.24
595.593	666.04
596.043	674.64
596.493	692.84
596.943	684.84
597.394	690.24
597.844	691.64
598.294	702.04
598.744	733.84
599.195	736.94
599.645	785.94
600.095	814.84
600.545	867.14
600.995	926.44
601.445	977.34
601.895	1042.74
602.345	1095.54
602.795	1066.84
603.245	1011.64
603.695	969.34
604.145	920.74
604.594	874.54
605.044	827.24
605.494	765.64
605.944	722.04
606.393	713.14
606.843	698.84
607.293	699.64
607.743	704.94
608.192	712.44
608.642	714.94
609.091	727.34
609.541	743.04
609.99	731.34
610.44	732.84
610.889	690.74
611.339	663.94
611.788	650.04
612.238	664.84
612.687	679.54
613.136	686.54
613.586	707.24
614.035	703.54
614.484	717.24
614.933	727.34
615.383	715.24
615.832	701.24
616.281	693.34
616.73	646.74
617.179	632.54
617.628	620.44
618.077	601.34
618.526	595.54
618.975	591.44
619.424	576.94
619.873	576.24
620.322	581.04
620.771	572.74
621.22	565.64
621.669	571.64
622.118	556.24
622.567	551.44
623.015	538.24
623.464	531.94
623.913	529.64
624.361	518.34
624.81	525.44
625.259	510.84
625.707	523.04
626.156	518.64
626.604	539.94
627.053	529.34
627.501	533.04
627.95	543.54
628.398	541.54
628.847	541.94
629.295	534.44
629.744	537.04
630.192	534.44
630.64	532.84
631.089	532.34
631.537	539.44
631.985	545.64
632.433	560.64
632.881	553.64
633.33	612.54
633.778	600.64
634.226	539.04
634.674	541.24
635.122	543.04
635.57	546.84
636.018	588.34
636.466	551.24
636.914	527.94
637.362	530.94
637.81	539.24
638.258	541.64
638.705	543.54
639.153	572.94
639.601	580.24
640.049	598.64
640.497	626.04
640.944	645.94
641.392	598.44
641.84	565.54
642.287	551.64
642.735	535.64
643.182	541.44
643.63	543.24
644.078	543.24
644.525	557.64
644.973	564.54
645.42	558.74
645.867	581.94
646.315	598.64
646.762	614.74
647.21	650.24
647.657	663.54
648.104	704.54
648.551	724.44
648.999	779.14
649.446	855.54
649.893	943.54
650.34	1078.04
650.787	1273.74
651.234	1604.24
651.682	2090.44
652.129	2855.04
652.576	4097.94
653.023	6054.74
653.47	8316.24
653.917	10433.24
654.363	12220.84
654.81	13646.54
655.257	12958.64
655.704	8461.24
656.151	5003.24
656.598	3224.14
657.044	2279.74
657.491	1756.84
657.938	1404.04
658.385	1176.14
658.831	1004.44
659.278	897.54
659.724	794.14
660.171	738.74
660.618	684.94
661.064	641.74
661.511	622.94
661.957	607.94
662.404	599.04
662.85	602.74
663.296	579.34
663.743	522.54
664.189	505.04
664.635	494.34
665.082	485.84
665.528	492.64
665.974	480.64
666.42	477.84
666.867	473.54
667.313	454.24
667.759	446.74
668.205	443.74
668.651	458.44
669.097	447.14
669.543	466.54
669.989	437.24
670.435	412.44
670.881	418.14
671.327	419.64
671.773	434.84
672.219	442.54
672.665	504.74
673.11	535.34
673.556	583.04
674.002	615.54
674.448	615.14
674.893	516.44
675.339	443.84
675.785	414.24
676.23	387.14
676.676	361.14
677.122	347.64
677.567	341.14
678.013	347.14
678.458	333.34
678.904	330.44
679.349	323.84
679.794	315.84
680.24	326.54
680.685	326.84
681.131	320.54
681.576	323.04
682.021	327.04
682.466	317.84
682.912	322.54
683.357	324.44
683.802	353.14
684.247	374.24
684.692	414.34
685.137	453.54
685.583	495.84
686.028	509.44
686.473	483.44
686.918	413.44
687.363	390.64
687.807	363.34
688.252	337.24
688.697	328.04
689.142	313.84
689.587	295.24
690.032	303.54
690.477	316.94
690.921	322.54
691.366	353.94
691.811	376.34
692.255	398.94
692.7	430.54
693.145	460.14
693.589	628.34
694.034	1021.64
694.478	1402.64
694.923	1608.64
695.367	2119.94
695.812	1115.04
696.256	460.44
696.701	344.64
697.145	316.34
697.59	306.74
698.034	297.64
698.478	304.34
698.922	303.24
699.367	299.54
699.811	313.04
700.255	324.74
700.699	350.44
701.143	392.04
701.588	439.44
702.032	483.44
702.476	474.14
702.92	445.04
703.364	450.74
703.808	568.34
704.252	932.04
704.696	1318.04
705.14	1563.54
705.584	1998.34
706.027	983.44
706.471	476.44
706.915	367.34
707.359	314.04
707.803	289.14
708.246	280.24
708.69	283.44
709.134	294.74
709.577	286.04
710.021	289.24
710.465	282.44
710.908	274.34
711.352	275.84
711.795	282.94
712.239	321.84
712.682	350.94
713.126	378.94
713.569	428.74
714.012	342.64
714.456	290.54
714.899	277.04
715.342	248.54
715.786	243.64
716.229	240.34
716.672	237.94
717.115	224.04
717.558	226.24
718.002	231.84
718.445	239.54
718.888	259.04
719.331	262.64
719.774	279.94
720.217	273.34
720.66	264.24
721.103	247.14
721.546	234.94
721.989	230.34
722.432	211.44
722.874	222.44
723.317	215.74
723.76	210.04
724.203	233.44
724.645	285.24
725.088	396.14
725.531	522.44
725.974	598.24
726.416	503.94
726.859	275.84
727.301	217.64
727.744	221.04
728.187	216.24
728.629	226.84
729.071	225.84
729.514	237.24
729.956	248.34
730.399	266.44
730.841	270.24
731.283	249.94
731.726	243.84
732.168	241.44
732.61	248.74
733.053	268.84
733.495	285.74
733.937	320.64
734.379	368.54
734.821	405.54
735.263	487.54
735.705	750.64
736.148	1405.94
736.59	2324.54
737.032	2835.04
737.474	2320.14
737.916	744.74
738.357	389.94
738.799	301.64
739.241	276.54
739.683	259.84
740.125	261.44
740.567	260.24
741.008	289.04
741.45	289.64
741.892	284.64
742.334	312.34
742.775	329.84
743.217	313.74
743.658	245.14
744.1	223.24
744.542	236.54
744.983	275.64
745.425	308.74
745.866	317.34
746.307	265.64
746.749	259.34
747.19	289.94
747.632	409.64
748.073	779.04
748.514	1652.34
748.956	2603.84
749.397	3256.64
749.838	2703.64
750.279	2762.04
750.72	1392.04
751.162	503.64
751.603	294.84
752.044	226.04
752.485	198.14
752.926	188.74
753.367	189.94
753.808	176.54
754.249	166.74
754.69	162.24
755.131	161.74
755.572	163.94
756.013	157.74
756.453	172.14
756.894	172.14
757.335	172.34
757.776	170.84
758.216	177.44
758.657	174.34
759.098	180.44
759.538	202.74
759.979	241.84
760.42	334.04
760.86	619.94
761.301	1590.24
761.741	3963.84
762.182	6007.64
762.622	4239.04
763.063	1208.24
763.503	492.04
763.943	317.94
764.384	297.74
764.824	361.94
765.264	400.44
765.705	267.04
766.145	189.54
766.585	162.84
767.025	162.24
767.465	173.04
767.906	218.84
768.346	279.24
768.786	305.14
769.226	234.64
769.666	283.84
770.106	542.14
770.546	1375.54
770.986	2448.44
771.426	2198.04
771.866	730.34
772.306	297.14
772.745	187.94
773.185	160.84
773.625	155.44
774.065	148.14
774.505	171.64
774.944	275.04
775.384	596.54
775.824	1113.54
776.263	1092.54
776.703	455.74
777.142	202.84
777.582	140.14
778.021	121.34
778.461	120.14
778.9	129.44
779.34	123.04
779.779	99.64
780.219	94.04
780.658	91.84
781.097	103.24
781.537	102.94
781.976	103.34
782.415	97.04
782.855	91.84
783.294	94.44
783.733	98.64
784.172	98.24
784.611	91.84
785.05	98.34
785.489	103.54
785.928	112.64
786.367	113.24
786.806	104.54
787.245	116.14
787.684	112.94
788.123	133.74
788.562	122.84
789.001	117.94
789.44	108.24
789.879	107.74
790.317	106.54
790.756	111.44
791.195	117.04
791.634	135.44
792.072	188.94
792.511	316.34
792.95	889.64
793.388	1968.14
793.827	1818.14
794.265	626.44
794.704	257.74
795.142	164.24
795.581	135.44
796.019	124.24
796.458	115.74
796.896	107.44
797.334	115.34
797.773	136.14
798.211	199.44
798.649	384.14
799.087	924.44
799.526	1446.74
799.964	1806.34
800.402	1869.84
800.84	691.44
801.278	273.84
801.716	170.34
802.154	131.34
802.592	131.54
803.03	126.24
803.468	122.64
803.906	126.04
804.344	131.84
804.782	126.64
805.22	119.74
805.658	115.44
806.096	133.74
806.533	141.04
806.971	156.24
807.409	191.94
807.847	286.04
808.284	586.04
808.722	1672.64
809.16	3020.94
809.597	2798.64
810.035	4936.64
810.472	5467.94
810.91	1948.94
811.347	729.94
811.785	367.64
812.222	231.24
812.66	180.24
813.097	149.24
813.535	131.74
813.972	115.64
814.409	109.74
814.846	101.94
815.284	100.54
815.721	92.64
816.158	94.44
816.595	112.94
817.032	162.04
817.47	178.14
817.907	145.14
818.344	128.34
818.781	98.64
819.218	93.54
819.655	111.14
820.092	171.04
820.529	197.24
820.966	173.04
821.403	119.44
821.839	98.84
822.276	91.54
822.713	112.34
823.15	122.44
823.587	102.34
824.023	133.84
824.46	264.64
824.897	800.14
825.333	1264.64
825.77	535.64
826.206	207.74
826.643	122.54
827.08	91.84
827.516	70.14
827.953	67.24
828.389	73.24
828.825	61.94
829.262	53.34
829.698	53.94
830.135	61.64
830.571	48.44
831.007	53.44
831.443	59.04
831.88	57.24
832.316	54.94
832.752	57.54
833.188	58.34
833.624	55.24
834.06	63.94
834.497	56.84
834.933	66.44
835.369	63.24
835.805	56.04
836.241	61.24
836.677	77.14
837.112	85.14
837.548	96.14
837.984	120.24
838.42	181.74
838.856	434.84
839.292	1361.34
839.727	2146.04
840.163	999.44
840.599	822.84
841.034	1837.24
841.47	1990.74
841.906	714.34
842.341	301.64
842.777	204.34
843.212	293.54
843.648	291.94
844.083	141.34
844.519	91.54
844.954	69.14
845.39	53.14
845.825	49.84
846.261	57.64
846.696	47.94
847.131	51.64
847.566	54.34
848.002	49.64
848.437	50.34
848.872	52.94
849.307	58.34
849.742	80.94
850.177	160.54
850.613	502.54
851.048	809.44
851.483	350.34
851.918	138.74
852.353	82.54
852.788	56.84
853.223	47.74
853.657	57.84
854.092	45.84
854.527	39.54
854.962	37.54
855.397	36.94
855.832	50.44
856.266	36.54
856.701	33.74
857.136	34.44
857.57	40.04
858.005	45.24
858.44	52.24
858.874	38.34
859.309	48.64
859.743	30.94
860.178	38.74
860.612	39.24
861.047	46.94
861.481	66.84
861.915	63.84
862.35	46.44
862.784	30.24
863.218	33.64
863.653	32.54
864.087	45.14
864.521	51.34
864.955	57.54
865.39	137.84
865.824	165.64
866.258	100.84
866.692	151.44
867.126	164.34
867.56	100.44
867.994	52.24
868.428	31.94
868.862	42.34
869.296	50.24
869.73	54.84
870.164	43.74
870.598	46.14
871.031	37.64
871.465	29.94
871.899	33.74
872.333	18.44
872.766	29.14
873.2	13.24
873.634	20.04
874.067	22.44
874.501	27.24
874.935	32.84
875.368	27.04
875.802	32.54
876.235	22.44
876.669	17.84
877.102	23.54
877.535	27.34
877.969	20.74
878.402	22.94
878.836	16.44
879.269	17.44
879.702	19.84
880.135	19.04
880.569	23.84
881.002	25.34
881.435	24.54
881.868	17.94
882.301	18.04
882.734	19.24
883.167	22.24
883.601	17.44
884.034	14.24
884.467	12.44
884.899	18.54
885.332	19.14
885.765	15.54
886.198	8.84
886.631	14.64
887.064	17.24
887.497	17.84
887.929	25.14
888.362	16.24
888.795	9.44
889.228	20.24
889.66	22.84
890.093	18.54
890.526	14.64
890.958	17.74
891.391	15.04
891.823	18.14
892.256	12.34
892.688	11.04
893.121	19.14
893.553	11.04
893.985	17.44
894.418	18.64
894.85	10.64
895.282	20.14
895.715	12.44
896.147	16.14
896.579	21.84
897.011	14.34
897.444	9.44
897.876	8.24
898.308	14.24
898.74	14.64
899.172	10.24
899.604	17.94
900.036	18.64
900.468	12.24
900.9	13.64
901.332	14.04
901.764	12.24
902.196	16.54
902.628	15.94
903.06	15.74
903.491	27.84
903.923	23.84
904.355	18.64
904.787	25.14
905.218	22.74
905.65	21.04
906.082	10.54
906.513	12.34
906.945	14.34
907.376	11.54
907.808	19.34
908.239	16.14
908.671	16.04
909.102	18.14
909.534	22.54
909.965	40.64
910.397	83.74
910.828	281.74
911.259	442.14
911.691	204.24
912.122	94.64
912.553	54.64
912.984	26.84
913.415	34.14
913.847	23.14
914.278	11.34
914.709	6.94
915.14	18.34
915.571	10.74
916.002	10.44
916.433	19.24
916.864	17.04
917.295	11.34
917.726	19.94
918.157	10.74
918.587	22.94
919.018	16.14
919.449	18.74
919.88	23.94
920.311	30.14
920.741	39.34
921.172	150.34
921.603	131.44
922.033	69.84
922.464	41.44
922.895	19.64
923.325	19.84
923.756	14.44
924.186	10.84
924.617	26.14
925.047	37.34
925.478	44.84
925.908	38.94
926.338	25.24
926.769	14.34
927.199	15.64
927.629	7.64
928.06	15.94
928.49	11.64
928.92	8.84
929.35	13.74
929.78	7.84
930.21	7.84
930.641	7.04
931.071	14.14
931.501	6.74
931.931	10.04
932.361	8.84
932.791	4.44
933.221	5.94
933.651	9.04
934.08	12.14
934.51	21.54
934.94	11.54
935.37	9.24
935.8	7.64
936.229	6.74
936.659	5.84
937.089	-2.06
937.519	15.44
937.948	22.44
938.378	14.34
938.807	2.74
939.237	5.24
939.666	5.44
940.096	-3.16
940.525	0.74
940.955	-6.16
941.384	4.54
941.814	-7.56
942.243	-1.16
942.672	3.94
943.102	-1.26
943.531	-0.16
943.96	3.94
944.39	1.54
944.819	-2.76
945.248	-1.06
945.677	-1.06
946.106	2.94
946.535	3.14
946.964	0.74
947.393	4.14
947.822	2.34
948.251	-0.06
948.68	-1.16
949.109	-0.26
949.538	8.14
949.967	3.44
950.396	0.94
950.825	-5.96
951.254	2.54
951.682	-6.36
952.111	2.04
952.54	6.34
952.969	-8.76
953.397	-6.36
953.826	1.54
954.254	-7.26
954.683	1.24
955.112	-2.66
955.54	1.04
955.969	1.14
956.397	4.24
956.826	-1.86
957.254	4.84
957.682	5.04
958.111	6.74
958.539	-1.76
958.967	3.24
959.396	-5.86
959.824	3.34
960.252	0.54
960.68	-1.96
961.109	-8.96
961.537	-13.06
961.965	-7.16
962.393	-0.46
962.821	-1.26
963.249	-0.96
963.677	2.04
964.105	0.54
964.533	45.04
964.961	38.04
965.389	19.84
965.817	10.64
966.245	0.54
966.672	-0.16
967.1	-10.06
967.528	0.04
967.956	-2.56
968.383	-0.36
968.811	-0.66
969.239	-2.26
969.666	-3.46
970.094	-0.06
970.522	3.34
970.949	-0.76
971.377	-5.46
971.804	1.24
972.232	1.74
972.659	1.04
973.087	-2.76
973.514	-9.26
973.941	-7.26
974.369	2.34
974.796	-0.36
975.223	1.24
975.651	0.54
976.078	0.84
976.505	-3.06
976.932	-5.86
977.359	16.44
977.786	17.94
978.214	0.24
978.641	0.74
979.068	-4.96
979.495	-4.66
979.922	-6.16
980.349	-8.06
980.776	3.64
981.202	2.14
981.629	0.34
982.056	-4.06
982.483	-4.96
982.91	6.44
983.337	-14.76
983.763	2.54
984.19	-5.26
984.617	-0.36
985.043	-8.86
985.47	-4.86
985.897	-8.06
986.323	-9.36
986.75	3.64
987.176	-4.26
987.603	-3.26
988.029	0.64
988.456	-10.46
988.882	2.14
989.308	-4.26
989.735	-0.76
990.161	-1.46
990.587	-3.46
991.014	-4.06
991.44	5.94
991.866	-1.36
992.292	-7.96
992.719	-7.06
993.145	-0.36
993.571	-5.26
993.997	-2.56
994.423	-4.26
994.849	-9.56
995.275	-2.76
995.701	-4.46
996.127	0.54
996.553	2.24
996.979	-6.46
997.405	-2.36
997.83	-3.06
998.256	-8.76
998.682	-3.06
999.108	-7.36
999.534	-3.96
999.959	-8.26
1000.385	-2.06
1000.811	1.14
1001.236	-7.36
1001.662	-9.66
1002.087	-1.46
1002.513	-4.76
1002.938	4.64
1003.364	-4.66
1003.789	-0.76
1004.215	-0.06
1004.64	-3.66
1005.066	6.74
1005.491	-0.06
1005.916	2.14
1006.342	-6.96
1006.767	-9.06
1007.192	2.74
1007.617	-1.06
1008.042	-6.96
1008.468	-12.56
1008.893	-12.06
1009.318	0.74
1009.743	-7.66
1010.168	0.44
1010.593	3.64
1011.018	-11.16
1011.443	1.84
1011.868	1.34
1012.293	-2.36
1012.718	-8.36
1013.143	-2.86
1013.567	-2.86
1013.992	-2.66
1014.417	-13.96
1014.842	2.94
1015.267	-4.76
1015.691	-10.46
1016.116	5.24
1016.541	-7.06
1016.965	2.14
1017.39	1.14
1017.814	-0.96
1018.239	-3.06
1018.663	-3.86
1019.088	-8.26
1019.512	-0.06
1019.937	-2.16
1020.361	-1.86
1020.785	-10.56
1021.21	-1.56
1021.634	1.34
1022.058	-2.26
1022.483	-1.76
1022.907	-7.76
1023.331	-3.26
1023.755	0.74
1024.179	-7.16
1024.604	-6.56
1025.028	-4.76
1025.452	-1.76
1025.876	0.64
1026.3	-3.56
1026.724	-8.46
1027.148	-3.96
1027.572	-12.16
1027.996	-0.86
1028.42	-4.06
1028.843	-7.46
1029.267	-8.06
1029.691	0.24
1030.115	-4.26
1030.539	-4.46
1030.962	-6.36
1031.386	-13.26
1031.81	-1.26
1032.233	-0.46
1032.657	-6.76
1033.08	-7.66
1033.504	-5.06
1033.927	-9.46
1034.351	-5.56
1034.774	-7.56
1035.198	-1.26
1035.621	-12.36
1036.045	-8.36
1036.468	0.74
1036.891	-13.06
1037.315	-11.86
1037.738	-6.26
1038.161	-0.76
1038.584	-8.36
1039.008	-5.46
1039.431	-1.66
1039.854	-0.76
1040.277	-12.16
1040.7	-13.26
1041.123	-6.06
1041.546	-10.86
1041.969	-3.26
1042.392	-8.46
1042.815	-3.56
1043.238	-1.56
1043.661	-3.36
1044.084	-8.66
1044.507	-2.26
1044.93	-6.96
1045.352	-6.56
1045.775	-2.66
1046.198	-4.86
1046.621	-6.36
1047.043	0.54
1047.466	6.04
1047.889	-7.56
1048.311	-5.76
1048.734	-4.36
1049.156	-2.66
1049.579	-0.56
1050.001	-5.06
1050.424	0.34
1050.846	-5.76
1051.269	-5.16
1051.691	-1.96
1052.113	-5.66
1052.536	-5.36
1052.958	-1.76
1053.38	-7.56
1053.802	-5.36
1054.225	0.14
1054.647	-9.56
1055.069	-3.96
1055.491	4.54
1055.913	-6.26
1056.335	-0.26
1056.757	-7.16
1057.179	-10.26
1057.601	-3.36
1058.023	-7.76
1058.445	-4.96
1058.867	-2.36
1059.289	-2.56
1059.711	-8.56
1060.133	-4.46
1060.555	-7.46
1060.976	-3.86
1061.398	-2.16
1061.82	-5.36
1062.241	-5.26
1062.663	-13.16
1063.085	-6.06
1063.506	-3.46
1063.928	-3.66
1064.35	-2.06
1064.771	-17.76
1065.193	-2.66
1065.614	-11.96
1066.035	2.54
1066.457	-6.36
1066.878	-3.46
1067.3	-5.36
1067.721	-5.46
1068.142	-8.06
1068.564	-8.66
1068.985	-8.96
1069.406	-2.96
1069.827	-9.16
1070.248	-3.66
1070.67	-8.66
1071.091	-9.36
1071.512	-2.36
1071.933	-7.86
1072.354	-7.06
1072.775	-3.46
1073.196	-8.06
1073.617	-4.66
1074.038	-6.66
1074.459	-4.26
1074.88	-8.86
1075.3	-2.46
1075.721	-2.66
1076.142	-3.96
1076.563	-3.06
1076.983	-5.76
1077.404	-3.96
1077.825	-12.36
1078.246	-5.46
1078.666	-11.96
1079.087	-9.76
1079.507	-7.86
1079.928	-0.16
1080.348	1.84
1080.769	-7.36
1081.189	-5.06
1081.61	-4.46
1082.03	-6.06
1082.451	-11.26
1082.871	-4.86
1083.291	-8.66
1083.711	-10.16
1084.132	-9.96
1084.552	-1.16
1084.972	-1.56
1085.392	-6.36
1085.813	-11.76
1086.233	-10.46
1086.653	-8.06
1087.073	-3.36
1087.493	-6.96
1087.913	-9.66
1088.333	-10.16
1088.753	-6.36
1089.173	0.34
1089.593	-5.36
1090.013	2.44
1090.433	0.64
1090.852	-7.86
1091.272	-6.46
1091.692	-1.56
1092.112	-6.06
1092.531	-9.76
1092.951	-15.56
1093.371	0.44
1093.79	-2.36
1094.21	-6.76
1094.63	-3.86
1095.049	-7.36
1095.469	-2.46
1095.888	-5.16
1096.308	-2.26
1096.727	-0.66
1097.146	-5.96
1097.566	0.24
1097.985	-2.76
1098.405	-1.16
1098.824	-7.96
1099.243	-6.76
1099.662	-13.16
1100.082	-3.46
1100.501	-0.36
1100.92	-3.06
1101.339	-6.06
1101.758	-9.76
