Data from 20171114-ORNL-Ar_H_NY_Subt18_08-06-42-845.txt Node
Date: Tue Nov 14 08:06:42 EST 2017
User: Ender
Spectrometer: HR+D1039
Trigger mode: 0
Integration Time (sec): 2.730000E-2
Scans to average: 10
Electric dark correction enabled: true
Nonlinearity correction enabled: false
Boxcar width: 0
XAxis mode: Wavelengths
Number of Pixels in Spectrum: 2048
>>>>>Begin Spectral Data<<<<<
187.836	-3.18
188.309	-3.18
188.782	-3.18
189.255	-4.58
189.728	-2.48
190.201	9.72
190.674	6.52
191.147	0.22
191.619	-9.78
192.092	-0.08
192.565	0.92
193.038	3.22
193.511	2.52
193.984	2.02
194.456	-1.98
194.929	-0.28
195.402	-5.38
195.874	2.52
196.347	-0.58
196.82	-1.08
197.292	5.62
197.765	-4.98
198.237	-7.38
198.71	0.22
199.182	-8.48
199.655	-2.38
200.127	0.32
200.6	-4.28
201.072	-6.58
201.544	-7.28
202.017	-3.68
202.489	5.22
202.961	-2.38
203.433	-8.88
203.906	-4.88
204.378	-12.58
204.85	-0.08
205.322	-6.18
205.794	0.82
206.266	-6.78
206.739	-2.68
207.211	-1.48
207.683	-5.48
208.155	-9.98
208.627	-7.78
209.099	-7.68
209.57	-10.48
210.042	-3.48
210.514	-4.78
210.986	-9.98
211.458	-16.48
211.93	-2.58
212.402	-1.38
212.873	-4.58
213.345	-9.38
213.817	-10.38
214.288	-4.78
214.76	-13.28
215.232	-5.38
215.703	-3.68
216.175	-4.78
216.646	-2.78
217.118	-6.08
217.589	-6.78
218.061	-4.08
218.532	-6.98
219.004	0.42
219.475	-2.88
219.946	-2.88
220.418	-7.28
220.889	0.42
221.36	2.62
221.832	-1.28
222.303	-11.28
222.774	-1.48
223.245	-10.58
223.717	-3.38
224.188	-2.28
224.659	-4.88
225.13	-7.48
225.601	-5.48
226.072	-3.08
226.543	-0.38
227.014	3.12
227.485	-5.18
227.956	-3.78
228.427	-5.68
228.898	0.52
229.369	-1.88
229.839	1.12
230.31	-7.78
230.781	-0.28
231.252	-4.28
231.722	-5.38
232.193	-6.18
232.664	0.02
233.135	-7.88
233.605	-3.38
234.076	-14.58
234.546	-1.68
235.017	4.32
235.487	-5.38
235.958	-3.68
236.428	-3.18
236.899	-1.68
237.369	-5.08
237.84	-7.58
238.31	-0.68
238.78	-10.78
239.251	-2.28
239.721	-1.58
240.191	-2.18
240.662	-4.78
241.132	-2.88
241.602	-9.28
242.072	-3.98
242.542	-1.18
243.013	-4.68
243.483	1.12
243.953	2.92
244.423	-3.08
244.893	-7.68
245.363	3.52
245.833	4.82
246.303	-5.18
246.773	1.02
247.243	-1.28
247.712	0.52
248.182	6.32
248.652	-2.48
249.122	-4.78
249.592	-0.98
250.061	-0.78
250.531	12.22
251.001	-0.68
251.471	-3.18
251.94	8.22
252.41	-2.48
252.879	-5.48
253.349	6.92
253.818	4.62
254.288	3.32
254.757	4.22
255.227	-2.38
255.696	3.62
256.166	3.72
256.635	1.72
257.105	2.52
257.574	6.12
258.043	1.32
258.513	-4.68
258.982	7.52
259.451	-3.98
259.92	0.52
260.389	2.42
260.859	4.42
261.328	1.42
261.797	3.62
262.266	-1.98
262.735	6.82
263.204	0.62
263.673	3.32
264.142	1.82
264.611	-4.08
265.08	2.92
265.549	2.72
266.018	9.72
266.487	0.02
266.955	0.72
267.424	0.72
267.893	7.92
268.362	-1.58
268.83	7.62
269.299	6.12
269.768	8.02
270.236	5.72
270.705	-0.28
271.174	0.12
271.642	4.32
272.111	5.42
272.579	3.22
273.048	7.82
273.516	-2.58
273.985	8.02
274.453	7.92
274.922	8.82
275.39	11.02
275.858	0.62
276.327	8.62
276.795	11.52
277.263	11.22
277.731	15.62
278.2	11.22
278.668	9.52
279.136	14.52
279.604	5.52
280.072	14.72
280.54	8.02
281.008	12.52
281.477	9.02
281.945	8.82
282.413	13.52
282.881	15.42
283.348	10.12
283.816	8.62
284.284	10.22
284.752	20.42
285.22	15.52
285.688	12.62
286.156	12.22
286.623	15.02
287.091	9.42
287.559	13.72
288.026	12.52
288.494	13.82
288.962	6.32
289.429	3.42
289.897	18.62
290.364	11.52
290.832	20.92
291.3	14.72
291.767	17.92
292.234	15.42
292.702	18.42
293.169	20.12
293.637	18.72
294.104	16.82
294.571	11.82
295.039	10.92
295.506	11.32
295.973	16.02
296.44	18.12
296.908	20.22
297.375	13.22
297.842	22.22
298.309	22.32
298.776	16.32
299.243	21.72
299.71	12.42
300.177	22.22
300.644	20.92
301.111	15.32
301.578	18.12
302.045	14.62
302.512	21.52
302.979	25.22
303.446	21.92
303.913	22.92
304.379	22.72
304.846	29.62
305.313	21.22
305.78	15.02
306.246	22.42
306.713	25.42
307.18	18.22
307.646	21.02
308.113	28.22
308.579	20.22
309.046	22.82
309.512	27.12
309.979	19.12
310.445	22.42
310.912	24.62
311.378	31.72
311.845	33.52
312.311	34.92
312.777	39.42
313.244	28.42
313.71	39.82
314.176	28.42
314.642	29.12
315.109	28.12
315.575	34.82
316.041	38.12
316.507	32.22
316.973	35.22
317.439	32.62
317.905	31.32
318.371	28.32
318.837	33.92
319.303	34.12
319.769	37.02
320.235	33.42
320.701	37.22
321.167	35.32
321.633	31.82
322.099	40.02
322.564	39.52
323.03	37.32
323.496	40.52
323.962	46.02
324.427	35.72
324.893	36.32
325.359	35.72
325.824	37.12
326.29	39.32
326.755	37.82
327.221	47.22
327.686	40.72
328.152	46.82
328.617	50.42
329.083	46.02
329.548	52.72
330.014	47.82
330.479	41.82
330.944	47.52
331.41	42.02
331.875	45.82
332.34	37.82
332.805	40.52
333.271	43.62
333.736	38.52
334.201	46.12
334.666	51.52
335.131	57.32
335.596	48.82
336.061	47.32
336.526	45.72
336.991	43.82
337.456	54.92
337.921	45.12
338.386	52.02
338.851	53.42
339.316	43.42
339.781	53.82
340.246	49.72
340.711	48.92
341.175	49.22
341.64	44.12
342.105	53.52
342.569	58.32
343.034	55.92
343.499	55.12
343.963	53.82
344.428	64.02
344.893	61.62
345.357	59.52
345.822	64.72
346.286	68.12
346.751	75.92
347.215	69.82
347.679	83.22
348.144	99.92
348.608	85.52
349.073	71.82
349.537	78.02
350.001	86.52
350.465	89.12
350.93	82.52
351.394	86.42
351.858	77.92
352.322	94.12
352.786	87.52
353.25	101.52
353.715	116.42
354.179	100.02
354.643	117.02
355.107	126.62
355.571	105.62
356.035	100.62
356.498	117.32
356.962	119.12
357.426	130.42
357.89	120.02
358.354	94.12
358.818	85.72
359.281	90.22
359.745	80.52
360.209	82.32
360.673	82.52
361.136	85.32
361.6	89.92
362.064	87.22
362.527	86.12
362.991	94.92
363.454	88.22
363.918	87.12
364.381	84.62
364.845	93.92
365.308	97.12
365.772	96.92
366.235	91.02
366.698	87.22
367.162	96.22
367.625	81.22
368.088	90.92
368.552	93.12
369.015	95.02
369.478	99.22
369.941	99.82
370.404	98.22
370.867	103.82
371.331	107.72
371.794	118.52
372.257	113.52
372.72	117.62
373.183	107.32
373.646	102.22
374.109	97.72
374.572	105.52
375.035	105.82
375.497	108.22
375.96	111.32
376.423	111.52
376.886	119.12
377.349	118.42
377.811	108.62
378.274	111.02
378.737	111.02
379.199	109.42
379.662	117.22
380.125	116.42
380.587	113.22
381.05	118.12
381.512	123.12
381.975	134.52
382.437	129.72
382.9	119.72
383.362	129.92
383.825	145.02
384.287	131.82
384.75	121.22
385.212	129.92
385.674	139.52
386.136	142.42
386.599	124.82
387.061	136.12
387.523	132.92
387.985	136.12
388.447	138.82
388.91	132.22
389.372	134.22
389.834	138.72
390.296	139.62
390.758	139.62
391.22	150.52
391.682	155.02
392.144	160.42
392.606	154.42
393.068	145.62
393.529	163.12
393.991	151.42
394.453	140.32
394.915	139.32
395.377	143.42
395.838	148.52
396.3	145.32
396.762	149.92
397.224	149.32
397.685	145.62
398.147	145.52
398.608	157.42
399.07	145.72
399.531	146.62
399.993	161.32
400.454	169.82
400.916	159.92
401.377	154.92
401.839	166.82
402.3	169.32
402.762	186.72
403.223	194.12
403.684	185.82
404.145	179.92
404.607	174.32
405.068	175.32
405.529	181.82
405.99	201.12
406.451	193.62
406.913	186.22
407.374	174.22
407.835	178.92
408.296	183.62
408.757	189.82
409.218	206.82
409.679	186.52
410.14	192.32
410.601	192.62
411.062	195.12
411.522	202.02
411.983	187.12
412.444	190.52
412.905	197.33
413.366	202.42
413.826	215.82
414.287	238.62
414.748	290.02
415.208	281.32
415.669	237.72
416.13	225.02
416.59	231.02
417.051	240.12
417.511	245.32
417.972	264.33
418.432	275.12
418.893	323.12
419.353	285.52
419.814	218.62
420.274	205.82
420.734	207.62
421.195	219.62
421.655	213.12
422.115	211.02
422.576	210.52
423.036	224.42
423.496	228.02
423.956	234.72
424.416	254.22
424.876	298.02
425.336	291.52
425.797	289.52
426.257	277.22
426.717	266.42
427.177	254.62
427.637	246.22
428.097	264.32
428.556	270.92
429.016	287.32
429.476	284.02
429.936	290.62
430.396	303.42
430.856	311.52
431.315	336.32
431.775	374.22
432.235	412.32
432.694	377.02
433.154	390.42
433.614	426.72
434.073	368.12
434.533	308.62
434.993	292.82
435.452	309.42
435.912	315.02
436.371	311.62
436.83	307.62
437.29	292.12
437.749	274.62
438.209	279.22
438.668	298.62
439.127	307.02
439.587	293.62
440.046	276.82
440.505	294.22
440.964	305.12
441.424	361.12
441.883	341.32
442.342	293.02
442.801	257.42
443.26	249.02
443.719	249.23
444.178	237.72
444.637	233.62
445.096	247.12
445.555	248.92
446.014	248.92
446.473	262.23
446.932	268.02
447.391	254.72
447.849	266.02
448.308	244.12
448.767	252.72
449.226	262.72
449.685	258.92
450.143	270.92
450.602	271.32
451.061	254.82
451.519	264.22
451.978	261.42
452.436	262.32
452.895	260.62
453.353	285.72
453.812	272.33
454.27	271.72
454.729	264.83
455.187	268.72
455.646	271.12
456.104	280.02
456.562	295.62
457.021	298.62
457.479	291.52
457.937	305.02
458.395	296.62
458.854	278.62
459.312	284.82
459.77	309.73
460.228	284.72
460.686	278.92
461.144	285.02
461.602	280.42
462.06	279.82
462.518	289.62
462.976	287.12
463.434	290.92
463.892	288.52
464.35	308.12
464.808	326.62
465.266	306.52
465.724	310.83
466.181	310.23
466.639	303.32
467.097	327.73
467.555	336.82
468.012	339.02
468.47	345.23
468.928	368.42
469.385	380.83
469.843	381.72
470.3	389.02
470.758	402.82
471.215	429.22
471.673	454.22
472.13	450.32
472.588	469.12
473.045	421.42
473.503	416.33
473.96	443.02
474.417	448.62
474.875	487.22
475.332	522.02
475.789	505.52
476.246	517.62
476.704	537.72
477.161	548.12
477.618	574.72
478.075	613.52
478.532	675.62
478.989	752.23
479.446	859.83
479.903	821.42
480.36	858.52
480.817	910.42
481.274	1006.32
481.731	1100.92
482.188	1187.53
482.645	1321.32
483.102	1408.03
483.558	1531.32
484.015	1587.12
484.472	1546.42
484.929	1499.92
485.385	1474.62
485.842	1439.82
486.299	1395.42
486.755	1345.42
487.212	1150.72
487.668	980.42
488.125	910.92
488.582	831.72
489.038	795.92
489.494	759.72
489.951	745.23
490.407	733.22
490.864	711.12
491.32	704.82
491.776	713.92
492.233	708.92
492.689	681.92
493.145	664.92
493.602	659.82
494.058	682.52
494.514	673.12
494.97	695.52
495.426	709.02
495.882	694.02
496.338	676.92
496.794	693.92
497.251	674.12
497.707	703.52
498.163	693.92
498.618	709.92
499.074	704.62
499.53	736.72
499.986	741.02
500.442	704.12
500.898	686.62
501.354	677.12
501.809	689.72
502.265	694.52
502.721	698.22
503.177	692.02
503.632	701.42
504.088	705.42
504.543	731.32
504.999	760.23
505.455	717.72
505.91	695.32
506.366	705.32
506.821	699.42
507.277	697.82
507.732	702.72
508.187	700.92
508.643	707.82
509.098	709.02
509.553	728.72
510.009	742.72
510.464	752.12
510.919	760.42
511.375	776.92
511.83	778.92
512.285	799.82
512.74	837.23
513.195	860.82
513.65	841.83
514.105	845.92
514.56	849.72
515.015	868.92
515.47	886.73
515.925	858.42
516.38	868.22
516.835	873.02
517.29	853.33
517.745	850.42
518.2	835.92
518.655	830.32
519.109	820.62
519.564	815.32
520.019	812.72
520.474	799.22
520.928	788.92
521.383	798.32
521.838	784.52
522.292	783.32
522.747	793.92
523.201	779.12
523.656	766.32
524.11	763.72
524.565	776.73
525.019	764.52
525.474	777.42
525.928	769.52
526.382	762.42
526.837	773.42
527.291	776.12
527.745	768.82
528.2	769.62
528.654	762.42
529.108	753.02
529.562	762.52
530.016	770.42
530.47	759.32
530.925	760.82
531.379	766.92
531.833	772.82
532.287	775.02
532.741	772.52
533.195	774.62
533.649	784.52
534.103	790.42
534.556	781.32
535.01	779.52
535.464	773.22
535.918	787.62
536.372	782.52
536.826	780.92
537.279	775.32
537.733	779.32
538.187	787.72
538.64	767.42
539.094	785.92
539.548	799.12
540.001	795.22
540.455	792.92
540.908	806.62
541.362	811.73
541.815	809.52
542.269	822.12
542.722	843.12
543.175	840.72
543.629	847.62
544.082	862.02
544.536	874.62
544.989	865.72
545.442	876.22
545.895	863.32
546.349	865.52
546.802	878.22
547.255	871.12
547.708	886.73
548.161	886.42
548.614	900.72
549.067	905.12
549.52	904.52
549.973	888.12
550.426	887.12
550.879	872.82
551.332	871.02
551.785	898.32
552.238	902.42
552.691	891.33
553.144	913.02
553.596	927.92
554.049	947.82
554.502	980.82
554.955	994.62
555.407	991.92
555.86	978.42
556.313	978.73
556.765	971.02
557.218	967.32
557.67	966.92
558.123	960.52
558.576	956.32
559.028	958.22
559.48	965.62
559.933	952.42
560.385	916.12
560.838	887.22
561.29	873.32
561.742	870.62
562.195	837.02
562.647	842.22
563.099	848.92
563.551	844.92
564.004	861.42
564.456	846.42
564.908	826.42
565.36	806.62
565.812	797.22
566.264	786.72
566.716	780.52
567.168	766.02
567.62	765.62
568.072	769.92
568.524	760.22
568.976	760.82
569.428	742.02
569.88	744.82
570.332	748.22
570.784	751.72
571.235	749.12
571.687	759.42
572.139	773.52
572.59	776.82
573.042	783.22
573.494	780.72
573.945	776.42
574.397	752.32
574.849	752.82
575.3	757.23
575.752	742.52
576.203	744.82
576.655	741.72
577.106	741.82
577.557	733.42
578.009	733.52
578.46	735.92
578.912	724.72
579.363	731.42
579.814	725.22
580.265	723.42
580.717	719.92
581.168	726.52
581.619	734.92
582.07	737.22
582.521	730.82
582.972	728.92
583.423	728.22
583.875	725.52
584.326	738.02
584.777	751.32
585.227	773.42
585.678	793.72
586.129	809.62
586.58	832.22
587.031	862.92
587.482	898.22
587.933	923.92
588.384	891.62
588.834	857.52
589.285	834.72
589.736	847.32
590.186	832.62
590.637	834.32
591.088	809.52
591.538	806.42
591.989	797.82
592.439	788.92
592.89	776.72
593.34	760.82
593.791	769.22
594.241	751.42
594.692	760.52
595.142	740.62
595.593	741.82
596.043	759.22
596.493	757.32
596.943	767.12
597.394	784.82
597.844	766.62
598.294	788.72
598.744	811.42
599.195	835.32
599.645	887.42
600.095	931.22
600.545	987.02
600.995	1037.52
601.445	1123.12
601.895	1186.92
602.345	1211.12
602.795	1196.53
603.245	1151.52
603.695	1088.82
604.145	1033.42
604.594	987.83
605.044	927.02
605.494	871.32
605.944	815.62
606.393	798.42
606.843	789.12
607.293	789.02
607.743	782.23
608.192	798.52
608.642	819.23
609.091	810.02
609.541	819.42
609.99	819.92
610.44	830.02
610.889	770.22
611.339	747.62
611.788	732.02
612.238	749.62
612.687	752.62
613.136	750.12
613.586	756.32
614.035	746.02
614.484	764.72
614.933	755.32
615.383	753.02
615.832	763.52
616.281	756.33
616.73	721.92
617.179	699.52
617.628	686.82
618.077	685.02
618.526	657.02
618.975	666.72
619.424	657.42
619.873	655.42
620.322	663.82
620.771	655.62
621.22	648.02
621.669	638.92
622.118	633.12
622.567	626.83
623.015	605.72
623.464	608.82
623.913	600.72
624.361	593.52
624.81	590.62
625.259	593.12
625.707	595.02
626.156	590.12
626.604	620.72
627.053	606.82
627.501	611.02
627.95	616.62
628.398	624.42
628.847	601.72
629.295	617.23
629.744	622.72
630.192	616.22
630.64	606.62
631.089	583.12
631.537	586.42
631.985	575.82
632.433	570.02
632.881	572.42
633.33	575.42
633.778	564.42
634.226	560.92
634.674	577.02
635.122	580.32
635.57	593.92
636.018	597.22
636.466	604.62
636.914	588.23
637.362	614.83
637.81	615.92
638.258	617.02
638.705	620.52
639.153	650.42
639.601	666.32
640.049	689.82
640.497	717.22
640.944	748.82
641.392	692.92
641.84	660.62
642.287	626.92
642.735	614.82
643.182	606.92
643.63	603.42
644.078	607.42
644.525	613.72
644.973	625.52
645.42	630.32
645.867	653.73
646.315	669.42
646.762	700.52
647.21	728.42
647.657	737.92
648.104	781.92
648.551	803.42
648.999	869.02
649.446	941.23
649.893	1016.42
650.34	1171.32
650.787	1395.82
651.234	1690.62
651.682	2190.12
652.129	2966.52
652.576	4251.12
653.023	6152.43
653.47	8335.62
653.917	10331.12
654.363	11922.43
654.81	13134.93
655.257	12447.43
655.704	8269.72
656.151	4996.82
656.598	3287.93
657.044	2351.43
657.491	1834.22
657.938	1495.62
658.385	1249.73
658.831	1094.52
659.278	975.92
659.724	870.52
660.171	817.72
660.618	745.02
661.064	718.22
661.511	698.23
661.957	686.32
662.404	670.72
662.85	678.33
663.296	657.02
663.743	592.62
664.189	565.12
664.635	556.02
665.082	559.32
665.528	551.62
665.974	552.22
666.42	550.52
666.867	537.82
667.313	525.52
667.759	500.12
668.205	475.82
668.651	485.92
669.097	474.92
669.543	472.02
669.989	472.62
670.435	479.33
670.881	482.52
671.327	492.92
671.773	503.42
672.219	519.82
672.665	579.62
673.11	624.62
673.556	676.02
674.002	724.02
674.448	705.82
674.893	596.02
675.339	511.92
675.785	468.23
676.23	454.72
676.676	425.73
677.122	414.02
677.567	395.12
678.013	396.72
678.458	382.92
678.904	392.83
679.349	368.52
679.794	377.42
680.24	378.72
680.685	373.42
681.131	371.62
681.576	379.02
682.021	373.32
682.466	368.82
682.912	374.62
683.357	374.73
683.802	407.12
684.247	430.02
684.692	483.22
685.137	533.12
685.583	576.92
686.028	608.12
686.473	552.02
686.918	474.42
687.363	453.82
687.807	419.02
688.252	393.52
688.697	379.02
689.142	358.22
689.587	357.82
690.032	356.42
690.477	363.52
690.921	376.42
691.366	411.42
691.811	427.12
692.255	453.92
692.7	487.42
693.145	538.72
693.589	738.12
694.034	1212.32
694.478	1646.62
694.923	1871.12
695.367	2426.82
695.812	1279.22
696.256	540.82
696.701	400.32
697.145	367.82
697.59	344.52
698.034	345.82
698.478	343.42
698.922	342.62
699.367	345.73
699.811	351.12
700.255	378.12
700.699	404.52
701.143	451.12
701.588	511.02
702.032	547.82
702.476	540.12
702.92	526.92
703.364	532.82
703.808	700.12
704.252	1123.53
704.696	1554.62
705.14	1793.12
705.584	2293.43
706.027	1135.22
706.471	562.22
706.915	420.42
707.359	379.72
707.803	346.82
708.246	339.42
708.69	333.82
709.134	334.02
709.577	332.12
710.021	338.72
710.465	333.22
710.908	324.92
711.352	317.02
711.795	331.02
712.239	379.52
712.682	416.52
713.126	444.52
713.569	484.02
714.012	387.32
714.456	328.92
714.899	305.42
715.342	293.92
715.786	276.73
716.229	271.02
716.672	282.62
717.115	265.62
717.558	268.92
718.002	262.62
718.445	277.52
718.888	307.02
719.331	309.42
719.774	332.72
720.217	319.72
720.66	309.02
721.103	283.82
721.546	271.72
721.989	267.52
722.432	241.12
722.874	254.02
723.317	243.32
723.76	258.72
724.203	272.42
724.645	332.92
725.088	482.82
725.531	616.42
725.974	688.12
726.416	589.72
726.859	330.12
727.301	264.32
727.744	255.42
728.187	245.42
728.629	254.62
729.071	260.02
729.514	275.92
729.956	289.72
730.399	303.52
730.841	306.12
731.283	292.52
731.726	289.33
732.168	280.72
732.61	298.72
733.053	301.83
733.495	340.62
733.937	383.33
734.379	418.62
734.821	466.62
735.263	588.62
735.705	904.12
736.148	1702.43
736.59	2774.02
737.032	3319.22
737.474	2702.72
737.916	873.02
738.357	467.22
738.799	350.02
739.241	324.82
739.683	306.52
740.125	315.02
740.567	324.12
741.008	342.12
741.45	337.12
741.892	335.92
742.334	376.83
742.775	382.92
743.217	371.22
743.658	298.92
744.1	270.72
744.542	282.12
744.983	346.02
745.425	378.92
745.866	368.22
746.307	299.23
746.749	300.02
747.19	351.52
747.632	483.72
748.073	948.32
748.514	2001.42
748.956	3072.62
749.397	3876.12
749.838	3214.32
750.279	3196.03
750.72	1609.42
751.162	589.92
751.603	343.52
752.044	277.22
752.485	231.02
752.926	228.72
753.367	215.82
753.808	209.12
754.249	198.32
754.69	201.12
755.131	201.92
755.572	191.42
756.013	191.62
756.453	196.32
756.894	198.92
757.335	200.42
757.776	211.02
758.216	212.72
758.657	215.52
759.098	210.52
759.538	241.62
759.979	284.82
760.42	396.42
760.86	754.22
761.301	1969.82
761.741	4766.82
762.182	6919.02
762.622	4894.82
763.063	1416.42
763.503	585.52
763.943	352.02
764.384	293.22
764.824	269.83
765.264	261.82
765.705	231.22
766.145	198.32
766.585	190.22
767.025	184.02
767.465	175.92
767.906	191.12
768.346	212.12
768.786	228.22
769.226	231.92
769.666	334.72
770.106	668.12
770.546	1667.62
770.986	2839.23
771.426	2561.82
771.866	849.22
772.306	353.12
772.745	223.12
773.185	179.82
773.625	176.32
774.065	159.72
774.505	163.02
774.944	214.42
775.384	370.82
775.824	615.83
776.263	604.02
776.703	299.02
777.142	163.02
777.582	144.62
778.021	136.22
778.461	129.32
778.9	128.12
779.34	131.62
779.779	122.12
780.219	124.62
780.658	112.52
781.097	116.92
781.537	111.22
781.976	111.52
782.415	109.72
782.855	111.92
783.294	111.42
783.733	108.12
784.172	112.02
784.611	111.12
785.05	114.12
785.489	113.02
785.928	121.02
786.367	128.02
786.806	130.02
787.245	135.42
787.684	144.22
788.123	159.12
788.562	146.72
789.001	137.12
789.44	132.02
789.879	125.72
790.317	123.62
790.756	131.52
791.195	126.82
791.634	153.62
792.072	214.12
792.511	389.33
792.95	1063.42
793.388	2273.02
793.827	2048.92
794.265	713.82
794.704	295.82
795.142	195.42
795.581	162.82
796.019	145.92
796.458	133.32
796.896	135.42
797.334	137.62
797.773	163.12
798.211	241.72
798.649	474.62
799.087	1100.02
799.526	1722.82
799.964	2152.82
800.402	2138.12
800.84	810.82
801.278	330.73
801.716	208.82
802.154	163.82
802.592	158.82
803.03	143.72
803.468	137.32
803.906	154.02
804.344	157.12
804.782	150.72
805.22	148.72
805.658	138.82
806.096	155.72
806.533	170.92
806.971	199.62
807.409	237.22
807.847	343.72
808.284	717.32
808.722	1999.42
809.16	3551.52
809.597	3367.03
810.035	5824.32
810.472	6206.52
810.91	2259.22
811.347	875.62
811.785	432.52
812.222	278.12
812.66	210.62
813.097	173.42
813.535	149.92
813.972	140.62
814.409	126.02
814.846	119.22
815.284	116.82
815.721	113.42
816.158	108.52
816.595	118.42
817.032	161.42
817.47	202.52
817.907	156.22
818.344	112.92
818.781	107.32
819.218	105.42
819.655	135.32
820.092	210.22
820.529	228.42
820.966	181.12
821.403	133.72
821.839	100.12
822.276	100.52
822.713	131.02
823.15	151.22
823.587	129.12
824.023	155.12
824.46	313.12
824.897	956.73
825.333	1452.93
825.77	627.32
826.206	248.92
826.643	141.12
827.08	112.12
827.516	90.12
827.953	87.72
828.389	91.12
828.825	72.52
829.262	71.32
829.698	64.42
830.135	61.92
830.571	65.32
831.007	66.12
831.443	64.62
831.88	65.32
832.316	66.92
832.752	66.02
833.188	69.22
833.624	71.92
834.06	78.42
834.497	73.12
834.933	75.52
835.369	76.12
835.805	78.22
836.241	78.12
836.677	80.92
837.112	95.32
837.548	109.32
837.984	140.92
838.42	220.83
838.856	536.12
839.292	1626.32
839.727	2469.43
840.163	1152.22
840.599	996.82
841.034	2162.42
841.47	2283.82
841.906	840.02
842.341	358.62
842.777	209.92
843.212	213.32
843.648	193.02
844.083	113.72
844.519	83.12
844.954	78.02
845.39	63.72
845.825	62.52
846.261	57.12
846.696	56.12
847.131	54.82
847.566	66.02
848.002	49.62
848.437	55.62
848.872	62.52
849.307	69.22
849.742	93.32
850.177	195.92
850.613	594.83
851.048	940.02
851.483	413.92
851.918	168.32
852.353	90.32
852.788	57.72
853.223	52.62
853.657	54.22
854.092	50.32
854.527	43.12
854.962	42.62
855.397	49.52
855.832	52.32
856.266	49.72
856.701	46.92
857.136	41.12
857.57	48.42
858.005	55.62
858.44	64.72
858.874	45.52
859.309	52.72
859.743	43.62
860.178	56.92
860.612	45.82
861.047	57.82
861.481	76.02
861.915	83.52
862.35	55.52
862.784	33.62
863.218	42.72
863.653	35.72
864.087	43.12
864.521	61.22
864.955	71.52
865.39	161.32
865.824	184.82
866.258	127.32
866.692	183.92
867.126	198.72
867.56	117.22
867.994	63.12
868.428	43.22
868.862	50.72
869.296	59.22
869.73	67.52
870.164	59.92
870.598	54.02
871.031	40.62
871.465	32.02
871.899	32.12
872.333	30.02
872.766	24.02
873.2	26.02
873.634	31.52
874.067	20.62
874.501	24.82
874.935	36.52
875.368	32.32
875.802	34.32
876.235	26.32
876.669	28.72
877.102	25.62
877.535	26.62
877.969	25.62
878.402	23.92
878.836	17.82
879.269	23.72
879.702	27.92
880.135	32.22
880.569	24.52
881.002	29.42
881.435	22.42
881.868	23.02
882.301	23.32
882.734	19.32
883.167	26.62
883.601	22.52
884.034	29.72
884.467	20.72
884.899	23.92
885.332	20.12
885.765	21.72
886.198	19.72
886.631	22.62
887.064	18.72
887.497	20.42
887.929	21.72
888.362	16.52
888.795	17.92
889.228	12.32
889.66	24.02
890.093	13.82
890.526	15.52
890.958	20.02
891.391	22.02
891.823	19.82
892.256	16.52
892.688	11.92
893.121	15.12
893.553	15.82
893.985	21.72
894.418	18.62
894.85	7.82
895.282	19.02
895.715	16.32
896.147	22.92
896.579	21.32
897.011	19.22
897.444	19.82
897.876	15.42
898.308	18.62
898.74	13.32
899.172	12.32
899.604	22.52
900.036	20.22
900.468	11.52
900.9	13.52
901.332	22.52
901.764	18.12
902.196	21.22
902.628	20.02
903.06	14.92
903.491	29.22
903.923	21.12
904.355	20.32
904.787	24.92
905.218	30.32
905.65	20.32
906.082	17.02
906.513	12.62
906.945	13.82
907.376	7.32
907.808	23.02
908.239	20.32
908.671	21.92
909.102	20.82
909.534	26.42
909.965	48.02
910.397	99.42
910.828	338.92
911.259	505.12
911.691	234.52
912.122	112.12
912.553	54.12
912.984	41.82
913.415	25.52
913.847	23.12
914.278	13.02
914.709	11.92
915.14	20.32
915.571	16.22
916.002	10.32
916.433	16.12
916.864	16.22
917.295	2.12
917.726	19.62
918.157	18.02
918.587	32.12
919.018	27.32
919.449	18.42
919.88	22.02
920.311	33.72
920.741	53.02
921.172	178.22
921.603	164.12
922.033	75.32
922.464	44.02
922.895	19.82
923.325	16.72
923.756	13.52
924.186	14.12
924.617	17.12
925.047	20.42
925.478	28.02
925.908	23.52
926.338	13.82
926.769	7.72
927.199	17.62
927.629	3.82
928.06	17.22
928.49	11.02
928.92	14.02
929.35	14.32
929.78	6.92
930.21	15.02
930.641	2.12
931.071	13.62
931.501	3.92
931.931	8.02
932.361	11.42
932.791	-0.28
933.221	4.52
933.651	10.22
934.08	21.62
934.51	29.12
934.94	7.42
935.37	10.72
935.8	10.12
936.229	6.92
936.659	8.92
937.089	6.22
937.519	12.62
937.948	23.92
938.378	17.32
938.807	1.42
939.237	1.92
939.666	8.62
940.096	-5.28
940.525	3.32
940.955	4.32
941.384	-2.48
941.814	-7.78
942.243	-3.78
942.672	3.02
943.102	-1.38
943.531	8.12
943.96	5.32
944.39	1.32
944.819	0.92
945.248	3.42
945.677	1.32
946.106	3.82
946.535	5.82
946.964	-0.78
947.393	-0.68
947.822	1.22
948.251	-4.98
948.68	5.62
949.109	3.12
949.538	6.52
949.967	3.72
950.396	-4.88
950.825	2.42
951.254	-0.18
951.682	-6.48
952.111	6.92
952.54	-0.98
952.969	-3.98
953.397	-3.68
953.826	2.92
954.254	-7.08
954.683	6.92
955.112	-3.48
955.54	0.92
955.969	-0.98
956.397	-2.28
956.826	-5.58
957.254	4.02
957.682	-1.98
958.111	7.92
958.539	-2.18
958.967	5.22
959.396	-1.28
959.824	0.52
960.252	4.42
960.68	-4.48
961.109	-7.18
961.537	-4.58
961.965	-0.68
962.393	-8.18
962.821	3.92
963.249	3.92
963.677	3.32
964.105	6.12
964.533	48.32
964.961	46.82
965.389	25.02
965.817	7.92
966.245	1.92
966.672	-0.28
967.1	-5.58
967.528	2.92
967.956	-1.18
968.383	1.02
968.811	-4.28
969.239	-5.48
969.666	-3.08
970.094	3.72
970.522	0.32
970.949	-0.18
971.377	-2.08
971.804	1.62
972.232	1.62
972.659	-7.48
973.087	-4.08
973.514	-2.68
973.941	-3.08
974.369	4.02
974.796	-5.48
975.223	5.62
975.651	4.02
976.078	-2.28
976.505	-5.78
976.932	2.22
977.359	17.02
977.786	17.72
978.214	2.42
978.641	-4.78
979.068	-5.28
979.495	-5.58
979.922	0.42
980.349	-6.98
980.776	-0.78
981.202	2.02
981.629	2.82
982.056	1.32
982.483	-0.58
982.91	2.62
983.337	-13.38
983.763	7.02
984.19	-0.68
984.617	-4.78
985.043	-5.28
985.47	-5.68
985.897	-0.18
986.323	-6.68
986.75	2.12
987.176	-5.68
987.603	4.92
988.029	-1.38
988.456	-7.58
988.882	1.52
989.308	-4.58
989.735	-10.48
990.161	0.62
990.587	-3.28
991.014	0.12
991.44	13.32
991.866	-3.28
992.292	-2.18
992.719	-4.08
993.145	-0.78
993.571	-6.68
993.997	-1.98
994.423	-2.28
994.849	-7.18
995.275	7.62
995.701	-0.98
996.127	-0.58
996.553	0.22
996.979	-1.28
997.405	0.42
997.83	-11.48
998.256	-2.48
998.682	-2.28
999.108	-10.78
999.534	-4.08
999.959	-1.98
1000.385	-4.78
1000.811	-4.18
1001.236	-8.58
1001.662	-12.28
1002.087	-11.18
1002.513	0.12
1002.938	0.62
1003.364	-2.28
1003.789	3.82
1004.215	3.02
1004.64	-5.18
1005.066	-1.38
1005.491	-6.38
1005.916	-6.08
1006.342	-5.08
1006.767	-4.78
1007.192	-0.08
1007.617	-5.88
1008.042	-5.78
1008.468	-2.58
1008.893	-3.88
1009.318	-5.58
1009.743	-5.18
1010.168	1.92
1010.593	2.62
1011.018	-5.88
1011.443	-4.18
1011.868	-3.28
1012.293	-7.38
1012.718	-3.38
1013.143	-3.78
1013.567	4.62
1013.992	-8.68
1014.417	-13.08
1014.842	-2.98
1015.267	-5.78
1015.691	-6.08
1016.116	-0.98
1016.541	-4.58
1016.965	0.72
1017.39	5.82
1017.814	2.42
1018.239	-1.78
1018.663	-7.08
1019.088	-2.68
1019.512	-8.48
1019.937	-3.98
1020.361	-3.88
1020.785	-12.58
1021.21	-6.78
1021.634	-3.88
1022.058	-3.38
1022.483	0.42
1022.907	-6.38
1023.331	-7.78
1023.755	-5.48
1024.179	-1.48
1024.604	-10.48
1025.028	-6.88
1025.452	-8.48
1025.876	-1.98
1026.3	0.92
1026.724	-6.48
1027.148	-7.48
1027.572	-9.78
1027.996	-4.88
1028.42	-2.38
1028.843	-1.98
1029.267	-7.38
1029.691	-3.48
1030.115	-6.68
1030.539	-8.28
1030.962	-7.08
1031.386	-10.28
1031.81	-2.98
1032.233	-0.48
1032.657	-0.58
1033.08	0.92
1033.504	0.22
1033.927	-5.68
1034.351	-2.58
1034.774	-8.78
1035.198	-1.98
1035.621	-5.18
1036.045	-8.28
1036.468	2.02
1036.891	-10.68
1037.315	-13.08
1037.738	-7.28
1038.161	2.42
1038.584	-14.08
1039.008	-0.88
1039.431	-6.68
1039.854	2.92
1040.277	-4.28
1040.7	-10.38
1041.123	-1.18
1041.546	-7.48
1041.969	-0.78
1042.392	-2.68
1042.815	-4.98
1043.238	-3.58
1043.661	4.82
1044.084	-9.88
1044.507	0.62
1044.93	-2.68
1045.352	-4.18
1045.775	0.52
1046.198	-4.68
1046.621	-3.58
1047.043	0.02
1047.466	4.92
1047.889	-4.98
1048.311	-6.38
1048.734	-1.38
1049.156	-6.58
1049.579	-3.98
1050.001	-6.38
1050.424	1.22
1050.846	-5.48
1051.269	-4.78
1051.691	-8.28
1052.113	-6.48
1052.536	-4.78
1052.958	-7.18
1053.38	-0.78
1053.802	-9.78
1054.225	1.52
1054.647	-9.08
1055.069	-3.48
1055.491	2.12
1055.913	-13.38
1056.335	-2.28
1056.757	-4.08
1057.179	-6.08
1057.601	-6.08
1058.023	-0.68
1058.445	-3.08
1058.867	-4.08
1059.289	-1.98
1059.711	-6.68
1060.133	-4.28
1060.555	-7.08
1060.976	-6.48
1061.398	-7.78
1061.82	-1.88
1062.241	-6.78
1062.663	-4.08
1063.085	2.02
1063.506	2.12
1063.928	-5.78
1064.35	-1.88
1064.771	-13.68
1065.193	-2.58
1065.614	-5.08
1066.035	0.72
1066.457	-1.78
1066.878	-1.88
1067.3	-6.18
1067.721	-4.08
1068.142	-7.98
1068.564	-6.58
1068.985	-6.68
1069.406	-10.78
1069.827	-8.48
1070.248	0.42
1070.67	-10.18
1071.091	-6.98
1071.512	-2.28
1071.933	-10.18
1072.354	-2.58
1072.775	-6.68
1073.196	-11.78
1073.617	-10.18
1074.038	-7.48
1074.459	-4.38
1074.88	-10.48
1075.3	0.82
1075.721	-6.68
1076.142	2.12
1076.563	-0.48
1076.983	-8.48
1077.404	0.12
1077.825	-10.88
1078.246	-5.68
1078.666	-14.38
1079.087	-8.38
1079.507	-6.08
1079.928	-5.48
1080.348	-3.28
1080.769	-7.68
1081.189	-3.88
1081.61	0.22
1082.03	-6.68
1082.451	-7.18
1082.871	0.82
1083.291	-7.78
1083.711	-13.68
1084.132	-9.28
1084.552	-4.68
1084.972	-1.18
1085.392	-7.88
1085.813	-7.38
1086.233	-11.28
1086.653	-10.08
1087.073	-8.18
1087.493	-8.28
1087.913	-6.08
1088.333	-6.58
1088.753	-3.18
1089.173	-1.48
1089.593	-8.88
1090.013	-2.08
1090.433	-0.88
1090.852	-10.68
1091.272	-0.28
1091.692	-1.88
1092.112	-6.68
1092.531	-8.78
1092.951	-12.38
1093.371	-6.68
1093.79	-1.38
1094.21	-6.48
1094.63	-3.28
1095.049	-4.38
1095.469	-5.08
1095.888	-1.48
1096.308	0.92
1096.727	5.82
1097.146	-9.88
1097.566	-2.88
1097.985	-6.08
1098.405	-2.38
1098.824	-6.08
1099.243	-5.28
1099.662	-9.98
1100.082	-9.58
1100.501	-1.08
1100.92	-7.28
1101.339	-6.78
1101.758	-6.98
