Data from 20171114-ORNL-Ar_H_NY_Subt18_08-07-07-140.txt Node
Date: Tue Nov 14 08:07:07 EST 2017
User: Ender
Spectrometer: HR+D1039
Trigger mode: 0
Integration Time (sec): 2.730000E-2
Scans to average: 10
Electric dark correction enabled: true
Nonlinearity correction enabled: false
Boxcar width: 0
XAxis mode: Wavelengths
Number of Pixels in Spectrum: 2048
>>>>>Begin Spectral Data<<<<<
187.836	-2.93
188.309	-2.93
188.782	-2.93
189.255	0.97
189.728	-0.83
190.201	2.97
190.674	3.37
191.147	6.47
191.619	-9.73
192.092	-0.03
192.565	8.07
193.038	-2.23
193.511	3.87
193.984	-3.43
194.456	-2.93
194.929	-1.13
195.402	-1.63
195.874	-0.83
196.347	1.67
196.82	-11.03
197.292	0.77
197.765	1.67
198.237	-7.93
198.71	3.47
199.182	-0.33
199.655	1.47
200.127	2.17
200.6	-2.83
201.072	-7.93
201.544	-4.33
202.017	-1.93
202.489	6.87
202.961	-1.43
203.433	-6.53
203.906	-5.83
204.378	-6.43
204.85	-0.93
205.322	-7.93
205.794	0.97
206.266	-5.93
206.739	-5.13
207.211	6.47
207.683	-10.83
208.155	-5.63
208.627	-9.83
209.099	-5.53
209.57	-10.63
210.042	-7.43
210.514	-1.33
210.986	-1.43
211.458	-0.63
211.93	-1.13
212.402	2.17
212.873	-5.23
213.345	-9.03
213.817	-13.33
214.288	-7.93
214.76	-9.93
215.232	-10.23
215.703	-3.23
216.175	-2.23
216.646	-1.13
217.118	-8.73
217.589	0.17
218.061	-4.53
218.532	-8.73
219.004	-3.43
219.475	-8.93
219.946	-3.43
220.418	-6.93
220.889	7.47
221.36	0.87
221.832	-5.23
222.303	-9.23
222.774	2.37
223.245	-12.33
223.717	-9.63
224.188	0.27
224.659	-8.93
225.13	-3.03
225.601	-7.43
226.072	1.67
226.543	-2.13
227.014	1.27
227.485	0.57
227.956	-4.13
228.427	-6.03
228.898	-1.03
229.369	2.37
229.839	-10.63
230.31	-7.53
230.781	1.57
231.252	-1.43
231.722	-4.23
232.193	-6.13
232.664	-1.13
233.135	-3.53
233.605	-3.13
234.076	-6.33
234.546	-5.63
235.017	-5.73
235.487	-7.53
235.958	-3.53
236.428	-10.03
236.899	-2.13
237.369	-3.93
237.84	-1.03
238.31	-1.63
238.78	-2.93
239.251	-9.33
239.721	-4.43
240.191	-7.73
240.662	-5.33
241.132	-4.03
241.602	-8.43
242.072	-2.13
242.542	-0.83
243.013	-1.43
243.483	-0.03
243.953	0.37
244.423	-2.83
244.893	-8.53
245.363	4.07
245.833	-2.33
246.303	-1.93
246.773	2.57
247.243	-1.43
247.712	-1.53
248.182	-1.83
248.652	-0.43
249.122	-6.13
249.592	0.57
250.061	2.47
250.531	5.27
251.001	-4.63
251.471	6.47
251.94	0.27
252.41	-3.13
252.879	-8.23
253.349	10.77
253.818	7.97
254.288	-2.73
254.757	0.57
255.227	-7.83
255.696	-0.43
256.166	-0.83
256.635	-1.93
257.105	-1.83
257.574	-0.23
258.043	2.37
258.513	-1.63
258.982	9.57
259.451	-1.93
259.92	-0.33
260.389	1.37
260.859	7.37
261.328	-2.73
261.797	1.47
262.266	-3.53
262.735	0.37
263.204	0.87
263.673	-5.83
264.142	-0.13
264.611	-10.03
265.08	-1.53
265.549	-2.93
266.018	-1.73
266.487	-4.93
266.955	-5.93
267.424	2.27
267.893	1.27
268.362	-5.33
268.83	-1.53
269.299	4.57
269.768	-3.23
270.236	0.07
270.705	-8.13
271.174	-2.93
271.642	-0.23
272.111	0.27
272.579	1.77
273.048	-0.43
273.516	4.77
273.985	7.07
274.453	5.67
274.922	6.37
275.39	2.17
275.858	-8.43
276.327	1.37
276.795	10.77
277.263	0.77
277.731	11.77
278.2	1.87
278.668	11.77
279.136	9.77
279.604	3.07
280.072	7.87
280.54	5.37
281.008	12.77
281.477	5.17
281.945	9.37
282.413	7.97
282.881	7.17
283.348	7.77
283.816	9.27
284.284	6.17
284.752	16.97
285.22	12.77
285.688	12.07
286.156	9.67
286.623	15.27
287.091	7.97
287.559	9.97
288.026	8.97
288.494	8.07
288.962	1.97
289.429	7.67
289.897	12.07
290.364	8.47
290.832	11.07
291.3	13.47
291.767	14.07
292.234	10.97
292.702	8.07
293.169	10.27
293.637	13.57
294.104	13.87
294.571	3.37
295.039	4.87
295.506	8.97
295.973	10.17
296.44	11.67
296.908	11.47
297.375	6.17
297.842	19.17
298.309	8.87
298.776	10.27
299.243	13.87
299.71	7.37
300.177	17.67
300.644	17.27
301.111	14.97
301.578	13.27
302.045	11.17
302.512	16.97
302.979	21.07
303.446	6.77
303.913	9.37
304.379	18.27
304.846	23.37
305.313	21.47
305.78	10.27
306.246	21.97
306.713	21.87
307.18	18.27
307.646	23.97
308.113	24.17
308.579	15.67
309.046	19.47
309.512	17.27
309.979	11.57
310.445	18.97
310.912	26.07
311.378	29.37
311.845	16.07
312.311	23.57
312.777	21.47
313.244	28.87
313.71	37.27
314.176	23.77
314.642	29.47
315.109	23.07
315.575	31.87
316.041	32.07
316.507	24.47
316.973	28.07
317.439	23.77
317.905	30.87
318.371	30.27
318.837	23.37
319.303	18.47
319.769	26.77
320.235	28.77
320.701	26.07
321.167	29.87
321.633	24.47
322.099	25.97
322.564	37.17
323.03	26.57
323.496	23.07
323.962	26.47
324.427	25.87
324.893	42.47
325.359	30.07
325.824	34.37
326.29	25.97
326.755	35.37
327.221	36.37
327.686	28.77
328.152	36.27
328.617	37.47
329.083	37.27
329.548	45.17
330.014	41.77
330.479	35.67
330.944	35.77
331.41	34.77
331.875	31.87
332.34	34.07
332.805	34.87
333.271	41.57
333.736	37.37
334.201	39.77
334.666	41.37
335.131	42.17
335.596	42.17
336.061	42.47
336.526	34.97
336.991	31.07
337.456	51.37
337.921	48.37
338.386	44.47
338.851	38.27
339.316	38.07
339.781	41.97
340.246	43.57
340.711	43.27
341.175	45.37
341.64	40.27
342.105	44.57
342.569	47.47
343.034	55.37
343.499	48.67
343.963	49.77
344.428	55.77
344.893	55.97
345.357	47.97
345.822	57.87
346.286	57.07
346.751	66.67
347.215	65.07
347.679	63.97
348.144	76.27
348.608	69.07
349.073	54.77
349.537	66.37
350.001	61.67
350.465	67.77
350.93	66.87
351.394	72.57
351.858	62.07
352.322	77.77
352.786	71.07
353.25	86.77
353.715	85.87
354.179	81.37
354.643	104.57
355.107	108.27
355.571	94.07
356.035	83.47
356.498	102.27
356.962	100.57
357.426	112.07
357.89	95.37
358.354	81.97
358.818	70.67
359.281	73.57
359.745	65.27
360.209	62.87
360.673	63.67
361.136	72.67
361.6	73.07
362.064	72.47
362.527	82.97
362.991	81.27
363.454	68.17
363.918	64.57
364.381	68.27
364.845	74.37
365.308	81.17
365.772	80.47
366.235	81.17
366.698	74.37
367.162	74.37
367.625	70.27
368.088	79.27
368.552	81.77
369.015	81.67
369.478	83.27
369.941	90.27
370.404	81.27
370.867	93.57
371.331	88.77
371.794	97.47
372.257	87.07
372.72	99.77
373.183	95.87
373.646	93.87
374.109	93.67
374.572	95.17
375.035	92.57
375.497	88.87
375.96	91.87
376.423	100.27
376.886	104.27
377.349	98.57
377.811	91.17
378.274	96.27
378.737	96.07
379.199	99.67
379.662	92.37
380.125	104.47
380.587	99.37
381.05	105.47
381.512	108.77
381.975	116.67
382.437	108.17
382.9	109.47
383.362	115.27
383.825	120.87
384.287	118.97
384.75	113.47
385.212	118.17
385.674	120.77
386.136	127.97
386.599	114.37
387.061	113.57
387.523	117.67
387.985	123.17
388.447	130.47
388.91	117.17
389.372	126.57
389.834	119.87
390.296	125.87
390.758	124.67
391.22	126.47
391.682	143.67
392.144	142.87
392.606	137.47
393.068	135.97
393.529	138.57
393.991	135.47
394.453	129.47
394.915	131.07
395.377	131.87
395.838	134.97
396.3	133.67
396.762	136.17
397.224	121.87
397.685	132.37
398.147	131.07
398.608	126.87
399.07	127.17
399.531	131.87
399.993	140.57
400.454	149.17
400.916	148.07
401.377	142.07
401.839	148.97
402.3	154.77
402.762	168.87
403.223	173.47
403.684	170.07
404.145	156.47
404.607	156.87
405.068	159.27
405.529	164.57
405.99	176.77
406.451	161.67
406.913	177.97
407.374	162.87
407.835	160.27
408.296	162.77
408.757	166.97
409.218	180.37
409.679	176.07
410.14	166.57
410.601	171.87
411.062	178.87
411.522	180.87
411.983	179.57
412.444	173.47
412.905	174.67
413.366	192.47
413.826	198.27
414.287	218.67
414.748	267.47
415.208	247.77
415.669	216.17
416.13	205.37
416.59	208.47
417.051	216.17
417.511	227.37
417.972	234.37
418.432	253.97
418.893	294.67
419.353	256.17
419.814	201.87
420.274	185.07
420.734	188.97
421.195	202.07
421.655	196.17
422.115	198.47
422.576	198.27
423.036	196.77
423.496	209.57
423.956	217.57
424.416	241.47
424.876	271.47
425.336	262.17
425.797	265.87
426.257	252.87
426.717	247.07
427.177	235.37
427.637	232.57
428.097	241.97
428.556	247.27
429.016	263.77
429.476	260.27
429.936	270.17
430.396	270.57
430.856	293.27
431.315	312.37
431.775	339.37
432.235	373.67
432.694	349.67
433.154	350.07
433.614	378.87
434.073	326.47
434.533	284.77
434.993	269.07
435.452	277.17
435.912	289.77
436.371	281.37
436.83	279.17
437.29	266.47
437.749	248.17
438.209	250.37
438.668	272.17
439.127	280.67
439.587	264.97
440.046	255.77
440.505	264.97
440.964	280.27
441.424	317.67
441.883	310.07
442.342	263.97
442.801	231.87
443.26	233.67
443.719	231.07
444.178	234.07
444.637	223.47
445.096	228.47
445.555	232.77
446.014	229.37
446.473	238.77
446.932	237.67
447.391	240.07
447.849	241.97
448.308	232.87
448.767	229.47
449.226	245.17
449.685	246.97
450.143	266.97
450.602	255.77
451.061	237.87
451.519	236.87
451.978	239.27
452.436	242.07
452.895	250.87
453.353	265.47
453.812	254.27
454.27	255.47
454.729	247.07
455.187	251.57
455.646	258.47
456.104	255.47
456.562	269.97
457.021	273.67
457.479	264.87
457.937	284.47
458.395	281.27
458.854	260.87
459.312	269.37
459.77	291.27
460.228	263.27
460.686	256.67
461.144	266.17
461.602	252.07
462.06	250.17
462.518	275.27
462.976	266.87
463.434	269.17
463.892	282.67
464.35	285.87
464.808	301.37
465.266	279.97
465.724	290.17
466.181	287.27
466.639	290.57
467.097	303.27
467.555	316.27
468.012	319.17
468.47	323.67
468.928	344.77
469.385	350.67
469.843	361.67
470.3	375.87
470.758	378.77
471.215	398.57
471.673	417.27
472.13	422.47
472.588	437.17
473.045	394.57
473.503	387.67
473.96	416.27
474.417	427.57
474.875	457.77
475.332	489.47
475.789	482.97
476.246	481.17
476.704	503.77
477.161	522.77
477.618	537.47
478.075	568.17
478.532	627.37
478.989	694.07
479.446	810.07
479.903	782.17
480.36	803.67
480.817	850.77
481.274	949.87
481.731	1030.87
482.188	1110.17
482.645	1233.17
483.102	1320.77
483.558	1448.07
484.015	1482.97
484.472	1465.97
484.929	1418.87
485.385	1381.27
485.842	1344.47
486.299	1300.37
486.755	1255.67
487.212	1073.47
487.668	913.37
488.125	848.97
488.582	793.07
489.038	764.07
489.494	728.27
489.951	699.37
490.407	687.37
490.864	660.97
491.32	673.37
491.776	660.67
492.233	671.77
492.689	634.27
493.145	630.57
493.602	625.47
494.058	628.47
494.514	642.17
494.97	658.37
495.426	678.17
495.882	650.77
496.338	642.87
496.794	652.47
497.251	648.17
497.707	668.37
498.163	662.27
498.618	669.77
499.074	669.07
499.53	690.77
499.986	689.07
500.442	674.47
500.898	644.87
501.354	642.97
501.809	647.47
502.265	651.77
502.721	652.07
503.177	660.07
503.632	669.37
504.088	688.27
504.543	689.97
504.999	717.87
505.455	684.67
505.91	670.87
506.366	668.57
506.821	667.07
507.277	661.17
507.732	665.57
508.187	662.07
508.643	674.87
509.098	683.47
509.553	695.57
510.009	702.87
510.464	713.67
510.919	726.07
511.375	733.27
511.83	745.27
512.285	757.17
512.74	789.07
513.195	808.67
513.65	806.07
514.105	801.97
514.56	812.87
515.015	825.57
515.47	838.27
515.925	820.27
516.38	812.17
516.835	831.67
517.29	809.47
517.745	817.57
518.2	802.07
518.655	784.87
519.109	781.17
519.564	786.37
520.019	767.87
520.474	762.07
520.928	756.67
521.383	748.67
521.838	753.87
522.292	753.07
522.747	749.87
523.201	742.37
523.656	729.97
524.11	728.37
524.565	728.27
525.019	724.17
525.474	732.17
525.928	730.67
526.382	732.97
526.837	738.97
527.291	737.77
527.745	729.87
528.2	742.87
528.654	724.27
529.108	724.17
529.562	727.87
530.016	728.87
530.47	721.37
530.925	725.77
531.379	730.47
531.833	733.87
532.287	738.07
532.741	735.37
533.195	731.97
533.649	739.47
534.103	747.07
534.556	742.47
535.01	746.27
535.464	746.37
535.918	757.57
536.372	760.67
536.826	753.87
537.279	735.67
537.733	746.97
538.187	758.57
538.64	753.17
539.094	766.77
539.548	768.67
540.001	760.67
540.455	755.77
540.908	766.97
541.362	776.17
541.815	782.67
542.269	801.77
542.722	801.57
543.175	807.47
543.629	809.87
544.082	817.77
544.536	828.27
544.989	829.77
545.442	834.67
545.895	848.77
546.349	839.57
546.802	842.57
547.255	844.17
547.708	854.27
548.161	861.87
548.614	873.07
549.067	870.07
549.52	878.67
549.973	858.97
550.426	858.87
550.879	842.27
551.332	844.97
551.785	864.47
552.238	845.87
552.691	873.77
553.144	876.77
553.596	903.37
554.049	916.27
554.502	942.37
554.955	963.67
555.407	966.07
555.86	943.77
556.313	940.87
556.765	927.87
557.218	927.97
557.67	929.47
558.123	922.37
558.576	922.57
559.028	927.37
559.48	939.47
559.933	919.97
560.385	892.27
560.838	863.97
561.29	837.97
561.742	835.77
562.195	811.57
562.647	816.37
563.099	817.07
563.551	820.67
564.004	832.27
564.456	815.27
564.908	804.17
565.36	786.17
565.812	769.27
566.264	755.87
566.716	751.17
567.168	732.57
567.62	748.17
568.072	740.27
568.524	733.67
568.976	724.67
569.428	714.67
569.88	713.17
570.332	714.97
570.784	718.47
571.235	715.87
571.687	732.37
572.139	742.37
572.59	745.87
573.042	752.87
573.494	755.47
573.945	741.57
574.397	718.97
574.849	731.07
575.3	731.37
575.752	724.47
576.203	710.37
576.655	719.77
577.106	705.37
577.557	707.87
578.009	708.17
578.46	700.07
578.912	693.87
579.363	695.77
579.814	703.97
580.265	691.87
580.717	706.77
581.168	704.07
581.619	713.17
582.07	723.47
582.521	704.87
582.972	702.67
583.423	699.47
583.875	716.47
584.326	718.37
584.777	732.67
585.227	747.07
585.678	764.27
586.129	776.07
586.58	788.07
587.031	809.27
587.482	839.37
587.933	852.17
588.384	846.97
588.834	817.07
589.285	810.47
589.736	804.17
590.186	805.57
590.637	806.07
591.088	794.07
591.538	767.77
591.989	770.47
592.439	757.47
592.89	755.57
593.34	741.27
593.791	738.07
594.241	727.77
594.692	732.77
595.142	727.87
595.593	730.57
596.043	729.47
596.493	741.37
596.943	748.17
597.394	761.17
597.844	752.37
598.294	767.37
598.744	788.07
599.195	815.37
599.645	862.77
600.095	902.67
600.545	963.47
600.995	1012.87
601.445	1074.97
601.895	1139.27
602.345	1189.87
602.795	1159.47
603.245	1125.77
603.695	1059.87
604.145	1016.77
604.594	956.97
605.044	908.17
605.494	840.07
605.944	790.37
606.393	783.47
606.843	750.17
607.293	770.17
607.743	760.87
608.192	780.07
608.642	787.67
609.091	792.47
609.541	798.97
609.99	795.37
610.44	791.87
610.889	746.07
611.339	727.07
611.788	710.57
612.238	728.87
612.687	727.37
613.136	723.07
613.586	731.77
614.035	731.87
614.484	741.67
614.933	733.27
615.383	737.07
615.832	738.97
616.281	724.97
616.73	706.97
617.179	681.27
617.628	659.87
618.077	654.47
618.526	644.47
618.975	639.47
619.424	628.67
619.873	637.47
620.322	643.97
620.771	639.67
621.22	629.57
621.669	612.67
622.118	620.87
622.567	602.37
623.015	597.47
623.464	593.97
623.913	581.17
624.361	581.87
624.81	567.97
625.259	582.87
625.707	584.87
626.156	582.07
626.604	599.17
627.053	582.97
627.501	584.97
627.95	587.27
628.398	618.37
628.847	596.07
629.295	597.07
629.744	596.47
630.192	594.37
630.64	586.57
631.089	571.87
631.537	556.07
631.985	544.47
632.433	558.07
632.881	538.97
633.33	544.77
633.778	546.97
634.226	546.17
634.674	545.07
635.122	568.37
635.57	564.77
636.018	580.27
636.466	584.47
636.914	585.27
637.362	598.07
637.81	602.37
638.258	609.37
638.705	598.87
639.153	636.27
639.601	640.07
640.049	666.87
640.497	693.47
640.944	727.07
641.392	674.77
641.84	626.47
642.287	611.47
642.735	590.37
643.182	592.37
643.63	579.97
644.078	584.67
644.525	599.17
644.973	605.87
645.42	624.77
645.867	639.17
646.315	654.67
646.762	671.47
647.21	703.77
647.657	724.77
648.104	762.57
648.551	781.97
648.999	846.17
649.446	913.67
649.893	992.17
650.34	1143.57
650.787	1339.27
651.234	1649.07
651.682	2143.17
652.129	2900.27
652.576	4106.77
653.023	5977.57
653.47	8092.07
653.917	10063.87
654.363	11586.67
654.81	12810.37
655.257	12111.87
655.704	8015.97
656.151	4855.07
656.598	3201.07
657.044	2298.47
657.491	1774.47
657.938	1431.07
658.385	1202.57
658.831	1055.17
659.278	949.77
659.724	844.57
660.171	792.27
660.618	736.77
661.064	692.17
661.511	673.27
661.957	666.07
662.404	654.07
662.85	655.67
663.296	643.47
663.743	569.97
664.189	554.87
664.635	547.57
665.082	545.77
665.528	547.87
665.974	527.87
666.42	518.77
666.867	522.17
667.313	501.87
667.759	485.57
668.205	470.77
668.651	468.37
669.097	465.57
669.543	452.07
669.989	471.77
670.435	471.47
670.881	467.17
671.327	465.57
671.773	484.37
672.219	513.27
672.665	575.97
673.11	611.07
673.556	658.57
674.002	703.57
674.448	681.47
674.893	571.87
675.339	494.97
675.785	461.57
676.23	445.07
676.676	416.37
677.122	397.97
677.567	401.87
678.013	382.17
678.458	380.67
678.904	377.47
679.349	366.57
679.794	368.47
680.24	363.67
680.685	360.57
681.131	364.47
681.576	362.57
682.021	373.27
682.466	374.57
682.912	362.07
683.357	375.47
683.802	399.77
684.247	432.07
684.692	474.77
685.137	526.17
685.583	554.87
686.028	590.47
686.473	545.27
686.918	466.97
687.363	435.47
687.807	411.47
688.252	380.67
688.697	363.27
689.142	353.97
689.587	347.27
690.032	335.87
690.477	351.67
690.921	369.87
691.366	406.87
691.811	418.87
692.255	452.77
692.7	481.67
693.145	537.47
693.589	739.97
694.034	1195.77
694.478	1622.07
694.923	1831.97
695.367	2385.07
695.812	1269.87
696.256	524.67
696.701	400.37
697.145	364.37
697.59	346.47
698.034	333.27
698.478	335.47
698.922	336.37
699.367	337.47
699.811	355.27
700.255	362.47
700.699	406.97
701.143	441.07
701.588	494.87
702.032	527.67
702.476	538.57
702.92	516.97
703.364	529.17
703.808	675.37
704.252	1098.87
704.696	1551.17
705.14	1766.37
705.584	2260.07
706.027	1119.77
706.471	543.47
706.915	420.07
707.359	373.97
707.803	330.37
708.246	330.87
708.69	323.97
709.134	328.07
709.577	323.67
710.021	333.57
710.465	324.67
710.908	312.67
711.352	313.97
711.795	326.57
712.239	368.77
712.682	404.77
713.126	432.47
713.569	474.27
714.012	372.37
714.456	320.87
714.899	298.07
715.342	280.47
715.786	274.47
716.229	272.17
716.672	269.27
717.115	263.37
717.558	261.67
718.002	260.67
718.445	275.27
718.888	291.77
719.331	308.97
719.774	313.97
720.217	314.37
720.66	300.87
721.103	275.37
721.546	265.77
721.989	257.87
722.432	247.07
722.874	251.37
723.317	242.27
723.76	246.47
724.203	262.77
724.645	325.07
725.088	469.77
725.531	601.07
725.974	673.87
726.416	577.67
726.859	322.67
727.301	257.97
727.744	246.67
728.187	237.57
728.629	247.37
729.071	249.67
729.514	275.47
729.956	286.67
730.399	299.67
730.841	300.47
731.283	288.37
731.726	281.07
732.168	272.97
732.61	277.97
733.053	299.37
733.495	332.67
733.937	369.97
734.379	424.47
734.821	462.67
735.263	575.27
735.705	886.77
736.148	1678.37
736.59	2750.07
737.032	3234.27
737.474	2621.97
737.916	863.77
738.357	456.17
738.799	348.77
739.241	318.17
739.683	297.07
740.125	300.07
740.567	313.87
741.008	322.37
741.45	328.37
741.892	331.77
742.334	370.17
742.775	392.27
743.217	369.67
743.658	282.97
744.1	272.67
744.542	277.37
744.983	326.57
745.425	361.87
745.866	360.97
746.307	289.07
746.749	286.17
747.19	343.47
747.632	485.07
748.073	941.77
748.514	1984.37
748.956	3022.17
749.397	3795.37
749.838	3157.97
750.279	3138.57
750.72	1589.77
751.162	580.67
751.603	343.27
752.044	268.47
752.485	230.17
752.926	225.37
753.367	212.27
753.808	203.37
754.249	200.77
754.69	191.17
755.131	189.27
755.572	186.57
756.013	184.17
756.453	186.77
756.894	202.57
757.335	197.37
757.776	203.17
758.216	203.47
758.657	205.87
759.098	207.27
759.538	236.07
759.979	276.77
760.42	395.47
760.86	752.67
761.301	1962.27
761.741	4733.77
762.182	6794.57
762.622	4830.17
763.063	1374.67
763.503	565.47
763.943	344.47
764.384	284.07
764.824	253.87
765.264	235.57
765.705	215.97
766.145	187.37
766.585	186.77
767.025	183.27
767.465	175.17
767.906	184.77
768.346	190.17
768.786	205.07
769.226	227.47
769.666	323.77
770.106	661.97
770.546	1655.67
770.986	2794.57
771.426	2497.07
771.866	834.17
772.306	342.07
772.745	218.87
773.185	173.17
773.625	170.47
774.065	160.07
774.505	173.87
774.944	211.47
775.384	373.87
775.824	596.47
776.263	576.47
776.703	290.27
777.142	170.57
777.582	140.67
778.021	127.77
778.461	131.47
778.9	128.27
779.34	127.17
779.779	117.57
780.219	110.97
780.658	116.47
781.097	114.77
781.537	115.07
781.976	112.77
782.415	103.37
782.855	105.17
783.294	110.67
783.733	101.87
784.172	101.67
784.611	114.47
785.05	119.77
785.489	118.27
785.928	119.47
786.367	128.27
786.806	121.87
787.245	137.77
787.684	139.97
788.123	157.87
788.562	144.97
789.001	126.97
789.44	126.27
789.879	124.47
790.317	124.17
790.756	128.87
791.195	136.27
791.634	152.47
792.072	216.97
792.511	381.67
792.95	1057.47
793.388	2222.57
793.827	2009.27
794.265	701.87
794.704	289.77
795.142	195.97
795.581	158.37
796.019	141.17
796.458	136.87
796.896	126.67
797.334	144.37
797.773	166.17
798.211	235.77
798.649	473.07
799.087	1077.37
799.526	1683.97
799.964	2135.07
800.402	2114.57
800.84	804.37
801.278	326.07
801.716	202.27
802.154	151.37
802.592	155.87
803.03	142.67
803.468	145.77
803.906	152.37
804.344	161.77
804.782	148.57
805.22	140.07
805.658	136.37
806.096	156.17
806.533	165.67
806.971	186.57
807.409	231.87
807.847	346.87
808.284	710.67
808.722	1990.87
809.16	3498.07
809.597	3332.47
810.035	5752.17
810.472	6075.67
810.91	2225.67
811.347	850.37
811.785	438.17
812.222	274.07
812.66	201.77
813.097	170.47
813.535	151.57
813.972	135.67
814.409	123.67
814.846	119.27
815.284	111.47
815.721	102.67
816.158	106.97
816.595	113.37
817.032	159.67
817.47	177.57
817.907	146.47
818.344	105.87
818.781	105.37
819.218	102.67
819.655	131.37
820.092	208.57
820.529	232.87
820.966	180.37
821.403	131.27
821.839	100.27
822.276	95.57
822.713	130.07
823.15	139.87
823.587	130.27
824.023	151.47
824.46	324.47
824.897	948.67
825.333	1425.17
825.77	607.87
826.206	242.97
826.643	145.07
827.08	107.27
827.516	89.37
827.953	82.87
828.389	87.77
828.825	76.07
829.262	66.57
829.698	63.37
830.135	67.87
830.571	64.57
831.007	66.77
831.443	69.97
831.88	62.97
832.316	59.67
832.752	70.47
833.188	72.37
833.624	71.97
834.06	69.37
834.497	69.37
834.933	73.27
835.369	80.67
835.805	70.17
836.241	80.47
836.677	83.17
837.112	96.17
837.548	114.37
837.984	144.47
838.42	209.87
838.856	538.07
839.292	1605.17
839.727	2435.77
840.163	1142.47
840.599	993.97
841.034	2150.37
841.47	2236.97
841.906	825.37
842.341	350.57
842.777	203.87
843.212	206.17
843.648	187.97
844.083	114.57
844.519	83.77
844.954	68.47
845.39	62.17
845.825	59.87
846.261	59.67
846.696	60.57
847.131	59.07
847.566	59.57
848.002	57.17
848.437	56.77
848.872	59.77
849.307	67.17
849.742	89.67
850.177	200.47
850.613	580.97
851.048	924.57
851.483	402.57
851.918	160.77
852.353	92.07
852.788	56.87
853.223	58.27
853.657	57.17
854.092	51.67
854.527	41.77
854.962	44.87
855.397	51.27
855.832	58.37
856.266	47.07
856.701	47.57
857.136	30.47
857.57	45.97
858.005	60.47
858.44	59.27
858.874	46.97
859.309	54.77
859.743	44.17
860.178	48.57
860.612	45.17
861.047	56.07
861.481	66.87
861.915	75.07
862.35	52.87
862.784	32.97
863.218	45.97
863.653	41.47
864.087	51.17
864.521	58.07
864.955	73.47
865.39	166.27
865.824	190.37
866.258	126.87
866.692	183.87
867.126	194.77
867.56	115.17
867.994	59.37
868.428	45.17
868.862	52.07
869.296	58.17
869.73	61.87
870.164	58.17
870.598	45.57
871.031	43.87
871.465	39.27
871.899	38.37
872.333	18.97
872.766	20.27
873.2	27.67
873.634	34.67
874.067	24.37
874.501	30.37
874.935	32.47
875.368	33.47
875.802	29.97
876.235	28.17
876.669	24.77
877.102	26.57
877.535	32.47
877.969	27.17
878.402	27.67
878.836	19.27
879.269	28.47
879.702	28.17
880.135	23.87
880.569	30.97
881.002	26.47
881.435	23.57
881.868	17.37
882.301	24.37
882.734	16.27
883.167	18.77
883.601	21.07
884.034	25.07
884.467	17.37
884.899	23.97
885.332	13.97
885.765	19.67
886.198	16.07
886.631	15.27
887.064	21.77
887.497	18.97
887.929	25.07
888.362	20.67
888.795	16.27
889.228	25.97
889.66	20.87
890.093	16.77
890.526	14.97
890.958	15.77
891.391	22.87
891.823	25.77
892.256	14.37
892.688	16.97
893.121	15.27
893.553	11.37
893.985	21.87
894.418	20.67
894.85	11.07
895.282	16.17
895.715	22.67
896.147	16.37
896.579	20.17
897.011	15.47
897.444	15.37
897.876	22.07
898.308	17.17
898.74	16.57
899.172	9.47
899.604	25.17
900.036	18.47
900.468	15.57
900.9	18.87
901.332	20.67
901.764	21.47
902.196	15.27
902.628	20.67
903.06	17.97
903.491	35.87
903.923	27.07
904.355	23.77
904.787	21.87
905.218	21.87
905.65	18.27
906.082	17.17
906.513	13.67
906.945	20.77
907.376	12.67
907.808	20.47
908.239	20.37
908.671	16.17
909.102	19.37
909.534	26.37
909.965	48.17
910.397	104.87
910.828	333.77
911.259	498.87
911.691	222.27
912.122	113.37
912.553	53.27
912.984	39.37
913.415	28.77
913.847	24.77
914.278	21.97
914.709	14.07
915.14	17.87
915.571	13.07
916.002	11.87
916.433	23.57
916.864	18.27
917.295	9.87
917.726	22.57
918.157	16.37
918.587	30.87
919.018	28.37
919.449	18.67
919.88	26.47
920.311	33.57
920.741	53.07
921.172	169.97
921.603	164.57
922.033	81.07
922.464	52.37
922.895	26.07
923.325	19.27
923.756	22.37
924.186	12.07
924.617	21.87
925.047	21.97
925.478	24.37
925.908	25.47
926.338	15.67
926.769	20.67
927.199	19.17
927.629	7.57
928.06	16.67
928.49	17.47
928.92	13.87
929.35	12.07
929.78	13.57
930.21	9.27
930.641	10.17
931.071	15.17
931.501	8.87
931.931	11.57
932.361	7.87
932.791	7.37
933.221	5.87
933.651	5.57
934.08	10.57
934.51	35.27
934.94	14.57
935.37	12.37
935.8	10.07
936.229	9.87
936.659	12.07
937.089	5.27
937.519	17.07
937.948	26.47
938.378	22.97
938.807	7.17
939.237	3.77
939.666	5.87
940.096	-4.23
940.525	1.87
940.955	-2.73
941.384	5.57
941.814	-3.33
942.243	0.67
942.672	0.27
943.102	-1.33
943.531	-5.93
943.96	5.17
944.39	1.37
944.819	-1.43
945.248	2.97
945.677	5.07
946.106	6.37
946.535	8.27
946.964	1.87
947.393	6.97
947.822	0.97
948.251	-6.03
948.68	5.67
949.109	2.77
949.538	3.87
949.967	0.47
950.396	1.07
950.825	-2.43
951.254	-1.03
951.682	-2.63
952.111	6.37
952.54	9.97
952.969	-1.83
953.397	-6.23
953.826	4.97
954.254	-9.23
954.683	-1.13
955.112	-5.73
955.54	1.57
955.969	0.67
956.397	1.37
956.826	-0.03
957.254	5.27
957.682	2.27
958.111	1.37
958.539	-0.43
958.967	2.47
959.396	-2.13
959.824	3.87
960.252	6.27
960.68	-3.13
961.109	0.07
961.537	1.17
961.965	-0.73
962.393	3.37
962.821	0.57
963.249	1.27
963.677	5.07
964.105	1.57
964.533	43.87
964.961	42.27
965.389	26.77
965.817	5.17
966.245	4.17
966.672	1.47
967.1	-8.93
967.528	-0.23
967.956	3.77
968.383	-1.23
968.811	-1.43
969.239	-2.23
969.666	-1.63
970.094	5.17
970.522	-4.83
970.949	1.17
971.377	-2.83
971.804	-0.03
972.232	-1.13
972.659	0.87
973.087	-1.83
973.514	-1.73
973.941	-2.93
974.369	6.17
974.796	3.77
975.223	-4.23
975.651	-0.23
976.078	1.67
976.505	-2.43
976.932	5.77
977.359	19.87
977.786	16.87
978.214	-0.63
978.641	-1.53
979.068	-1.13
979.495	0.77
979.922	-8.03
980.349	-1.73
980.776	11.07
981.202	3.07
981.629	2.47
982.056	4.27
982.483	2.77
982.91	4.37
983.337	-3.13
983.763	3.27
984.19	0.17
984.617	-2.23
985.043	-6.23
985.47	4.97
985.897	-6.43
986.323	-6.23
986.75	5.57
987.176	-2.03
987.603	1.57
988.029	-2.53
988.456	0.87
988.882	-0.23
989.308	2.57
989.735	-1.53
990.161	-4.53
990.587	-6.43
991.014	2.47
991.44	4.77
991.866	-3.83
992.292	-2.43
992.719	-0.03
993.145	3.47
993.571	-11.83
993.997	-6.93
994.423	-6.33
994.849	-3.43
995.275	5.57
995.701	-0.63
996.127	-5.93
996.553	-0.13
996.979	-1.73
997.405	-0.23
997.83	-4.33
998.256	-5.03
998.682	-3.83
999.108	-10.23
999.534	-5.83
999.959	-1.83
1000.385	-2.13
1000.811	1.67
1001.236	-3.13
1001.662	-2.53
1002.087	-10.63
1002.513	0.27
1002.938	3.17
1003.364	0.87
1003.789	3.17
1004.215	13.47
1004.64	5.37
1005.066	-1.03
1005.491	0.87
1005.916	-5.33
1006.342	-4.73
1006.767	-8.13
1007.192	5.87
1007.617	-2.93
1008.042	-7.03
1008.468	-6.13
1008.893	-1.13
1009.318	-5.03
1009.743	-2.53
1010.168	0.37
1010.593	4.07
1011.018	-4.03
1011.443	4.27
1011.868	-1.13
1012.293	1.57
1012.718	-4.33
1013.143	-0.43
1013.567	0.67
1013.992	-4.13
1014.417	-4.13
1014.842	9.77
1015.267	-7.63
1015.691	-6.93
1016.116	6.97
1016.541	-4.73
1016.965	4.07
1017.39	1.87
1017.814	2.57
1018.239	3.07
1018.663	-5.33
1019.088	-10.03
1019.512	-3.63
1019.937	-2.13
1020.361	-3.93
1020.785	-4.43
1021.21	-1.13
1021.634	1.37
1022.058	-2.13
1022.483	1.67
1022.907	-1.23
1023.331	-2.23
1023.755	-4.23
1024.179	-1.83
1024.604	-6.23
1025.028	-11.53
1025.452	1.87
1025.876	-8.13
1026.3	-3.93
1026.724	-12.93
1027.148	-5.33
1027.572	-4.73
1027.996	-3.93
1028.42	-8.73
1028.843	-5.73
1029.267	-4.23
1029.691	2.27
1030.115	-9.73
1030.539	-7.13
1030.962	-7.33
1031.386	-7.73
1031.81	2.87
1032.233	3.57
1032.657	-0.93
1033.08	-3.43
1033.504	-4.63
1033.927	-1.73
1034.351	0.77
1034.774	-2.23
1035.198	-0.73
1035.621	-8.23
1036.045	-14.43
1036.468	-0.73
1036.891	-8.03
1037.315	-10.93
1037.738	-10.83
1038.161	-2.83
1038.584	-6.23
1039.008	-6.53
1039.431	-0.23
1039.854	-2.43
1040.277	-11.03
1040.7	-6.73
1041.123	-2.23
1041.546	-7.03
1041.969	-1.33
1042.392	-7.93
1042.815	-2.53
1043.238	1.07
1043.661	0.67
1044.084	-3.73
1044.507	-2.13
1044.93	-5.13
1045.352	-2.83
1045.775	-5.63
1046.198	-6.33
1046.621	-1.73
1047.043	0.17
1047.466	10.87
1047.889	-0.53
1048.311	-6.83
1048.734	-1.13
1049.156	-0.43
1049.579	0.87
1050.001	-8.03
1050.424	-5.13
1050.846	-2.43
1051.269	-0.03
1051.691	-3.33
1052.113	-7.83
1052.536	-6.03
1052.958	0.97
1053.38	-3.53
1053.802	-15.13
1054.225	6.97
1054.647	-10.23
1055.069	-1.53
1055.491	-0.23
1055.913	-4.53
1056.335	-3.53
1056.757	-3.23
1057.179	-11.13
1057.601	-9.03
1058.023	-4.53
1058.445	-9.13
1058.867	-3.23
1059.289	-1.13
1059.711	-8.63
1060.133	-0.93
1060.555	-8.83
1060.976	-8.73
1061.398	-2.53
1061.82	-6.23
1062.241	-6.63
1062.663	-5.53
1063.085	-1.33
1063.506	2.07
1063.928	-3.13
1064.35	1.67
1064.771	-11.73
1065.193	-3.13
1065.614	-1.23
1066.035	-1.13
1066.457	1.07
1066.878	-1.53
1067.3	-4.03
1067.721	-3.03
1068.142	-7.83
1068.564	3.17
1068.985	-6.03
1069.406	-7.63
1069.827	-3.13
1070.248	-1.73
1070.67	-6.23
1071.091	-2.83
1071.512	-7.93
1071.933	-9.03
1072.354	-11.13
1072.775	-8.43
1073.196	-10.63
1073.617	0.67
1074.038	-3.73
1074.459	-6.33
1074.88	-6.83
1075.3	-2.33
1075.721	-11.83
1076.142	-0.73
1076.563	4.47
1076.983	-6.63
1077.404	-4.53
1077.825	-19.73
1078.246	-7.13
1078.666	-13.13
1079.087	-1.73
1079.507	-6.23
1079.928	1.97
1080.348	-0.53
1080.769	-8.73
1081.189	1.87
1081.61	-0.63
1082.03	-10.93
1082.451	-10.23
1082.871	-1.13
1083.291	-3.23
1083.711	-9.03
1084.132	-3.13
1084.552	-2.33
1084.972	-0.03
1085.392	-5.63
1085.813	-8.53
1086.233	-6.73
1086.653	-8.63
1087.073	-7.53
1087.493	-6.33
1087.913	-10.93
1088.333	-13.13
1088.753	-0.93
1089.173	0.37
1089.593	-3.73
1090.013	0.27
1090.433	3.57
1090.852	-3.43
1091.272	-0.53
1091.692	0.37
1092.112	-3.83
1092.531	-7.03
1092.951	-12.33
1093.371	-5.53
1093.79	-0.13
1094.21	-6.73
1094.63	-8.73
1095.049	-3.13
1095.469	-0.03
1095.888	-7.73
1096.308	-2.03
1096.727	2.17
1097.146	-5.83
1097.566	-1.93
1097.985	-6.33
1098.405	1.67
1098.824	-6.83
1099.243	-4.93
1099.662	-12.63
1100.082	-2.23
1100.501	-1.43
1100.92	-8.33
1101.339	-6.43
1101.758	-14.53
