Data from 20171114-ORNL-Ar_H_NY_Subt18_08-04-26-357.txt Node
Date: Tue Nov 14 08:04:26 EST 2017
User: Ender
Spectrometer: HR+D1039
Trigger mode: 0
Integration Time (sec): 2.730000E-2
Scans to average: 10
Electric dark correction enabled: true
Nonlinearity correction enabled: false
Boxcar width: 0
XAxis mode: Wavelengths
Number of Pixels in Spectrum: 2048
>>>>>Begin Spectral Data<<<<<
187.836	-1.09
188.309	-1.09
188.782	-1.09
189.255	-2.29
189.728	2.41
190.201	1.21
190.674	-0.19
191.147	-1.29
191.619	-5.69
192.092	0.71
192.565	3.61
193.038	6.81
193.511	-0.29
193.984	1.21
194.456	-6.69
194.929	1.81
195.402	-2.79
195.874	2.51
196.347	-3.39
196.82	-8.09
197.292	5.21
197.765	-4.69
198.237	-6.09
198.71	-0.99
199.182	3.91
199.655	-5.49
200.127	6.11
200.6	-4.49
201.072	-0.99
201.544	-7.29
202.017	-3.09
202.489	1.31
202.961	2.01
203.433	-0.99
203.906	-7.99
204.378	-5.29
204.85	-4.59
205.322	-7.89
205.794	-0.09
206.266	1.51
206.739	-7.59
207.211	0.91
207.683	-4.69
208.155	-6.59
208.627	-4.49
209.099	-2.19
209.57	-6.69
210.042	-7.09
210.514	3.11
210.986	-1.09
211.458	-3.09
211.93	5.11
212.402	4.31
212.873	-6.89
213.345	-8.69
213.817	-14.19
214.288	-5.89
214.76	-13.99
215.232	-1.69
215.703	-4.99
216.175	1.01
216.646	2.31
217.118	-6.79
217.589	-4.09
218.061	0.21
218.532	-6.09
219.004	-2.49
219.475	5.31
219.946	-1.49
220.418	-2.39
220.889	0.11
221.36	0.01
221.832	-4.99
222.303	-4.69
222.774	7.21
223.245	-9.39
223.717	-0.99
224.188	-8.29
224.659	-9.49
225.13	-10.19
225.601	-3.99
226.072	-2.09
226.543	0.21
227.014	0.11
227.485	-5.49
227.956	-6.39
228.427	-2.69
228.898	1.01
229.369	0.91
229.839	-1.39
230.31	-0.69
230.781	4.81
231.252	-0.79
231.722	-3.69
232.193	-3.89
232.664	1.71
233.135	5.41
233.605	-4.69
234.076	-4.59
234.546	0.51
235.017	8.21
235.487	4.11
235.958	2.01
236.428	4.91
236.899	9.51
237.369	5.51
237.84	-1.99
238.31	3.11
238.78	4.11
239.251	-2.59
239.721	-0.99
240.191	5.41
240.662	5.71
241.132	2.11
241.602	2.51
242.072	4.91
242.542	8.21
243.013	1.21
243.483	4.61
243.953	2.21
244.423	2.61
244.893	-6.09
245.363	2.91
245.833	8.51
246.303	-0.09
246.773	8.71
247.243	-1.09
247.712	6.71
248.182	7.01
248.652	4.71
249.122	-1.59
249.592	13.21
250.061	27.71
250.531	36.31
251.001	13.51
251.471	23.91
251.94	21.41
252.41	10.61
252.879	4.91
253.349	11.21
253.818	18.11
254.288	1.21
254.757	2.61
255.227	4.01
255.696	1.71
256.166	7.21
256.635	5.01
257.105	12.91
257.574	7.41
258.043	4.41
258.513	12.61
258.982	18.01
259.451	13.51
259.92	9.21
260.389	21.11
260.859	13.91
261.328	18.21
261.797	20.91
262.266	16.31
262.735	13.41
263.204	8.71
263.673	0.91
264.142	7.61
264.611	-3.09
265.08	3.21
265.549	1.51
266.018	2.61
266.487	5.11
266.955	2.21
267.424	4.81
267.893	6.81
268.362	6.71
268.83	5.51
269.299	11.71
269.768	14.31
270.236	6.81
270.705	5.01
271.174	6.81
271.642	17.91
272.111	18.31
272.579	16.21
273.048	21.71
273.516	30.81
273.985	30.71
274.453	23.01
274.922	22.61
275.39	10.01
275.858	8.11
276.327	15.11
276.795	16.41
277.263	11.61
277.731	33.71
278.2	56.61
278.668	56.31
279.136	50.41
279.604	19.21
280.072	20.31
280.54	18.11
281.008	10.41
281.477	16.81
281.945	5.61
282.413	20.91
282.881	14.01
283.348	4.51
283.816	12.21
284.284	18.51
284.752	24.01
285.22	18.61
285.688	19.41
286.156	25.61
286.623	48.21
287.091	50.21
287.559	33.81
288.026	18.51
288.494	17.41
288.962	9.51
289.429	11.71
289.897	15.31
290.364	13.71
290.832	18.51
291.3	15.81
291.767	19.51
292.234	23.51
292.702	13.01
293.169	16.81
293.637	28.91
294.104	21.21
294.571	13.31
295.039	16.41
295.506	16.31
295.973	17.21
296.44	14.71
296.908	22.71
297.375	17.11
297.842	25.11
298.309	16.21
298.776	15.11
299.243	20.91
299.71	15.01
300.177	21.01
300.644	26.71
301.111	24.41
301.578	23.81
302.045	17.91
302.512	23.41
302.979	32.41
303.446	25.01
303.913	19.41
304.379	23.71
304.846	22.21
305.313	27.41
305.78	24.21
306.246	31.21
306.713	30.41
307.18	30.61
307.646	33.61
308.113	33.01
308.579	22.91
309.046	23.71
309.512	30.81
309.979	24.01
310.445	28.71
310.912	30.41
311.378	41.21
311.845	26.91
312.311	35.21
312.777	34.61
313.244	29.61
313.71	42.51
314.176	28.31
314.642	37.51
315.109	26.21
315.575	32.11
316.041	37.71
316.507	36.31
316.973	36.31
317.439	28.61
317.905	37.81
318.371	34.01
318.837	33.81
319.303	34.61
319.769	35.71
320.235	33.41
320.701	34.51
321.167	39.71
321.633	36.71
322.099	38.71
322.564	45.91
323.03	36.71
323.496	40.91
323.962	40.21
324.427	35.61
324.893	44.01
325.359	36.71
325.824	30.51
326.29	30.81
326.755	39.21
327.221	43.71
327.686	32.71
328.152	49.91
328.617	40.71
329.083	46.31
329.548	52.41
330.014	50.71
330.479	42.51
330.944	43.01
331.41	44.41
331.875	43.31
332.34	48.01
332.805	37.51
333.271	47.41
333.736	47.81
334.201	50.61
334.666	53.31
335.131	57.81
335.596	48.81
336.061	44.41
336.526	39.41
336.991	39.61
337.456	59.21
337.921	45.21
338.386	46.11
338.851	45.81
339.316	48.81
339.781	49.61
340.246	54.31
340.711	42.61
341.175	49.21
341.64	38.31
342.105	51.01
342.569	53.41
343.034	59.11
343.499	58.41
343.963	43.41
344.428	58.81
344.893	66.61
345.357	56.81
345.822	63.31
346.286	67.91
346.751	72.31
347.215	60.61
347.679	70.01
348.144	91.81
348.608	73.41
349.073	65.51
349.537	66.31
350.001	71.61
350.465	83.91
350.93	80.81
351.394	80.91
351.858	70.11
352.322	89.61
352.786	75.51
353.25	91.11
353.715	102.71
354.179	101.31
354.643	116.91
355.107	122.61
355.571	104.61
356.035	95.51
356.498	107.31
356.962	111.41
357.426	119.21
357.89	109.81
358.354	91.81
358.818	80.61
359.281	76.91
359.745	75.21
360.209	76.81
360.673	75.81
361.136	81.81
361.6	83.51
362.064	77.51
362.527	84.41
362.991	84.51
363.454	74.11
363.918	75.51
364.381	74.11
364.845	77.91
365.308	82.31
365.772	78.01
366.235	82.01
366.698	77.01
367.162	80.31
367.625	84.31
368.088	83.21
368.552	86.51
369.015	76.51
369.478	92.01
369.941	95.51
370.404	90.51
370.867	100.11
371.331	100.71
371.794	110.11
372.257	101.01
372.72	104.51
373.183	103.71
373.646	92.31
374.109	101.81
374.572	100.81
375.035	102.21
375.497	98.11
375.96	103.31
376.423	98.11
376.886	106.21
377.349	93.81
377.811	91.31
378.274	96.71
378.737	99.61
379.199	104.91
379.662	109.31
380.125	112.31
380.587	108.61
381.05	116.91
381.512	121.01
381.975	125.41
382.437	127.31
382.9	115.61
383.362	126.41
383.825	127.41
384.287	139.11
384.75	130.01
385.212	129.91
385.674	135.81
386.136	127.21
386.599	114.81
387.061	118.21
387.523	122.11
387.985	117.41
388.447	128.31
388.91	131.41
389.372	143.21
389.834	146.61
390.296	133.51
390.758	144.81
391.22	152.61
391.682	190.01
392.144	265.71
392.606	211.91
393.068	148.11
393.529	154.71
393.991	148.71
394.453	134.31
394.915	146.31
395.377	173.41
395.838	198.71
396.3	143.01
396.762	130.71
397.224	123.01
397.685	121.81
398.147	123.51
398.608	114.51
399.07	118.51
399.531	121.61
399.993	132.01
400.454	140.71
400.916	135.61
401.377	130.11
401.839	139.71
402.3	131.61
402.762	148.41
403.223	160.01
403.684	155.81
404.145	144.41
404.607	142.61
405.068	154.31
405.529	148.51
405.99	175.41
406.451	163.21
406.913	157.01
407.374	154.31
407.835	151.01
408.296	156.01
408.757	157.41
409.218	170.91
409.679	164.01
410.14	165.11
410.601	170.41
411.062	167.01
411.522	170.01
411.983	167.91
412.444	166.61
412.905	164.11
413.366	169.21
413.826	176.71
414.287	204.11
414.748	246.21
415.208	228.91
415.669	196.51
416.13	188.31
416.59	185.51
417.051	191.81
417.511	197.71
417.972	214.71
418.432	226.81
418.893	258.31
419.353	233.81
419.814	182.81
420.274	170.71
420.734	169.01
421.195	184.31
421.655	181.61
422.115	173.51
422.576	176.71
423.036	179.51
423.496	186.01
423.956	202.51
424.416	214.41
424.876	245.01
425.336	239.91
425.797	238.51
426.257	237.51
426.717	219.01
427.177	213.51
427.637	208.71
428.097	213.31
428.556	220.61
429.016	249.61
429.476	238.71
429.936	246.21
430.396	254.51
430.856	261.71
431.315	293.71
431.775	320.81
432.235	347.41
432.694	312.11
433.154	334.91
433.614	347.81
434.073	304.31
434.533	257.01
434.993	253.81
435.452	253.71
435.912	264.91
436.371	262.91
436.83	251.41
437.29	242.91
437.749	224.81
438.209	225.81
438.668	242.71
439.127	254.61
439.587	244.41
440.046	225.21
440.505	233.11
440.964	254.21
441.424	286.91
441.883	276.11
442.342	231.21
442.801	206.11
443.26	204.91
443.719	198.11
444.178	199.41
444.637	185.41
445.096	204.01
445.555	201.91
446.014	204.91
446.473	205.91
446.932	215.61
447.391	203.31
447.849	211.91
448.308	196.91
448.767	204.31
449.226	212.81
449.685	217.71
450.143	234.11
450.602	217.91
451.061	208.31
451.519	210.91
451.978	208.31
452.436	209.71
452.895	215.01
453.353	227.81
453.812	220.51
454.27	214.31
454.729	218.31
455.187	217.41
455.646	224.21
456.104	217.31
456.562	237.81
457.021	237.71
457.479	240.61
457.937	241.11
458.395	242.51
458.854	225.11
459.312	236.31
459.77	248.21
460.228	230.41
460.686	221.31
461.144	228.31
461.602	224.71
462.06	219.21
462.518	232.91
462.976	232.01
463.434	231.01
463.892	235.91
464.35	253.71
464.808	262.31
465.266	242.41
465.724	242.41
466.181	244.91
466.639	250.81
467.097	271.21
467.555	275.51
468.012	277.21
468.47	283.31
468.928	300.91
469.385	306.51
469.843	313.31
470.3	323.81
470.758	326.91
471.215	344.91
471.673	363.41
472.13	363.71
472.588	369.71
473.045	333.31
473.503	344.41
473.96	364.21
474.417	369.31
474.875	391.31
475.332	431.71
475.789	423.31
476.246	423.31
476.704	444.61
477.161	464.11
477.618	472.11
478.075	502.01
478.532	563.21
478.989	626.61
479.446	721.41
479.903	694.81
480.36	728.61
480.817	796.21
481.274	896.21
481.731	990.21
482.188	1074.01
482.645	1199.81
483.102	1311.31
483.558	1424.21
484.015	1479.31
484.472	1461.71
484.929	1420.91
485.385	1362.31
485.842	1333.51
486.299	1265.61
486.755	1177.91
487.212	1002.11
487.668	844.21
488.125	789.11
488.582	721.31
489.038	701.11
489.494	659.71
489.951	630.51
490.407	615.21
490.864	585.41
491.32	589.61
491.776	584.61
492.233	579.71
492.689	559.51
493.145	552.01
493.602	541.11
494.058	555.71
494.514	560.91
494.97	575.81
495.426	586.91
495.882	570.91
496.338	556.01
496.794	571.31
497.251	572.11
497.707	580.81
498.163	585.51
498.618	589.01
499.074	587.91
499.53	617.61
499.986	612.91
500.442	592.41
500.898	570.91
501.354	563.61
501.809	575.11
502.265	583.71
502.721	609.61
503.177	615.21
503.632	610.21
504.088	615.21
504.543	650.71
504.999	640.71
505.455	604.11
505.91	576.21
506.366	572.01
506.821	565.31
507.277	569.31
507.732	562.41
508.187	568.41
508.643	570.21
509.098	570.41
509.553	591.71
510.009	611.91
510.464	609.71
510.919	628.71
511.375	635.91
511.83	638.91
512.285	648.61
512.74	695.71
513.195	715.11
513.65	708.71
514.105	696.61
514.56	700.41
515.015	730.71
515.47	738.61
515.925	724.51
516.38	725.91
516.835	723.71
517.29	708.31
517.745	707.81
518.2	685.71
518.655	684.21
519.109	670.11
519.564	670.21
520.019	668.51
520.474	657.41
520.928	657.31
521.383	651.01
521.838	652.61
522.292	649.21
522.747	641.91
523.201	639.01
523.656	622.01
524.11	626.91
524.565	623.81
525.019	629.21
525.474	628.71
525.928	631.01
526.382	629.21
526.837	622.81
527.291	642.31
527.745	634.21
528.2	627.01
528.654	629.51
529.108	623.91
529.562	624.01
530.016	623.21
530.47	623.01
530.925	617.41
531.379	629.11
531.833	636.01
532.287	636.91
532.741	638.41
533.195	641.41
533.649	638.01
534.103	655.21
534.556	636.61
535.01	640.71
535.464	635.91
535.918	650.61
536.372	658.41
536.826	645.11
537.279	638.01
537.733	646.91
538.187	640.21
538.64	639.21
539.094	657.91
539.548	654.71
540.001	651.21
540.455	650.41
540.908	654.41
541.362	657.11
541.815	663.01
542.269	676.71
542.722	669.11
543.175	695.01
543.629	690.71
544.082	703.31
544.536	700.61
544.989	696.91
545.442	704.61
545.895	709.81
546.349	707.61
546.802	711.01
547.255	717.01
547.708	717.81
548.161	719.81
548.614	730.51
549.067	744.91
549.52	733.71
549.973	722.51
550.426	723.71
550.879	697.41
551.332	716.81
551.785	715.21
552.238	712.81
552.691	724.21
553.144	741.11
553.596	757.11
554.049	772.11
554.502	805.11
554.955	809.81
555.407	809.21
555.86	809.41
556.313	800.21
556.765	793.41
557.218	785.41
557.67	782.61
558.123	783.81
558.576	776.81
559.028	779.01
559.48	792.01
559.933	779.41
560.385	749.41
560.838	716.21
561.29	700.81
561.742	697.31
562.195	674.41
562.647	673.61
563.099	677.81
563.551	673.71
564.004	691.31
564.456	686.91
564.908	681.81
565.36	668.61
565.812	649.11
566.264	638.41
566.716	637.31
567.168	635.21
567.62	641.01
568.072	615.91
568.524	610.01
568.976	608.01
569.428	592.81
569.88	588.01
570.332	600.51
570.784	593.31
571.235	595.51
571.687	610.01
572.139	618.81
572.59	626.31
573.042	621.11
573.494	627.21
573.945	624.01
574.397	599.11
574.849	613.91
575.3	600.31
575.752	599.61
576.203	597.81
576.655	594.51
577.106	589.61
577.557	580.61
578.009	585.31
578.46	570.01
578.912	583.11
579.363	577.81
579.814	583.61
580.265	577.71
580.717	584.11
581.168	583.81
581.619	591.41
582.07	589.21
582.521	587.21
582.972	589.21
583.423	598.21
583.875	601.01
584.326	603.01
584.777	658.01
585.227	719.31
585.678	808.71
586.129	874.31
586.58	948.51
587.031	1028.71
587.482	1183.21
587.933	1348.51
588.384	1169.01
588.834	857.61
589.285	699.51
589.736	692.31
590.186	669.41
590.637	666.41
591.088	644.81
591.538	631.81
591.989	628.31
592.439	635.31
592.89	617.81
593.34	608.41
593.791	607.61
594.241	597.61
594.692	602.41
595.142	611.01
595.593	605.41
596.043	609.01
596.493	618.21
596.943	612.61
597.394	611.01
597.844	614.21
598.294	626.91
598.744	650.41
599.195	670.01
599.645	696.71
600.095	724.21
600.545	775.41
600.995	831.41
601.445	879.71
601.895	942.51
602.345	977.01
602.795	959.61
603.245	925.91
603.695	873.81
604.145	827.11
604.594	773.91
605.044	738.31
605.494	686.51
605.944	644.21
606.393	641.41
606.843	616.61
607.293	626.51
607.743	620.41
608.192	636.41
608.642	636.91
609.091	653.81
609.541	659.21
609.99	666.11
610.44	652.31
610.889	614.21
611.339	603.71
611.788	579.21
612.238	599.71
612.687	620.01
613.136	619.61
613.586	632.41
614.035	627.81
614.484	649.91
614.933	647.31
615.383	635.61
615.832	628.21
616.281	611.61
616.73	584.11
617.179	572.61
617.628	547.01
618.077	540.81
618.526	525.81
618.975	525.91
619.424	516.11
619.873	517.61
620.322	523.91
620.771	516.51
621.22	506.31
621.669	499.71
622.118	503.41
622.567	491.51
623.015	480.21
623.464	490.11
623.913	486.31
624.361	461.31
624.81	464.51
625.259	466.11
625.707	469.61
626.156	468.31
626.604	482.71
627.053	472.01
627.501	475.11
627.95	485.11
628.398	483.21
628.847	471.71
629.295	477.71
629.744	489.01
630.192	482.81
630.64	468.41
631.089	478.51
631.537	486.31
631.985	490.21
632.433	496.01
632.881	508.61
633.33	548.21
633.778	520.41
634.226	469.91
634.674	479.61
635.122	481.31
635.57	502.31
636.018	521.21
636.466	486.11
636.914	465.21
637.362	481.71
637.81	482.61
638.258	487.51
638.705	481.11
639.153	503.51
639.601	514.01
640.049	541.91
640.497	570.11
640.944	582.51
641.392	538.61
641.84	509.41
642.287	491.41
642.735	470.91
643.182	475.41
643.63	481.71
644.078	484.41
644.525	496.41
644.973	493.81
645.42	501.21
645.867	516.11
646.315	534.41
646.762	544.11
647.21	575.41
647.657	587.21
648.104	624.71
648.551	648.31
648.999	693.21
649.446	758.91
649.893	841.41
650.34	961.61
650.787	1153.01
651.234	1426.51
651.682	1850.51
652.129	2545.71
652.576	3655.31
653.023	5426.81
653.47	7488.71
653.917	9469.41
654.363	11099.51
654.81	12554.91
655.257	11922.41
655.704	7693.81
656.151	4506.51
656.598	2913.91
657.044	2065.11
657.491	1568.91
657.938	1249.71
658.385	1061.61
658.831	910.91
659.278	806.91
659.724	712.71
660.171	652.31
660.618	590.01
661.064	566.41
661.511	548.21
661.957	535.01
662.404	529.31
662.85	530.41
663.296	502.91
663.743	459.71
664.189	438.51
664.635	446.61
665.082	446.01
665.528	432.61
665.974	432.91
666.42	422.51
666.867	415.21
667.313	400.91
667.759	398.81
668.205	394.01
668.651	407.91
669.097	412.01
669.543	420.51
669.989	393.71
670.435	370.31
670.881	372.41
671.327	369.41
671.773	381.41
672.219	405.31
672.665	446.41
673.11	475.21
673.556	509.81
674.002	557.51
674.448	547.41
674.893	451.41
675.339	391.31
675.785	363.71
676.23	353.51
676.676	315.71
677.122	317.41
677.567	304.31
678.013	303.51
678.458	291.11
678.904	299.01
679.349	285.01
679.794	291.51
680.24	296.41
680.685	285.11
681.131	277.61
681.576	289.51
682.021	292.11
682.466	288.01
682.912	283.21
683.357	280.61
683.802	310.71
684.247	335.71
684.692	359.11
685.137	400.21
685.583	435.01
686.028	465.11
686.473	424.61
686.918	367.41
687.363	349.41
687.807	319.21
688.252	298.21
688.697	294.31
689.142	278.41
689.587	267.31
690.032	262.41
690.477	284.81
690.921	281.31
691.366	311.41
691.811	323.11
692.255	344.91
692.7	378.21
693.145	406.31
693.589	556.31
694.034	890.21
694.478	1244.61
694.923	1437.21
695.367	1898.41
695.812	995.51
696.256	414.71
696.701	303.81
697.145	289.81
697.59	268.01
698.034	262.61
698.478	266.41
698.922	267.91
699.367	261.41
699.811	272.51
700.255	287.31
700.699	314.31
701.143	346.61
701.588	389.21
702.032	432.51
702.476	425.31
702.92	409.61
703.364	401.51
703.808	502.01
704.252	816.31
704.696	1177.91
705.14	1379.21
705.584	1782.71
706.027	874.81
706.471	425.51
706.915	326.91
707.359	288.81
707.803	259.81
708.246	262.81
708.69	248.61
709.134	259.21
709.577	248.71
710.021	250.41
710.465	246.41
710.908	241.41
711.352	236.31
711.795	252.71
712.239	287.21
712.682	306.31
713.126	336.81
713.569	382.71
714.012	302.41
714.456	261.81
714.899	244.51
715.342	226.41
715.786	213.51
716.229	205.11
716.672	207.51
717.115	200.71
717.558	200.61
718.002	206.11
718.445	215.71
718.888	230.71
719.331	234.51
719.774	245.81
720.217	250.71
720.66	233.41
721.103	213.91
721.546	205.21
721.989	206.71
722.432	184.21
722.874	189.41
723.317	179.11
723.76	187.51
724.203	209.41
724.645	256.71
725.088	352.91
725.531	466.31
725.974	531.01
726.416	447.71
726.859	247.81
727.301	200.91
727.744	195.51
728.187	191.41
728.629	190.01
729.071	193.91
729.514	211.51
729.956	215.31
730.399	231.41
730.841	236.01
731.283	224.91
731.726	218.21
732.168	209.51
732.61	214.51
733.053	227.31
733.495	254.51
733.937	290.51
734.379	324.61
734.821	351.01
735.263	435.31
735.705	653.41
736.148	1234.81
736.59	2075.51
737.032	2553.21
737.474	2086.91
737.916	664.81
738.357	340.21
738.799	268.91
739.241	235.21
739.683	224.71
740.125	235.91
740.567	235.11
741.008	256.81
741.45	261.21
741.892	260.21
742.334	282.81
742.775	289.41
743.217	276.81
743.658	216.31
744.1	202.41
744.542	204.71
744.983	252.31
745.425	283.21
745.866	286.11
746.307	229.71
746.749	228.71
747.19	258.81
747.632	360.81
748.073	675.91
748.514	1470.81
748.956	2317.81
749.397	2898.61
749.838	2405.01
750.279	2498.81
750.72	1241.61
751.162	445.81
751.603	265.21
752.044	209.81
752.485	181.81
752.926	172.61
753.367	168.11
753.808	159.21
754.249	148.21
754.69	149.91
755.131	148.51
755.572	147.31
756.013	143.21
756.453	152.21
756.894	150.11
757.335	158.61
757.776	151.91
758.216	158.41
758.657	153.81
759.098	163.11
759.538	181.11
759.979	212.61
760.42	294.31
760.86	545.01
761.301	1417.21
761.741	3527.71
762.182	5467.11
762.622	3839.71
763.063	1076.11
763.503	442.01
763.943	287.71
764.384	275.61
764.824	330.21
765.264	371.31
765.705	258.41
766.145	172.61
766.585	151.31
767.025	145.21
767.465	149.31
767.906	194.41
768.346	265.71
768.786	284.71
769.226	208.71
769.666	249.31
770.106	479.11
770.546	1218.51
770.986	2193.91
771.426	2005.11
771.866	655.91
772.306	268.01
772.745	171.91
773.185	150.31
773.625	137.61
774.065	135.11
774.505	166.11
774.944	247.41
775.384	554.01
775.824	1059.11
776.263	1050.01
776.703	434.91
777.142	188.51
777.582	122.91
778.021	112.01
778.461	111.81
778.9	113.61
779.34	110.41
779.779	96.91
780.219	91.81
780.658	82.61
781.097	98.11
781.537	99.21
781.976	93.81
782.415	81.91
782.855	87.61
783.294	79.01
783.733	79.91
784.172	87.41
784.611	84.41
785.05	87.51
785.489	84.81
785.928	94.91
786.367	103.51
786.806	94.31
787.245	108.61
787.684	108.21
788.123	123.61
788.562	106.11
789.001	102.51
789.44	96.51
789.879	95.51
790.317	97.41
790.756	102.61
791.195	102.61
791.634	117.41
792.072	155.31
792.511	278.11
792.95	777.51
793.388	1753.21
793.827	1644.51
794.265	560.51
794.704	228.31
795.142	145.31
795.581	119.61
796.019	112.71
796.458	100.01
796.896	101.31
797.334	97.91
797.773	123.01
798.211	171.61
798.649	333.71
799.087	805.51
799.526	1294.21
799.964	1639.91
800.402	1695.01
800.84	623.91
801.278	237.51
801.716	152.01
802.154	129.21
802.592	117.01
803.03	114.41
803.468	109.31
803.906	115.91
804.344	114.21
804.782	111.81
805.22	113.71
805.658	108.61
806.096	115.01
806.533	125.91
806.971	143.41
807.409	170.21
807.847	250.81
808.284	513.21
808.722	1483.31
809.16	2738.61
809.597	2509.91
810.035	4475.71
810.472	4987.11
810.91	1764.01
811.347	653.21
811.785	328.91
812.222	206.91
812.66	154.41
813.097	131.91
813.535	111.01
813.972	103.21
814.409	103.31
814.846	86.01
815.284	95.91
815.721	82.21
816.158	87.61
816.595	97.91
817.032	141.71
817.47	168.61
817.907	143.91
818.344	129.71
818.781	93.91
819.218	76.51
819.655	97.61
820.092	149.41
820.529	182.71
820.966	148.11
821.403	113.31
821.839	88.01
822.276	80.51
822.713	98.71
823.15	114.21
823.587	89.01
824.023	121.21
824.46	236.31
824.897	711.61
825.333	1150.41
825.77	485.81
826.206	183.11
826.643	105.11
827.08	81.81
827.516	72.71
827.953	61.11
828.389	64.81
828.825	56.51
829.262	48.61
829.698	43.41
830.135	50.01
830.571	49.11
831.007	52.91
831.443	45.31
831.88	54.11
832.316	50.11
832.752	53.01
833.188	53.61
833.624	48.61
834.06	57.01
834.497	49.21
834.933	60.31
835.369	61.01
835.805	59.71
836.241	63.81
836.677	62.61
837.112	69.01
837.548	84.01
837.984	112.91
838.42	162.21
838.856	385.71
839.292	1218.31
839.727	1942.21
840.163	897.41
840.599	727.51
841.034	1677.91
841.47	1812.21
841.906	652.51
842.341	269.61
842.777	188.21
843.212	264.91
843.648	272.51
844.083	124.61
844.519	76.01
844.954	67.51
845.39	44.31
845.825	45.31
846.261	44.21
846.696	43.61
847.131	42.11
847.566	52.11
848.002	42.81
848.437	45.11
848.872	46.01
849.307	46.71
849.742	71.51
850.177	140.01
850.613	446.01
851.048	737.41
851.483	313.91
851.918	124.11
852.353	72.31
852.788	45.51
853.223	41.21
853.657	41.61
854.092	35.31
854.527	36.91
854.962	31.31
855.397	38.31
855.832	40.51
856.266	36.61
856.701	32.41
857.136	31.81
857.57	36.71
858.005	41.91
858.44	48.61
858.874	31.71
859.309	48.81
859.743	35.71
860.178	40.21
860.612	33.11
861.047	42.11
861.481	61.11
861.915	58.61
862.35	39.41
862.784	24.01
863.218	30.21
863.653	33.31
864.087	38.11
864.521	38.51
864.955	56.31
865.39	124.01
865.824	143.41
866.258	93.91
866.692	135.21
867.126	154.71
867.56	93.01
867.994	47.11
868.428	28.51
868.862	30.71
869.296	44.71
869.73	51.61
870.164	48.51
870.598	42.41
871.031	38.11
871.465	24.71
871.899	31.31
872.333	19.11
872.766	23.21
873.2	19.21
873.634	27.71
874.067	20.11
874.501	17.01
874.935	29.51
875.368	21.21
875.802	20.31
876.235	17.21
876.669	22.81
877.102	20.81
877.535	20.91
877.969	18.61
878.402	17.81
878.836	17.51
879.269	18.21
879.702	21.01
880.135	17.11
880.569	21.01
881.002	18.71
881.435	21.11
881.868	16.11
882.301	17.71
882.734	14.41
883.167	19.51
883.601	17.11
884.034	19.71
884.467	15.11
884.899	13.81
885.332	9.21
885.765	12.51
886.198	6.31
886.631	16.61
887.064	15.71
887.497	14.61
887.929	20.81
888.362	9.91
888.795	11.71
889.228	18.51
889.66	18.11
890.093	18.41
890.526	18.31
890.958	14.01
891.391	16.31
891.823	19.91
892.256	11.41
892.688	9.11
893.121	10.01
893.553	11.71
893.985	20.71
894.418	11.91
894.85	7.71
895.282	16.81
895.715	15.51
896.147	15.91
896.579	6.51
897.011	11.11
897.444	13.51
897.876	14.81
898.308	11.21
898.74	6.11
899.172	6.91
899.604	16.81
900.036	15.71
900.468	10.71
900.9	9.41
901.332	11.21
901.764	9.11
902.196	16.81
902.628	16.51
903.06	17.41
903.491	26.41
903.923	19.21
904.355	14.01
904.787	18.41
905.218	16.81
905.65	16.81
906.082	3.91
906.513	3.11
906.945	8.71
907.376	7.11
907.808	17.61
908.239	19.01
908.671	16.81
909.102	16.31
909.534	17.21
909.965	39.71
910.397	75.71
910.828	254.91
911.259	398.91
911.691	184.61
912.122	84.81
912.553	37.41
912.984	30.01
913.415	21.21
913.847	23.51
914.278	13.11
914.709	11.21
915.14	12.71
915.571	17.61
916.002	5.51
916.433	24.01
916.864	14.11
917.295	10.01
917.726	14.91
918.157	16.81
918.587	24.61
919.018	15.91
919.449	18.21
919.88	19.61
920.311	24.51
920.741	37.81
921.172	138.31
921.603	121.61
922.033	55.41
922.464	35.01
922.895	15.51
923.325	20.81
923.756	16.11
924.186	13.81
924.617	17.51
925.047	34.71
925.478	45.11
925.908	38.71
926.338	23.61
926.769	9.11
927.199	19.81
927.629	4.51
928.06	14.01
928.49	15.91
928.92	13.11
929.35	8.01
929.78	9.81
930.21	6.11
930.641	4.91
931.071	8.61
931.501	1.21
931.931	13.81
932.361	0.81
932.791	2.11
933.221	7.31
933.651	1.71
934.08	10.51
934.51	28.91
934.94	8.91
935.37	0.51
935.8	11.01
936.229	5.21
936.659	6.01
937.089	-3.89
937.519	15.21
937.948	16.61
938.378	17.21
938.807	3.81
939.237	0.21
939.666	7.51
940.096	-3.59
940.525	6.61
940.955	0.51
941.384	2.51
941.814	-8.59
942.243	-4.79
942.672	2.71
943.102	0.61
943.531	5.11
943.96	7.61
944.39	6.51
944.819	0.61
945.248	1.61
945.677	6.91
946.106	4.11
946.535	4.71
946.964	-8.29
947.393	7.31
947.822	-3.39
948.251	-6.89
948.68	4.81
949.109	7.21
949.538	6.91
949.967	-1.09
950.396	4.81
950.825	0.01
951.254	2.81
951.682	-4.09
952.111	3.11
952.54	1.01
952.969	0.01
953.397	-10.79
953.826	-4.19
954.254	-5.59
954.683	1.41
955.112	3.61
955.54	-2.29
955.969	3.41
956.397	0.21
956.826	-0.09
957.254	1.21
957.682	-0.99
958.111	3.41
958.539	2.41
958.967	1.41
959.396	-3.99
959.824	2.71
960.252	0.01
960.68	-7.29
961.109	-3.89
961.537	-7.59
961.965	1.71
962.393	3.21
962.821	-3.79
963.249	-4.49
963.677	5.61
964.105	6.31
964.533	36.71
964.961	41.81
965.389	18.21
965.817	4.81
966.245	2.91
966.672	-1.29
967.1	-10.39
967.528	3.01
967.956	-4.79
968.383	-4.79
968.811	-5.89
969.239	-8.29
969.666	-3.69
970.094	-1.89
970.522	4.91
970.949	-3.19
971.377	-4.89
971.804	-4.09
972.232	-5.69
972.659	2.51
973.087	-3.39
973.514	-5.99
973.941	-2.89
974.369	4.61
974.796	-1.39
975.223	-2.09
975.651	-6.29
976.078	0.81
976.505	-6.39
976.932	3.71
977.359	12.71
977.786	17.31
978.214	-0.19
978.641	-0.99
979.068	-7.39
979.495	-3.89
979.922	3.01
980.349	3.31
980.776	4.41
981.202	0.31
981.629	1.61
982.056	0.71
982.483	-5.09
982.91	5.51
983.337	-8.09
983.763	3.91
984.19	-6.79
984.617	-2.49
985.043	-5.89
985.47	0.41
985.897	-4.69
986.323	-10.19
986.75	5.11
987.176	-4.79
987.603	0.51
988.029	-0.39
988.456	-4.69
988.882	2.31
989.308	-4.49
989.735	-10.29
990.161	0.71
990.587	-3.09
991.014	-1.09
991.44	8.11
991.866	-1.69
992.292	-0.59
992.719	4.51
993.145	1.61
993.571	-6.59
993.997	-6.09
994.423	-2.09
994.849	-5.79
995.275	-1.89
995.701	-0.69
996.127	-0.89
996.553	-2.29
996.979	-3.69
997.405	-1.49
997.83	0.11
998.256	-6.49
998.682	-6.59
999.108	-6.79
999.534	0.51
999.959	-1.49
1000.385	-3.99
1000.811	-3.79
1001.236	-12.09
1001.662	-9.99
1002.087	-9.59
1002.513	2.61
1002.938	3.81
1003.364	-3.69
1003.789	0.51
1004.215	1.91
1004.64	-0.19
1005.066	0.91
1005.491	2.21
1005.916	-2.99
1006.342	-4.79
1006.767	-1.49
1007.192	1.81
1007.617	-1.79
1008.042	-0.29
1008.468	-5.99
1008.893	-2.29
1009.318	0.51
1009.743	-2.09
1010.168	8.11
1010.593	2.21
1011.018	-1.59
1011.443	1.51
1011.868	-2.99
1012.293	-3.29
1012.718	-9.39
1013.143	-2.19
1013.567	3.31
1013.992	-0.69
1014.417	-11.09
1014.842	3.01
1015.267	-4.59
1015.691	-1.49
1016.116	4.71
1016.541	-2.99
1016.965	3.91
1017.39	4.71
1017.814	-0.29
1018.239	-3.69
1018.663	-4.19
1019.088	-9.49
1019.512	-2.79
1019.937	3.81
1020.361	-3.99
1020.785	-11.09
1021.21	0.31
1021.634	-1.39
1022.058	-2.99
1022.483	3.11
1022.907	-0.89
1023.331	-3.49
1023.755	-1.99
1024.179	-0.99
1024.604	-3.99
1025.028	-6.99
1025.452	-5.39
1025.876	-1.79
1026.3	0.21
1026.724	-10.59
1027.148	-2.99
1027.572	-5.39
1027.996	-5.59
1028.42	-0.69
1028.843	-7.39
1029.267	-5.69
1029.691	-3.09
1030.115	-4.19
1030.539	-3.89
1030.962	-7.89
1031.386	-9.29
1031.81	2.31
1032.233	3.41
1032.657	-1.69
1033.08	-1.59
1033.504	-1.69
1033.927	-4.49
1034.351	-3.39
1034.774	-6.79
1035.198	0.11
1035.621	-7.89
1036.045	-4.29
1036.468	0.01
1036.891	-4.09
1037.315	-14.99
1037.738	-12.19
1038.161	-1.29
1038.584	-6.39
1039.008	-7.59
1039.431	-3.49
1039.854	-2.89
1040.277	-8.29
1040.7	-9.39
1041.123	5.51
1041.546	-8.09
1041.969	-4.29
1042.392	-7.19
1042.815	-0.99
1043.238	-1.69
1043.661	3.61
1044.084	-5.79
1044.507	0.11
1044.93	-10.69
1045.352	-4.89
1045.775	-1.89
1046.198	-2.79
1046.621	-4.19
1047.043	-3.69
1047.466	6.61
1047.889	-5.89
1048.311	-0.79
1048.734	-7.09
1049.156	-4.39
1049.579	1.41
1050.001	-1.79
1050.424	-4.69
1050.846	-3.29
1051.269	-3.09
1051.691	-2.39
1052.113	-0.39
1052.536	-2.69
1052.958	1.91
1053.38	-0.19
1053.802	-6.79
1054.225	1.01
1054.647	-5.99
1055.069	-2.49
1055.491	2.71
1055.913	-4.39
1056.335	0.81
1056.757	-1.09
1057.179	-5.69
1057.601	-6.79
1058.023	0.31
1058.445	-3.49
1058.867	-2.79
1059.289	-0.59
1059.711	-1.69
1060.133	-9.39
1060.555	-5.19
1060.976	-9.89
1061.398	-7.89
1061.82	-5.79
1062.241	-11.29
1062.663	-6.79
1063.085	-4.39
1063.506	2.01
1063.928	-6.09
1064.35	-2.09
1064.771	-6.89
1065.193	-3.19
1065.614	-7.19
1066.035	-2.89
1066.457	0.61
1066.878	0.01
1067.3	-6.49
1067.721	-2.59
1068.142	-9.29
1068.564	-0.49
1068.985	4.61
1069.406	-5.79
1069.827	-1.69
1070.248	-1.89
1070.67	-10.59
1071.091	-9.19
1071.512	-6.39
1071.933	-5.89
1072.354	-14.09
1072.775	-6.29
1073.196	-9.09
1073.617	0.51
1074.038	-6.79
1074.459	-4.79
1074.88	-5.79
1075.3	5.71
1075.721	-8.79
1076.142	4.71
1076.563	-3.19
1076.983	-6.99
1077.404	-1.09
1077.825	-5.09
1078.246	-0.39
1078.666	-11.69
1079.087	-11.29
1079.507	-9.49
1079.928	-2.09
1080.348	-1.19
1080.769	-7.49
1081.189	1.71
1081.61	-2.49
1082.03	-7.39
1082.451	-9.29
1082.871	-4.89
1083.291	-7.59
1083.711	-7.49
1084.132	-2.09
1084.552	-8.19
1084.972	1.21
1085.392	-8.99
1085.813	-11.69
1086.233	-6.69
1086.653	-8.69
1087.073	-2.59
1087.493	-12.69
1087.913	-5.89
1088.333	-7.79
1088.753	-2.59
1089.173	-2.99
1089.593	-1.09
1090.013	-0.99
1090.433	2.11
1090.852	6.71
1091.272	-0.59
1091.692	-1.49
1092.112	-3.29
1092.531	-6.39
1092.951	-9.79
1093.371	-1.49
1093.79	5.31
1094.21	-3.59
1094.63	-4.49
1095.049	-8.09
1095.469	3.31
1095.888	1.61
1096.308	3.41
1096.727	1.11
1097.146	-7.49
1097.566	-2.89
1097.985	-3.79
1098.405	-2.09
1098.824	-9.89
1099.243	-0.59
1099.662	-8.39
1100.082	-3.19
1100.501	-0.49
1100.92	-9.49
1101.339	-2.19
1101.758	-8.19
