Data from 20171114-ORNL-Ar_H_NY_Subt18_08-07-46-448.txt Node
Date: Tue Nov 14 08:07:46 EST 2017
User: Ender
Spectrometer: HR+D1039
Trigger mode: 0
Integration Time (sec): 2.730000E-2
Scans to average: 10
Electric dark correction enabled: true
Nonlinearity correction enabled: false
Boxcar width: 0
XAxis mode: Wavelengths
Number of Pixels in Spectrum: 2048
>>>>>Begin Spectral Data<<<<<
187.836	-3.94
188.309	-3.94
188.782	-3.94
189.255	2.86
189.728	-1.34
190.201	3.86
190.674	2.66
191.147	2.06
191.619	-7.44
192.092	-1.74
192.565	-0.04
193.038	0.76
193.511	-0.34
193.984	0.26
194.456	-0.64
194.929	1.16
195.402	-4.44
195.874	6.36
196.347	-5.04
196.82	-10.34
197.292	1.76
197.765	-4.14
198.237	-7.64
198.71	-0.44
199.182	-3.14
199.655	4.26
200.127	2.16
200.6	-3.14
201.072	-6.64
201.544	-6.94
202.017	-8.84
202.489	5.46
202.961	-4.54
203.433	-7.44
203.906	-12.74
204.378	-2.54
204.85	-3.04
205.322	-15.54
205.794	-1.54
206.266	-2.24
206.739	-9.64
207.211	-1.14
207.683	-6.84
208.155	-8.84
208.627	-5.64
209.099	-6.84
209.57	-11.94
210.042	-4.24
210.514	-6.94
210.986	-3.44
211.458	-11.54
211.93	-4.64
212.402	0.56
212.873	-11.64
213.345	-12.04
213.817	-15.34
214.288	-5.14
214.76	-16.74
215.232	-6.34
215.703	-8.14
216.175	-7.84
216.646	-7.44
217.118	-9.84
217.589	-9.44
218.061	-7.24
218.532	-6.94
219.004	-5.84
219.475	-5.14
219.946	-6.14
220.418	-6.54
220.889	-7.64
221.36	-1.74
221.832	-14.44
222.303	-11.44
222.774	5.16
223.245	-17.44
223.717	-7.84
224.188	-5.24
224.659	-7.44
225.13	-8.04
225.601	0.06
226.072	-5.34
226.543	-1.44
227.014	-3.84
227.485	-10.24
227.956	-11.84
228.427	-2.64
228.898	-3.34
229.369	0.76
229.839	-3.94
230.31	-11.04
230.781	-0.74
231.252	-0.44
231.722	-9.74
232.193	-5.64
232.664	1.16
233.135	-1.34
233.605	-5.94
234.076	-6.34
234.546	-0.44
235.017	1.16
235.487	-4.44
235.958	-9.14
236.428	-2.54
236.899	-1.24
237.369	0.96
237.84	-4.54
238.31	5.46
238.78	3.76
239.251	2.56
239.721	3.16
240.191	-4.74
240.662	-3.54
241.132	-4.24
241.602	-3.94
242.072	-1.04
242.542	5.36
243.013	-10.84
243.483	-2.84
243.953	-6.34
244.423	-8.74
244.893	-8.14
245.363	-0.84
245.833	-4.34
246.303	-7.74
246.773	2.16
247.243	5.76
247.712	3.26
248.182	4.56
248.652	3.56
249.122	-3.94
249.592	9.06
250.061	17.46
250.531	31.16
251.001	11.86
251.471	15.86
251.94	12.96
252.41	5.96
252.879	-2.84
253.349	9.86
253.818	2.26
254.288	1.76
254.757	-2.24
255.227	-5.24
255.696	0.26
256.166	6.66
256.635	-0.74
257.105	4.06
257.574	0.86
258.043	6.96
258.513	5.56
258.982	13.76
259.451	7.36
259.92	3.66
260.389	4.46
260.859	4.06
261.328	8.76
261.797	10.36
262.266	4.26
262.735	7.86
263.204	-0.54
263.673	1.36
264.142	1.76
264.611	-7.74
265.08	-2.54
265.549	-1.74
266.018	3.96
266.487	-1.44
266.955	-3.74
267.424	1.56
267.893	5.26
268.362	-6.04
268.83	3.76
269.299	1.26
269.768	0.06
270.236	3.06
270.705	-3.44
271.174	7.46
271.642	3.16
272.111	7.36
272.579	13.66
273.048	22.66
273.516	17.16
273.985	18.56
274.453	18.36
274.922	13.56
275.39	7.36
275.858	-5.74
276.327	5.36
276.795	12.06
277.263	5.56
277.731	25.56
278.2	49.56
278.668	48.26
279.136	37.36
279.604	13.46
280.072	5.36
280.54	9.86
281.008	4.46
281.477	6.56
281.945	2.16
282.413	8.96
282.881	7.26
283.348	4.76
283.816	10.66
284.284	12.16
284.752	18.36
285.22	5.86
285.688	15.26
286.156	12.56
286.623	33.16
287.091	40.86
287.559	19.66
288.026	11.46
288.494	6.26
288.962	1.66
289.429	7.46
289.897	13.76
290.364	12.76
290.832	15.76
291.3	11.86
291.767	7.66
292.234	15.16
292.702	5.96
293.169	16.16
293.637	13.06
294.104	12.26
294.571	1.86
295.039	10.26
295.506	10.06
295.973	15.16
296.44	13.06
296.908	7.36
297.375	10.86
297.842	12.66
298.309	14.16
298.776	4.66
299.243	13.96
299.71	4.76
300.177	16.06
300.644	18.46
301.111	16.66
301.578	19.76
302.045	11.76
302.512	18.36
302.979	20.56
303.446	19.56
303.913	10.16
304.379	8.16
304.846	20.46
305.313	23.76
305.78	21.16
306.246	21.26
306.713	23.86
307.18	22.06
307.646	23.06
308.113	25.66
308.579	18.96
309.046	20.46
309.512	18.36
309.979	14.76
310.445	16.36
310.912	17.16
311.378	27.46
311.845	24.76
312.311	26.96
312.777	28.96
313.244	28.66
313.71	28.26
314.176	24.96
314.642	27.56
315.109	25.96
315.575	23.56
316.041	36.16
316.507	21.96
316.973	27.46
317.439	33.76
317.905	31.66
318.371	23.06
318.837	31.16
319.303	30.76
319.769	28.56
320.235	30.86
320.701	25.06
321.167	25.66
321.633	23.66
322.099	29.66
322.564	41.26
323.03	36.76
323.496	35.86
323.962	33.36
324.427	26.86
324.893	38.16
325.359	34.86
325.824	27.96
326.29	26.26
326.755	33.16
327.221	40.16
327.686	34.46
328.152	37.56
328.617	34.66
329.083	42.66
329.548	47.96
330.014	36.86
330.479	36.06
330.944	39.36
331.41	34.06
331.875	35.96
332.34	38.06
332.805	35.96
333.271	40.66
333.736	39.86
334.201	50.06
334.666	47.66
335.131	53.46
335.596	47.26
336.061	42.46
336.526	33.26
336.991	46.06
337.456	47.46
337.921	40.36
338.386	40.56
338.851	38.36
339.316	38.76
339.781	39.76
340.246	50.66
340.711	39.16
341.175	44.06
341.64	43.16
342.105	50.96
342.569	50.06
343.034	51.36
343.499	50.96
343.963	44.56
344.428	56.16
344.893	47.26
345.357	51.36
345.822	54.66
346.286	58.26
346.751	55.96
347.215	58.96
347.679	68.76
348.144	81.96
348.608	69.76
349.073	62.36
349.537	66.76
350.001	70.86
350.465	80.86
350.93	83.86
351.394	72.66
351.858	61.76
352.322	79.66
352.786	81.56
353.25	85.66
353.715	103.86
354.179	86.16
354.643	113.06
355.107	111.26
355.571	101.16
356.035	90.56
356.498	102.36
356.962	113.66
357.426	115.56
357.89	105.36
358.354	83.06
358.818	70.66
359.281	66.56
359.745	69.66
360.209	64.26
360.673	67.66
361.136	77.46
361.6	74.46
362.064	80.06
362.527	72.56
362.991	79.16
363.454	75.96
363.918	74.86
364.381	68.86
364.845	74.86
365.308	81.56
365.772	77.96
366.235	82.06
366.698	75.66
367.162	74.46
367.625	79.16
368.088	79.06
368.552	81.66
369.015	85.56
369.478	89.16
369.941	88.86
370.404	86.86
370.867	97.86
371.331	105.36
371.794	106.16
372.257	102.66
372.72	109.56
373.183	101.76
373.646	91.76
374.109	95.16
374.572	94.46
375.035	105.86
375.497	99.86
375.96	95.56
376.423	96.46
376.886	104.86
377.349	100.56
377.811	94.56
378.274	99.46
378.737	104.06
379.199	94.16
379.662	109.36
380.125	107.86
380.587	108.66
381.05	110.66
381.512	120.86
381.975	127.66
382.437	118.76
382.9	116.46
383.362	116.16
383.825	131.16
384.287	135.06
384.75	129.26
385.212	125.66
385.674	128.36
386.136	128.46
386.599	115.86
387.061	118.96
387.523	116.06
387.985	122.56
388.447	127.56
388.91	131.16
389.372	149.96
389.834	143.26
390.296	140.36
390.758	145.46
391.22	155.46
391.682	196.96
392.144	288.36
392.606	214.96
393.068	161.16
393.529	160.56
393.991	141.56
394.453	133.76
394.915	147.06
395.377	180.56
395.838	202.86
396.3	147.26
396.762	135.06
397.224	126.56
397.685	115.66
398.147	124.16
398.608	123.66
399.07	111.96
399.531	129.66
399.993	127.76
400.454	147.76
400.916	139.06
401.377	133.46
401.839	141.66
402.3	143.96
402.762	154.16
403.223	163.66
403.684	159.66
404.145	146.76
404.607	157.16
405.068	151.96
405.529	161.86
405.99	184.06
406.451	163.06
406.913	163.96
407.374	153.96
407.835	155.36
408.296	150.26
408.757	162.36
409.218	177.66
409.679	175.76
410.14	166.36
410.601	169.36
411.062	170.86
411.522	180.66
411.983	183.76
412.444	172.16
412.905	172.16
413.366	164.46
413.826	180.36
414.287	204.96
414.748	251.36
415.208	230.56
415.669	196.76
416.13	187.96
416.59	186.86
417.051	198.76
417.511	208.16
417.972	222.16
418.432	228.66
418.893	271.96
419.353	239.36
419.814	184.76
420.274	178.86
420.734	173.76
421.195	186.36
421.655	186.86
422.115	185.06
422.576	184.26
423.036	189.26
423.496	200.06
423.956	209.86
424.416	215.56
424.876	246.16
425.336	247.86
425.797	253.96
426.257	241.86
426.717	231.66
427.177	224.26
427.637	209.06
428.097	224.96
428.556	232.66
429.016	257.06
429.476	249.66
429.936	261.96
430.396	260.16
430.856	274.76
431.315	303.16
431.775	338.66
432.235	365.86
432.694	334.46
433.154	353.56
433.614	379.36
434.073	325.16
434.533	270.76
434.993	253.56
435.452	273.16
435.912	284.16
436.371	278.46
436.83	275.76
437.29	253.76
437.749	232.16
438.209	230.66
438.668	270.26
439.127	273.76
439.587	252.96
440.046	237.36
440.505	250.66
440.964	267.26
441.424	313.76
441.883	292.76
442.342	250.56
442.801	223.26
443.26	212.86
443.719	211.76
444.178	208.16
444.637	200.56
445.096	211.66
445.555	212.76
446.014	224.56
446.473	219.86
446.932	228.96
447.391	210.76
447.849	220.36
448.308	209.16
448.767	209.26
449.226	223.76
449.685	226.06
450.143	231.86
450.602	224.56
451.061	213.76
451.519	218.16
451.978	218.96
452.436	223.76
452.895	224.46
453.353	240.86
453.812	235.16
454.27	224.56
454.729	219.16
455.187	222.86
455.646	229.46
456.104	242.36
456.562	246.36
457.021	256.36
457.479	244.36
457.937	262.16
458.395	253.86
458.854	240.06
459.312	246.96
459.77	261.26
460.228	242.56
460.686	226.26
461.144	234.96
461.602	227.06
462.06	229.26
462.518	242.86
462.976	243.86
463.434	247.66
463.892	250.06
464.35	262.36
464.808	275.96
465.266	258.46
465.724	260.06
466.181	267.66
466.639	259.26
467.097	272.16
467.555	289.76
468.012	284.76
468.47	297.06
468.928	308.56
469.385	324.76
469.843	333.16
470.3	336.36
470.758	343.76
471.215	368.36
471.673	399.06
472.13	388.66
472.588	402.16
473.045	355.56
473.503	365.46
473.96	377.86
474.417	387.96
474.875	410.26
475.332	453.96
475.789	443.06
476.246	450.46
476.704	470.06
477.161	486.76
477.618	502.46
478.075	541.16
478.532	596.06
478.989	667.96
479.446	788.86
479.903	737.66
480.36	782.66
480.817	840.26
481.274	933.26
481.731	1030.06
482.188	1113.96
482.645	1247.46
483.102	1339.66
483.558	1476.16
484.015	1543.56
484.472	1504.26
484.929	1467.36
485.385	1427.86
485.842	1372.96
486.299	1311.96
486.755	1251.86
487.212	1059.96
487.668	889.66
488.125	817.06
488.582	736.46
489.038	716.66
489.494	685.56
489.951	647.66
490.407	638.46
490.864	622.46
491.32	615.26
491.776	620.06
492.233	629.96
492.689	587.86
493.145	577.16
493.602	573.46
494.058	587.16
494.514	585.96
494.97	608.06
495.426	624.26
495.882	598.76
496.338	582.36
496.794	596.86
497.251	591.76
497.707	595.96
498.163	591.76
498.618	621.96
499.074	620.06
499.53	653.26
499.986	648.16
500.442	623.46
500.898	604.96
501.354	602.16
501.809	601.26
502.265	612.96
502.721	639.76
503.177	641.46
503.632	635.16
504.088	655.46
504.543	677.96
504.999	683.26
505.455	638.66
505.91	609.66
506.366	605.26
506.821	597.06
507.277	601.76
507.732	598.96
508.187	602.56
508.643	607.56
509.098	603.86
509.553	631.86
510.009	631.76
510.464	642.56
510.919	660.86
511.375	670.86
511.83	683.06
512.285	693.36
512.74	727.86
513.195	752.06
513.65	726.86
514.105	738.06
514.56	747.26
515.015	759.66
515.47	778.16
515.925	759.06
516.38	751.56
516.835	753.96
517.29	743.46
517.745	755.16
518.2	727.46
518.655	726.86
519.109	717.96
519.564	714.16
520.019	696.06
520.474	691.16
520.928	692.26
521.383	690.66
521.838	684.26
522.292	676.16
522.747	688.66
523.201	682.36
523.656	668.16
524.11	664.06
524.565	667.46
525.019	664.26
525.474	685.76
525.928	673.26
526.382	676.86
526.837	664.66
527.291	679.06
527.745	672.16
528.2	664.36
528.654	653.96
529.108	649.66
529.562	662.76
530.016	668.96
530.47	656.56
530.925	671.26
531.379	678.46
531.833	673.46
532.287	666.16
532.741	674.96
533.195	674.96
533.649	690.26
534.103	698.76
534.556	673.76
535.01	692.06
535.464	682.56
535.918	698.06
536.372	694.36
536.826	693.46
537.279	680.66
537.733	684.16
538.187	692.16
538.64	678.46
539.094	695.76
539.548	707.46
540.001	704.86
540.455	705.46
540.908	709.56
541.362	703.46
541.815	723.86
542.269	721.96
542.722	728.66
543.175	737.06
543.629	746.76
544.082	755.66
544.536	765.16
544.989	754.16
545.442	758.26
545.895	764.26
546.349	758.56
546.802	763.96
547.255	765.06
547.708	770.46
548.161	783.26
548.614	798.56
549.067	794.96
549.52	782.06
549.973	785.26
550.426	781.76
550.879	766.76
551.332	759.86
551.785	772.06
552.238	787.96
552.691	791.06
553.144	798.36
553.596	810.36
554.049	838.86
554.502	863.86
554.955	886.26
555.407	879.16
555.86	879.16
556.313	864.66
556.765	844.76
557.218	838.16
557.67	849.56
558.123	838.66
558.576	839.16
559.028	853.46
559.48	845.46
559.933	839.56
560.385	809.26
560.838	772.56
561.29	761.56
561.742	753.16
562.195	742.56
562.647	731.66
563.099	757.76
563.551	750.46
564.004	762.06
564.456	749.76
564.908	732.46
565.36	722.96
565.812	712.36
566.264	706.26
566.716	699.96
567.168	694.46
567.62	703.16
568.072	685.86
568.524	678.56
568.976	667.46
569.428	649.36
569.88	656.26
570.332	662.56
570.784	656.46
571.235	665.36
571.687	678.16
572.139	689.26
572.59	687.96
573.042	687.06
573.494	691.26
573.945	680.46
574.397	664.26
574.849	659.46
575.3	674.86
575.752	667.76
576.203	659.66
576.655	666.86
577.106	653.16
577.557	649.26
578.009	646.96
578.46	642.16
578.912	641.46
579.363	640.16
579.814	649.66
580.265	643.66
580.717	633.66
581.168	641.76
581.619	655.36
582.07	667.86
582.521	656.66
582.972	651.56
583.423	659.66
583.875	666.96
584.326	683.26
584.777	731.86
585.227	805.16
585.678	898.76
586.129	967.86
586.58	1045.86
587.031	1126.16
587.482	1271.86
587.933	1459.96
588.384	1245.96
588.834	938.66
589.285	785.86
589.736	770.56
590.186	758.96
590.637	750.06
591.088	728.76
591.538	723.36
591.989	702.66
592.439	706.46
592.89	706.66
593.34	692.76
593.791	691.16
594.241	680.86
594.692	681.66
595.142	683.16
595.593	681.46
596.043	680.86
596.493	696.46
596.943	701.06
597.394	700.56
597.844	696.86
598.294	705.66
598.744	728.76
599.195	754.36
599.645	795.16
600.095	831.96
600.545	888.66
600.995	944.46
601.445	988.86
601.895	1049.56
602.345	1102.46
602.795	1090.06
603.245	1043.76
603.695	981.36
604.145	923.46
604.594	873.66
605.044	828.96
605.494	776.86
605.944	731.16
606.393	721.96
606.843	701.06
607.293	710.16
607.743	710.86
608.192	721.96
608.642	733.46
609.091	748.16
609.541	748.06
609.99	746.26
610.44	744.86
610.889	702.36
611.339	682.16
611.788	678.96
612.238	686.86
612.687	704.06
613.136	702.66
613.586	723.46
614.035	723.76
614.484	735.06
614.933	739.26
615.383	733.96
615.832	721.76
616.281	707.56
616.73	672.26
617.179	659.46
617.628	629.96
618.077	623.86
618.526	602.56
618.975	602.96
619.424	601.06
619.873	589.96
620.322	596.56
620.771	597.46
621.22	576.26
621.669	578.66
622.118	569.46
622.567	569.26
623.015	559.36
623.464	551.16
623.913	548.16
624.361	535.06
624.81	536.26
625.259	531.36
625.707	542.26
626.156	536.66
626.604	548.06
627.053	542.06
627.501	542.86
627.95	548.16
628.398	565.86
628.847	558.16
629.295	552.96
629.744	564.46
630.192	547.36
630.64	543.66
631.089	555.16
631.537	567.76
631.985	569.26
632.433	590.16
632.881	601.76
633.33	637.96
633.778	631.66
634.226	551.96
634.674	552.66
635.122	565.46
635.57	579.36
636.018	618.26
636.466	559.36
636.914	537.36
637.362	556.06
637.81	552.56
638.258	563.86
638.705	565.26
639.153	597.66
639.601	600.56
640.049	613.16
640.497	652.56
640.944	675.66
641.392	622.76
641.84	594.46
642.287	575.96
642.735	554.86
643.182	551.86
643.63	565.16
644.078	561.06
644.525	572.76
644.973	574.56
645.42	587.06
645.867	610.16
646.315	618.06
646.762	644.96
647.21	680.06
647.657	709.86
648.104	747.46
648.551	748.96
648.999	817.16
649.446	895.86
649.893	995.86
650.34	1147.26
650.787	1377.16
651.234	1702.56
651.682	2221.56
652.129	3064.26
652.576	4418.76
653.023	6553.96
653.47	8953.16
653.917	11072.46
654.363	12772.06
654.81	14075.56
655.257	13385.36
655.704	8729.96
656.151	5186.46
656.598	3341.26
657.044	2366.76
657.491	1821.86
657.938	1470.76
658.385	1212.36
658.831	1048.96
659.278	948.96
659.724	824.96
660.171	764.96
660.618	698.76
661.064	671.86
661.511	644.36
661.957	649.26
662.404	631.86
662.85	642.36
663.296	607.96
663.743	549.66
664.189	525.26
664.635	517.86
665.082	512.56
665.528	509.96
665.974	510.66
666.42	497.46
666.867	495.76
667.313	473.36
667.759	464.16
668.205	459.76
668.651	477.36
669.097	480.86
669.543	485.46
669.989	461.76
670.435	440.26
670.881	440.06
671.327	432.76
671.773	457.06
672.219	473.26
672.665	527.96
673.11	581.26
673.556	611.86
674.002	649.96
674.448	643.46
674.893	538.56
675.339	464.76
675.785	423.76
676.23	410.86
676.676	383.56
677.122	370.46
677.567	368.76
678.013	362.76
678.458	342.86
678.904	346.26
679.349	341.86
679.794	341.76
680.24	338.06
680.685	340.86
681.131	343.06
681.576	334.46
682.021	342.06
682.466	334.16
682.912	334.36
683.357	341.56
683.802	369.46
684.247	398.56
684.692	441.06
685.137	485.26
685.583	512.66
686.028	546.06
686.473	511.06
686.918	439.06
687.363	399.16
687.807	386.56
688.252	362.96
688.697	347.06
689.142	328.56
689.587	317.66
690.032	313.56
690.477	331.56
690.921	340.86
691.366	372.96
691.811	390.16
692.255	420.96
692.7	452.06
693.145	495.96
693.589	690.86
694.034	1108.96
694.478	1501.36
694.923	1679.26
695.367	2179.76
695.812	1151.86
696.256	487.46
696.701	359.46
697.145	337.76
697.59	323.16
698.034	312.46
698.478	319.66
698.922	309.76
699.367	319.16
699.811	329.96
700.255	339.16
700.699	378.46
701.143	414.96
701.588	469.66
702.032	505.86
702.476	498.96
702.92	484.76
703.364	483.36
703.808	627.86
704.252	1016.56
704.696	1423.96
705.14	1618.36
705.584	2044.76
706.027	1029.26
706.471	508.56
706.915	374.16
707.359	343.56
707.803	306.46
708.246	295.96
708.69	296.96
709.134	306.36
709.577	307.66
710.021	308.56
710.465	287.96
710.908	287.76
711.352	292.56
711.795	298.66
712.239	343.86
712.682	371.66
713.126	400.96
713.569	454.96
714.012	368.76
714.456	321.06
714.899	299.16
715.342	263.76
715.786	248.46
716.229	249.86
716.672	244.56
717.115	237.86
717.558	245.06
718.002	252.06
718.445	248.46
718.888	282.56
719.331	286.26
719.774	300.26
720.217	291.36
720.66	278.86
721.103	256.06
721.546	244.26
721.989	251.66
722.432	228.86
722.874	237.06
723.317	225.76
723.76	231.56
724.203	251.26
724.645	321.76
725.088	444.26
725.531	556.16
725.974	622.66
726.416	538.36
726.859	292.56
727.301	241.16
727.744	232.76
728.187	220.46
728.629	233.66
729.071	233.46
729.514	249.46
729.956	265.26
730.399	273.46
730.841	283.36
731.283	258.56
731.726	260.96
732.168	252.66
732.61	260.66
733.053	283.36
733.495	312.56
733.937	344.56
734.379	379.96
734.821	425.46
735.263	527.96
735.705	823.06
736.148	1569.66
736.59	2540.76
737.032	2941.36
737.474	2393.26
737.916	784.76
738.357	413.36
738.799	322.06
739.241	291.66
739.683	273.76
740.125	281.86
740.567	294.16
741.008	308.46
741.45	299.66
741.892	312.16
742.334	329.36
742.775	345.36
743.217	321.36
743.658	260.56
744.1	246.56
744.542	256.16
744.983	305.36
745.425	328.86
745.866	330.26
746.307	276.66
746.749	280.36
747.19	318.16
747.632	450.86
748.073	882.06
748.514	1844.86
748.956	2800.86
749.397	3483.36
749.838	2893.06
750.279	2852.36
750.72	1450.86
751.162	534.96
751.603	309.86
752.044	239.96
752.485	210.56
752.926	207.86
753.367	191.46
753.808	185.26
754.249	185.36
754.69	180.46
755.131	178.16
755.572	173.46
756.013	171.96
756.453	173.56
756.894	180.26
757.335	182.46
757.776	184.96
758.216	187.36
758.657	195.66
759.098	193.96
759.538	220.16
759.979	265.86
760.42	367.76
760.86	704.66
761.301	1841.86
761.741	4347.26
762.182	6191.66
762.622	4315.86
763.063	1275.46
763.503	519.86
763.943	336.96
764.384	337.46
764.824	389.26
765.264	422.86
765.705	297.46
766.145	205.26
766.585	185.86
767.025	180.66
767.465	184.06
767.906	242.56
768.346	306.86
768.786	332.66
769.226	249.76
769.666	319.96
770.106	621.66
770.546	1558.66
770.986	2562.16
771.426	2258.36
771.866	773.66
772.306	317.76
772.745	204.66
773.185	167.76
773.625	161.76
774.065	164.06
774.505	192.06
774.944	311.46
775.384	681.16
775.824	1212.16
776.263	1160.36
776.703	494.06
777.142	213.56
777.582	156.16
778.021	136.56
778.461	140.86
778.9	132.56
779.34	133.56
779.779	116.66
780.219	108.66
780.658	109.36
781.097	112.66
781.537	110.16
781.976	108.26
782.415	100.96
782.855	101.56
783.294	100.86
783.733	103.36
784.172	103.46
784.611	99.16
785.05	105.76
785.489	111.66
785.928	116.36
786.367	117.46
786.806	110.96
787.245	128.16
787.684	128.16
788.123	147.96
788.562	132.06
789.001	120.46
789.44	116.66
789.879	111.96
790.317	111.36
790.756	120.56
791.195	131.16
791.634	139.86
792.072	206.16
792.511	370.16
792.95	1003.36
793.388	2081.86
793.827	1860.06
794.265	652.86
794.704	266.16
795.142	172.76
795.581	144.96
796.019	131.96
796.458	118.96
796.896	124.76
797.334	123.06
797.773	149.96
798.211	214.16
798.649	436.86
799.087	1007.16
799.526	1570.66
799.964	1983.56
800.402	1933.76
800.84	727.86
801.278	292.56
801.716	178.86
802.154	145.16
802.592	142.66
803.03	131.76
803.468	129.16
803.906	133.06
804.344	143.56
804.782	138.36
805.22	127.16
805.658	115.56
806.096	140.86
806.533	147.26
806.971	172.56
807.409	219.76
807.847	313.26
808.284	658.06
808.722	1841.46
809.16	3192.36
809.597	3090.86
810.035	5299.96
810.472	5535.26
810.91	2018.06
811.347	774.16
811.785	391.66
812.222	246.16
812.66	191.06
813.097	154.66
813.535	130.86
813.972	119.26
814.409	114.66
814.846	100.36
815.284	103.96
815.721	99.66
816.158	106.56
816.595	118.36
817.032	176.16
817.47	188.76
817.907	155.66
818.344	147.36
818.781	113.76
819.218	98.16
819.655	121.06
820.092	184.66
820.529	208.06
820.966	171.06
821.403	125.26
821.839	101.36
822.276	101.16
822.713	114.06
823.15	126.66
823.587	116.36
824.023	142.26
824.46	305.26
824.897	882.06
825.333	1303.06
825.77	559.86
826.206	220.36
826.643	130.16
827.08	95.16
827.516	77.46
827.953	74.46
828.389	76.16
828.825	60.26
829.262	66.86
829.698	55.96
830.135	59.26
830.571	54.86
831.007	59.46
831.443	61.66
831.88	59.06
832.316	63.06
832.752	60.76
833.188	60.86
833.624	56.26
834.06	62.56
834.497	66.76
834.933	63.16
835.369	71.86
835.805	61.86
836.241	69.36
836.677	76.56
837.112	85.46
837.548	103.26
837.984	135.06
838.42	191.06
838.856	497.36
839.292	1495.46
839.727	2219.26
840.163	1032.76
840.599	916.46
841.034	1994.96
841.47	2027.36
841.906	750.16
842.341	326.76
842.777	224.36
843.212	311.26
843.648	298.96
844.083	144.96
844.519	91.06
844.954	67.86
845.39	55.46
845.825	55.76
846.261	57.36
846.696	51.86
847.131	52.86
847.566	52.96
848.002	51.96
848.437	51.56
848.872	57.06
849.307	56.46
849.742	79.66
850.177	176.16
850.613	543.36
851.048	845.96
851.483	364.26
851.918	149.36
852.353	83.06
852.788	62.16
853.223	49.46
853.657	53.66
854.092	44.96
854.527	39.06
854.962	32.56
855.397	39.76
855.832	45.56
856.266	43.46
856.701	39.16
857.136	34.66
857.57	35.76
858.005	47.46
858.44	59.46
858.874	42.06
859.309	48.66
859.743	42.26
860.178	41.76
860.612	33.36
861.047	41.76
861.481	61.26
861.915	60.86
862.35	47.96
862.784	31.86
863.218	35.26
863.653	32.46
864.087	41.06
864.521	48.16
864.955	64.16
865.39	152.26
865.824	164.66
866.258	109.96
866.692	149.26
867.126	166.26
867.56	103.66
867.994	44.06
868.428	33.66
868.862	44.66
869.296	52.76
869.73	47.86
870.164	45.06
870.598	44.86
871.031	30.66
871.465	31.36
871.899	29.36
872.333	16.36
872.766	17.46
873.2	18.46
873.634	25.56
874.067	25.76
874.501	23.46
874.935	29.56
875.368	26.16
875.802	18.26
876.235	25.86
876.669	22.16
877.102	18.56
877.535	21.96
877.969	16.66
878.402	19.56
878.836	14.56
879.269	18.96
879.702	21.96
880.135	19.96
880.569	21.36
881.002	24.36
881.435	17.56
881.868	17.56
882.301	17.66
882.734	16.26
883.167	20.56
883.601	14.66
884.034	21.06
884.467	11.96
884.899	17.66
885.332	16.16
885.765	16.36
886.198	17.76
886.631	15.16
887.064	13.56
887.497	15.56
887.929	23.16
888.362	14.36
888.795	13.06
889.228	13.86
889.66	23.06
890.093	12.46
890.526	12.76
890.958	9.96
891.391	20.16
891.823	19.06
892.256	15.36
892.688	9.96
893.121	10.96
893.553	10.76
893.985	15.26
894.418	17.36
894.85	10.36
895.282	12.46
895.715	19.46
896.147	10.86
896.579	11.56
897.011	8.26
897.444	12.86
897.876	17.26
898.308	8.86
898.74	17.66
899.172	4.56
899.604	23.06
900.036	21.56
900.468	19.16
900.9	12.26
901.332	13.36
901.764	5.46
902.196	12.86
902.628	12.76
903.06	16.36
903.491	27.66
903.923	17.06
904.355	16.66
904.787	22.66
905.218	15.16
905.65	11.76
906.082	5.66
906.513	10.66
906.945	7.26
907.376	13.76
907.808	6.66
908.239	20.36
908.671	15.16
909.102	18.66
909.534	19.76
909.965	50.16
910.397	92.06
910.828	305.36
911.259	461.96
911.691	206.06
912.122	108.66
912.553	49.76
912.984	38.56
913.415	27.96
913.847	29.06
914.278	13.26
914.709	7.16
915.14	14.86
915.571	12.66
916.002	14.16
916.433	14.86
916.864	18.26
917.295	14.36
917.726	19.16
918.157	14.76
918.587	23.26
919.018	20.56
919.449	19.86
919.88	19.96
920.311	28.26
920.741	45.36
921.172	160.16
921.603	147.16
922.033	66.46
922.464	40.96
922.895	16.56
923.325	13.26
923.756	14.56
924.186	15.36
924.617	23.56
925.047	31.16
925.478	54.06
925.908	38.86
926.338	16.06
926.769	11.36
927.199	16.86
927.629	8.36
928.06	22.16
928.49	9.06
928.92	9.76
929.35	11.36
929.78	2.76
930.21	7.36
930.641	11.66
931.071	9.06
931.501	2.16
931.931	5.36
932.361	10.26
932.791	-1.34
933.221	5.96
933.651	-1.84
934.08	18.46
934.51	30.66
934.94	5.76
935.37	12.46
935.8	9.66
936.229	6.86
936.659	8.06
937.089	-2.74
937.519	9.36
937.948	16.36
938.378	12.76
938.807	-3.54
939.237	0.46
939.666	-3.44
940.096	-10.44
940.525	-0.94
940.955	1.86
941.384	-1.94
941.814	-9.84
942.243	-1.84
942.672	3.36
943.102	-1.54
943.531	-3.24
943.96	-2.04
944.39	-4.04
944.819	-1.44
945.248	2.46
945.677	5.36
946.106	-0.14
946.535	3.56
946.964	-2.14
947.393	3.86
947.822	6.36
948.251	-6.94
948.68	4.06
949.109	4.56
949.538	4.66
949.967	-7.14
950.396	-0.74
950.825	-4.84
951.254	-0.74
951.682	-12.24
952.111	-1.04
952.54	2.06
952.969	-7.04
953.397	-7.74
953.826	0.56
954.254	-10.04
954.683	-0.54
955.112	0.96
955.54	-1.54
955.969	-0.44
956.397	3.66
956.826	-4.24
957.254	0.56
957.682	-2.44
958.111	5.26
958.539	-4.24
958.967	-1.04
959.396	-1.04
959.824	2.56
960.252	0.86
960.68	-6.64
961.109	-0.94
961.537	-7.64
961.965	-6.94
962.393	-4.04
962.821	-0.04
963.249	1.86
963.677	3.56
964.105	-1.54
964.533	40.86
964.961	35.56
965.389	18.46
965.817	12.76
966.245	-0.24
966.672	-3.64
967.1	-6.34
967.528	-1.84
967.956	2.36
968.383	-4.64
968.811	2.16
969.239	-7.64
969.666	-2.74
970.094	-5.24
970.522	-1.74
970.949	-3.04
971.377	-10.14
971.804	-3.14
972.232	-10.24
972.659	-6.24
973.087	-7.94
973.514	-4.64
973.941	-11.24
974.369	0.96
974.796	-0.34
975.223	-2.74
975.651	-7.54
976.078	-5.94
976.505	-3.24
976.932	-1.04
977.359	16.86
977.786	14.36
978.214	-2.94
978.641	-4.14
979.068	-5.84
979.495	-8.14
979.922	-7.14
980.349	-7.84
980.776	1.76
981.202	-5.14
981.629	1.16
982.056	-7.74
982.483	-0.24
982.91	-2.14
983.337	-10.74
983.763	2.56
984.19	-3.44
984.617	-4.04
985.043	-7.24
985.47	-5.94
985.897	-4.34
986.323	-3.64
986.75	-2.04
987.176	1.66
987.603	-9.44
988.029	-4.04
988.456	-7.24
988.882	0.16
989.308	-8.64
989.735	-10.44
990.161	1.86
990.587	-10.64
991.014	1.06
991.44	2.36
991.866	-13.64
992.292	-7.04
992.719	-8.14
993.145	4.26
993.571	-11.04
993.997	-7.44
994.423	-1.84
994.849	-5.94
995.275	-6.24
995.701	0.76
996.127	-7.74
996.553	2.96
996.979	-4.34
997.405	-4.44
997.83	-9.64
998.256	-14.34
998.682	-4.24
999.108	-12.94
999.534	-4.84
999.959	-6.54
1000.385	-4.04
1000.811	-2.34
1001.236	-13.24
1001.662	-6.14
1002.087	-13.94
1002.513	-1.74
1002.938	-4.14
1003.364	-5.74
1003.789	-9.44
1004.215	2.56
1004.64	3.96
1005.066	-1.64
1005.491	-5.94
1005.916	-4.84
1006.342	-6.64
1006.767	-14.44
1007.192	-1.94
1007.617	-13.44
1008.042	-9.14
1008.468	-7.54
1008.893	-10.14
1009.318	0.16
1009.743	-0.54
1010.168	-1.34
1010.593	-1.84
1011.018	-8.54
1011.443	-12.94
1011.868	2.16
1012.293	-4.24
1012.718	-7.84
1013.143	1.96
1013.567	-2.34
1013.992	-2.04
1014.417	-12.54
1014.842	2.66
1015.267	-13.94
1015.691	-8.34
1016.116	2.96
1016.541	-3.04
1016.965	-1.14
1017.39	2.56
1017.814	4.36
1018.239	-7.14
1018.663	-10.94
1019.088	-15.44
1019.512	-2.54
1019.937	-2.44
1020.361	-9.64
1020.785	-11.24
1021.21	-9.04
1021.634	-5.84
1022.058	-1.44
1022.483	3.36
1022.907	-4.44
1023.331	-1.84
1023.755	-2.24
1024.179	-6.14
1024.604	-9.64
1025.028	-12.94
1025.452	-6.54
1025.876	-8.24
1026.3	-2.54
1026.724	-12.44
1027.148	-5.94
1027.572	-8.34
1027.996	-8.14
1028.42	-3.14
1028.843	-4.84
1029.267	-5.94
1029.691	-6.64
1030.115	-6.54
1030.539	-6.74
1030.962	-2.04
1031.386	-9.34
1031.81	1.36
1032.233	-3.34
1032.657	-8.34
1033.08	-3.24
1033.504	-2.24
1033.927	-7.34
1034.351	-4.04
1034.774	-5.34
1035.198	-3.64
1035.621	-12.14
1036.045	-8.64
1036.468	-0.74
1036.891	-10.54
1037.315	-10.74
1037.738	-6.34
1038.161	-0.34
1038.584	-5.44
1039.008	-11.44
1039.431	-5.04
1039.854	-3.24
1040.277	-9.64
1040.7	-12.24
1041.123	-7.24
1041.546	-5.84
1041.969	-10.44
1042.392	-8.04
1042.815	-10.14
1043.238	-10.94
1043.661	-0.94
1044.084	-10.34
1044.507	-10.64
1044.93	-10.84
1045.352	-9.14
1045.775	-5.74
1046.198	-6.64
1046.621	-7.74
1047.043	-3.74
1047.466	1.66
1047.889	-9.04
1048.311	-7.74
1048.734	-7.04
1049.156	-4.54
1049.579	-1.74
1050.001	-10.24
1050.424	-5.64
1050.846	-8.14
1051.269	-12.04
1051.691	-11.64
1052.113	-8.04
1052.536	-2.84
1052.958	2.16
1053.38	-4.04
1053.802	-12.24
1054.225	-4.84
1054.647	-7.54
1055.069	-3.34
1055.491	-2.34
1055.913	-6.14
1056.335	-3.84
1056.757	-4.34
1057.179	-11.64
1057.601	-7.14
1058.023	-4.24
1058.445	-3.84
1058.867	-9.74
1059.289	-3.74
1059.711	-5.24
1060.133	-11.14
1060.555	-4.94
1060.976	-9.74
1061.398	-4.54
1061.82	-5.94
1062.241	-10.54
1062.663	-10.84
1063.085	-6.74
1063.506	-0.14
1063.928	-3.84
1064.35	-4.84
1064.771	-17.14
1065.193	-5.64
1065.614	-13.64
1066.035	-4.44
1066.457	-11.14
1066.878	0.96
1067.3	-9.54
1067.721	-8.64
1068.142	-2.54
1068.564	-7.04
1068.985	-8.34
1069.406	-6.94
1069.827	-8.24
1070.248	-1.34
1070.67	-11.24
1071.091	-12.04
1071.512	-9.44
1071.933	-7.94
1072.354	-7.24
1072.775	-1.54
1073.196	-7.84
1073.617	-0.04
1074.038	-7.44
1074.459	-5.04
1074.88	-9.34
1075.3	-3.34
1075.721	-11.64
1076.142	-4.94
1076.563	-5.44
1076.983	-13.84
1077.404	-7.84
1077.825	-16.54
1078.246	-5.64
1078.666	-15.94
1079.087	-9.54
1079.507	-10.54
1079.928	-1.44
1080.348	-1.34
1080.769	-8.74
1081.189	3.36
1081.61	-2.84
1082.03	-10.94
1082.451	-17.14
1082.871	-5.94
1083.291	-2.64
1083.711	-15.04
1084.132	-2.14
1084.552	-2.64
1084.972	0.06
1085.392	-8.44
1085.813	-11.44
1086.233	-9.64
1086.653	-7.14
1087.073	-6.54
1087.493	-6.24
1087.913	-6.24
1088.333	-8.74
1088.753	-5.74
1089.173	-0.94
1089.593	-4.04
1090.013	-3.14
1090.433	-2.04
1090.852	-7.94
1091.272	-2.84
1091.692	-6.44
1092.112	-5.14
1092.531	-9.54
1092.951	-13.34
1093.371	-2.54
1093.79	-6.34
1094.21	-7.24
1094.63	-7.84
1095.049	-11.94
1095.469	-3.04
1095.888	-0.74
1096.308	-0.64
1096.727	5.26
1097.146	-8.74
1097.566	-9.34
1097.985	-13.14
1098.405	-5.24
1098.824	-9.84
1099.243	-10.04
1099.662	-11.34
1100.082	-0.74
1100.501	2.26
1100.92	-8.34
1101.339	-12.54
1101.758	-5.94
