Data from 20171114-ORNL-Ar_H_NY_Subt18_08-08-29-579.txt Node
Date: Tue Nov 14 08:08:29 EST 2017
User: Ender
Spectrometer: HR+D1039
Trigger mode: 0
Integration Time (sec): 2.730000E-2
Scans to average: 10
Electric dark correction enabled: true
Nonlinearity correction enabled: false
Boxcar width: 0
XAxis mode: Wavelengths
Number of Pixels in Spectrum: 2048
>>>>>Begin Spectral Data<<<<<
187.836	-1.59
188.309	-1.59
188.782	-1.59
189.255	1.91
189.728	-2.39
190.201	4.01
190.674	3.81
191.147	0.61
191.619	-11.29
192.092	2.91
192.565	0.91
193.038	2.71
193.511	-1.49
193.984	1.31
194.456	-0.89
194.929	1.61
195.402	-2.69
195.874	0.61
196.347	-2.99
196.82	-1.59
197.292	4.11
197.765	-3.49
198.237	-10.59
198.71	0.31
199.182	-3.49
199.655	-1.09
200.127	8.11
200.6	-3.19
201.072	-5.79
201.544	-6.99
202.017	-5.99
202.489	1.21
202.961	-5.99
203.433	-3.79
203.906	-6.19
204.378	-5.49
204.85	-3.79
205.322	-7.29
205.794	-3.09
206.266	-3.79
206.739	-10.39
207.211	-0.69
207.683	-10.29
208.155	-9.49
208.627	-9.19
209.099	-3.99
209.57	-12.09
210.042	-10.29
210.514	-11.99
210.986	-4.49
211.458	-12.59
211.93	-5.29
212.402	-3.39
212.873	-5.69
213.345	-13.49
213.817	-16.19
214.288	-4.89
214.76	-11.79
215.232	-8.69
215.703	-6.09
216.175	-4.69
216.646	-8.09
217.118	-5.19
217.589	-6.19
218.061	-2.89
218.532	-4.19
219.004	-6.29
219.475	-3.59
219.946	-3.99
220.418	-8.69
220.889	-2.89
221.36	-4.59
221.832	-2.89
222.303	-8.19
222.774	-5.39
223.245	-11.19
223.717	-2.09
224.188	-0.69
224.659	-12.09
225.13	-8.09
225.601	-3.99
226.072	-4.49
226.543	-3.39
227.014	-1.29
227.485	-7.69
227.956	-8.69
228.427	1.11
228.898	-3.49
229.369	-4.79
229.839	-3.39
230.31	-10.79
230.781	2.21
231.252	-7.59
231.722	-10.79
232.193	-6.09
232.664	-6.49
233.135	-2.09
233.605	-3.59
234.076	-4.79
234.546	0.21
235.017	-2.19
235.487	-6.69
235.958	-4.39
236.428	-12.69
236.899	-3.69
237.369	-1.09
237.84	-6.19
238.31	3.61
238.78	-1.09
239.251	-5.79
239.721	-5.49
240.191	0.31
240.662	-4.19
241.132	-2.79
241.602	-5.99
242.072	-5.39
242.542	-1.29
243.013	2.91
243.483	-2.49
243.953	0.41
244.423	-4.69
244.893	-5.69
245.363	2.91
245.833	6.61
246.303	-3.79
246.773	1.91
247.243	-5.19
247.712	-0.49
248.182	1.01
248.652	-3.19
249.122	-3.89
249.592	-3.59
250.061	5.91
250.531	6.61
251.001	-0.29
251.471	-2.29
251.94	9.91
252.41	-4.79
252.879	-5.39
253.349	6.61
253.818	6.71
254.288	6.21
254.757	-3.49
255.227	-2.89
255.696	-1.69
256.166	0.51
256.635	-0.89
257.105	-0.59
257.574	-3.89
258.043	2.91
258.513	-2.29
258.982	2.31
259.451	-4.69
259.92	-0.99
260.389	-6.99
260.859	9.01
261.328	0.61
261.797	0.81
262.266	-5.59
262.735	-0.49
263.204	4.01
263.673	4.01
264.142	7.11
264.611	-4.39
265.08	3.91
265.549	-1.29
266.018	-1.49
266.487	-6.39
266.955	-0.99
267.424	0.41
267.893	6.21
268.362	-3.49
268.83	-2.59
269.299	2.61
269.768	2.61
270.236	9.11
270.705	4.11
271.174	0.41
271.642	0.01
272.111	8.11
272.579	-0.69
273.048	5.11
273.516	-2.69
273.985	2.81
274.453	9.01
274.922	8.91
275.39	3.31
275.858	-0.89
276.327	14.81
276.795	7.61
277.263	5.51
277.731	10.91
278.2	-2.59
278.668	4.81
279.136	11.81
279.604	3.71
280.072	7.21
280.54	3.71
281.008	4.91
281.477	4.51
281.945	8.71
282.413	9.91
282.881	8.81
283.348	1.61
283.816	8.81
284.284	9.01
284.752	16.51
285.22	5.11
285.688	10.71
286.156	9.01
286.623	16.21
287.091	8.11
287.559	7.51
288.026	14.11
288.494	9.01
288.962	5.61
289.429	5.11
289.897	15.41
290.364	10.41
290.832	19.71
291.3	10.11
291.767	13.41
292.234	14.41
292.702	3.31
293.169	14.31
293.637	23.21
294.104	12.51
294.571	0.91
295.039	11.61
295.506	8.91
295.973	16.11
296.44	10.01
296.908	12.81
297.375	10.91
297.842	16.21
298.309	14.31
298.776	6.01
299.243	11.71
299.71	15.61
300.177	19.61
300.644	18.71
301.111	16.61
301.578	20.71
302.045	10.61
302.512	22.11
302.979	29.81
303.446	19.51
303.913	19.21
304.379	12.01
304.846	21.31
305.313	20.51
305.78	20.11
306.246	20.01
306.713	27.11
307.18	21.31
307.646	26.41
308.113	22.61
308.579	21.61
309.046	20.41
309.512	30.01
309.979	13.81
310.445	26.51
310.912	17.41
311.378	31.21
311.845	24.31
312.311	27.11
312.777	25.61
313.244	22.41
313.71	38.51
314.176	30.31
314.642	27.71
315.109	24.71
315.575	34.11
316.041	32.21
316.507	29.81
316.973	34.71
317.439	34.81
317.905	29.61
318.371	35.31
318.837	32.21
319.303	31.51
319.769	29.71
320.235	35.91
320.701	29.91
321.167	35.41
321.633	26.91
322.099	29.71
322.564	37.61
323.03	38.61
323.496	33.71
323.962	36.71
324.427	33.81
324.893	38.01
325.359	37.01
325.824	34.11
326.29	32.01
326.755	32.81
327.221	35.11
327.686	41.91
328.152	42.51
328.617	39.91
329.083	44.31
329.548	50.61
330.014	48.71
330.479	39.41
330.944	35.21
331.41	46.11
331.875	45.51
332.34	38.51
332.805	37.01
333.271	44.11
333.736	35.91
334.201	46.51
334.666	45.51
335.131	51.71
335.596	45.61
336.061	51.31
336.526	42.51
336.991	47.31
337.456	45.81
337.921	48.61
338.386	45.51
338.851	45.21
339.316	41.21
339.781	51.31
340.246	49.91
340.711	53.11
341.175	56.41
341.64	47.71
342.105	54.21
342.569	55.71
343.034	61.61
343.499	51.91
343.963	48.41
344.428	66.51
344.893	60.11
345.357	58.91
345.822	60.61
346.286	70.51
346.751	77.81
347.215	68.71
347.679	73.61
348.144	90.41
348.608	81.61
349.073	71.31
349.537	76.71
350.001	84.41
350.465	83.21
350.93	80.41
351.394	81.11
351.858	72.21
352.322	87.01
352.786	82.81
353.25	98.31
353.715	110.51
354.179	107.91
354.643	120.71
355.107	127.81
355.571	107.61
356.035	97.61
356.498	116.11
356.962	115.01
357.426	125.41
357.89	119.21
358.354	87.41
358.818	80.81
359.281	83.71
359.745	74.91
360.209	73.71
360.673	72.71
361.136	77.21
361.6	84.21
362.064	81.91
362.527	81.11
362.991	91.81
363.454	76.11
363.918	78.21
364.381	74.11
364.845	86.81
365.308	87.91
365.772	86.41
366.235	95.01
366.698	90.61
367.162	93.01
367.625	84.21
368.088	86.91
368.552	83.71
369.015	91.21
369.478	93.11
369.941	96.81
370.404	95.11
370.867	100.31
371.331	103.51
371.794	112.51
372.257	101.81
372.72	101.51
373.183	102.61
373.646	100.01
374.109	101.11
374.572	101.41
375.035	102.11
375.497	112.01
375.96	105.01
376.423	107.91
376.886	116.71
377.349	112.91
377.811	103.61
378.274	108.01
378.737	109.41
379.199	120.81
379.662	111.01
380.125	116.71
380.587	110.61
381.05	112.41
381.512	124.11
381.975	133.51
382.437	124.41
382.9	119.81
383.362	128.01
383.825	135.51
384.287	129.31
384.75	126.91
385.212	128.71
385.674	137.11
386.136	138.31
386.599	124.81
387.061	128.51
387.523	124.41
387.985	128.41
388.447	140.01
388.91	129.31
389.372	129.91
389.834	134.81
390.296	129.11
390.758	140.81
391.22	146.81
391.682	158.21
392.144	159.81
392.606	144.01
393.068	143.21
393.529	151.21
393.991	150.11
394.453	136.21
394.915	143.61
395.377	139.41
395.838	143.91
396.3	147.41
396.762	147.01
397.224	145.71
397.685	140.81
398.147	140.21
398.608	141.11
399.07	144.21
399.531	140.91
399.993	156.81
400.454	163.91
400.916	160.31
401.377	156.61
401.839	171.11
402.3	169.21
402.762	177.91
403.223	186.01
403.684	178.51
404.145	169.01
404.607	173.11
405.068	177.11
405.529	179.81
405.99	191.41
406.451	188.81
406.913	183.21
407.374	180.21
407.835	175.11
408.296	179.51
408.757	183.41
409.218	200.31
409.679	188.61
410.14	182.91
410.601	194.51
411.062	198.41
411.522	193.41
411.983	191.11
412.444	195.31
412.905	198.91
413.366	199.11
413.826	207.11
414.287	233.11
414.748	285.91
415.208	274.01
415.669	229.31
416.13	226.51
416.59	228.61
417.051	234.01
417.511	237.41
417.972	261.91
418.432	272.51
418.893	322.91
419.353	275.51
419.814	220.01
420.274	203.81
420.734	197.21
421.195	221.41
421.655	216.41
422.115	212.71
422.576	210.81
423.036	220.71
423.496	229.91
423.956	247.41
424.416	251.71
424.876	287.31
425.336	284.81
425.797	280.11
426.257	272.21
426.717	263.31
427.177	246.51
427.637	243.71
428.097	253.11
428.556	264.71
429.016	285.31
429.476	285.21
429.936	292.61
430.396	293.11
430.856	305.21
431.315	330.21
431.775	375.01
432.235	406.11
432.694	379.21
433.154	389.51
433.614	422.81
434.073	361.11
434.533	306.21
434.993	290.61
435.452	305.91
435.912	310.11
436.371	312.21
436.83	307.71
437.29	277.51
437.749	271.01
438.209	270.31
438.668	296.91
439.127	314.61
439.587	289.61
440.046	275.11
440.505	285.71
440.964	308.51
441.424	350.01
441.883	342.41
442.342	282.11
442.801	253.61
443.26	241.41
443.719	246.41
444.178	243.51
444.637	228.51
445.096	244.71
445.555	242.31
446.014	246.91
446.473	250.61
446.932	252.81
447.391	255.71
447.849	260.51
448.308	241.11
448.767	254.11
449.226	265.61
449.685	261.51
450.143	273.31
450.602	257.11
451.061	249.31
451.519	263.31
451.978	261.01
452.436	258.31
452.895	266.81
453.353	273.91
453.812	262.51
454.27	265.61
454.729	270.61
455.187	275.11
455.646	280.61
456.104	275.01
456.562	289.71
457.021	293.91
457.479	283.51
457.937	301.71
458.395	292.31
458.854	277.61
459.312	279.41
459.77	300.71
460.228	282.21
460.686	271.11
461.144	279.91
461.602	275.81
462.06	269.91
462.518	285.81
462.976	282.21
463.434	282.11
463.892	284.61
464.35	305.61
464.808	317.91
465.266	292.71
465.724	302.21
466.181	303.61
466.639	297.81
467.097	315.71
467.555	327.91
468.012	334.11
468.47	341.11
468.928	359.51
469.385	378.01
469.843	381.91
470.3	383.01
470.758	397.01
471.215	419.51
471.673	448.51
472.13	445.31
472.588	462.71
473.045	404.61
473.503	413.31
473.96	428.01
474.417	448.31
474.875	468.11
475.332	510.21
475.789	497.81
476.246	507.61
476.704	528.41
477.161	548.51
477.618	564.81
478.075	602.81
478.532	662.01
478.989	738.11
479.446	850.41
479.903	817.91
480.36	836.21
480.817	901.11
481.274	987.41
481.731	1083.01
482.188	1162.11
482.645	1292.01
483.102	1392.61
483.558	1507.11
484.015	1550.91
484.472	1519.11
484.929	1472.61
485.385	1444.81
485.842	1416.81
486.299	1346.11
486.755	1312.81
487.212	1123.61
487.668	963.31
488.125	892.31
488.582	818.61
489.038	787.31
489.494	748.71
489.951	729.11
490.407	715.11
490.864	702.01
491.32	691.51
491.776	695.51
492.233	687.21
492.689	655.91
493.145	657.21
493.602	647.11
494.058	670.51
494.514	663.11
494.97	684.01
495.426	707.41
495.882	671.21
496.338	649.01
496.794	664.11
497.251	656.81
497.707	683.91
498.163	674.31
498.618	688.61
499.074	686.01
499.53	717.61
499.986	714.71
500.442	690.91
500.898	672.41
501.354	653.61
501.809	676.81
502.265	664.11
502.721	681.41
503.177	694.71
503.632	698.71
504.088	702.21
504.543	715.21
504.999	749.11
505.455	709.61
505.91	691.11
506.366	701.51
506.821	679.71
507.277	685.01
507.732	685.01
508.187	690.01
508.643	695.51
509.098	700.91
509.553	717.61
510.009	728.71
510.464	719.51
510.919	749.11
511.375	752.51
511.83	771.81
512.285	775.91
512.74	805.71
513.195	836.91
513.65	831.01
514.105	821.21
514.56	820.21
515.015	840.21
515.47	846.81
515.925	834.91
516.38	843.61
516.835	849.71
517.29	830.11
517.745	828.41
518.2	834.71
518.655	814.91
519.109	800.11
519.564	791.71
520.019	789.11
520.474	787.01
520.928	775.01
521.383	770.11
521.838	766.71
522.292	767.21
522.747	761.81
523.201	760.51
523.656	756.51
524.11	752.61
524.565	742.91
525.019	744.11
525.474	756.41
525.928	754.91
526.382	756.91
526.837	752.81
527.291	762.71
527.745	753.61
528.2	751.51
528.654	745.41
529.108	739.11
529.562	751.41
530.016	748.91
530.47	738.81
530.925	745.91
531.379	732.41
531.833	758.41
532.287	746.11
532.741	760.91
533.195	763.11
533.649	777.21
534.103	765.31
534.556	750.31
535.01	761.01
535.464	753.61
535.918	762.41
536.372	762.51
536.826	766.31
537.279	763.71
537.733	768.21
538.187	760.51
538.64	764.21
539.094	771.81
539.548	779.81
540.001	765.51
540.455	772.51
540.908	781.01
541.362	786.21
541.815	804.21
542.269	816.11
542.722	811.11
543.175	829.31
543.629	826.41
544.082	852.61
544.536	852.01
544.989	850.51
545.442	851.51
545.895	843.71
546.349	853.71
546.802	849.71
547.255	849.61
547.708	868.91
548.161	883.71
548.614	880.51
549.067	885.91
549.52	878.61
549.973	882.91
550.426	864.61
550.879	868.51
551.332	868.01
551.785	867.51
552.238	874.81
552.691	884.31
553.144	901.01
553.596	905.91
554.049	920.61
554.502	950.51
554.955	973.51
555.407	971.21
555.86	961.41
556.313	960.21
556.765	948.61
557.218	948.01
557.67	952.11
558.123	944.61
558.576	943.41
559.028	943.41
559.48	940.21
559.933	947.61
560.385	899.11
560.838	872.71
561.29	848.91
561.742	833.61
562.195	825.61
562.647	830.31
563.099	839.91
563.551	836.91
564.004	848.01
564.456	828.21
564.908	815.01
565.36	795.51
565.812	778.91
566.264	760.31
566.716	764.41
567.168	749.61
567.62	764.01
568.072	752.31
568.524	742.21
568.976	747.91
569.428	729.11
569.88	734.51
570.332	733.31
570.784	735.11
571.235	737.01
571.687	747.11
572.139	753.31
572.59	759.81
573.042	757.11
573.494	763.01
573.945	753.61
574.397	734.81
574.849	742.21
575.3	749.21
575.752	739.01
576.203	729.01
576.655	735.41
577.106	719.61
577.557	711.61
578.009	727.01
578.46	709.31
578.912	712.11
579.363	713.81
579.814	722.21
580.265	715.51
580.717	716.31
581.168	716.61
581.619	717.71
582.07	722.11
582.521	724.01
582.972	712.81
583.423	717.31
583.875	729.01
584.326	727.21
584.777	743.51
585.227	768.01
585.678	784.31
586.129	810.71
586.58	833.71
587.031	851.01
587.482	881.91
587.933	928.71
588.384	903.71
588.834	857.31
589.285	834.51
589.736	832.51
590.186	821.61
590.637	817.01
591.088	795.51
591.538	790.61
591.989	788.31
592.439	776.61
592.89	766.21
593.34	761.51
593.791	757.71
594.241	742.61
594.692	758.81
595.142	745.81
595.593	744.51
596.043	753.81
596.493	753.91
596.943	747.81
597.394	775.31
597.844	761.51
598.294	783.51
598.744	810.91
599.195	849.61
599.645	882.71
600.095	925.11
600.545	987.61
600.995	1045.71
601.445	1099.01
601.895	1161.91
602.345	1207.31
602.795	1187.11
603.245	1142.11
603.695	1085.11
604.145	1035.21
604.594	978.61
605.044	922.91
605.494	861.01
605.944	811.01
606.393	790.31
606.843	776.01
607.293	787.61
607.743	778.11
608.192	790.91
608.642	810.01
609.091	818.11
609.541	815.41
609.99	814.71
610.44	812.91
610.889	757.11
611.339	752.61
611.788	734.21
612.238	742.81
612.687	744.91
613.136	738.61
613.586	753.11
614.035	748.51
614.484	747.71
614.933	752.61
615.383	744.91
615.832	752.01
616.281	742.91
616.73	714.41
617.179	695.91
617.628	697.01
618.077	682.21
618.526	662.41
618.975	659.11
619.424	650.51
619.873	654.81
620.322	664.31
620.771	647.61
621.22	645.81
621.669	628.51
622.118	619.91
622.567	621.41
623.015	610.91
623.464	611.21
623.913	597.71
624.361	583.61
624.81	586.71
625.259	592.91
625.707	599.61
626.156	593.81
626.604	612.91
627.053	603.41
627.501	600.81
627.95	613.41
628.398	627.01
628.847	613.81
629.295	614.51
629.744	616.81
630.192	604.91
630.64	609.11
631.089	578.81
631.537	575.11
631.985	565.81
632.433	569.91
632.881	560.21
633.33	577.41
633.778	559.71
634.226	564.51
634.674	578.81
635.122	572.81
635.57	589.31
636.018	600.81
636.466	599.81
636.914	596.91
637.362	615.11
637.81	620.11
638.258	622.31
638.705	615.51
639.153	659.91
639.601	663.61
640.049	683.91
640.497	716.11
640.944	732.41
641.392	697.31
641.84	644.51
642.287	620.81
642.735	605.41
643.182	606.01
643.63	605.11
644.078	593.81
644.525	613.51
644.973	627.01
645.42	630.11
645.867	662.61
646.315	673.11
646.762	699.81
647.21	730.01
647.657	748.21
648.104	782.81
648.551	802.91
648.999	871.81
649.446	940.51
649.893	1038.41
650.34	1180.21
650.787	1395.21
651.234	1729.91
651.682	2229.81
652.129	3036.91
652.576	4295.91
653.023	6207.11
653.47	8407.81
653.917	10393.41
654.363	11891.11
654.81	13019.51
655.257	12352.51
655.704	8227.31
656.151	4969.41
656.598	3267.61
657.044	2345.61
657.491	1831.41
657.938	1485.51
658.385	1249.31
658.831	1088.01
659.278	977.81
659.724	870.61
660.171	812.41
660.618	744.41
661.064	711.21
661.511	700.11
661.957	682.41
662.404	677.61
662.85	683.61
663.296	663.91
663.743	595.01
664.189	569.41
664.635	560.81
665.082	555.61
665.528	558.41
665.974	552.71
666.42	541.11
666.867	530.11
667.313	516.21
667.759	492.11
668.205	479.11
668.651	490.21
669.097	477.71
669.543	477.31
669.989	478.51
670.435	482.21
670.881	480.01
671.327	483.21
671.773	505.71
672.219	537.81
672.665	591.81
673.11	628.11
673.556	678.11
674.002	722.61
674.448	711.11
674.893	600.21
675.339	510.11
675.785	470.21
676.23	461.61
676.676	433.01
677.122	409.31
677.567	398.71
678.013	392.91
678.458	396.71
678.904	393.41
679.349	377.71
679.794	387.71
680.24	383.91
680.685	374.51
681.131	377.41
681.576	371.41
682.021	384.41
682.466	380.21
682.912	372.91
683.357	385.21
683.802	409.21
684.247	435.61
684.692	494.51
685.137	544.21
685.583	576.41
686.028	598.31
686.473	560.91
686.918	481.51
687.363	438.91
687.807	420.91
688.252	383.51
688.697	387.91
689.142	364.91
689.587	356.31
690.032	344.51
690.477	368.71
690.921	376.81
691.366	414.61
691.811	433.71
692.255	471.41
692.7	508.41
693.145	543.01
693.589	770.81
694.034	1249.81
694.478	1679.41
694.923	1863.81
695.367	2437.11
695.812	1290.61
696.256	538.61
696.701	399.71
697.145	374.91
697.59	347.91
698.034	341.21
698.478	345.41
698.922	341.81
699.367	345.81
699.811	358.41
700.255	369.81
700.699	414.31
701.143	456.81
701.588	502.21
702.032	552.41
702.476	555.81
702.92	525.71
703.364	543.71
703.808	716.51
704.252	1158.81
704.696	1581.31
705.14	1789.61
705.584	2288.31
706.027	1159.41
706.471	558.91
706.915	440.01
707.359	374.91
707.803	346.51
708.246	337.71
708.69	330.71
709.134	338.31
709.577	337.01
710.021	337.61
710.465	325.51
710.908	326.71
711.352	319.21
711.795	334.81
712.239	374.81
712.682	413.91
713.126	438.11
713.569	496.91
714.012	392.51
714.456	320.81
714.899	304.91
715.342	292.11
715.786	285.31
716.229	280.71
716.672	279.41
717.115	264.71
717.558	272.81
718.002	265.11
718.445	285.61
718.888	304.41
719.331	310.91
719.774	322.21
720.217	327.61
720.66	300.81
721.103	288.61
721.546	268.11
721.989	265.01
722.432	250.91
722.874	252.21
723.317	250.11
723.76	257.91
724.203	278.41
724.645	342.71
725.088	483.01
725.531	616.11
725.974	681.51
726.416	587.11
726.859	329.71
727.301	267.91
727.744	258.71
728.187	256.81
728.629	257.71
729.071	263.01
729.514	276.21
729.956	291.81
730.399	303.71
730.841	311.21
731.283	294.71
731.726	285.91
732.168	278.91
732.61	295.01
733.053	307.11
733.495	330.31
733.937	382.91
734.379	436.41
734.821	486.21
735.263	600.71
735.705	939.71
736.148	1770.11
736.59	2838.61
737.032	3265.11
737.474	2690.21
737.916	884.21
738.357	473.21
738.799	359.91
739.241	331.01
739.683	302.61
740.125	317.01
740.567	318.11
741.008	337.31
741.45	340.21
741.892	353.01
742.334	378.51
742.775	393.51
743.217	371.31
743.658	294.51
744.1	278.51
744.542	297.31
744.983	349.51
745.425	376.31
745.866	373.71
746.307	299.21
746.749	291.81
747.19	351.61
747.632	501.01
748.073	1006.61
748.514	2084.61
748.956	3103.81
749.397	3919.61
749.838	3238.91
750.279	3158.61
750.72	1614.41
751.162	597.81
751.603	349.21
752.044	270.91
752.485	235.01
752.926	226.21
753.367	216.71
753.808	206.91
754.249	210.61
754.69	204.61
755.131	194.71
755.572	192.51
756.013	190.71
756.453	204.71
756.894	199.81
757.335	206.31
757.776	212.01
758.216	211.51
758.657	207.21
759.098	222.41
759.538	248.01
759.979	295.11
760.42	421.41
760.86	799.61
761.301	2073.61
761.741	4908.51
762.182	6829.51
762.622	4856.71
763.063	1435.31
763.503	590.91
763.943	353.41
764.384	288.51
764.824	280.61
765.264	266.61
765.705	236.91
766.145	196.51
766.585	186.61
767.025	187.41
767.465	174.71
767.906	201.21
768.346	219.71
768.786	230.71
769.226	241.81
769.666	339.91
770.106	693.71
770.546	1746.31
770.986	2840.81
771.426	2519.91
771.866	866.21
772.306	357.31
772.745	219.81
773.185	184.61
773.625	170.81
774.065	163.11
774.505	176.81
774.944	227.21
775.384	395.41
775.824	629.31
776.263	597.11
776.703	303.71
777.142	168.81
777.582	139.21
778.021	131.51
778.461	127.31
778.9	133.91
779.34	129.71
779.779	121.91
780.219	115.31
780.658	113.31
781.097	113.81
781.537	119.91
781.976	116.01
782.415	111.81
782.855	103.71
783.294	107.91
783.733	110.61
784.172	118.51
784.611	108.21
785.05	111.91
785.489	111.41
785.928	124.01
786.367	128.51
786.806	123.21
787.245	138.41
787.684	136.41
788.123	156.01
788.562	144.61
789.001	133.41
789.44	125.51
789.879	125.91
790.317	129.21
790.756	136.81
791.195	133.01
791.634	153.01
792.072	223.51
792.511	412.81
792.95	1122.01
793.388	2284.41
793.827	2023.21
794.265	719.71
794.704	313.51
795.142	196.31
795.581	157.81
796.019	143.31
796.458	136.21
796.896	131.41
797.334	140.51
797.773	167.71
798.211	239.11
798.649	496.11
799.087	1133.91
799.526	1748.21
799.964	2192.81
800.402	2133.41
800.84	827.11
801.278	324.41
801.716	200.41
802.154	171.51
802.592	159.81
803.03	150.81
803.468	148.51
803.906	156.81
804.344	157.01
804.782	153.21
805.22	150.11
805.658	139.71
806.096	160.61
806.533	165.31
806.971	189.71
807.409	242.61
807.847	350.41
808.284	754.91
808.722	2091.11
809.16	3547.21
809.597	3490.71
810.035	5924.81
810.472	6081.31
810.91	2248.61
811.347	867.61
811.785	446.71
812.222	272.81
812.66	209.71
813.097	176.81
813.535	159.01
813.972	141.31
814.409	125.11
814.846	124.01
815.284	111.51
815.721	104.81
816.158	107.41
816.595	113.11
817.032	165.41
817.47	186.41
817.907	135.11
818.344	108.21
818.781	99.81
819.218	99.81
819.655	133.61
820.092	207.31
820.529	230.61
820.966	184.41
821.403	137.31
821.839	106.01
822.276	105.31
822.713	133.71
823.15	145.31
823.587	126.81
824.023	166.31
824.46	333.91
824.897	985.91
825.333	1437.71
825.77	627.51
826.206	249.81
826.643	151.01
827.08	103.11
827.516	93.41
827.953	87.11
828.389	84.11
828.825	72.71
829.262	70.31
829.698	66.41
830.135	64.51
830.571	62.21
831.007	71.61
831.443	65.91
831.88	67.21
832.316	64.61
832.752	65.21
833.188	68.81
833.624	65.71
834.06	73.81
834.497	71.01
834.933	64.01
835.369	81.81
835.805	71.71
836.241	78.81
836.677	81.61
837.112	98.21
837.548	112.31
837.984	146.41
838.42	221.81
838.856	563.01
839.292	1678.71
839.727	2452.01
840.163	1176.01
840.599	1033.61
841.034	2209.61
841.47	2251.41
841.906	839.31
842.341	357.21
842.777	219.11
843.212	223.61
843.648	198.51
844.083	119.21
844.519	84.11
844.954	72.31
845.39	61.21
845.825	64.21
846.261	59.31
846.696	57.51
847.131	62.51
847.566	65.41
848.002	55.91
848.437	51.61
848.872	59.21
849.307	61.91
849.742	87.71
850.177	199.01
850.613	606.61
851.048	940.51
851.483	402.81
851.918	166.61
852.353	90.81
852.788	59.01
853.223	53.31
853.657	51.61
854.092	47.31
854.527	41.41
854.962	41.51
855.397	48.51
855.832	55.91
856.266	39.21
856.701	33.41
857.136	32.91
857.57	43.41
858.005	49.51
858.44	58.41
858.874	47.61
859.309	48.71
859.743	46.01
860.178	45.41
860.612	45.81
861.047	60.21
861.481	71.01
861.915	75.61
862.35	53.71
862.784	27.11
863.218	41.21
863.653	34.21
864.087	47.81
864.521	59.71
864.955	68.51
865.39	168.31
865.824	184.11
866.258	121.61
866.692	187.21
867.126	188.21
867.56	111.01
867.994	54.31
868.428	36.81
868.862	52.01
869.296	61.31
869.73	62.71
870.164	56.21
870.598	44.31
871.031	32.41
871.465	38.81
871.899	30.31
872.333	23.31
872.766	23.31
873.2	18.01
873.634	39.21
874.067	31.41
874.501	20.41
874.935	32.61
875.368	33.31
875.802	24.31
876.235	26.21
876.669	24.41
877.102	18.11
877.535	25.91
877.969	23.01
878.402	32.41
878.836	14.91
879.269	21.91
879.702	26.71
880.135	22.11
880.569	18.81
881.002	19.51
881.435	20.21
881.868	14.41
882.301	24.41
882.734	20.21
883.167	19.61
883.601	19.51
884.034	24.31
884.467	13.21
884.899	14.61
885.332	17.21
885.765	12.21
886.198	14.21
886.631	16.91
887.064	18.41
887.497	19.81
887.929	23.21
888.362	13.71
888.795	15.51
889.228	13.61
889.66	17.81
890.093	16.21
890.526	14.31
890.958	17.51
891.391	18.11
891.823	24.11
892.256	13.51
892.688	8.41
893.121	18.51
893.553	16.11
893.985	18.91
894.418	17.51
894.85	14.11
895.282	17.51
895.715	17.91
896.147	22.01
896.579	19.11
897.011	12.51
897.444	16.61
897.876	15.41
898.308	12.21
898.74	9.01
899.172	11.71
899.604	19.91
900.036	18.51
900.468	12.21
900.9	15.71
901.332	16.11
901.764	10.21
902.196	14.91
902.628	11.51
903.06	19.21
903.491	31.01
903.923	27.31
904.355	19.91
904.787	21.71
905.218	19.61
905.65	22.51
906.082	17.81
906.513	17.31
906.945	18.71
907.376	13.21
907.808	20.51
908.239	15.51
908.671	19.81
909.102	25.21
909.534	25.81
909.965	45.21
910.397	93.41
910.828	338.81
911.259	501.21
911.691	235.41
912.122	115.61
912.553	55.51
912.984	28.71
913.415	30.81
913.847	25.01
914.278	9.71
914.709	10.11
915.14	10.91
915.571	17.91
916.002	12.01
916.433	21.41
916.864	14.01
917.295	8.41
917.726	13.81
918.157	13.51
918.587	30.31
919.018	19.71
919.449	17.71
919.88	20.41
920.311	30.11
920.741	52.01
921.172	184.81
921.603	156.11
922.033	74.41
922.464	46.31
922.895	25.41
923.325	22.61
923.756	15.21
924.186	10.21
924.617	17.61
925.047	28.61
925.478	21.51
925.908	22.31
926.338	12.51
926.769	12.31
927.199	15.01
927.629	7.71
928.06	17.51
928.49	18.71
928.92	13.81
929.35	5.61
929.78	12.81
930.21	6.81
930.641	8.31
931.071	7.11
931.501	4.31
931.931	7.71
932.361	8.61
932.791	1.51
933.221	4.61
933.651	3.61
934.08	17.31
934.51	28.31
934.94	4.41
935.37	4.81
935.8	6.51
936.229	9.21
936.659	13.51
937.089	-4.29
937.519	18.81
937.948	22.21
938.378	14.41
938.807	1.91
939.237	1.11
939.666	4.31
940.096	-8.59
940.525	-0.49
940.955	-0.29
941.384	3.81
941.814	-9.89
942.243	-1.09
942.672	1.41
943.102	-5.49
943.531	-3.29
943.96	-1.49
944.39	-1.79
944.819	-5.59
945.248	2.51
945.677	-1.59
946.106	2.11
946.535	6.51
946.964	-0.49
947.393	0.81
947.822	-1.99
948.251	-6.69
948.68	-0.09
949.109	3.21
949.538	-0.49
949.967	-2.79
950.396	1.81
950.825	0.91
951.254	-0.79
951.682	-5.29
952.111	4.91
952.54	1.61
952.969	-4.59
953.397	-10.59
953.826	-0.19
954.254	-5.29
954.683	4.51
955.112	-2.69
955.54	-0.19
955.969	1.81
956.397	-5.49
956.826	-1.39
957.254	7.11
957.682	1.41
958.111	2.81
958.539	-1.29
958.967	3.11
959.396	-2.59
959.824	-1.99
960.252	0.01
960.68	-7.09
961.109	-9.49
961.537	-4.49
961.965	-8.19
962.393	2.61
962.821	-6.99
963.249	-5.19
963.677	3.81
964.105	1.31
964.533	47.61
964.961	37.71
965.389	19.91
965.817	6.21
966.245	-3.79
966.672	2.21
967.1	-11.49
967.528	-4.19
967.956	-7.69
968.383	-1.49
968.811	-4.89
969.239	-2.59
969.666	-5.09
970.094	-2.79
970.522	-1.39
970.949	3.61
971.377	-7.79
971.804	-4.49
972.232	-0.19
972.659	-0.69
973.087	-7.49
973.514	-9.19
973.941	-9.39
974.369	-1.19
974.796	0.91
975.223	-0.79
975.651	-3.89
976.078	0.01
976.505	-2.19
976.932	-1.69
977.359	13.81
977.786	14.71
978.214	-2.89
978.641	-5.39
979.068	-4.99
979.495	-12.19
979.922	-0.49
980.349	-8.79
980.776	2.41
981.202	-10.79
981.629	0.51
982.056	1.21
982.483	-7.79
982.91	-1.79
983.337	-9.79
983.763	3.51
984.19	-3.29
984.617	-5.89
985.043	-5.09
985.47	-6.59
985.897	-5.29
986.323	-10.29
986.75	-1.19
987.176	-5.29
987.603	-7.99
988.029	-4.09
988.456	-8.19
988.882	-0.09
989.308	-6.09
989.735	-3.39
990.161	-1.09
990.587	-4.79
991.014	-1.49
991.44	4.01
991.866	-7.59
992.292	-4.39
992.719	-6.19
993.145	-0.79
993.571	-11.39
993.997	-3.49
994.423	-5.19
994.849	-6.69
995.275	-1.79
995.701	-0.69
996.127	-0.99
996.553	3.91
996.979	-3.59
997.405	-7.19
997.83	-7.39
998.256	-12.39
998.682	-13.79
999.108	-9.09
999.534	-5.49
999.959	-4.19
1000.385	-4.59
1000.811	-3.59
1001.236	-9.39
1001.662	-6.09
1002.087	-11.99
1002.513	-5.79
1002.938	-1.49
1003.364	-4.39
1003.789	-2.89
1004.215	5.01
1004.64	1.41
1005.066	-1.39
1005.491	-3.29
1005.916	-4.89
1006.342	-7.99
1006.767	-9.79
1007.192	0.71
1007.617	-4.59
1008.042	-10.19
1008.468	-5.49
1008.893	-10.49
1009.318	-6.19
1009.743	-0.79
1010.168	-2.59
1010.593	10.71
1011.018	-3.89
1011.443	0.51
1011.868	-1.59
1012.293	-8.59
1012.718	-12.39
1013.143	-1.09
1013.567	-5.79
1013.992	-5.99
1014.417	-9.09
1014.842	-0.99
1015.267	-2.69
1015.691	-8.19
1016.116	1.51
1016.541	3.91
1016.965	-2.69
1017.39	-1.99
1017.814	-6.89
1018.239	-2.29
1018.663	-7.89
1019.088	-14.29
1019.512	-2.29
1019.937	-2.39
1020.361	-6.99
1020.785	-11.09
1021.21	-4.19
1021.634	-5.59
1022.058	-2.49
1022.483	0.91
1022.907	-5.79
1023.331	-13.69
1023.755	-6.99
1024.179	-6.89
1024.604	-4.99
1025.028	-8.79
1025.452	-5.69
1025.876	1.01
1026.3	0.31
1026.724	-12.19
1027.148	-12.49
1027.572	-5.09
1027.996	-5.89
1028.42	2.41
1028.843	-6.09
1029.267	-13.09
1029.691	-7.59
1030.115	-10.39
1030.539	-6.69
1030.962	-10.49
1031.386	-16.89
1031.81	-7.19
1032.233	-4.59
1032.657	-10.79
1033.08	0.01
1033.504	-2.99
1033.927	-5.99
1034.351	-3.99
1034.774	-3.09
1035.198	-3.39
1035.621	-4.89
1036.045	-7.19
1036.468	2.51
1036.891	-9.69
1037.315	-7.09
1037.738	-12.49
1038.161	-5.19
1038.584	-4.69
1039.008	-12.09
1039.431	-8.19
1039.854	-2.29
1040.277	-8.99
1040.7	-14.69
1041.123	-0.99
1041.546	-7.29
1041.969	-3.59
1042.392	-8.09
1042.815	-5.69
1043.238	-4.29
1043.661	-2.59
1044.084	-7.29
1044.507	-9.89
1044.93	-4.49
1045.352	-4.19
1045.775	-1.79
1046.198	-4.39
1046.621	-4.09
1047.043	-0.59
1047.466	7.71
1047.889	0.01
1048.311	-9.89
1048.734	-5.29
1049.156	-4.29
1049.579	-2.49
1050.001	-6.99
1050.424	-5.39
1050.846	-10.69
1051.269	-4.49
1051.691	-8.29
1052.113	-4.69
1052.536	2.11
1052.958	-1.09
1053.38	-1.79
1053.802	-11.09
1054.225	0.71
1054.647	-9.39
1055.069	-2.59
1055.491	2.61
1055.913	-10.59
1056.335	-3.29
1056.757	-9.69
1057.179	-7.99
1057.601	-4.19
1058.023	0.31
1058.445	1.01
1058.867	-7.99
1059.289	-4.29
1059.711	-12.59
1060.133	-5.09
1060.555	-6.79
1060.976	-8.49
1061.398	-3.39
1061.82	-10.79
1062.241	-8.29
1062.663	-6.39
1063.085	-5.69
1063.506	-2.69
1063.928	-4.99
1064.35	0.21
1064.771	-11.49
1065.193	-5.09
1065.614	-11.59
1066.035	-0.59
1066.457	-6.89
1066.878	-0.99
1067.3	-5.99
1067.721	-7.29
1068.142	-6.79
1068.564	-5.39
1068.985	-6.09
1069.406	-2.69
1069.827	-5.99
1070.248	2.31
1070.67	-7.09
1071.091	-7.99
1071.512	-4.19
1071.933	-10.79
1072.354	-7.39
1072.775	-9.79
1073.196	-7.59
1073.617	-4.49
1074.038	-12.49
1074.459	-9.29
1074.88	-8.49
1075.3	-3.49
1075.721	-4.49
1076.142	-3.29
1076.563	-6.99
1076.983	-9.09
1077.404	-11.59
1077.825	-9.49
1078.246	-4.19
1078.666	-14.59
1079.087	-11.69
1079.507	-8.89
1079.928	0.41
1080.348	-4.99
1080.769	-3.89
1081.189	-0.79
1081.61	-9.49
1082.03	-11.79
1082.451	-9.39
1082.871	-5.79
1083.291	-4.99
1083.711	-6.69
1084.132	-2.39
1084.552	-5.29
1084.972	-4.89
1085.392	-8.39
1085.813	-13.49
1086.233	-6.99
1086.653	-6.29
1087.073	-4.09
1087.493	-10.39
1087.913	-3.69
1088.333	-11.19
1088.753	-4.29
1089.173	-0.49
1089.593	-1.89
1090.013	0.61
1090.433	-3.79
1090.852	-8.89
1091.272	-3.59
1091.692	-10.89
1092.112	-5.99
1092.531	-10.79
1092.951	-9.69
1093.371	-6.09
1093.79	-2.99
1094.21	-9.99
1094.63	-7.39
1095.049	-6.09
1095.469	-4.29
1095.888	-8.49
1096.308	1.11
1096.727	3.61
1097.146	-13.69
1097.566	-9.99
1097.985	-6.89
1098.405	-1.69
1098.824	-4.49
1099.243	-9.99
1099.662	-7.19
1100.082	-5.29
1100.501	-12.19
1100.92	-10.39
1101.339	-3.99
1101.758	-8.19
