Data from 20171114-ORNL-Ar_H_NY_Subt18_08-03-44-319.txt Node
Date: Tue Nov 14 08:03:44 EST 2017
User: Ender
Spectrometer: HR+D1039
Trigger mode: 0
Integration Time (sec): 2.730000E-2
Scans to average: 10
Electric dark correction enabled: true
Nonlinearity correction enabled: false
Boxcar width: 0
XAxis mode: Wavelengths
Number of Pixels in Spectrum: 2048
>>>>>Begin Spectral Data<<<<<
187.836	-2.81
188.309	-2.81
188.782	-2.81
189.255	3.39
189.728	-4.81
190.201	4.49
190.674	3.79
191.147	0.79
191.619	-6.41
192.092	1.59
192.565	10.09
193.038	-6.31
193.511	-0.51
193.984	-0.61
194.456	-1.51
194.929	-0.61
195.402	-3.11
195.874	2.59
196.347	2.29
196.82	-3.01
197.292	12.49
197.765	-1.21
198.237	-7.51
198.71	0.69
199.182	-1.61
199.655	6.09
200.127	6.49
200.6	-5.61
201.072	-3.01
201.544	-2.01
202.017	-3.01
202.489	-0.41
202.961	-1.81
203.433	-2.71
203.906	-3.11
204.378	-8.61
204.85	-2.11
205.322	-8.91
205.794	-3.21
206.266	-4.91
206.739	-3.61
207.211	5.29
207.683	-9.71
208.155	-3.31
208.627	-2.41
209.099	-6.61
209.57	-13.31
210.042	-10.01
210.514	0.49
210.986	1.99
211.458	-8.01
211.93	-3.91
212.402	4.79
212.873	-4.61
213.345	-7.51
213.817	-9.21
214.288	-0.41
214.76	-13.21
215.232	-0.21
215.703	-0.31
216.175	-3.71
216.646	-4.91
217.118	-8.91
217.589	-7.91
218.061	-5.41
218.532	-8.41
219.004	-9.51
219.475	-6.31
219.946	-2.91
220.418	-8.21
220.889	-3.21
221.36	-0.81
221.832	1.69
222.303	-5.71
222.774	0.69
223.245	-12.31
223.717	-4.91
224.188	-0.71
224.659	-4.01
225.13	-4.01
225.601	-5.01
226.072	0.79
226.543	0.99
227.014	1.69
227.485	-2.61
227.956	-6.01
228.427	-5.91
228.898	7.19
229.369	0.39
229.839	-0.91
230.31	-4.01
230.781	1.99
231.252	-9.31
231.722	-0.61
232.193	0.09
232.664	1.29
233.135	-5.01
233.605	-5.01
234.076	-8.81
234.546	-2.41
235.017	3.69
235.487	-0.01
235.958	-7.31
236.428	-3.61
236.899	-2.61
237.369	-3.71
237.84	-9.91
238.31	-0.61
238.78	1.39
239.251	-11.01
239.721	-2.91
240.191	-0.91
240.662	-0.61
241.132	-4.51
241.602	-4.81
242.072	3.69
242.542	0.79
243.013	0.19
243.483	3.99
243.953	-2.01
244.423	0.49
244.893	-9.81
245.363	0.09
245.833	1.99
246.303	-3.11
246.773	1.89
247.243	-1.21
247.712	0.69
248.182	1.29
248.652	0.59
249.122	-4.41
249.592	-0.51
250.061	1.09
250.531	4.99
251.001	-0.81
251.471	3.19
251.94	8.29
252.41	-5.01
252.879	-7.41
253.349	4.99
253.818	2.39
254.288	-3.21
254.757	-4.31
255.227	-6.81
255.696	1.29
256.166	8.99
256.635	8.09
257.105	5.49
257.574	0.09
258.043	1.49
258.513	-2.61
258.982	2.29
259.451	-2.11
259.92	-0.91
260.389	-2.61
260.859	7.39
261.328	-1.91
261.797	2.69
262.266	-0.01
262.735	7.19
263.204	2.59
263.673	1.19
264.142	6.49
264.611	-4.81
265.08	-4.81
265.549	-3.11
266.018	1.09
266.487	-3.71
266.955	-3.11
267.424	0.69
267.893	1.69
268.362	-2.81
268.83	2.69
269.299	10.19
269.768	3.29
270.236	-1.61
270.705	2.19
271.174	1.49
271.642	-0.01
272.111	-1.81
272.579	5.29
273.048	3.89
273.516	0.19
273.985	2.09
274.453	5.79
274.922	17.39
275.39	3.09
275.858	-5.01
276.327	6.49
276.795	10.89
277.263	-0.51
277.731	11.39
278.2	3.79
278.668	8.39
279.136	9.89
279.604	-1.91
280.072	5.19
280.54	9.99
281.008	5.49
281.477	8.69
281.945	8.39
282.413	11.79
282.881	12.49
283.348	-4.11
283.816	10.69
284.284	6.49
284.752	11.69
285.22	5.99
285.688	3.79
286.156	6.29
286.623	13.09
287.091	3.49
287.559	3.89
288.026	4.99
288.494	13.39
288.962	4.19
289.429	9.79
289.897	11.09
290.364	8.39
290.832	6.39
291.3	7.79
291.767	9.09
292.234	6.59
292.702	2.49
293.169	13.89
293.637	20.79
294.104	13.59
294.571	0.29
295.039	6.79
295.506	10.39
295.973	10.89
296.44	10.79
296.908	12.09
297.375	9.19
297.842	7.79
298.309	13.89
298.776	4.59
299.243	18.09
299.71	3.39
300.177	10.09
300.644	12.89
301.111	10.99
301.578	17.29
302.045	9.49
302.512	18.39
302.979	16.99
303.446	15.59
303.913	15.39
304.379	8.49
304.846	22.19
305.313	15.99
305.78	13.69
306.246	21.19
306.713	12.79
307.18	14.69
307.646	24.79
308.113	19.69
308.579	14.69
309.046	21.89
309.512	24.09
309.979	20.79
310.445	23.79
310.912	25.19
311.378	21.39
311.845	20.59
312.311	24.19
312.777	22.49
313.244	21.59
313.71	25.19
314.176	19.29
314.642	25.09
315.109	23.99
315.575	27.49
316.041	31.19
316.507	17.99
316.973	29.99
317.439	23.09
317.905	30.19
318.371	24.09
318.837	22.19
319.303	27.69
319.769	28.09
320.235	31.39
320.701	27.79
321.167	30.69
321.633	24.39
322.099	31.69
322.564	35.09
323.03	30.79
323.496	40.29
323.962	29.39
324.427	28.89
324.893	32.59
325.359	36.89
325.824	27.49
326.29	32.79
326.755	32.99
327.221	31.79
327.686	33.09
328.152	45.19
328.617	34.59
329.083	39.49
329.548	47.39
330.014	39.59
330.479	31.29
330.944	37.49
331.41	33.89
331.875	47.19
332.34	34.19
332.805	40.19
333.271	37.89
333.736	31.89
334.201	44.49
334.666	46.69
335.131	47.69
335.596	49.49
336.061	45.89
336.526	37.49
336.991	44.29
337.456	47.49
337.921	49.69
338.386	39.89
338.851	43.89
339.316	47.29
339.781	46.09
340.246	52.99
340.711	47.99
341.175	47.49
341.64	46.79
342.105	44.99
342.569	51.49
343.034	53.99
343.499	53.39
343.963	48.99
344.428	59.89
344.893	57.39
345.357	57.29
345.822	59.99
346.286	69.59
346.751	71.09
347.215	59.49
347.679	65.19
348.144	79.59
348.608	77.49
349.073	65.19
349.537	71.39
350.001	71.99
350.465	79.79
350.93	72.69
351.394	76.49
351.858	63.09
352.322	82.99
352.786	76.59
353.25	85.19
353.715	99.19
354.179	86.59
354.643	102.19
355.107	105.69
355.571	92.69
356.035	94.59
356.498	95.29
356.962	98.09
357.426	109.39
357.89	103.29
358.354	82.19
358.818	83.19
359.281	72.79
359.745	71.79
360.209	75.19
360.673	74.89
361.136	82.29
361.6	80.09
362.064	85.39
362.527	82.79
362.991	90.39
363.454	81.79
363.918	77.49
364.381	82.19
364.845	85.69
365.308	89.49
365.772	92.19
366.235	90.69
366.698	84.69
367.162	86.09
367.625	86.29
368.088	96.79
368.552	90.99
369.015	90.39
369.478	95.59
369.941	98.69
370.404	104.79
370.867	99.29
371.331	102.79
371.794	102.49
372.257	100.09
372.72	104.79
373.183	104.59
373.646	93.89
374.109	94.49
374.572	101.89
375.035	108.69
375.497	108.09
375.96	106.29
376.423	107.59
376.886	115.59
377.349	117.79
377.811	111.19
378.274	105.09
378.737	109.29
379.199	118.39
379.662	114.89
380.125	118.09
380.587	114.79
381.05	118.19
381.512	120.69
381.975	130.69
382.437	125.69
382.9	128.39
383.362	130.19
383.825	137.39
384.287	130.19
384.75	129.69
385.212	134.49
385.674	136.89
386.136	134.59
386.599	128.09
387.061	136.99
387.523	133.09
387.985	134.59
388.447	143.79
388.91	136.69
389.372	141.09
389.834	143.39
390.296	134.89
390.758	139.69
391.22	145.99
391.682	151.79
392.144	159.59
392.606	153.59
393.068	145.19
393.529	159.29
393.991	154.79
394.453	150.49
394.915	141.59
395.377	147.19
395.838	150.89
396.3	146.49
396.762	149.59
397.224	155.59
397.685	149.49
398.147	153.89
398.608	155.49
399.07	155.69
399.531	157.19
399.993	158.99
400.454	175.19
400.916	167.49
401.377	164.39
401.839	166.79
402.3	175.99
402.762	184.59
403.223	194.69
403.684	190.49
404.145	186.29
404.607	175.29
405.068	184.29
405.529	181.59
405.99	196.89
406.451	185.59
406.913	192.19
407.374	187.69
407.835	184.79
408.296	193.09
408.757	191.19
409.218	206.49
409.679	196.69
410.14	198.69
410.601	187.39
411.062	198.29
411.522	201.89
411.983	196.49
412.444	195.69
412.905	202.39
413.366	208.69
413.826	228.69
414.287	248.89
414.748	298.89
415.208	286.69
415.669	241.29
416.13	232.89
416.59	233.49
417.051	242.29
417.511	257.49
417.972	290.09
418.432	284.79
418.893	348.69
419.353	292.09
419.814	231.99
420.274	202.69
420.734	198.59
421.195	216.09
421.655	212.79
422.115	212.99
422.576	216.79
423.036	227.09
423.496	235.39
423.956	247.09
424.416	255.99
424.876	295.59
425.336	295.99
425.797	299.49
426.257	284.19
426.717	261.89
427.177	262.59
427.637	254.69
428.097	255.79
428.556	276.39
429.016	295.39
429.476	282.09
429.936	294.39
430.396	300.89
430.856	312.99
431.315	334.59
431.775	365.09
432.235	399.79
432.694	378.69
433.154	385.59
433.614	400.79
434.073	351.99
434.533	295.89
434.993	285.59
435.452	287.39
435.912	296.79
436.371	298.29
436.83	297.59
437.29	281.69
437.749	273.09
438.209	270.69
438.668	286.99
439.127	292.89
439.587	277.69
440.046	258.99
440.505	275.09
440.964	284.09
441.424	322.59
441.883	309.59
442.342	270.59
442.801	246.69
443.26	246.49
443.719	256.29
444.178	252.19
444.637	236.39
445.096	249.39
445.555	249.69
446.014	244.99
446.473	250.49
446.932	250.69
447.391	257.39
447.849	257.69
448.308	250.09
448.767	242.39
449.226	259.99
449.685	263.79
450.143	273.99
450.602	256.79
451.061	249.79
451.519	262.99
451.978	255.79
452.436	251.89
452.895	260.09
453.353	268.29
453.812	263.39
454.27	253.79
454.729	262.39
455.187	252.29
455.646	262.89
456.104	267.39
456.562	278.79
457.021	284.29
457.479	278.59
457.937	280.89
458.395	274.89
458.854	269.19
459.312	264.79
459.77	279.59
460.228	272.59
460.686	263.39
461.144	274.59
461.602	263.59
462.06	272.69
462.518	284.29
462.976	280.59
463.434	281.59
463.892	284.69
464.35	292.19
464.808	297.79
465.266	284.09
465.724	289.69
466.181	297.59
466.639	291.99
467.097	312.69
467.555	313.99
468.012	318.79
468.47	324.39
468.928	344.59
469.385	349.19
469.843	361.89
470.3	364.99
470.758	366.89
471.215	382.39
471.673	403.29
472.13	413.59
472.588	426.09
473.045	387.79
473.503	404.09
473.96	418.99
474.417	423.89
474.875	439.59
475.332	475.49
475.789	475.49
476.246	479.59
476.704	498.49
477.161	521.09
477.618	526.79
478.075	560.79
478.532	608.29
478.989	672.59
479.446	756.09
479.903	738.29
480.36	785.69
480.817	820.89
481.274	905.59
481.731	1008.49
482.188	1085.59
482.645	1202.49
483.102	1297.09
483.558	1402.59
484.015	1451.99
484.472	1432.79
484.929	1396.69
485.385	1344.59
485.842	1325.29
486.299	1275.79
486.755	1220.99
487.212	1064.39
487.668	922.79
488.125	860.39
488.582	776.39
489.038	747.29
489.494	711.49
489.951	678.89
490.407	681.09
490.864	649.59
491.32	652.09
491.776	640.79
492.233	648.99
492.689	610.89
493.145	612.99
493.602	599.79
494.058	611.89
494.514	611.89
494.97	630.29
495.426	631.99
495.882	616.59
496.338	598.69
496.794	605.99
497.251	604.49
497.707	616.19
498.163	619.19
498.618	633.19
499.074	630.79
499.53	643.69
499.986	642.79
500.442	625.09
500.898	606.59
501.354	613.79
501.809	616.19
502.265	612.29
502.721	621.69
503.177	631.59
503.632	624.09
504.088	639.79
504.543	649.29
504.999	666.79
505.455	637.19
505.91	622.59
506.366	629.59
506.821	626.19
507.277	631.89
507.732	625.39
508.187	617.89
508.643	639.29
509.098	636.29
509.553	651.79
510.009	660.99
510.464	650.09
510.919	680.39
511.375	673.19
511.83	691.09
512.285	690.39
512.74	719.39
513.195	732.69
513.65	736.29
514.105	734.79
514.56	733.19
515.015	749.49
515.47	759.79
515.925	739.09
516.38	747.79
516.835	756.39
517.29	748.79
517.745	734.99
518.2	737.79
518.655	728.89
519.109	713.39
519.564	707.49
520.019	698.99
520.474	684.29
520.928	676.59
521.383	679.29
521.838	674.79
522.292	679.39
522.747	682.09
523.201	677.59
523.656	665.69
524.11	670.89
524.565	666.09
525.019	669.99
525.474	668.49
525.928	665.69
526.382	658.59
526.837	659.89
527.291	660.09
527.745	653.69
528.2	662.69
528.654	651.89
529.108	640.59
529.562	638.19
530.016	637.99
530.47	648.19
530.925	646.29
531.379	647.29
531.833	646.89
532.287	647.89
532.741	646.09
533.195	644.29
533.649	648.49
534.103	659.19
534.556	645.69
535.01	642.69
535.464	636.89
535.918	640.69
536.372	647.19
536.826	645.69
537.279	636.59
537.733	646.49
538.187	646.99
538.64	649.09
539.094	655.99
539.548	664.39
540.001	661.19
540.455	660.69
540.908	663.29
541.362	670.49
541.815	679.69
542.269	682.09
542.722	693.99
543.175	678.39
543.629	699.69
544.082	713.79
544.536	719.59
544.989	713.99
545.442	707.99
545.895	710.49
546.349	719.59
546.802	714.09
547.255	719.29
547.708	724.69
548.161	736.09
548.614	728.79
549.067	741.79
549.52	723.49
549.973	730.69
550.426	720.99
550.879	705.69
551.332	708.89
551.785	721.59
552.238	721.79
552.691	730.59
553.144	731.69
553.596	744.99
554.049	762.19
554.502	786.29
554.955	796.29
555.407	794.49
555.86	787.39
556.313	765.49
556.765	761.79
557.218	766.19
557.67	757.09
558.123	760.79
558.576	754.19
559.028	761.79
559.48	761.79
559.933	762.69
560.385	731.49
560.838	710.59
561.29	689.29
561.742	687.89
562.195	662.69
562.647	668.79
563.099	670.19
563.551	666.89
564.004	681.19
564.456	674.29
564.908	663.29
565.36	642.89
565.812	624.29
566.264	624.69
566.716	618.49
567.168	603.89
567.62	605.29
568.072	591.29
568.524	592.19
568.976	589.99
569.428	579.29
569.88	586.79
570.332	581.89
570.784	591.39
571.235	579.09
571.687	591.29
572.139	596.69
572.59	604.89
573.042	603.09
573.494	601.89
573.945	593.89
574.397	581.19
574.849	581.39
575.3	584.79
575.752	582.19
576.203	567.79
576.655	577.59
577.106	566.99
577.557	555.29
578.009	564.39
578.46	558.59
578.912	540.39
579.363	559.59
579.814	547.59
580.265	548.39
580.717	551.69
581.168	560.29
581.619	557.59
582.07	563.69
582.521	553.79
582.972	556.99
583.423	553.09
583.875	561.59
584.326	558.09
584.777	563.69
585.227	592.79
585.678	594.19
586.129	620.99
586.58	637.39
587.031	644.69
587.482	684.29
587.933	708.59
588.384	680.69
588.834	653.39
589.285	640.59
589.736	627.49
590.186	628.99
590.637	631.29
591.088	612.69
591.538	603.69
591.989	585.99
592.439	590.99
592.89	578.49
593.34	566.39
593.791	566.99
594.241	565.49
594.692	564.79
595.142	559.49
595.593	543.09
596.043	562.19
596.493	568.99
596.943	571.49
597.394	573.19
597.844	572.59
598.294	585.49
598.744	609.09
599.195	621.79
599.645	662.99
600.095	668.69
600.545	719.59
600.995	766.79
601.445	805.79
601.895	866.89
602.345	898.99
602.795	888.89
603.245	855.49
603.695	812.69
604.145	761.69
604.594	726.89
605.044	687.09
605.494	642.59
605.944	586.09
606.393	576.09
606.843	571.99
607.293	577.19
607.743	563.99
608.192	577.69
608.642	584.99
609.091	596.89
609.541	598.29
609.99	593.49
610.44	588.09
610.889	551.59
611.339	543.89
611.788	530.89
612.238	545.59
612.687	550.19
613.136	541.39
613.586	554.79
614.035	545.89
614.484	554.09
614.933	549.99
615.383	547.49
615.832	546.59
616.281	540.09
616.73	521.19
617.179	508.29
617.628	512.99
618.077	497.39
618.526	486.99
618.975	478.49
619.424	475.49
619.873	473.89
620.322	483.09
620.771	462.19
621.22	461.69
621.669	459.19
622.118	457.09
622.567	442.99
623.015	435.49
623.464	434.09
623.913	433.49
624.361	420.39
624.81	424.49
625.259	422.89
625.707	428.49
626.156	425.59
626.604	440.09
627.053	432.09
627.501	423.59
627.95	433.69
628.398	446.59
628.847	439.19
629.295	442.89
629.744	439.79
630.192	428.49
630.64	422.89
631.089	421.19
631.537	413.19
631.985	390.49
632.433	403.29
632.881	398.79
633.33	398.59
633.778	398.69
634.226	394.79
634.674	403.39
635.122	407.39
635.57	413.49
636.018	410.09
636.466	430.29
636.914	423.09
637.362	431.79
637.81	435.69
638.258	433.19
638.705	429.49
639.153	453.59
639.601	462.79
640.049	492.99
640.497	510.79
640.944	528.89
641.392	483.49
641.84	463.69
642.287	440.29
642.735	426.59
643.182	426.49
643.63	422.49
644.078	421.49
644.525	433.29
644.973	436.49
645.42	444.29
645.867	456.69
646.315	478.39
646.762	487.39
647.21	511.09
647.657	522.39
648.104	543.99
648.551	561.49
648.999	595.69
649.446	648.89
649.893	701.39
650.34	801.39
650.787	948.09
651.234	1154.49
651.682	1464.59
652.129	1974.79
652.576	2768.49
653.023	4042.99
653.47	5608.29
653.917	7081.79
654.363	8275.79
654.81	9383.89
655.257	8905.29
655.704	5912.69
656.151	3531.89
656.598	2318.49
657.044	1676.09
657.491	1292.49
657.938	1039.99
658.385	867.89
658.831	759.29
659.278	686.69
659.724	603.79
660.171	565.79
660.618	509.89
661.064	483.99
661.511	474.39
661.957	457.49
662.404	445.99
662.85	453.29
663.296	429.19
663.743	408.89
664.189	395.49
664.635	393.69
665.082	386.79
665.528	379.09
665.974	380.89
666.42	366.39
666.867	368.29
667.313	349.59
667.759	342.99
668.205	330.19
668.651	329.59
669.097	328.29
669.543	322.89
669.989	325.89
670.435	329.49
670.881	327.09
671.327	332.49
671.773	348.69
672.219	362.29
672.665	392.29
673.11	423.19
673.556	463.59
674.002	496.49
674.448	482.19
674.893	419.59
675.339	355.79
675.785	327.79
676.23	314.39
676.676	287.69
677.122	284.49
677.567	267.09
678.013	277.19
678.458	262.99
678.904	268.39
679.349	254.99
679.794	259.49
680.24	261.69
680.685	250.49
681.131	253.09
681.576	254.69
682.021	257.49
682.466	252.99
682.912	252.69
683.357	251.79
683.802	272.89
684.247	295.69
684.692	319.69
685.137	349.19
685.583	384.79
686.028	413.19
686.473	382.39
686.918	328.39
687.363	309.69
687.807	284.89
688.252	265.69
688.697	262.89
689.142	246.39
689.587	242.09
690.032	223.99
690.477	249.59
690.921	248.39
691.366	282.49
691.811	292.09
692.255	308.69
692.7	335.09
693.145	355.19
693.589	481.49
694.034	796.29
694.478	1099.79
694.923	1287.29
695.367	1730.09
695.812	907.99
696.256	372.29
696.701	265.59
697.145	250.89
697.59	234.99
698.034	234.99
698.478	231.09
698.922	232.89
699.367	234.59
699.811	240.39
700.255	249.19
700.699	271.99
701.143	309.79
701.588	338.29
702.032	376.29
702.476	377.39
702.92	361.69
703.364	350.49
703.808	443.99
704.252	719.39
704.696	1034.79
705.14	1236.89
705.584	1622.89
706.027	803.09
706.471	386.79
706.915	291.39
707.359	259.29
707.803	233.59
708.246	219.69
708.69	228.99
709.134	229.59
709.577	230.89
710.021	230.19
710.465	224.29
710.908	215.69
711.352	209.89
711.795	222.69
712.239	250.39
712.682	266.79
713.126	293.99
713.569	338.09
714.012	268.29
714.456	217.29
714.899	211.39
715.342	195.19
715.786	189.39
716.229	191.29
716.672	184.39
717.115	175.89
717.558	179.79
718.002	179.89
718.445	185.79
718.888	207.99
719.331	203.69
719.774	221.89
720.217	221.69
720.66	206.89
721.103	191.79
721.546	175.29
721.989	180.99
722.432	163.59
722.874	175.29
723.317	166.39
723.76	166.19
724.203	182.29
724.645	212.09
725.088	305.19
725.531	400.29
725.974	473.69
726.416	408.19
726.859	233.39
727.301	173.29
727.744	169.19
728.187	165.49
728.629	176.59
729.071	178.39
729.514	182.79
729.956	196.69
730.399	202.49
730.841	211.49
731.283	198.29
731.726	194.19
732.168	183.19
732.61	187.39
733.053	203.59
733.495	212.79
733.937	242.69
734.379	278.99
734.821	306.49
735.263	377.99
735.705	574.19
736.148	1083.79
736.59	1843.29
737.032	2325.79
737.474	1900.79
737.916	606.09
738.357	304.49
738.799	231.79
739.241	216.89
739.683	200.39
740.125	210.39
740.567	217.09
741.008	235.39
741.45	232.99
741.892	234.39
742.334	255.69
742.775	278.09
743.217	260.89
743.658	199.09
744.1	182.39
744.542	191.09
744.983	242.59
745.425	274.39
745.866	271.89
746.307	200.39
746.749	192.69
747.19	229.89
747.632	303.09
748.073	598.19
748.514	1277.49
748.956	2073.99
749.397	2600.69
749.838	2172.79
750.279	2249.39
750.72	1147.09
751.162	411.59
751.603	232.19
752.044	185.59
752.485	157.99
752.926	152.49
753.367	146.89
753.808	135.39
754.249	130.99
754.69	133.39
755.131	125.39
755.572	135.49
756.013	133.99
756.453	135.39
756.894	130.59
757.335	130.29
757.776	140.49
758.216	139.19
758.657	140.19
759.098	141.99
759.538	156.69
759.979	188.39
760.42	256.49
760.86	483.39
761.301	1252.89
761.741	3140.99
762.182	5011.19
762.622	3565.39
763.063	990.59
763.503	392.89
763.943	242.89
764.384	196.69
764.824	182.69
765.264	168.29
765.705	153.59
766.145	128.49
766.585	123.39
767.025	123.89
767.465	112.69
767.906	124.49
768.346	138.19
768.786	147.79
769.226	154.79
769.666	208.89
770.106	408.99
770.546	1067.79
770.986	1947.19
771.426	1814.19
771.866	589.29
772.306	231.69
772.745	140.79
773.185	118.29
773.625	114.19
774.065	105.69
774.505	116.79
774.944	146.59
775.384	282.09
775.824	491.59
776.263	493.89
776.703	233.99
777.142	120.39
777.582	100.09
778.021	90.59
778.461	86.99
778.9	94.09
779.34	86.49
779.779	78.89
780.219	79.49
780.658	71.49
781.097	76.29
781.537	78.59
781.976	75.49
782.415	69.79
782.855	75.89
783.294	71.79
783.733	67.89
784.172	82.09
784.611	73.39
785.05	71.59
785.489	81.29
785.928	90.19
786.367	90.69
786.806	88.19
787.245	91.89
787.684	90.39
788.123	106.39
788.562	97.59
789.001	92.79
789.44	87.59
789.879	86.29
790.317	85.49
790.756	94.99
791.195	86.39
791.634	106.19
792.072	144.39
792.511	243.69
792.95	679.49
793.388	1563.59
793.827	1488.69
794.265	501.69
794.704	201.69
795.142	130.69
795.581	109.19
796.019	101.19
796.458	98.89
796.896	85.69
797.334	93.89
797.773	108.29
798.211	149.69
798.649	296.39
799.087	717.29
799.526	1156.89
799.964	1458.99
800.402	1548.99
800.84	573.99
801.278	218.99
801.716	141.39
802.154	115.39
802.592	104.59
803.03	102.29
803.468	94.39
803.906	101.79
804.344	110.79
804.782	96.89
805.22	96.69
805.658	86.59
806.096	108.59
806.533	112.39
806.971	129.79
807.409	158.29
807.847	226.69
808.284	458.19
808.722	1319.09
809.16	2484.79
809.597	2291.29
810.035	4056.89
810.472	4645.69
810.91	1664.49
811.347	608.39
811.785	300.29
812.222	192.39
812.66	146.19
813.097	121.79
813.535	98.29
813.972	92.79
814.409	94.79
814.846	81.59
815.284	79.79
815.721	70.79
816.158	72.69
816.595	76.79
817.032	119.69
817.47	150.29
817.907	113.99
818.344	77.39
818.781	70.29
819.218	70.89
819.655	94.99
820.092	151.19
820.529	177.59
820.966	139.39
821.403	103.59
821.839	74.49
822.276	77.49
822.713	97.69
823.15	100.49
823.587	80.79
824.023	100.79
824.46	202.29
824.897	634.39
825.333	1022.69
825.77	455.39
826.206	173.89
826.643	97.29
827.08	68.29
827.516	61.99
827.953	55.19
828.389	58.99
828.825	51.09
829.262	43.89
829.698	40.79
830.135	43.39
830.571	40.69
831.007	45.99
831.443	43.89
831.88	48.39
832.316	40.89
832.752	40.79
833.188	45.79
833.624	43.99
834.06	48.79
834.497	47.29
834.933	57.09
835.369	56.29
835.805	42.99
836.241	51.79
836.677	57.59
837.112	72.39
837.548	71.69
837.984	93.79
838.42	147.19
838.856	349.99
839.292	1094.69
839.727	1777.49
840.163	819.39
840.599	663.59
841.034	1499.89
841.47	1670.59
841.906	607.29
842.341	244.19
842.777	146.49
843.212	157.09
843.648	153.39
844.083	90.09
844.519	56.49
844.954	52.49
845.39	41.89
845.825	44.19
846.261	40.59
846.696	39.49
847.131	35.09
847.566	44.09
848.002	37.99
848.437	37.19
848.872	42.59
849.307	40.49
849.742	59.79
850.177	122.29
850.613	396.49
851.048	657.89
851.483	292.29
851.918	113.29
852.353	52.19
852.788	33.59
853.223	32.59
853.657	43.49
854.092	30.79
854.527	25.59
854.962	34.89
855.397	33.49
855.832	38.19
856.266	31.59
856.701	29.89
857.136	27.89
857.57	29.39
858.005	37.59
858.44	45.59
858.874	25.69
859.309	35.79
859.743	24.19
860.178	35.59
860.612	26.99
861.047	38.99
861.481	57.49
861.915	61.49
862.35	37.59
862.784	24.89
863.218	27.99
863.653	27.09
864.087	32.39
864.521	43.29
864.955	46.79
865.39	107.79
865.824	132.29
866.258	88.19
866.692	144.49
867.126	164.09
867.56	95.29
867.994	46.59
868.428	33.09
868.862	37.59
869.296	44.09
869.73	41.99
870.164	47.69
870.598	35.99
871.031	36.39
871.465	18.99
871.899	23.09
872.333	16.59
872.766	11.89
873.2	14.19
873.634	21.69
874.067	23.99
874.501	18.49
874.935	25.69
875.368	21.39
875.802	16.29
876.235	9.69
876.669	18.69
877.102	19.69
877.535	16.09
877.969	13.69
878.402	18.09
878.836	13.39
879.269	14.69
879.702	18.79
880.135	14.99
880.569	15.09
881.002	22.09
881.435	10.49
881.868	10.29
882.301	17.39
882.734	9.89
883.167	17.89
883.601	16.69
884.034	19.49
884.467	11.19
884.899	12.79
885.332	10.19
885.765	10.49
886.198	10.19
886.631	11.89
887.064	9.79
887.497	17.39
887.929	14.59
888.362	12.89
888.795	3.99
889.228	15.29
889.66	14.59
890.093	11.99
890.526	11.59
890.958	8.79
891.391	15.69
891.823	11.29
892.256	5.69
892.688	9.69
893.121	6.19
893.553	6.99
893.985	19.09
894.418	10.49
894.85	10.89
895.282	16.49
895.715	14.29
896.147	12.19
896.579	15.09
897.011	6.89
897.444	14.79
897.876	10.09
898.308	13.29
898.74	8.69
899.172	11.49
899.604	16.79
900.036	10.49
900.468	13.89
900.9	12.39
901.332	9.89
901.764	14.09
902.196	13.09
902.628	16.39
903.06	11.69
903.491	26.29
903.923	16.69
904.355	18.79
904.787	16.89
905.218	16.49
905.65	12.69
906.082	13.49
906.513	7.49
906.945	10.79
907.376	7.79
907.808	13.19
908.239	17.09
908.671	11.19
909.102	13.49
909.534	13.89
909.965	30.39
910.397	65.29
910.828	235.49
911.259	377.39
911.691	172.79
912.122	74.99
912.553	39.79
912.984	24.09
913.415	19.29
913.847	17.59
914.278	7.89
914.709	8.09
915.14	20.59
915.571	13.29
916.002	5.99
916.433	19.39
916.864	15.69
917.295	13.99
917.726	20.59
918.157	13.99
918.587	22.19
919.018	19.59
919.449	19.49
919.88	19.19
920.311	26.69
920.741	37.09
921.172	122.99
921.603	113.19
922.033	48.69
922.464	36.29
922.895	18.59
923.325	14.89
923.756	8.59
924.186	5.49
924.617	12.19
925.047	13.89
925.478	20.59
925.908	8.69
926.338	12.19
926.769	7.09
927.199	22.09
927.629	1.89
928.06	13.19
928.49	9.19
928.92	14.59
929.35	9.29
929.78	8.39
930.21	7.19
930.641	6.89
931.071	6.19
931.501	1.29
931.931	4.79
932.361	4.99
932.791	-1.41
933.221	3.19
933.651	1.19
934.08	10.59
934.51	24.09
934.94	3.89
935.37	2.59
935.8	5.69
936.229	5.29
936.659	2.19
937.089	-3.21
937.519	3.69
937.948	20.59
938.378	16.29
938.807	2.89
939.237	-0.41
939.666	5.59
940.096	-0.51
940.525	-1.81
940.955	-1.81
941.384	-1.71
941.814	-8.31
942.243	-4.51
942.672	0.79
943.102	-9.51
943.531	3.79
943.96	2.19
944.39	1.59
944.819	-2.11
945.248	-1.11
945.677	3.49
946.106	2.29
946.535	5.59
946.964	-4.31
947.393	8.69
947.822	3.99
948.251	-1.11
948.68	3.19
949.109	4.89
949.538	2.59
949.967	-1.01
950.396	-5.21
950.825	-2.51
951.254	3.09
951.682	-6.61
952.111	3.49
952.54	3.39
952.969	-7.91
953.397	-9.41
953.826	0.49
954.254	-2.81
954.683	-0.01
955.112	-5.41
955.54	1.99
955.969	7.99
956.397	0.99
956.826	2.59
957.254	2.09
957.682	-3.11
958.111	0.59
958.539	1.09
958.967	2.19
959.396	-5.71
959.824	-2.41
960.252	0.59
960.68	-2.91
961.109	-2.21
961.537	-2.31
961.965	-0.61
962.393	-0.71
962.821	-4.91
963.249	-4.81
963.677	2.09
964.105	1.79
964.533	31.09
964.961	31.79
965.389	12.89
965.817	3.89
966.245	-4.91
966.672	1.29
967.1	-8.01
967.528	-2.91
967.956	-1.41
968.383	0.29
968.811	-4.81
969.239	-0.01
969.666	-6.71
970.094	3.39
970.522	7.09
970.949	-0.81
971.377	-2.41
971.804	-4.11
972.232	4.29
972.659	-3.91
973.087	-2.41
973.514	1.59
973.941	-7.71
974.369	6.19
974.796	3.29
975.223	-5.01
975.651	-2.51
976.078	2.59
976.505	-2.21
976.932	-0.41
977.359	7.09
977.786	10.79
978.214	-3.11
978.641	-6.31
979.068	-5.01
979.495	-2.51
979.922	-0.61
980.349	-7.41
980.776	-5.11
981.202	-5.31
981.629	-3.91
982.056	2.59
982.483	-9.01
982.91	4.49
983.337	-6.91
983.763	0.09
984.19	-7.41
984.617	-7.41
985.043	-5.11
985.47	-1.21
985.897	-1.31
986.323	-11.91
986.75	2.99
987.176	-4.31
987.603	-0.21
988.029	3.99
988.456	-1.41
988.882	9.19
989.308	-7.81
989.735	-10.21
990.161	-2.11
990.587	-5.81
991.014	1.39
991.44	6.99
991.866	-1.21
992.292	-0.91
992.719	-3.91
993.145	4.99
993.571	-8.21
993.997	-9.81
994.423	-5.21
994.849	-12.31
995.275	2.29
995.701	0.39
996.127	-2.81
996.553	6.39
996.979	-0.11
997.405	-2.21
997.83	-4.21
998.256	-4.31
998.682	-5.51
999.108	-8.41
999.534	2.49
999.959	-3.31
1000.385	-4.61
1000.811	-3.51
1001.236	-9.51
1001.662	-8.51
1002.087	-6.91
1002.513	-0.21
1002.938	2.69
1003.364	-0.61
1003.789	1.19
1004.215	7.89
1004.64	-3.81
1005.066	-1.71
1005.491	-4.51
1005.916	-1.61
1006.342	-4.21
1006.767	-7.11
1007.192	2.09
1007.617	-1.81
1008.042	-8.71
1008.468	-7.41
1008.893	-3.11
1009.318	-7.71
1009.743	-7.21
1010.168	-0.81
1010.593	4.29
1011.018	-6.71
1011.443	-8.81
1011.868	-1.41
1012.293	-4.81
1012.718	-10.51
1013.143	4.59
1013.567	0.39
1013.992	-6.81
1014.417	-12.61
1014.842	-2.31
1015.267	-2.41
1015.691	-1.11
1016.116	5.49
1016.541	-4.31
1016.965	3.49
1017.39	0.29
1017.814	-2.31
1018.239	-3.11
1018.663	-3.21
1019.088	-9.61
1019.512	-2.01
1019.937	-0.01
1020.361	-5.41
1020.785	-17.11
1021.21	-3.61
1021.634	-4.91
1022.058	0.89
1022.483	6.19
1022.907	-1.81
1023.331	-3.91
1023.755	-2.11
1024.179	-0.41
1024.604	-2.11
1025.028	-5.61
1025.452	-2.71
1025.876	8.79
1026.3	1.19
1026.724	-13.41
1027.148	0.59
1027.572	-7.31
1027.996	-7.01
1028.42	-6.81
1028.843	-7.51
1029.267	2.59
1029.691	-4.91
1030.115	-4.71
1030.539	-4.61
1030.962	-7.41
1031.386	-10.41
1031.81	3.19
1032.233	-4.31
1032.657	-4.61
1033.08	-4.21
1033.504	-0.31
1033.927	-8.91
1034.351	-0.81
1034.774	-6.51
1035.198	-5.31
1035.621	-9.71
1036.045	-5.21
1036.468	-0.11
1036.891	-5.31
1037.315	-8.81
1037.738	-7.61
1038.161	3.19
1038.584	-8.01
1039.008	0.19
1039.431	-3.81
1039.854	1.59
1040.277	-11.81
1040.7	-12.71
1041.123	-0.21
1041.546	-9.21
1041.969	0.49
1042.392	-6.71
1042.815	1.39
1043.238	-3.61
1043.661	5.49
1044.084	-1.51
1044.507	-1.61
1044.93	-12.01
1045.352	-2.01
1045.775	1.89
1046.198	-0.11
1046.621	-0.61
1047.043	-0.41
1047.466	4.99
1047.889	-6.51
1048.311	-7.51
1048.734	-2.31
1049.156	-2.21
1049.579	-3.51
1050.001	-4.21
1050.424	1.19
1050.846	5.99
1051.269	2.39
1051.691	-8.01
1052.113	-3.01
1052.536	-2.11
1052.958	1.69
1053.38	-11.11
1053.802	-7.81
1054.225	1.79
1054.647	-11.11
1055.069	-9.51
1055.491	2.89
1055.913	-6.91
1056.335	1.39
1056.757	-0.21
1057.179	-7.91
1057.601	-3.81
1058.023	-5.51
1058.445	-3.81
1058.867	-2.31
1059.289	-4.91
1059.711	-2.91
1060.133	1.29
1060.555	-2.21
1060.976	-7.81
1061.398	-3.81
1061.82	-0.81
1062.241	-4.71
1062.663	-6.51
1063.085	-1.71
1063.506	6.19
1063.928	-2.11
1064.35	-3.71
1064.771	-7.21
1065.193	-1.11
1065.614	-9.01
1066.035	1.59
1066.457	-3.01
1066.878	1.09
1067.3	-1.81
1067.721	-8.51
1068.142	-4.01
1068.564	-3.81
1068.985	-4.81
1069.406	-2.91
1069.827	-6.91
1070.248	-2.91
1070.67	-7.01
1071.091	3.39
1071.512	3.09
1071.933	-0.21
1072.354	-4.51
1072.775	-5.31
1073.196	-9.91
1073.617	-8.81
1074.038	-4.61
1074.459	-4.61
1074.88	-11.01
1075.3	-2.21
1075.721	-8.61
1076.142	3.29
1076.563	0.29
1076.983	-14.41
1077.404	-8.41
1077.825	-7.71
1078.246	-6.81
1078.666	-6.51
1079.087	-2.81
1079.507	-5.01
1079.928	-1.91
1080.348	-4.51
1080.769	-2.11
1081.189	-3.01
1081.61	1.79
1082.03	-7.61
1082.451	-9.91
1082.871	-5.41
1083.291	-14.11
1083.711	-8.91
1084.132	-6.21
1084.552	-6.81
1084.972	-2.41
1085.392	-12.01
1085.813	-5.31
1086.233	-6.11
1086.653	-4.01
1087.073	1.59
1087.493	-3.31
1087.913	-12.01
1088.333	-2.31
1088.753	-4.31
1089.173	-2.41
1089.593	-1.41
1090.013	6.69
1090.433	1.99
1090.852	0.99
1091.272	-1.01
1091.692	-1.31
1092.112	-4.81
1092.531	-8.01
1092.951	-11.71
1093.371	-3.71
1093.79	0.69
1094.21	-0.01
1094.63	-3.21
1095.049	-5.11
1095.469	-8.01
1095.888	-3.41
1096.308	-0.01
1096.727	4.99
1097.146	-4.01
1097.566	0.79
1097.985	-4.01
1098.405	2.19
1098.824	-5.41
1099.243	-7.01
1099.662	-5.61
1100.082	-7.11
1100.501	1.69
1100.92	-8.51
1101.339	-7.21
1101.758	-6.61
