Data from 20171114-ORNL-Ar_H_NY_Subt18_08-04-56-930.txt Node
Date: Tue Nov 14 08:04:56 EST 2017
User: Ender
Spectrometer: HR+D1039
Trigger mode: 0
Integration Time (sec): 2.730000E-2
Scans to average: 10
Electric dark correction enabled: true
Nonlinearity correction enabled: false
Boxcar width: 0
XAxis mode: Wavelengths
Number of Pixels in Spectrum: 2048
>>>>>Begin Spectral Data<<<<<
187.836	-4.39
188.309	-4.39
188.782	-4.39
189.255	1.81
189.728	-0.29
190.201	2.81
190.674	4.91
191.147	5.71
191.619	-9.59
192.092	3.81
192.565	2.51
193.038	-5.29
193.511	-0.09
193.984	2.01
194.456	-0.89
194.929	-0.09
195.402	-4.49
195.874	1.61
196.347	2.11
196.82	-5.49
197.292	2.71
197.765	-0.89
198.237	-10.29
198.71	-1.19
199.182	-2.89
199.655	4.31
200.127	-0.49
200.6	-4.89
201.072	-2.59
201.544	-1.79
202.017	1.81
202.489	1.31
202.961	-1.89
203.433	-3.59
203.906	-5.99
204.378	-0.59
204.85	2.01
205.322	-11.39
205.794	-3.79
206.266	-2.29
206.739	-10.69
207.211	0.11
207.683	-4.09
208.155	-5.09
208.627	-7.39
209.099	1.11
209.57	-5.19
210.042	-3.49
210.514	-0.09
210.986	1.51
211.458	-4.79
211.93	-5.69
212.402	2.11
212.873	2.11
213.345	-10.79
213.817	-10.79
214.288	-3.09
214.76	-8.89
215.232	-2.09
215.703	-0.39
216.175	1.01
216.646	-2.79
217.118	-6.19
217.589	0.51
218.061	-1.19
218.532	-11.09
219.004	0.51
219.475	-4.39
219.946	-2.19
220.418	-1.09
220.889	0.51
221.36	-2.49
221.832	-5.19
222.303	-6.39
222.774	-1.49
223.245	-7.79
223.717	-12.49
224.188	-10.19
224.659	-5.99
225.13	-4.69
225.601	1.11
226.072	-6.29
226.543	1.11
227.014	-0.19
227.485	-6.79
227.956	-10.29
228.427	-1.89
228.898	-2.49
229.369	4.91
229.839	-0.79
230.31	-7.39
230.781	5.11
231.252	-2.69
231.722	-7.69
232.193	0.01
232.664	1.81
233.135	0.01
233.605	-1.99
234.076	-0.19
234.546	-1.29
235.017	8.51
235.487	5.21
235.958	2.01
236.428	-0.99
236.899	3.81
237.369	1.41
237.84	-3.29
238.31	5.61
238.78	4.01
239.251	1.61
239.721	2.01
240.191	-0.89
240.662	7.41
241.132	4.81
241.602	-3.29
242.072	2.71
242.542	13.91
243.013	-4.19
243.483	7.91
243.953	8.11
244.423	-0.09
244.893	-5.49
245.363	4.01
245.833	5.21
246.303	2.31
246.773	4.61
247.243	4.21
247.712	3.11
248.182	5.61
248.652	6.91
249.122	-1.09
249.592	13.71
250.061	19.01
250.531	34.71
251.001	22.21
251.471	23.31
251.94	16.91
252.41	9.41
252.879	1.01
253.349	8.21
253.818	7.71
254.288	5.71
254.757	6.31
255.227	5.71
255.696	8.01
256.166	7.71
256.635	11.41
257.105	10.01
257.574	7.41
258.043	14.01
258.513	13.61
258.982	21.81
259.451	13.11
259.92	8.71
260.389	11.81
260.859	21.81
261.328	14.01
261.797	17.21
262.266	10.41
262.735	18.61
263.204	6.81
263.673	7.01
264.142	9.51
264.611	-6.99
265.08	0.71
265.549	4.11
266.018	2.01
266.487	-0.59
266.955	-2.69
267.424	7.51
267.893	7.61
268.362	3.71
268.83	7.11
269.299	13.21
269.768	6.51
270.236	8.71
270.705	7.91
271.174	12.71
271.642	8.91
272.111	9.11
272.579	14.41
273.048	25.21
273.516	28.81
273.985	29.61
274.453	23.91
274.922	23.31
275.39	20.41
275.858	4.51
276.327	9.41
276.795	20.01
277.263	10.01
277.731	36.11
278.2	66.91
278.668	64.81
279.136	55.71
279.604	24.01
280.072	18.01
280.54	18.51
281.008	13.61
281.477	11.81
281.945	12.11
282.413	23.51
282.881	18.81
283.348	10.71
283.816	15.61
284.284	13.61
284.752	16.31
285.22	21.51
285.688	19.31
286.156	21.81
286.623	48.91
287.091	57.11
287.559	31.81
288.026	12.71
288.494	19.51
288.962	4.61
289.429	7.11
289.897	21.71
290.364	20.21
290.832	21.51
291.3	15.61
291.767	16.91
292.234	22.11
292.702	12.71
293.169	21.41
293.637	21.41
294.104	21.91
294.571	15.91
295.039	16.01
295.506	19.31
295.973	20.21
296.44	14.81
296.908	22.41
297.375	20.31
297.842	24.41
298.309	11.41
298.776	20.61
299.243	22.41
299.71	12.81
300.177	22.21
300.644	27.21
301.111	28.71
301.578	28.91
302.045	15.21
302.512	24.71
302.979	25.21
303.446	24.21
303.913	19.31
304.379	14.71
304.846	26.81
305.313	29.11
305.78	25.51
306.246	25.71
306.713	29.31
307.18	27.31
307.646	29.21
308.113	31.11
308.579	28.31
309.046	30.61
309.512	28.21
309.979	23.81
310.445	27.31
310.912	33.21
311.378	35.61
311.845	32.51
312.311	31.11
312.777	35.51
313.244	30.61
313.71	41.01
314.176	30.61
314.642	36.71
315.109	33.11
315.575	35.01
316.041	38.41
316.507	38.21
316.973	46.51
317.439	35.61
317.905	38.81
318.371	38.61
318.837	39.91
319.303	40.81
319.769	40.91
320.235	37.41
320.701	37.31
321.167	41.41
321.633	40.41
322.099	37.01
322.564	48.11
323.03	46.71
323.496	37.81
323.962	44.81
324.427	38.31
324.893	47.41
325.359	36.11
325.824	37.41
326.29	40.11
326.755	41.31
327.221	38.71
327.686	37.51
328.152	50.41
328.617	47.31
329.083	52.21
329.548	48.71
330.014	44.41
330.479	42.61
330.944	46.61
331.41	45.21
331.875	52.21
332.34	48.01
332.805	49.91
333.271	51.81
333.736	46.11
334.201	57.41
334.666	48.11
335.131	53.71
335.596	55.81
336.061	50.51
336.526	42.21
336.991	51.61
337.456	60.91
337.921	47.51
338.386	47.81
338.851	50.11
339.316	39.71
339.781	50.61
340.246	51.21
340.711	52.41
341.175	54.01
341.64	47.11
342.105	50.61
342.569	54.61
343.034	61.41
343.499	58.61
343.963	52.51
344.428	62.81
344.893	69.81
345.357	62.91
345.822	63.81
346.286	68.81
346.751	75.31
347.215	69.71
347.679	74.51
348.144	100.51
348.608	82.61
349.073	78.41
349.537	82.11
350.001	77.51
350.465	93.51
350.93	84.71
351.394	82.21
351.858	71.01
352.322	92.71
352.786	84.81
353.25	96.21
353.715	109.81
354.179	102.41
354.643	122.31
355.107	123.01
355.571	108.71
356.035	109.01
356.498	120.51
356.962	126.61
357.426	135.21
357.89	114.81
358.354	89.81
358.818	85.31
359.281	74.61
359.745	75.31
360.209	77.41
360.673	80.11
361.136	82.41
361.6	88.61
362.064	87.11
362.527	87.81
362.991	93.81
363.454	87.71
363.918	80.81
364.381	77.51
364.845	83.31
365.308	87.41
365.772	85.41
366.235	81.11
366.698	81.71
367.162	87.21
367.625	85.71
368.088	85.31
368.552	83.91
369.015	92.81
369.478	100.01
369.941	102.41
370.404	93.01
370.867	103.31
371.331	108.51
371.794	114.91
372.257	112.41
372.72	113.11
373.183	109.81
373.646	103.31
374.109	100.81
374.572	101.91
375.035	108.61
375.497	109.01
375.96	107.91
376.423	102.11
376.886	116.81
377.349	108.91
377.811	96.81
378.274	106.41
378.737	104.41
379.199	110.31
379.662	109.41
380.125	118.31
380.587	119.01
381.05	114.91
381.512	122.71
381.975	133.01
382.437	126.01
382.9	124.01
383.362	125.61
383.825	138.81
384.287	145.31
384.75	138.61
385.212	139.51
385.674	136.71
386.136	131.41
386.599	123.21
387.061	126.91
387.523	134.51
387.985	131.51
388.447	139.01
388.91	140.81
389.372	150.91
389.834	151.31
390.296	141.11
390.758	148.71
391.22	161.61
391.682	202.91
392.144	289.71
392.606	224.41
393.068	158.21
393.529	159.11
393.991	148.91
394.453	141.81
394.915	147.41
395.377	189.51
395.838	212.71
396.3	156.51
396.762	139.21
397.224	129.01
397.685	122.61
398.147	126.71
398.608	127.01
399.07	119.01
399.531	126.81
399.993	137.01
400.454	149.51
400.916	147.51
401.377	141.01
401.839	153.21
402.3	143.01
402.762	158.51
403.223	176.01
403.684	167.61
404.145	151.61
404.607	153.51
405.068	163.31
405.529	171.21
405.99	185.51
406.451	170.11
406.913	169.71
407.374	160.11
407.835	154.91
408.296	162.41
408.757	157.01
409.218	181.11
409.679	180.01
410.14	175.51
410.601	173.61
411.062	173.81
411.522	187.31
411.983	179.51
412.444	174.51
412.905	175.31
413.366	177.21
413.826	181.91
414.287	214.61
414.748	261.61
415.208	250.71
415.669	207.71
416.13	199.71
416.59	203.61
417.051	204.11
417.511	206.81
417.972	230.11
418.432	239.91
418.893	278.01
419.353	251.81
419.814	191.31
420.274	178.51
420.734	181.31
421.195	188.11
421.655	190.81
422.115	186.81
422.576	183.91
423.036	189.61
423.496	196.71
423.956	210.31
424.416	223.61
424.876	268.21
425.336	253.41
425.797	257.21
426.257	248.21
426.717	229.31
427.177	225.01
427.637	217.71
428.097	222.71
428.556	239.81
429.016	264.01
429.476	254.11
429.936	257.01
430.396	266.81
430.856	282.61
431.315	315.21
431.775	347.31
432.235	370.31
432.694	343.21
433.154	347.91
433.614	378.21
434.073	327.61
434.533	271.01
434.993	262.81
435.452	275.51
435.912	281.91
436.371	282.41
436.83	275.61
437.29	259.51
437.749	232.01
438.209	238.61
438.668	264.81
439.127	278.41
439.587	255.41
440.046	239.21
440.505	257.91
440.964	265.61
441.424	310.01
441.883	300.81
442.342	257.81
442.801	218.71
443.26	225.91
443.719	210.01
444.178	216.81
444.637	202.81
445.096	213.01
445.555	224.01
446.014	219.01
446.473	218.51
446.932	226.11
447.391	222.61
447.849	218.21
448.308	213.01
448.767	218.11
449.226	228.71
449.685	229.51
450.143	240.51
450.602	228.41
451.061	223.51
451.519	225.51
451.978	227.61
452.436	231.91
452.895	230.01
453.353	243.81
453.812	229.21
454.27	231.51
454.729	235.31
455.187	230.61
455.646	239.31
456.104	238.71
456.562	251.61
457.021	262.21
457.479	248.01
457.937	264.01
458.395	249.61
458.854	233.51
459.312	245.11
459.77	267.11
460.228	250.51
460.686	233.81
461.144	240.51
461.602	232.61
462.06	227.71
462.518	249.31
462.976	248.31
463.434	252.51
463.892	250.81
464.35	264.91
464.808	280.31
465.266	260.61
465.724	259.61
466.181	262.91
466.639	257.71
467.097	282.91
467.555	293.31
468.012	297.01
468.47	298.81
468.928	309.01
469.385	328.81
469.843	338.21
470.3	329.21
470.758	348.21
471.215	373.31
471.673	395.81
472.13	381.41
472.588	398.61
473.045	361.21
473.503	367.51
473.96	375.01
474.417	392.31
474.875	417.61
475.332	459.91
475.789	447.41
476.246	452.61
476.704	470.61
477.161	499.11
477.618	510.31
478.075	540.11
478.532	599.21
478.989	678.61
479.446	779.51
479.903	747.71
480.36	798.01
480.817	828.81
481.274	948.71
481.731	1040.01
482.188	1140.61
482.645	1272.21
483.102	1370.61
483.558	1500.11
484.015	1554.21
484.472	1535.81
484.929	1488.21
485.385	1443.91
485.842	1401.61
486.299	1339.11
486.755	1278.01
487.212	1068.21
487.668	897.81
488.125	828.41
488.582	758.91
489.038	725.61
489.494	694.91
489.951	671.81
490.407	651.71
490.864	632.91
491.32	624.41
491.776	623.41
492.233	629.21
492.689	601.91
493.145	579.01
493.602	570.71
494.058	596.01
494.514	592.51
494.97	614.61
495.426	626.71
495.882	609.31
496.338	588.51
496.794	610.91
497.251	595.11
497.707	629.01
498.163	629.71
498.618	626.31
499.074	628.61
499.53	658.21
499.986	653.91
500.442	641.21
500.898	614.41
501.354	602.31
501.809	614.01
502.265	627.21
502.721	645.31
503.177	650.21
503.632	641.61
504.088	659.61
504.543	695.41
504.999	685.81
505.455	645.21
505.91	623.81
506.366	613.31
506.821	610.81
507.277	604.21
507.732	606.31
508.187	612.11
508.643	615.61
509.098	616.21
509.553	627.41
510.009	649.31
510.464	649.41
510.919	661.71
511.375	677.71
511.83	691.71
512.285	698.71
512.74	742.11
513.195	760.21
513.65	748.81
514.105	753.81
514.56	746.21
515.015	778.21
515.47	781.71
515.925	771.51
516.38	765.81
516.835	773.11
517.29	760.01
517.745	757.41
518.2	747.21
518.655	731.51
519.109	724.61
519.564	715.31
520.019	711.81
520.474	703.71
520.928	706.31
521.383	688.61
521.838	688.81
522.292	692.31
522.747	689.31
523.201	680.51
523.656	677.01
524.11	660.71
524.565	669.21
525.019	669.31
525.474	673.71
525.928	675.41
526.382	676.51
526.837	673.31
527.291	679.91
527.745	666.61
528.2	676.81
528.654	668.51
529.108	666.81
529.562	668.61
530.016	674.91
530.47	669.91
530.925	663.21
531.379	666.01
531.833	677.71
532.287	673.81
532.741	673.41
533.195	678.91
533.649	691.91
534.103	692.11
534.556	677.51
535.01	696.21
535.464	686.41
535.918	690.21
536.372	696.31
536.826	696.91
537.279	681.01
537.733	687.61
538.187	693.01
538.64	692.11
539.094	703.21
539.548	696.51
540.001	705.31
540.455	700.51
540.908	712.31
541.362	720.11
541.815	713.11
542.269	724.71
542.722	728.81
543.175	739.01
543.629	739.21
544.082	750.71
544.536	761.51
544.989	750.51
545.442	752.21
545.895	750.61
546.349	753.01
546.802	752.61
547.255	758.61
547.708	771.41
548.161	781.21
548.614	796.61
549.067	795.01
549.52	786.91
549.973	777.31
550.426	783.51
550.879	763.21
551.332	764.51
551.785	768.71
552.238	768.51
552.691	777.71
553.144	791.11
553.596	811.91
554.049	835.61
554.502	866.21
554.955	871.11
555.407	870.51
555.86	874.81
556.313	873.91
556.765	841.01
557.218	846.31
557.67	844.41
558.123	839.71
558.576	835.31
559.028	844.11
559.48	849.11
559.933	824.91
560.385	808.21
560.838	779.81
561.29	752.11
561.742	751.41
562.195	723.11
562.647	731.21
563.099	736.41
563.551	735.41
564.004	741.81
564.456	734.21
564.908	726.01
565.36	717.61
565.812	697.91
566.264	687.61
566.716	680.31
567.168	679.61
567.62	688.81
568.072	665.61
568.524	663.11
568.976	663.71
569.428	638.11
569.88	640.71
570.332	641.01
570.784	657.11
571.235	644.11
571.687	657.21
572.139	673.51
572.59	672.81
573.042	676.11
573.494	677.31
573.945	663.21
574.397	651.31
574.849	656.61
575.3	649.21
575.752	648.71
576.203	650.81
576.655	644.91
577.106	637.41
577.557	627.91
578.009	625.21
578.46	638.71
578.912	633.81
579.363	633.91
579.814	623.41
580.265	626.51
580.717	632.71
581.168	637.41
581.619	635.51
582.07	640.61
582.521	642.21
582.972	646.01
583.423	639.91
583.875	647.21
584.326	657.71
584.777	702.11
585.227	770.31
585.678	856.41
586.129	934.71
586.58	1009.21
587.031	1096.71
587.482	1261.31
587.933	1426.31
588.384	1228.41
588.834	910.91
589.285	762.71
589.736	736.81
590.186	723.01
590.637	719.21
591.088	700.31
591.538	683.61
591.989	691.81
592.439	683.51
592.89	669.81
593.34	664.81
593.791	659.61
594.241	661.61
594.692	661.41
595.142	661.01
595.593	656.11
596.043	667.51
596.493	672.81
596.943	673.31
597.394	680.61
597.844	667.51
598.294	678.51
598.744	699.91
599.195	718.71
599.645	754.11
600.095	804.81
600.545	851.21
600.995	902.21
601.445	958.21
601.895	1012.41
602.345	1062.91
602.795	1032.81
603.245	995.31
603.695	950.31
604.145	887.31
604.594	844.81
605.044	811.91
605.494	739.71
605.944	704.31
606.393	697.01
606.843	689.21
607.293	684.31
607.743	682.11
608.192	693.51
608.642	712.21
609.091	700.91
609.541	711.81
609.99	715.41
610.44	710.21
610.889	668.71
611.339	649.51
611.788	641.31
612.238	650.41
612.687	664.31
613.136	665.61
613.586	681.81
614.035	679.11
614.484	693.61
614.933	706.11
615.383	691.21
615.832	682.41
616.281	676.11
616.73	637.41
617.179	619.51
617.628	609.71
618.077	586.21
618.526	573.21
618.975	568.91
619.424	566.01
619.873	566.91
620.322	572.21
620.771	567.51
621.22	554.31
621.669	545.31
622.118	550.11
622.567	532.81
623.015	526.81
623.464	521.81
623.913	516.21
624.361	504.81
624.81	501.81
625.259	508.01
625.707	512.91
626.156	517.01
626.604	520.51
627.053	519.41
627.501	519.61
627.95	523.91
628.398	536.81
628.847	527.71
629.295	526.11
629.744	533.61
630.192	522.51
630.64	519.71
631.089	515.31
631.537	532.11
631.985	538.51
632.433	548.81
632.881	547.11
633.33	601.31
633.778	588.01
634.226	524.41
634.674	522.81
635.122	529.91
635.57	545.41
636.018	568.71
636.466	526.91
636.914	510.31
637.362	523.21
637.81	519.51
638.258	529.11
638.705	534.61
639.153	552.41
639.601	557.81
640.049	578.21
640.497	625.51
640.944	629.31
641.392	584.41
641.84	556.31
642.287	532.81
642.735	517.71
643.182	527.81
643.63	519.91
644.078	523.01
644.525	535.21
644.973	544.31
645.42	556.21
645.867	564.11
646.315	577.61
646.762	592.91
647.21	617.01
647.657	658.11
648.104	678.61
648.551	708.21
648.999	751.61
649.446	828.41
649.893	908.21
650.34	1047.71
650.787	1267.41
651.234	1545.71
651.682	2011.51
652.129	2748.51
652.576	3960.61
653.023	5858.91
653.47	8099.11
653.917	10157.21
654.363	11889.81
654.81	13308.81
655.257	12661.71
655.704	8240.81
656.151	4841.61
656.598	3144.41
657.044	2219.71
657.491	1706.91
657.938	1364.21
658.385	1135.31
658.831	983.11
659.278	875.81
659.724	779.01
660.171	718.11
660.618	658.91
661.064	624.71
661.511	602.81
661.957	601.11
662.404	582.91
662.85	589.21
663.296	564.11
663.743	511.91
664.189	489.91
664.635	484.51
665.082	466.01
665.528	468.51
665.974	470.81
666.42	467.21
666.867	455.91
667.313	442.31
667.759	428.71
668.205	433.51
668.651	438.51
669.097	430.51
669.543	447.41
669.989	420.51
670.435	407.21
670.881	400.51
671.327	410.21
671.773	423.81
672.219	441.31
672.665	479.91
673.11	522.31
673.556	564.21
674.002	602.21
674.448	588.81
674.893	485.11
675.339	428.11
675.785	397.61
676.23	382.91
676.676	352.01
677.122	345.31
677.567	341.31
678.013	322.01
678.458	321.61
678.904	318.31
679.349	312.31
679.794	318.21
680.24	313.31
680.685	318.61
681.131	310.41
681.576	323.01
682.021	317.91
682.466	314.31
682.912	311.01
683.357	313.01
683.802	341.11
684.247	364.41
684.692	399.51
685.137	441.31
685.583	484.21
686.028	503.11
686.473	468.71
686.918	400.91
687.363	376.21
687.807	364.11
688.252	331.51
688.697	312.41
689.142	309.41
689.587	297.11
690.032	297.31
690.477	298.61
690.921	314.11
691.366	345.61
691.811	354.11
692.255	382.41
692.7	414.81
693.145	448.81
693.589	607.91
694.034	986.61
694.478	1369.01
694.923	1560.31
695.367	2066.81
695.812	1077.01
696.256	452.81
696.701	334.91
697.145	304.71
697.59	288.11
698.034	285.21
698.478	304.31
698.922	285.81
699.367	294.41
699.811	299.21
700.255	315.51
700.699	341.61
701.143	373.91
701.588	420.31
702.032	464.11
702.476	448.21
702.92	439.81
703.364	444.71
703.808	542.01
704.252	896.01
704.696	1279.41
705.14	1503.01
705.584	1932.81
706.027	954.31
706.471	465.01
706.915	358.61
707.359	313.91
707.803	282.91
708.246	269.01
708.69	280.21
709.134	284.21
709.577	276.61
710.021	282.51
710.465	273.21
710.908	264.81
711.352	261.71
711.795	272.81
712.239	311.31
712.682	345.11
713.126	369.61
713.569	418.21
714.012	327.41
714.456	287.11
714.899	267.21
715.342	248.31
715.786	227.41
716.229	235.31
716.672	223.91
717.115	225.11
717.558	220.91
718.002	220.91
718.445	237.81
718.888	259.01
719.331	252.81
719.774	275.61
720.217	275.81
720.66	259.21
721.103	237.41
721.546	220.91
721.989	217.01
722.432	202.41
722.874	214.61
723.317	203.11
723.76	209.11
724.203	234.61
724.645	277.21
725.088	389.71
725.531	505.41
725.974	583.21
726.416	488.61
726.859	272.01
727.301	217.31
727.744	212.01
728.187	205.81
728.629	212.11
729.071	214.61
729.514	231.51
729.956	240.81
730.399	257.91
730.841	250.41
731.283	241.21
731.726	231.61
732.168	230.01
732.61	232.11
733.053	251.11
733.495	275.11
733.937	304.71
734.379	345.41
734.821	384.01
735.263	470.51
735.705	719.01
736.148	1349.21
736.59	2268.31
737.032	2781.21
737.474	2264.91
737.916	714.21
738.357	381.51
738.799	290.71
739.241	260.81
739.683	250.91
740.125	262.21
740.567	258.91
741.008	282.91
741.45	275.31
741.892	286.31
742.334	311.31
742.775	314.61
743.217	308.91
743.658	239.61
744.1	223.81
744.542	228.31
744.983	276.41
745.425	308.21
745.866	306.61
746.307	256.21
746.749	243.91
747.19	286.01
747.632	396.81
748.073	751.71
748.514	1605.91
748.956	2526.51
749.397	3173.01
749.838	2644.91
750.279	2692.41
750.72	1361.31
751.162	485.51
751.603	277.21
752.044	224.81
752.485	194.61
752.926	178.51
753.367	173.61
753.808	175.31
754.249	172.41
754.69	164.31
755.131	161.21
755.572	155.61
756.013	157.81
756.453	163.51
756.894	162.51
757.335	163.11
757.776	174.61
758.216	169.01
758.657	170.21
759.098	173.41
759.538	199.91
759.979	231.91
760.42	325.11
760.86	601.01
761.301	1564.11
761.741	3852.41
762.182	5878.61
762.622	4129.21
763.063	1177.11
763.503	481.11
763.943	303.81
764.384	297.61
764.824	360.71
765.264	394.21
765.705	279.71
766.145	188.01
766.585	163.71
767.025	150.71
767.465	163.51
767.906	212.71
768.346	279.81
768.786	303.11
769.226	231.01
769.666	279.41
770.106	519.91
770.546	1333.21
770.986	2370.11
771.426	2138.41
771.866	702.71
772.306	289.21
772.745	185.11
773.185	155.81
773.625	157.31
774.065	146.91
774.505	169.01
774.944	266.31
775.384	576.51
775.824	1086.01
776.263	1072.31
776.703	459.01
777.142	200.01
777.582	144.81
778.021	116.21
778.461	122.61
778.9	119.31
779.34	113.91
779.779	102.11
780.219	95.21
780.658	86.21
781.097	98.31
781.537	96.01
781.976	89.61
782.415	95.81
782.855	95.01
783.294	94.21
783.733	92.51
784.172	94.11
784.611	88.51
785.05	98.21
785.489	101.31
785.928	98.31
786.367	113.31
786.806	104.91
787.245	119.31
787.684	125.21
788.123	135.91
788.562	116.71
789.001	111.71
789.44	107.71
789.879	99.31
790.317	103.51
790.756	113.41
791.195	114.21
791.634	124.41
792.072	174.01
792.511	309.91
792.95	856.31
793.388	1897.81
793.827	1774.21
794.265	605.51
794.704	250.21
795.142	163.61
795.581	139.91
796.019	121.91
796.458	115.31
796.896	106.31
797.334	114.21
797.773	134.41
798.211	190.21
798.649	373.11
799.087	883.11
799.526	1415.91
799.964	1773.11
800.402	1822.31
800.84	683.21
801.278	271.91
801.716	156.91
802.154	133.71
802.592	125.51
803.03	130.61
803.468	114.31
803.906	132.61
804.344	138.91
804.782	127.61
805.22	118.21
805.658	113.81
806.096	128.21
806.533	135.91
806.971	149.71
807.409	188.51
807.847	271.41
808.284	566.51
808.722	1613.51
809.16	2947.81
809.597	2739.01
810.035	4814.91
810.472	5342.71
810.91	1887.31
811.347	699.41
811.785	360.61
812.222	228.51
812.66	171.61
813.097	143.51
813.535	121.81
813.972	119.01
814.409	101.31
814.846	97.71
815.284	101.31
815.721	91.91
816.158	89.81
816.595	103.41
817.032	153.81
817.47	178.31
817.907	145.31
818.344	135.11
818.781	105.71
819.218	87.71
819.655	112.11
820.092	169.01
820.529	195.41
820.966	157.71
821.403	121.81
821.839	94.01
822.276	91.21
822.713	105.41
823.15	111.71
823.587	100.61
824.023	132.71
824.46	258.81
824.897	767.41
825.333	1233.91
825.77	525.91
826.206	203.51
826.643	120.91
827.08	87.71
827.516	78.31
827.953	68.61
828.389	69.61
828.825	63.21
829.262	58.51
829.698	58.01
830.135	55.31
830.571	59.01
831.007	57.41
831.443	57.71
831.88	57.71
832.316	62.41
832.752	52.21
833.188	56.61
833.624	53.71
834.06	60.91
834.497	62.01
834.933	61.91
835.369	61.91
835.805	58.11
836.241	68.71
836.677	69.91
837.112	76.81
837.548	87.81
837.984	116.81
838.42	165.91
838.856	419.41
839.292	1328.11
839.727	2093.91
840.163	971.61
840.599	801.51
841.034	1801.81
841.47	1943.31
841.906	705.51
842.341	295.01
842.777	196.31
843.212	280.81
843.648	282.01
844.083	137.21
844.519	87.71
844.954	68.11
845.39	51.41
845.825	52.41
846.261	45.91
846.696	49.61
847.131	48.11
847.566	50.01
848.002	49.31
848.437	45.91
848.872	54.71
849.307	55.41
849.742	72.31
850.177	155.01
850.613	483.81
851.048	791.61
851.483	344.51
851.918	132.31
852.353	78.31
852.788	57.11
853.223	52.41
853.657	50.51
854.092	38.51
854.527	35.51
854.962	36.11
855.397	36.31
855.832	47.41
856.266	31.51
856.701	34.21
857.136	29.61
857.57	39.41
858.005	43.71
858.44	51.01
858.874	44.21
859.309	51.01
859.743	36.81
860.178	37.31
860.612	33.21
861.047	41.51
861.481	60.41
861.915	59.61
862.35	39.51
862.784	28.61
863.218	36.11
863.653	31.41
864.087	39.11
864.521	49.81
864.955	55.31
865.39	141.31
865.824	158.51
866.258	100.61
866.692	147.51
867.126	161.01
867.56	91.51
867.994	48.81
868.428	34.41
868.862	41.91
869.296	49.31
869.73	58.21
870.164	46.91
870.598	41.71
871.031	32.31
871.465	25.41
871.899	25.71
872.333	20.81
872.766	21.61
873.2	21.31
873.634	26.61
874.067	16.51
874.501	25.31
874.935	29.31
875.368	26.31
875.802	23.11
876.235	25.61
876.669	20.51
877.102	24.51
877.535	25.91
877.969	19.61
878.402	22.51
878.836	20.21
879.269	18.31
879.702	16.31
880.135	20.91
880.569	17.21
881.002	23.11
881.435	16.81
881.868	16.41
882.301	19.21
882.734	12.71
883.167	23.61
883.601	13.81
884.034	21.61
884.467	11.81
884.899	21.21
885.332	13.71
885.765	11.41
886.198	17.61
886.631	13.31
887.064	15.41
887.497	16.51
887.929	23.71
888.362	9.01
888.795	10.51
889.228	17.31
889.66	14.51
890.093	16.61
890.526	12.31
890.958	14.31
891.391	12.71
891.823	19.71
892.256	14.21
892.688	14.61
893.121	14.11
893.553	7.91
893.985	17.21
894.418	11.91
894.85	14.81
895.282	14.91
895.715	13.51
896.147	12.21
896.579	22.41
897.011	8.01
897.444	16.21
897.876	9.91
898.308	13.81
898.74	11.71
899.172	15.51
899.604	22.91
900.036	18.21
900.468	16.51
900.9	10.81
901.332	12.41
901.764	16.81
902.196	20.81
902.628	14.91
903.06	9.51
903.491	27.01
903.923	18.61
904.355	19.71
904.787	25.81
905.218	25.71
905.65	16.11
906.082	11.21
906.513	7.91
906.945	13.41
907.376	15.21
907.808	16.01
908.239	18.41
908.671	18.51
909.102	23.51
909.534	17.91
909.965	43.71
910.397	81.51
910.828	283.71
911.259	439.01
911.691	202.01
912.122	90.61
912.553	43.41
912.984	32.41
913.415	24.21
913.847	21.31
914.278	14.01
914.709	12.01
915.14	15.61
915.571	17.91
916.002	13.31
916.433	17.01
916.864	14.11
917.295	9.41
917.726	17.11
918.157	15.11
918.587	20.71
919.018	11.21
919.449	20.11
919.88	21.61
920.311	24.81
920.741	44.41
921.172	150.21
921.603	138.01
922.033	68.21
922.464	45.71
922.895	19.31
923.325	15.51
923.756	20.81
924.186	11.21
924.617	21.41
925.047	37.81
925.478	50.81
925.908	40.71
926.338	20.41
926.769	14.21
927.199	21.81
927.629	12.41
928.06	14.31
928.49	12.61
928.92	12.61
929.35	13.41
929.78	13.81
930.21	5.71
930.641	11.11
931.071	7.91
931.501	2.61
931.931	3.21
932.361	7.21
932.791	3.91
933.221	6.51
933.651	5.31
934.08	13.01
934.51	23.01
934.94	8.11
935.37	14.51
935.8	15.21
936.229	7.11
936.659	5.51
937.089	2.11
937.519	13.31
937.948	20.41
938.378	9.51
938.807	-2.39
939.237	8.61
939.666	3.21
940.096	-4.19
940.525	0.71
940.955	6.01
941.384	-0.69
941.814	-2.29
942.243	-1.59
942.672	1.51
943.102	1.51
943.531	1.91
943.96	6.91
944.39	2.51
944.819	2.41
945.248	5.21
945.677	1.41
946.106	3.31
946.535	6.01
946.964	-0.09
947.393	-0.99
947.822	-0.69
948.251	-11.59
948.68	2.41
949.109	4.21
949.538	6.81
949.967	-4.29
950.396	-0.59
950.825	-1.79
951.254	-0.69
951.682	-6.59
952.111	2.41
952.54	2.71
952.969	-8.19
953.397	-1.59
953.826	0.21
954.254	-9.59
954.683	-2.99
955.112	-3.49
955.54	-1.79
955.969	-2.99
956.397	3.11
956.826	0.51
957.254	5.31
957.682	-2.69
958.111	4.01
958.539	-7.19
958.967	0.01
959.396	-1.69
959.824	-5.19
960.252	7.41
960.68	-7.99
961.109	-8.79
961.537	-3.79
961.965	2.71
962.393	1.01
962.821	-1.59
963.249	-3.39
963.677	5.71
964.105	2.61
964.533	39.81
964.961	41.11
965.389	17.91
965.817	8.71
966.245	2.21
966.672	-2.39
967.1	-11.99
967.528	-1.89
967.956	-3.09
968.383	-1.19
968.811	-1.69
969.239	-6.49
969.666	-10.39
970.094	4.41
970.522	-0.59
970.949	-2.19
971.377	-5.89
971.804	-5.99
972.232	-3.89
972.659	-2.69
973.087	-0.69
973.514	-1.49
973.941	-7.29
974.369	2.31
974.796	0.61
975.223	-2.59
975.651	-0.79
976.078	4.21
976.505	-8.19
976.932	1.21
977.359	14.11
977.786	9.61
978.214	1.61
978.641	-6.39
979.068	-3.89
979.495	-4.59
979.922	-7.79
980.349	7.51
980.776	6.41
981.202	-6.69
981.629	11.21
982.056	9.51
982.483	0.51
982.91	6.11
983.337	-8.99
983.763	-0.69
984.19	-7.39
984.617	-4.69
985.043	-7.09
985.47	0.91
985.897	-5.39
986.323	-8.49
986.75	-1.99
987.176	-0.09
987.603	-2.59
988.029	-0.79
988.456	-6.79
988.882	0.11
989.308	-4.29
989.735	-5.99
990.161	1.31
990.587	-8.39
991.014	-1.39
991.44	-1.99
991.866	-7.79
992.292	-8.39
992.719	-5.59
993.145	-2.99
993.571	-7.69
993.997	-6.79
994.423	-3.89
994.849	-8.59
995.275	1.61
995.701	-2.69
996.127	-2.09
996.553	2.11
996.979	-2.19
997.405	0.41
997.83	-3.89
998.256	-6.19
998.682	-8.39
999.108	-8.09
999.534	-0.89
999.959	-7.69
1000.385	-4.89
1000.811	-2.59
1001.236	-11.89
1001.662	-7.19
1002.087	-4.79
1002.513	-4.69
1002.938	5.01
1003.364	-1.89
1003.789	-4.29
1004.215	2.71
1004.64	0.61
1005.066	1.71
1005.491	-2.19
1005.916	-0.89
1006.342	-3.29
1006.767	-11.59
1007.192	3.61
1007.617	-2.59
1008.042	-7.59
1008.468	-4.09
1008.893	1.61
1009.318	1.51
1009.743	-1.49
1010.168	5.81
1010.593	-2.99
1011.018	-9.49
1011.443	-6.89
1011.868	2.71
1012.293	-4.89
1012.718	-8.49
1013.143	-6.09
1013.567	0.01
1013.992	-9.79
1014.417	-19.19
1014.842	-4.09
1015.267	-4.89
1015.691	0.41
1016.116	4.61
1016.541	-4.69
1016.965	8.61
1017.39	2.51
1017.814	0.41
1018.239	-2.99
1018.663	-3.99
1019.088	-12.99
1019.512	0.01
1019.937	-1.59
1020.361	-3.19
1020.785	-11.69
1021.21	-6.19
1021.634	-5.79
1022.058	-0.59
1022.483	0.41
1022.907	-6.09
1023.331	-0.19
1023.755	-2.59
1024.179	-0.09
1024.604	-7.29
1025.028	-3.99
1025.452	-1.29
1025.876	-4.59
1026.3	-1.79
1026.724	-7.69
1027.148	-1.29
1027.572	-9.19
1027.996	-4.59
1028.42	-4.69
1028.843	0.01
1029.267	-5.49
1029.691	-4.99
1030.115	-4.69
1030.539	-5.19
1030.962	-2.49
1031.386	-10.69
1031.81	-2.39
1032.233	-4.49
1032.657	-2.69
1033.08	-5.99
1033.504	-5.09
1033.927	-1.49
1034.351	-4.29
1034.774	-5.99
1035.198	-4.89
1035.621	-4.49
1036.045	-8.79
1036.468	0.81
1036.891	-9.39
1037.315	-5.19
1037.738	-6.99
1038.161	-2.59
1038.584	-3.59
1039.008	-6.79
1039.431	-5.29
1039.854	-2.39
1040.277	-11.99
1040.7	-11.39
1041.123	-0.99
1041.546	-7.39
1041.969	-7.99
1042.392	-4.09
1042.815	-0.79
1043.238	1.51
1043.661	9.11
1044.084	-3.59
1044.507	-8.49
1044.93	-10.09
1045.352	0.91
1045.775	-3.69
1046.198	-0.59
1046.621	-5.39
1047.043	2.81
1047.466	2.91
1047.889	0.81
1048.311	-1.79
1048.734	-0.69
1049.156	-4.89
1049.579	-3.29
1050.001	-7.09
1050.424	1.51
1050.846	-5.39
1051.269	-4.79
1051.691	-7.09
1052.113	-9.99
1052.536	-1.59
1052.958	-0.09
1053.38	-4.89
1053.802	-8.99
1054.225	-6.59
1054.647	-8.59
1055.069	-3.09
1055.491	3.71
1055.913	-10.69
1056.335	-0.09
1056.757	-4.69
1057.179	-8.19
1057.601	-7.99
1058.023	-4.49
1058.445	-5.09
1058.867	-6.29
1059.289	-0.29
1059.711	-9.39
1060.133	-5.29
1060.555	-7.59
1060.976	-4.29
1061.398	-3.79
1061.82	-3.49
1062.241	-5.49
1062.663	-11.89
1063.085	2.01
1063.506	1.01
1063.928	1.81
1064.35	-6.49
1064.771	-3.29
1065.193	-7.19
1065.614	-3.89
1066.035	0.41
1066.457	-5.09
1066.878	1.61
1067.3	1.71
1067.721	-2.19
1068.142	-1.89
1068.564	-0.29
1068.985	-2.99
1069.406	-10.39
1069.827	-9.39
1070.248	-1.69
1070.67	-7.09
1071.091	-7.09
1071.512	-2.69
1071.933	-2.59
1072.354	-6.89
1072.775	-6.59
1073.196	-10.49
1073.617	-5.89
1074.038	-8.49
1074.459	-1.49
1074.88	-7.89
1075.3	-2.29
1075.721	-5.59
1076.142	-2.39
1076.563	-4.09
1076.983	-10.09
1077.404	-6.29
1077.825	-10.69
1078.246	-1.29
1078.666	-14.39
1079.087	-3.89
1079.507	-8.19
1079.928	1.61
1080.348	-0.59
1080.769	-9.29
1081.189	3.41
1081.61	-4.59
1082.03	-7.69
1082.451	-7.09
1082.871	-5.29
1083.291	-6.19
1083.711	-13.29
1084.132	-5.49
1084.552	-3.39
1084.972	-6.39
1085.392	-9.19
1085.813	-10.39
1086.233	-7.99
1086.653	-4.89
1087.073	-5.59
1087.493	-5.89
1087.913	-6.59
1088.333	-2.39
1088.753	-3.89
1089.173	1.51
1089.593	-8.99
1090.013	2.11
1090.433	5.81
1090.852	-0.29
1091.272	-2.89
1091.692	1.61
1092.112	-5.39
1092.531	-14.59
1092.951	-7.19
1093.371	-3.69
1093.79	7.91
1094.21	-6.99
1094.63	-9.99
1095.049	-5.59
1095.469	-5.29
1095.888	-4.49
1096.308	-2.29
1096.727	4.91
1097.146	-8.79
1097.566	-4.89
1097.985	0.51
1098.405	-0.19
1098.824	-5.19
1099.243	-6.99
1099.662	-4.39
1100.082	-2.39
1100.501	-4.99
1100.92	-8.19
1101.339	-5.39
1101.758	-6.49
