Data from 20171114-ORNL-Ar_H_NY_Subt18_08-06-39-569.txt Node
Date: Tue Nov 14 08:06:39 EST 2017
User: Ender
Spectrometer: HR+D1039
Trigger mode: 0
Integration Time (sec): 2.730000E-2
Scans to average: 10
Electric dark correction enabled: true
Nonlinearity correction enabled: false
Boxcar width: 0
XAxis mode: Wavelengths
Number of Pixels in Spectrum: 2048
>>>>>Begin Spectral Data<<<<<
187.836	-4.13
188.309	-4.13
188.782	-4.13
189.255	0.97
189.728	-1.03
190.201	4.57
190.674	2.87
191.147	1.47
191.619	-3.53
192.092	-0.53
192.565	4.47
193.038	0.27
193.511	-3.73
193.984	0.57
194.456	-1.13
194.929	-2.63
195.402	0.27
195.874	1.27
196.347	1.27
196.82	-5.03
197.292	4.87
197.765	-3.53
198.237	-9.13
198.71	-2.33
199.182	2.07
199.655	3.07
200.127	2.07
200.6	3.77
201.072	-4.23
201.544	-6.53
202.017	-4.53
202.489	8.07
202.961	-4.43
203.433	-1.43
203.906	-8.63
204.378	-5.03
204.85	-2.53
205.322	-10.53
205.794	0.77
206.266	-6.33
206.739	-5.03
207.211	2.47
207.683	-6.03
208.155	-7.33
208.627	-5.13
209.099	-2.03
209.57	-5.33
210.042	-7.13
210.514	-3.63
210.986	5.77
211.458	-6.23
211.93	-3.53
212.402	-6.33
212.873	-5.63
213.345	-12.33
213.817	-14.83
214.288	-1.03
214.76	-16.13
215.232	-3.43
215.703	-1.63
216.175	-3.33
216.646	-6.33
217.118	-3.73
217.589	-4.63
218.061	-6.03
218.532	0.37
219.004	-1.13
219.475	-2.13
219.946	-6.63
220.418	-7.63
220.889	5.77
221.36	1.37
221.832	-1.63
222.303	-5.33
222.774	3.67
223.245	-13.43
223.717	-5.33
224.188	-9.23
224.659	-0.43
225.13	-2.63
225.601	-4.13
226.072	0.77
226.543	0.47
227.014	-2.23
227.485	1.07
227.956	-5.13
228.427	-1.33
228.898	0.37
229.369	7.37
229.839	5.57
230.31	-10.03
230.781	1.77
231.252	-2.13
231.722	-3.23
232.193	-4.73
232.664	-4.23
233.135	-1.23
233.605	-4.73
234.076	-10.23
234.546	-7.53
235.017	0.77
235.487	-2.63
235.958	-3.93
236.428	-4.53
236.899	-3.93
237.369	-2.83
237.84	-2.83
238.31	2.47
238.78	-6.13
239.251	-5.83
239.721	1.37
240.191	-0.33
240.662	-3.33
241.132	0.37
241.602	0.27
242.072	1.77
242.542	4.77
243.013	-5.83
243.483	-0.53
243.953	1.97
244.423	-2.23
244.893	-5.03
245.363	0.07
245.833	7.07
246.303	-7.33
246.773	6.37
247.243	0.57
247.712	4.97
248.182	4.27
248.652	10.27
249.122	-8.73
249.592	-4.53
250.061	7.47
250.531	8.57
251.001	-1.43
251.471	8.07
251.94	11.67
252.41	0.57
252.879	-0.13
253.349	7.87
253.818	3.87
254.288	3.97
254.757	-0.43
255.227	-1.03
255.696	-1.63
256.166	5.97
256.635	0.87
257.105	2.47
257.574	-0.23
258.043	5.47
258.513	-1.03
258.982	2.37
259.451	-1.23
259.92	-0.33
260.389	4.37
260.859	7.37
261.328	7.67
261.797	9.57
262.266	2.97
262.735	7.57
263.204	4.37
263.673	1.17
264.142	6.07
264.611	2.07
265.08	-2.53
265.549	-1.63
266.018	2.47
266.487	-0.63
266.955	-0.13
267.424	1.37
267.893	3.97
268.362	-0.63
268.83	6.27
269.299	9.47
269.768	6.87
270.236	4.27
270.705	1.17
271.174	6.67
271.642	1.87
272.111	5.47
272.579	3.27
273.048	9.87
273.516	5.97
273.985	8.47
274.453	9.97
274.922	20.17
275.39	7.37
275.858	1.57
276.327	12.17
276.795	12.67
277.263	8.27
277.731	20.77
278.2	18.47
278.668	12.07
279.136	18.67
279.604	0.77
280.072	10.17
280.54	8.87
281.008	12.07
281.477	10.47
281.945	9.17
282.413	16.47
282.881	11.47
283.348	7.57
283.816	12.27
284.284	11.97
284.752	21.57
285.22	12.17
285.688	17.47
286.156	10.07
286.623	27.37
287.091	10.67
287.559	18.07
288.026	12.37
288.494	9.97
288.962	4.07
289.429	9.07
289.897	21.77
290.364	11.77
290.832	15.57
291.3	16.87
291.767	19.07
292.234	15.37
292.702	18.57
293.169	13.87
293.637	15.57
294.104	17.57
294.571	8.57
295.039	13.77
295.506	12.47
295.973	17.97
296.44	15.47
296.908	16.27
297.375	17.17
297.842	21.87
298.309	19.97
298.776	10.97
299.243	19.77
299.71	9.87
300.177	24.57
300.644	20.97
301.111	23.27
301.578	25.47
302.045	17.77
302.512	24.87
302.979	26.67
303.446	23.77
303.913	14.67
304.379	19.07
304.846	25.77
305.313	23.47
305.78	24.57
306.246	26.67
306.713	27.77
307.18	23.17
307.646	23.07
308.113	30.57
308.579	27.87
309.046	28.37
309.512	34.47
309.979	19.77
310.445	30.97
310.912	27.17
311.378	31.47
311.845	33.57
312.311	31.37
312.777	33.47
313.244	27.57
313.71	37.87
314.176	27.07
314.642	31.17
315.109	29.57
315.575	33.37
316.041	37.87
316.507	32.07
316.973	39.27
317.439	36.77
317.905	41.87
318.371	38.17
318.837	35.57
319.303	39.57
319.769	33.47
320.235	30.37
320.701	34.37
321.167	32.27
321.633	30.77
322.099	38.97
322.564	38.07
323.03	38.67
323.496	40.67
323.962	39.57
324.427	44.97
324.893	48.87
325.359	39.67
325.824	37.47
326.29	35.77
326.755	44.57
327.221	43.37
327.686	43.57
328.152	49.37
328.617	47.87
329.083	50.27
329.548	57.57
330.014	52.77
330.479	40.47
330.944	44.57
331.41	44.47
331.875	46.87
332.34	45.27
332.805	47.77
333.271	47.17
333.736	43.27
334.201	51.37
334.666	54.47
335.131	55.87
335.596	54.97
336.061	51.57
336.526	38.97
336.991	42.47
337.456	57.67
337.921	48.37
338.386	45.27
338.851	47.47
339.316	48.87
339.781	51.37
340.246	60.27
340.711	51.67
341.175	57.67
341.64	45.47
342.105	55.77
342.569	56.27
343.034	62.07
343.499	52.27
343.963	60.77
344.428	66.97
344.893	61.17
345.357	68.77
345.822	64.57
346.286	63.87
346.751	74.57
347.215	74.97
347.679	73.97
348.144	100.87
348.608	86.07
349.073	74.17
349.537	76.67
350.001	76.07
350.465	91.87
350.93	86.87
351.394	91.27
351.858	80.77
352.322	88.17
352.786	89.87
353.25	107.57
353.715	114.77
354.179	99.27
354.643	127.97
355.107	121.67
355.571	108.17
356.035	98.77
356.498	117.17
356.962	118.67
357.426	129.17
357.89	115.97
358.354	96.07
358.818	85.57
359.281	78.47
359.745	82.07
360.209	81.97
360.673	77.37
361.136	82.87
361.6	86.17
362.064	83.87
362.527	87.17
362.991	99.67
363.454	85.77
363.918	77.17
364.381	85.97
364.845	78.97
365.308	84.67
365.772	85.87
366.235	94.57
366.698	90.37
367.162	89.87
367.625	91.27
368.088	90.77
368.552	88.37
369.015	92.77
369.478	98.77
369.941	105.97
370.404	100.67
370.867	108.77
371.331	114.77
371.794	118.57
372.257	107.47
372.72	114.77
373.183	110.97
373.646	102.07
374.109	105.87
374.572	108.87
375.035	100.37
375.497	108.57
375.96	110.57
376.423	111.67
376.886	119.27
377.349	112.47
377.811	107.87
378.274	110.67
378.737	115.67
379.199	117.87
379.662	109.37
380.125	120.17
380.587	113.47
381.05	112.07
381.512	124.17
381.975	127.77
382.437	130.07
382.9	125.57
383.362	131.57
383.825	138.57
384.287	136.57
384.75	128.37
385.212	136.97
385.674	130.77
386.136	138.37
386.599	125.47
387.061	131.17
387.523	126.97
387.985	125.67
388.447	144.07
388.91	128.27
389.372	132.47
389.834	135.87
390.296	134.17
390.758	138.17
391.22	150.47
391.682	163.87
392.144	178.77
392.606	164.67
393.068	153.77
393.529	158.67
393.991	150.57
394.453	133.37
394.915	146.67
395.377	148.77
395.838	157.07
396.3	150.07
396.762	133.97
397.224	142.77
397.685	137.77
398.147	144.27
398.608	135.67
399.07	140.47
399.531	149.67
399.993	157.07
400.454	161.77
400.916	159.47
401.377	153.27
401.839	161.47
402.3	163.67
402.762	178.47
403.223	189.57
403.684	183.77
404.145	172.57
404.607	174.07
405.068	178.87
405.529	177.87
405.99	196.87
406.451	192.57
406.913	187.87
407.374	170.47
407.835	170.37
408.296	185.87
408.757	184.57
409.218	191.77
409.679	183.77
410.14	185.87
410.601	194.67
411.062	196.87
411.522	194.57
411.983	188.47
412.444	185.47
412.905	189.57
413.366	195.27
413.826	213.17
414.287	237.37
414.748	283.97
415.208	274.47
415.669	236.37
416.13	224.47
416.59	223.97
417.051	239.87
417.511	239.07
417.972	259.87
418.432	273.87
418.893	311.87
419.353	267.07
419.814	215.77
420.274	198.77
420.734	192.57
421.195	211.67
421.655	208.77
422.115	209.37
422.576	211.07
423.036	221.47
423.496	225.77
423.956	234.37
424.416	245.67
424.876	285.17
425.336	280.97
425.797	285.67
426.257	275.67
426.717	260.67
427.177	247.47
427.637	234.57
428.097	250.07
428.556	264.87
429.016	287.77
429.476	279.07
429.936	283.07
430.396	290.37
430.856	298.27
431.315	332.27
431.775	364.27
432.235	402.97
432.694	368.57
433.154	382.07
433.614	410.17
434.073	357.87
434.533	298.07
434.993	289.37
435.452	297.07
435.912	310.87
436.371	302.67
436.83	300.57
437.29	278.57
437.749	268.77
438.209	266.27
438.668	295.47
439.127	309.17
439.587	282.17
440.046	270.67
440.505	280.77
440.964	305.17
441.424	350.67
441.883	334.47
442.342	275.87
442.801	248.27
443.26	242.67
443.719	243.07
444.178	240.97
444.637	233.87
445.096	241.07
445.555	243.67
446.014	247.77
446.473	249.27
446.932	242.67
447.391	251.37
447.849	255.77
448.308	245.47
448.767	243.97
449.226	253.07
449.685	262.67
450.143	276.17
450.602	262.27
451.061	252.07
451.519	251.87
451.978	258.47
452.436	253.97
452.895	262.67
453.353	284.07
453.812	261.17
454.27	261.27
454.729	258.37
455.187	263.47
455.646	271.67
456.104	265.17
456.562	286.27
457.021	295.17
457.479	284.37
457.937	303.87
458.395	282.97
458.854	264.47
459.312	285.57
459.77	302.17
460.228	280.07
460.686	274.67
461.144	272.87
461.602	268.27
462.06	269.97
462.518	273.37
462.976	289.57
463.434	283.07
463.892	291.97
464.35	306.67
464.808	313.17
465.266	289.37
465.724	296.47
466.181	300.87
466.639	293.87
467.097	320.37
467.555	331.07
468.012	339.07
468.47	332.07
468.928	360.77
469.385	377.57
469.843	375.17
470.3	381.37
470.758	393.27
471.215	421.47
471.673	445.87
472.13	442.27
472.588	449.97
473.045	407.97
473.503	422.47
473.96	433.87
474.417	439.77
474.875	467.77
475.332	506.97
475.789	507.77
476.246	506.77
476.704	527.17
477.161	542.07
477.618	572.97
478.075	609.37
478.532	663.57
478.989	729.37
479.446	846.37
479.903	808.97
480.36	843.47
480.817	899.17
481.274	977.67
481.731	1076.77
482.188	1156.47
482.645	1291.77
483.102	1398.67
483.558	1514.17
484.015	1561.77
484.472	1527.67
484.929	1484.87
485.385	1448.97
485.842	1407.07
486.299	1369.67
486.755	1326.07
487.212	1125.87
487.668	961.17
488.125	888.67
488.582	815.27
489.038	796.07
489.494	762.37
489.951	731.87
490.407	707.67
490.864	690.87
491.32	684.07
491.776	696.87
492.233	699.47
492.689	662.37
493.145	656.27
493.602	640.97
494.058	662.97
494.514	658.57
494.97	686.87
495.426	708.47
495.882	672.67
496.338	658.97
496.794	666.07
497.251	657.97
497.707	681.07
498.163	685.27
498.618	686.47
499.074	696.27
499.53	719.77
499.986	718.67
500.442	691.57
500.898	670.97
501.354	666.77
501.809	676.67
502.265	678.07
502.721	689.87
503.177	692.67
503.632	701.77
504.088	705.77
504.543	727.97
504.999	753.27
505.455	705.77
505.91	685.37
506.366	694.67
506.821	681.07
507.277	690.87
507.732	676.07
508.187	681.87
508.643	693.37
509.098	697.27
509.553	712.17
510.009	726.07
510.464	736.27
510.919	745.17
511.375	753.37
511.83	775.17
512.285	788.87
512.74	823.07
513.195	850.47
513.65	821.17
514.105	820.87
514.56	828.27
515.015	851.27
515.47	865.27
515.925	838.87
516.38	847.07
516.835	851.47
517.29	844.27
517.745	841.27
518.2	825.47
518.655	806.07
519.109	798.57
519.564	797.37
520.019	795.17
520.474	786.27
520.928	787.27
521.383	781.57
521.838	763.67
522.292	775.57
522.747	775.97
523.201	761.37
523.656	745.07
524.11	743.77
524.565	752.87
525.019	747.57
525.474	757.77
525.928	753.77
526.382	748.07
526.837	764.97
527.291	770.37
527.745	760.67
528.2	754.17
528.654	752.27
529.108	743.97
529.562	750.87
530.016	741.97
530.47	742.97
530.925	738.57
531.379	742.77
531.833	757.47
532.287	749.87
532.741	756.87
533.195	759.47
533.649	759.27
534.103	774.97
534.556	762.27
535.01	763.27
535.464	766.77
535.918	771.67
536.372	772.97
536.826	764.67
537.279	757.17
537.733	767.97
538.187	772.87
538.64	761.07
539.094	769.17
539.548	785.67
540.001	779.07
540.455	793.27
540.908	789.27
541.362	794.67
541.815	809.57
542.269	816.77
542.722	817.37
543.175	817.57
543.629	831.27
544.082	849.17
544.536	845.77
544.989	849.67
545.442	864.77
545.895	859.97
546.349	858.97
546.802	865.27
547.255	866.27
547.708	881.57
548.161	884.27
548.614	879.27
549.067	893.27
549.52	877.57
549.973	884.37
550.426	877.77
550.879	857.87
551.332	868.87
551.785	872.57
552.238	878.77
552.691	892.67
553.144	906.37
553.596	913.67
554.049	934.57
554.502	955.07
554.955	986.07
555.407	975.87
555.86	967.27
556.313	960.97
556.765	954.97
557.218	953.47
557.67	947.77
558.123	940.27
558.576	936.77
559.028	944.87
559.48	959.67
559.933	936.57
560.385	908.77
560.838	882.97
561.29	856.87
561.742	850.67
562.195	820.47
562.647	835.07
563.099	847.57
563.551	833.57
564.004	854.57
564.456	823.57
564.908	817.07
565.36	803.17
565.812	781.17
566.264	782.17
566.716	770.87
567.168	763.77
567.62	762.07
568.072	756.77
568.524	747.47
568.976	742.07
569.428	733.17
569.88	728.07
570.332	731.87
570.784	736.07
571.235	739.27
571.687	740.17
572.139	757.87
572.59	760.37
573.042	770.17
573.494	770.07
573.945	763.37
574.397	744.37
574.849	748.17
575.3	743.27
575.752	734.97
576.203	731.77
576.655	737.97
577.106	720.77
577.557	713.07
578.009	718.77
578.46	719.37
578.912	713.77
579.363	714.57
579.814	722.07
580.265	711.67
580.717	714.37
581.168	715.57
581.619	734.67
582.07	736.17
582.521	723.57
582.972	715.77
583.423	725.57
583.875	725.27
584.326	738.77
584.777	748.87
585.227	772.17
585.678	789.17
586.129	818.17
586.58	845.17
587.031	876.97
587.482	910.67
587.933	958.07
588.384	922.87
588.834	861.27
589.285	821.97
589.736	818.97
590.186	826.37
590.637	820.57
591.088	796.17
591.538	789.67
591.989	783.57
592.439	772.27
592.89	768.17
593.34	763.37
593.791	759.67
594.241	740.47
594.692	748.77
595.142	745.47
595.593	742.77
596.043	757.27
596.493	755.87
596.943	752.07
597.394	766.67
597.844	766.77
598.294	785.47
598.744	807.47
599.195	835.47
599.645	884.37
600.095	913.77
600.545	983.47
600.995	1030.77
601.445	1094.17
601.895	1158.07
602.345	1203.77
602.795	1182.77
603.245	1140.37
603.695	1078.77
604.145	1028.27
604.594	980.57
605.044	922.07
605.494	851.47
605.944	812.87
606.393	793.57
606.843	772.37
607.293	786.27
607.743	767.57
608.192	792.47
608.642	809.97
609.091	808.67
609.541	811.87
609.99	804.47
610.44	816.17
610.889	760.77
611.339	742.67
611.788	720.87
612.238	731.17
612.687	739.87
613.136	735.07
613.586	755.47
614.035	743.77
614.484	753.57
614.933	759.47
615.383	755.07
615.832	758.17
616.281	741.27
616.73	711.87
617.179	698.57
617.628	684.27
618.077	662.87
618.526	651.77
618.975	650.47
619.424	649.37
619.873	644.17
620.322	661.97
620.771	634.17
621.22	643.07
621.669	620.57
622.118	617.97
622.567	622.17
623.015	606.27
623.464	608.97
623.913	586.67
624.361	579.97
624.81	585.67
625.259	589.27
625.707	590.97
626.156	589.87
626.604	602.37
627.053	589.47
627.501	608.57
627.95	603.57
628.398	607.57
628.847	603.07
629.295	606.97
629.744	614.77
630.192	606.87
630.64	593.37
631.089	578.97
631.537	583.77
631.985	564.17
632.433	574.97
632.881	560.27
633.33	570.67
633.778	565.27
634.226	555.37
634.674	569.17
635.122	576.37
635.57	597.87
636.018	596.17
636.466	590.17
636.914	597.57
637.362	612.77
637.81	604.17
638.258	610.97
638.705	610.97
639.153	649.67
639.601	661.87
640.049	678.37
640.497	706.57
640.944	736.17
641.392	679.77
641.84	649.67
642.287	619.87
642.735	597.37
643.182	591.97
643.63	597.87
644.078	599.27
644.525	612.27
644.973	618.07
645.42	623.17
645.867	652.57
646.315	670.17
646.762	688.67
647.21	723.37
647.657	741.67
648.104	772.67
648.551	802.37
648.999	856.77
649.446	939.37
649.893	1017.97
650.34	1158.57
650.787	1371.67
651.234	1694.67
651.682	2186.07
652.129	2952.77
652.576	4183.17
653.023	6116.37
653.47	8286.77
653.917	10296.27
654.363	11885.07
654.81	13077.87
655.257	12420.67
655.704	8234.97
656.151	4986.07
656.598	3259.37
657.044	2338.67
657.491	1826.17
657.938	1477.37
658.385	1233.37
658.831	1080.57
659.278	972.87
659.724	872.77
660.171	801.87
660.618	744.87
661.064	704.07
661.511	694.47
661.957	679.87
662.404	674.97
662.85	679.77
663.296	650.47
663.743	589.57
664.189	568.07
664.635	564.37
665.082	553.67
665.528	550.97
665.974	546.17
666.42	537.87
666.867	535.37
667.313	513.07
667.759	486.37
668.205	475.97
668.651	481.37
669.097	475.07
669.543	471.17
669.989	468.27
670.435	469.67
670.881	469.27
671.327	477.97
671.773	506.47
672.219	518.17
672.665	572.37
673.11	620.17
673.556	662.17
674.002	706.07
674.448	694.57
674.893	581.97
675.339	510.87
675.785	460.57
676.23	436.57
676.676	410.87
677.122	408.07
677.567	402.27
678.013	394.07
678.458	376.97
678.904	381.57
679.349	377.87
679.794	381.27
680.24	375.47
680.685	371.57
681.131	372.07
681.576	380.57
682.021	379.27
682.466	367.97
682.912	372.97
683.357	373.67
683.802	407.37
684.247	438.77
684.692	475.77
685.137	521.37
685.583	567.57
686.028	592.97
686.473	543.17
686.918	477.97
687.363	450.07
687.807	410.57
688.252	399.07
688.697	375.07
689.142	352.77
689.587	359.87
690.032	347.27
690.477	367.67
690.921	369.97
691.366	409.17
691.811	430.67
692.255	451.67
692.7	490.57
693.145	534.97
693.589	742.37
694.034	1201.27
694.478	1634.87
694.923	1839.37
695.367	2408.97
695.812	1268.57
696.256	531.87
696.701	399.67
697.145	355.77
697.59	345.77
698.034	336.67
698.478	349.87
698.922	338.17
699.367	335.77
699.811	353.97
700.255	373.97
700.699	402.77
701.143	444.77
701.588	498.77
702.032	534.87
702.476	540.27
702.92	511.67
703.364	530.37
703.808	679.57
704.252	1106.37
704.696	1529.97
705.14	1774.57
705.584	2277.67
706.027	1129.67
706.471	555.67
706.915	419.37
707.359	385.97
707.803	338.17
708.246	334.67
708.69	330.67
709.134	332.87
709.577	324.77
710.021	326.27
710.465	322.47
710.908	317.07
711.352	312.77
711.795	330.37
712.239	368.67
712.682	408.07
713.126	436.47
713.569	480.47
714.012	373.37
714.456	323.17
714.899	303.07
715.342	291.57
715.786	275.67
716.229	278.27
716.672	270.27
717.115	260.07
717.558	262.07
718.002	269.87
718.445	272.47
718.888	295.17
719.331	313.47
719.774	319.77
720.217	320.37
720.66	300.37
721.103	275.77
721.546	277.27
721.989	259.87
722.432	244.97
722.874	250.77
723.317	243.27
723.76	253.57
724.203	270.57
724.645	334.97
725.088	466.37
725.531	615.67
725.974	681.97
726.416	581.87
726.859	318.87
727.301	258.47
727.744	246.87
728.187	242.77
728.629	255.57
729.071	253.77
729.514	272.57
729.956	279.27
730.399	303.47
730.841	297.37
731.283	292.57
731.726	283.47
732.168	282.17
732.61	285.67
733.053	304.57
733.495	337.27
733.937	371.87
734.379	428.07
734.821	469.87
735.263	579.07
735.705	885.77
736.148	1696.87
736.59	2741.97
737.032	3239.07
737.474	2621.47
737.916	861.87
738.357	464.37
738.799	345.87
739.241	315.37
739.683	292.37
740.125	305.17
740.567	324.37
741.008	341.07
741.45	347.67
741.892	340.97
742.334	372.57
742.775	386.87
743.217	375.27
743.658	285.67
744.1	266.17
744.542	277.77
744.983	336.07
745.425	377.37
745.866	374.17
746.307	296.97
746.749	296.17
747.19	345.37
747.632	486.97
748.073	929.47
748.514	1983.27
748.956	3036.37
749.397	3780.07
749.838	3155.77
750.279	3138.57
750.72	1588.47
751.162	575.37
751.603	338.97
752.044	274.27
752.485	228.47
752.926	224.27
753.367	218.07
753.808	206.57
754.249	202.97
754.69	196.37
755.131	199.87
755.572	196.47
756.013	193.97
756.453	192.27
756.894	196.57
757.335	207.17
757.776	208.17
758.216	204.77
758.657	207.67
759.098	213.27
759.538	231.17
759.979	283.37
760.42	402.17
760.86	744.77
761.301	1940.37
761.741	4700.07
762.182	6807.77
762.622	4809.67
763.063	1384.07
763.503	558.27
763.943	354.77
764.384	290.37
764.824	281.67
765.264	271.97
765.705	240.37
766.145	200.17
766.585	180.47
767.025	183.97
767.465	171.47
767.906	198.37
768.346	220.67
768.786	235.57
769.226	234.07
769.666	320.87
770.106	655.57
770.546	1641.27
770.986	2800.47
771.426	2498.97
771.866	838.27
772.306	342.37
772.745	214.07
773.185	173.67
773.625	172.77
774.065	161.67
774.505	169.47
774.944	228.07
775.384	396.97
775.824	653.47
776.263	639.57
776.703	307.07
777.142	169.87
777.582	144.27
778.021	132.37
778.461	134.67
778.9	133.07
779.34	133.77
779.779	118.37
780.219	109.27
780.658	111.17
781.097	111.97
781.537	118.27
781.976	112.57
782.415	110.57
782.855	111.57
783.294	115.47
783.733	117.37
784.172	118.67
784.611	107.67
785.05	114.17
785.489	122.17
785.928	127.97
786.367	126.07
786.806	122.17
787.245	134.37
787.684	135.87
788.123	159.37
788.562	141.37
789.001	133.87
789.44	133.27
789.879	127.37
790.317	129.07
790.756	133.57
791.195	136.97
791.634	159.07
792.072	213.77
792.511	379.47
792.95	1058.87
793.388	2225.97
793.827	2019.27
794.265	711.17
794.704	297.07
795.142	200.47
795.581	161.57
796.019	143.07
796.458	139.57
796.896	130.97
797.334	136.17
797.773	161.27
798.211	234.07
798.649	458.97
799.087	1079.47
799.526	1678.97
799.964	2131.87
800.402	2132.47
800.84	808.27
801.278	323.57
801.716	194.77
802.154	160.67
802.592	158.07
803.03	147.47
803.468	141.47
803.906	156.37
804.344	160.97
804.782	151.67
805.22	139.97
805.658	139.17
806.096	157.17
806.533	166.17
806.971	188.07
807.409	234.97
807.847	330.47
808.284	711.27
808.722	1965.87
809.16	3484.67
809.597	3322.77
810.035	5717.77
810.472	6134.37
810.91	2223.97
811.347	844.47
811.785	427.37
812.222	267.27
812.66	205.27
813.097	173.07
813.535	149.77
813.972	137.87
814.409	123.37
814.846	111.87
815.284	113.57
815.721	115.57
816.158	109.57
816.595	114.87
817.032	169.17
817.47	191.07
817.907	153.27
818.344	110.87
818.781	102.87
819.218	104.67
819.655	134.57
820.092	206.07
820.529	226.17
820.966	183.17
821.403	138.57
821.839	102.77
822.276	102.87
822.713	133.17
823.15	149.27
823.587	132.37
824.023	148.57
824.46	320.87
824.897	956.17
825.333	1433.97
825.77	630.37
826.206	246.07
826.643	135.97
827.08	106.57
827.516	87.67
827.953	83.47
828.389	88.27
828.825	71.97
829.262	70.97
829.698	63.97
830.135	60.17
830.571	69.37
831.007	70.67
831.443	62.07
831.88	66.77
832.316	60.47
832.752	66.07
833.188	72.47
833.624	71.67
834.06	72.17
834.497	69.47
834.933	76.57
835.369	80.07
835.805	76.77
836.241	78.37
836.677	85.17
837.112	99.57
837.548	113.77
837.984	144.77
838.42	216.17
838.856	531.67
839.292	1594.27
839.727	2440.47
840.163	1138.77
840.599	976.87
841.034	2138.67
841.47	2264.47
841.906	823.37
842.341	344.87
842.777	213.17
843.212	220.67
843.648	205.97
844.083	123.57
844.519	84.47
844.954	74.97
845.39	61.97
845.825	62.47
846.261	61.37
846.696	55.77
847.131	54.77
847.566	66.77
848.002	54.97
848.437	58.57
848.872	61.07
849.307	66.97
849.742	88.77
850.177	188.97
850.613	579.47
851.048	926.57
851.483	404.97
851.918	164.27
852.353	85.67
852.788	52.37
853.223	48.37
853.657	55.57
854.092	50.57
854.527	46.37
854.962	41.37
855.397	50.17
855.832	51.17
856.266	45.07
856.701	37.57
857.136	44.47
857.57	47.37
858.005	54.97
858.44	65.07
858.874	49.07
859.309	58.07
859.743	38.97
860.178	49.67
860.612	41.77
861.047	57.97
861.481	67.17
861.915	76.67
862.35	50.57
862.784	31.77
863.218	43.97
863.653	39.67
864.087	47.67
864.521	53.77
864.955	69.27
865.39	161.97
865.824	193.77
866.258	125.27
866.692	182.87
867.126	202.67
867.56	115.07
867.994	60.97
868.428	41.77
868.862	51.67
869.296	63.87
869.73	67.07
870.164	64.47
870.598	47.57
871.031	49.07
871.465	34.87
871.899	31.37
872.333	23.97
872.766	27.67
873.2	27.07
873.634	30.67
874.067	27.47
874.501	27.67
874.935	35.67
875.368	32.37
875.802	29.27
876.235	25.97
876.669	27.17
877.102	24.97
877.535	32.77
877.969	23.47
878.402	26.27
878.836	21.57
879.269	27.67
879.702	26.17
880.135	27.97
880.569	22.07
881.002	22.77
881.435	20.57
881.868	16.07
882.301	29.47
882.734	17.37
883.167	24.17
883.601	20.17
884.034	20.87
884.467	12.97
884.899	20.27
885.332	14.97
885.765	12.57
886.198	16.67
886.631	17.67
887.064	16.27
887.497	20.67
887.929	27.87
888.362	16.87
888.795	10.67
889.228	19.67
889.66	24.47
890.093	14.87
890.526	15.47
890.958	18.87
891.391	15.87
891.823	21.17
892.256	17.17
892.688	14.17
893.121	19.17
893.553	16.37
893.985	31.37
894.418	22.87
894.85	10.17
895.282	10.97
895.715	19.77
896.147	17.47
896.579	14.97
897.011	17.77
897.444	19.27
897.876	14.77
898.308	18.17
898.74	18.47
899.172	18.77
899.604	21.97
900.036	23.47
900.468	13.57
900.9	12.77
901.332	19.67
901.764	13.27
902.196	17.17
902.628	15.67
903.06	19.27
903.491	36.97
903.923	26.37
904.355	17.37
904.787	28.67
905.218	23.07
905.65	23.07
906.082	16.47
906.513	20.27
906.945	20.37
907.376	14.17
907.808	21.97
908.239	18.47
908.671	23.27
909.102	23.27
909.534	26.47
909.965	53.27
910.397	94.37
910.828	327.17
911.259	500.17
911.691	238.27
912.122	114.17
912.553	53.47
912.984	32.67
913.415	31.57
913.847	24.77
914.278	14.37
914.709	16.67
915.14	20.97
915.571	24.27
916.002	11.47
916.433	19.27
916.864	23.17
917.295	20.97
917.726	18.47
918.157	15.67
918.587	32.07
919.018	24.57
919.449	23.27
919.88	23.47
920.311	35.87
920.741	46.57
921.172	171.97
921.603	161.37
922.033	76.47
922.464	51.67
922.895	23.07
923.325	25.27
923.756	17.37
924.186	17.97
924.617	17.37
925.047	23.17
925.478	26.27
925.908	28.37
926.338	18.87
926.769	11.57
927.199	12.27
927.629	2.97
928.06	20.77
928.49	15.27
928.92	18.37
929.35	11.27
929.78	15.57
930.21	10.87
930.641	6.67
931.071	8.57
931.501	2.37
931.931	11.47
932.361	8.57
932.791	16.07
933.221	6.17
933.651	5.97
934.08	21.07
934.51	34.57
934.94	11.87
935.37	5.57
935.8	9.07
936.229	8.37
936.659	12.07
937.089	-0.23
937.519	15.67
937.948	24.87
938.378	20.27
938.807	7.27
939.237	1.67
939.666	5.47
940.096	5.27
940.525	4.27
940.955	0.17
941.384	3.87
941.814	-2.23
942.243	-3.03
942.672	5.47
943.102	-8.63
943.531	0.87
943.96	5.87
944.39	2.67
944.819	2.67
945.248	4.57
945.677	3.47
946.106	7.27
946.535	4.57
946.964	2.17
947.393	7.37
947.822	0.97
948.251	-4.43
948.68	5.67
949.109	2.27
949.538	4.87
949.967	5.67
950.396	-2.63
950.825	-0.33
951.254	5.87
951.682	-6.33
952.111	-0.83
952.54	-0.23
952.969	-2.33
953.397	-0.43
953.826	6.57
954.254	-2.53
954.683	-0.43
955.112	-2.33
955.54	-0.43
955.969	0.17
956.397	-0.73
956.826	-1.03
957.254	4.07
957.682	3.07
958.111	8.77
958.539	0.27
958.967	4.77
959.396	-2.53
959.824	2.27
960.252	3.47
960.68	-2.43
961.109	0.87
961.537	-7.23
961.965	4.27
962.393	9.77
962.821	-3.63
963.249	0.67
963.677	2.57
964.105	3.57
964.533	45.77
964.961	39.47
965.389	16.77
965.817	12.87
966.245	11.87
966.672	-0.43
967.1	-5.83
967.528	3.87
967.956	4.37
968.383	-2.73
968.811	-3.73
969.239	0.57
969.666	-2.03
970.094	1.07
970.522	5.57
970.949	1.27
971.377	-7.03
971.804	-3.33
972.232	-3.93
972.659	-3.03
973.087	-3.73
973.514	-6.03
973.941	3.37
974.369	2.17
974.796	4.47
975.223	-0.03
975.651	-8.23
976.078	-0.83
976.505	-5.13
976.932	4.17
977.359	15.07
977.786	18.47
978.214	3.67
978.641	-3.53
979.068	3.27
979.495	0.77
979.922	-3.73
980.349	-5.73
980.776	-0.43
981.202	-0.33
981.629	4.97
982.056	2.67
982.483	2.17
982.91	-0.33
983.337	-6.13
983.763	5.87
984.19	-3.23
984.617	0.47
985.043	-1.63
985.47	-2.43
985.897	-2.13
986.323	-1.03
986.75	4.37
987.176	6.67
987.603	-1.83
988.029	-4.63
988.456	-0.63
988.882	1.97
989.308	-4.23
989.735	0.47
990.161	0.77
990.587	1.67
991.014	-2.83
991.44	4.97
991.866	-7.43
992.292	-5.53
992.719	-5.43
993.145	4.87
993.571	-5.73
993.997	-2.53
994.423	-1.43
994.849	-7.93
995.275	2.37
995.701	-0.73
996.127	-1.03
996.553	-1.83
996.979	-4.23
997.405	0.37
997.83	-3.93
998.256	-6.53
998.682	-9.13
999.108	-6.63
999.534	-2.83
999.959	2.77
1000.385	-3.73
1000.811	-3.83
1001.236	-9.13
1001.662	-1.33
1002.087	-7.43
1002.513	3.37
1002.938	1.17
1003.364	-0.13
1003.789	-0.73
1004.215	-0.73
1004.64	-2.43
1005.066	5.07
1005.491	-1.43
1005.916	-2.23
1006.342	-0.83
1006.767	-10.93
1007.192	2.27
1007.617	-6.13
1008.042	-2.83
1008.468	-5.23
1008.893	-5.63
1009.318	-4.83
1009.743	-5.03
1010.168	-0.83
1010.593	-2.13
1011.018	-8.13
1011.443	-0.73
1011.868	-0.13
1012.293	1.17
1012.718	-7.03
1013.143	1.47
1013.567	-1.33
1013.992	-2.83
1014.417	-11.83
1014.842	-3.13
1015.267	-2.93
1015.691	-3.03
1016.116	5.57
1016.541	-1.73
1016.965	4.67
1017.39	0.67
1017.814	0.07
1018.239	-5.23
1018.663	-5.33
1019.088	-7.83
1019.512	-4.13
1019.937	-0.63
1020.361	-3.33
1020.785	-4.83
1021.21	-7.03
1021.634	-0.13
1022.058	6.67
1022.483	-0.23
1022.907	-2.03
1023.331	-5.03
1023.755	-1.53
1024.179	-0.13
1024.604	-9.03
1025.028	-6.33
1025.452	-4.53
1025.876	0.47
1026.3	3.37
1026.724	-6.63
1027.148	-1.43
1027.572	-10.73
1027.996	-4.83
1028.42	1.87
1028.843	-4.03
1029.267	-4.73
1029.691	-0.83
1030.115	-6.13
1030.539	-7.33
1030.962	-12.53
1031.386	-10.63
1031.81	-6.03
1032.233	-0.83
1032.657	-2.73
1033.08	-0.73
1033.504	-10.53
1033.927	-6.13
1034.351	-2.23
1034.774	-10.43
1035.198	-5.43
1035.621	-6.03
1036.045	-13.43
1036.468	2.87
1036.891	-6.03
1037.315	-9.83
1037.738	-10.23
1038.161	2.67
1038.584	-5.63
1039.008	-2.83
1039.431	0.87
1039.854	-2.33
1040.277	-6.63
1040.7	-9.03
1041.123	-1.73
1041.546	-11.23
1041.969	-8.43
1042.392	-9.53
1042.815	0.47
1043.238	3.07
1043.661	0.27
1044.084	-11.83
1044.507	-3.03
1044.93	-2.23
1045.352	-0.33
1045.775	6.67
1046.198	-3.03
1046.621	-1.93
1047.043	-4.23
1047.466	7.57
1047.889	-0.73
1048.311	-5.73
1048.734	-1.53
1049.156	-3.73
1049.579	-3.53
1050.001	-6.23
1050.424	1.27
1050.846	-4.13
1051.269	-7.03
1051.691	-12.43
1052.113	-4.43
1052.536	-6.03
1052.958	-1.93
1053.38	-7.43
1053.802	-8.53
1054.225	3.97
1054.647	-10.33
1055.069	-3.13
1055.491	-2.43
1055.913	-4.63
1056.335	2.57
1056.757	-5.23
1057.179	-4.33
1057.601	-4.23
1058.023	-6.03
1058.445	-1.73
1058.867	-6.43
1059.289	-5.93
1059.711	-4.13
1060.133	-5.33
1060.555	-5.53
1060.976	-9.13
1061.398	-8.93
1061.82	-5.13
1062.241	-1.63
1062.663	-11.13
1063.085	-7.33
1063.506	2.47
1063.928	-1.93
1064.35	-3.33
1064.771	-6.03
1065.193	-3.33
1065.614	-12.53
1066.035	-6.83
1066.457	-5.23
1066.878	0.77
1067.3	-6.43
1067.721	-6.43
1068.142	-4.83
1068.564	-6.93
1068.985	1.97
1069.406	-2.03
1069.827	-1.93
1070.248	0.07
1070.67	-2.73
1071.091	-5.03
1071.512	-3.63
1071.933	-1.43
1072.354	-7.03
1072.775	-3.13
1073.196	-4.33
1073.617	-1.33
1074.038	-7.73
1074.459	-4.93
1074.88	-8.93
1075.3	1.07
1075.721	-2.63
1076.142	4.27
1076.563	2.97
1076.983	-10.53
1077.404	-8.83
1077.825	-9.53
1078.246	-5.73
1078.666	-10.73
1079.087	-4.73
1079.507	-3.03
1079.928	2.87
1080.348	-1.43
1080.769	-4.53
1081.189	3.57
1081.61	-1.23
1082.03	-6.83
1082.451	-7.23
1082.871	-4.43
1083.291	-8.63
1083.711	-3.43
1084.132	-5.63
1084.552	-3.63
1084.972	1.37
1085.392	-5.23
1085.813	-8.03
1086.233	-2.33
1086.653	-11.43
1087.073	-4.23
1087.493	-11.63
1087.913	-4.53
1088.333	-4.93
1088.753	-1.83
1089.173	4.77
1089.593	-1.43
1090.013	1.57
1090.433	-2.43
1090.852	-4.93
1091.272	-1.33
1091.692	0.17
1092.112	-1.63
1092.531	-8.83
1092.951	-13.03
1093.371	-6.03
1093.79	1.27
1094.21	-7.23
1094.63	-5.73
1095.049	-7.23
1095.469	-2.43
1095.888	1.07
1096.308	0.37
1096.727	1.37
1097.146	-4.13
1097.566	-3.53
1097.985	-4.73
1098.405	1.17
1098.824	-8.73
1099.243	-5.13
1099.662	-1.73
1100.082	-6.33
1100.501	-4.93
1100.92	-8.23
1101.339	-8.33
1101.758	-9.53
