Data from 20171114-ORNL-Ar_H_NY_Subt18_08-07-35-256.txt Node
Date: Tue Nov 14 08:07:35 EST 2017
User: Ender
Spectrometer: HR+D1039
Trigger mode: 0
Integration Time (sec): 2.730000E-2
Scans to average: 10
Electric dark correction enabled: true
Nonlinearity correction enabled: false
Boxcar width: 0
XAxis mode: Wavelengths
Number of Pixels in Spectrum: 2048
>>>>>Begin Spectral Data<<<<<
187.836	-2.71
188.309	-2.71
188.782	-2.71
189.255	-1.31
189.728	-1.71
190.201	4.99
190.674	0.69
191.147	4.49
191.619	-9.31
192.092	1.59
192.565	4.09
193.038	1.59
193.511	-1.21
193.984	-2.01
194.456	-6.01
194.929	5.39
195.402	0.89
195.874	0.59
196.347	-5.91
196.82	-9.61
197.292	1.99
197.765	1.69
198.237	-8.21
198.71	-1.61
199.182	-4.71
199.655	2.49
200.127	4.29
200.6	1.59
201.072	5.39
201.544	-1.31
202.017	-5.01
202.489	3.39
202.961	-4.31
203.433	-0.11
203.906	-10.31
204.378	-11.81
204.85	-3.81
205.322	-9.71
205.794	-7.41
206.266	-7.01
206.739	-8.21
207.211	0.79
207.683	-6.81
208.155	-4.81
208.627	-8.81
209.099	-0.31
209.57	-5.11
210.042	-4.31
210.514	-2.21
210.986	-6.11
211.458	-11.51
211.93	-1.51
212.402	7.19
212.873	-8.81
213.345	-8.31
213.817	-11.51
214.288	-6.31
214.76	-5.21
215.232	-0.81
215.703	2.19
216.175	-0.11
216.646	-4.61
217.118	-6.91
217.589	-2.41
218.061	-2.31
218.532	-5.61
219.004	-1.21
219.475	-1.11
219.946	-2.31
220.418	-12.81
220.889	-0.21
221.36	-0.61
221.832	-9.11
222.303	-5.21
222.774	3.39
223.245	-10.51
223.717	-4.71
224.188	-5.01
224.659	-9.61
225.13	-4.41
225.601	-2.61
226.072	4.69
226.543	-0.31
227.014	1.39
227.485	-7.31
227.956	-3.01
228.427	-1.71
228.898	0.29
229.369	9.99
229.839	-3.41
230.31	-10.11
230.781	1.39
231.252	-5.11
231.722	-2.61
232.193	-1.31
232.664	4.09
233.135	-4.71
233.605	-4.51
234.076	-7.61
234.546	1.09
235.017	1.19
235.487	-5.61
235.958	-6.51
236.428	-4.01
236.899	3.39
237.369	1.89
237.84	-0.01
238.31	7.09
238.78	-0.01
239.251	-1.61
239.721	-1.91
240.191	-0.71
240.662	3.39
241.132	-2.31
241.602	-3.81
242.072	-1.61
242.542	3.89
243.013	-2.31
243.483	4.49
243.953	3.49
244.423	2.49
244.893	-2.31
245.363	2.49
245.833	2.99
246.303	-1.41
246.773	7.59
247.243	-1.21
247.712	-0.11
248.182	1.59
248.652	3.39
249.122	-9.31
249.592	8.49
250.061	19.29
250.531	31.79
251.001	14.79
251.471	19.59
251.94	10.19
252.41	1.99
252.879	-2.71
253.349	12.89
253.818	4.89
254.288	3.49
254.757	5.49
255.227	9.09
255.696	5.89
256.166	9.69
256.635	0.99
257.105	3.59
257.574	0.29
258.043	2.79
258.513	10.89
258.982	13.39
259.451	6.69
259.92	5.79
260.389	10.09
260.859	13.89
261.328	10.49
261.797	8.79
262.266	4.29
262.735	1.39
263.204	4.69
263.673	-2.91
264.142	1.39
264.611	-3.31
265.08	-0.41
265.549	-2.51
266.018	0.99
266.487	8.59
266.955	-7.11
267.424	3.79
267.893	0.59
268.362	-0.11
268.83	4.19
269.299	3.59
269.768	1.69
270.236	7.19
270.705	-1.21
271.174	1.39
271.642	6.59
272.111	6.09
272.579	12.39
273.048	16.99
273.516	19.39
273.985	20.79
274.453	21.49
274.922	12.89
275.39	10.79
275.858	-4.61
276.327	10.89
276.795	14.09
277.263	7.69
277.731	23.89
278.2	38.49
278.668	43.99
279.136	37.79
279.604	18.09
280.072	10.99
280.54	5.99
281.008	10.29
281.477	9.99
281.945	10.29
282.413	3.69
282.881	11.19
283.348	7.49
283.816	12.49
284.284	6.69
284.752	15.19
285.22	9.59
285.688	11.69
286.156	17.19
286.623	38.99
287.091	38.49
287.559	19.39
288.026	14.19
288.494	7.89
288.962	4.59
289.429	6.39
289.897	16.39
290.364	7.49
290.832	11.09
291.3	10.49
291.767	12.99
292.234	12.39
292.702	5.19
293.169	12.59
293.637	16.49
294.104	10.49
294.571	6.79
295.039	2.59
295.506	12.69
295.973	9.09
296.44	12.99
296.908	7.69
297.375	13.69
297.842	11.19
298.309	7.89
298.776	5.39
299.243	11.69
299.71	6.89
300.177	9.89
300.644	17.29
301.111	11.79
301.578	17.19
302.045	11.59
302.512	17.29
302.979	12.99
303.446	18.79
303.913	12.49
304.379	10.69
304.846	28.89
305.313	15.39
305.78	9.89
306.246	22.29
306.713	21.19
307.18	20.09
307.646	25.69
308.113	22.69
308.579	20.49
309.046	21.39
309.512	11.89
309.979	7.89
310.445	25.59
310.912	24.69
311.378	26.69
311.845	22.89
312.311	21.99
312.777	26.39
313.244	28.09
313.71	27.79
314.176	25.69
314.642	20.19
315.109	29.49
315.575	29.79
316.041	31.49
316.507	25.99
316.973	31.89
317.439	29.39
317.905	26.69
318.371	31.99
318.837	27.39
319.303	25.79
319.769	32.69
320.235	24.49
320.701	28.89
321.167	31.09
321.633	28.49
322.099	28.49
322.564	38.29
323.03	29.99
323.496	24.79
323.962	35.39
324.427	30.49
324.893	33.79
325.359	27.19
325.824	29.69
326.29	31.19
326.755	32.59
327.221	26.19
327.686	32.69
328.152	37.09
328.617	34.39
329.083	33.59
329.548	40.19
330.014	34.69
330.479	34.19
330.944	39.29
331.41	29.79
331.875	36.29
332.34	34.39
332.805	33.09
333.271	37.59
333.736	33.09
334.201	44.69
334.666	36.69
335.131	43.29
335.596	41.29
336.061	40.19
336.526	34.09
336.991	40.69
337.456	44.29
337.921	38.09
338.386	37.09
338.851	35.59
339.316	36.89
339.781	36.09
340.246	48.29
340.711	36.29
341.175	40.79
341.64	30.29
342.105	43.69
342.569	47.29
343.034	51.69
343.499	45.19
343.963	41.39
344.428	50.49
344.893	48.09
345.357	47.29
345.822	46.59
346.286	60.69
346.751	56.49
347.215	50.99
347.679	60.09
348.144	83.09
348.608	62.39
349.073	56.59
349.537	60.99
350.001	61.99
350.465	72.39
350.93	65.69
351.394	62.19
351.858	61.49
352.322	72.69
352.786	66.29
353.25	82.69
353.715	86.69
354.179	91.69
354.643	106.19
355.107	105.79
355.571	93.59
356.035	85.49
356.498	96.89
356.962	103.69
357.426	108.89
357.89	94.49
358.354	76.59
358.818	68.49
359.281	66.59
359.745	66.29
360.209	67.19
360.673	64.69
361.136	67.79
361.6	72.79
362.064	67.99
362.527	69.59
362.991	79.59
363.454	68.39
363.918	56.29
364.381	67.69
364.845	70.19
365.308	80.99
365.772	73.29
366.235	72.29
366.698	71.79
367.162	79.19
367.625	70.49
368.088	77.99
368.552	79.29
369.015	77.59
369.478	81.49
369.941	87.79
370.404	77.79
370.867	89.59
371.331	90.79
371.794	106.29
372.257	102.09
372.72	99.79
373.183	95.59
373.646	93.59
374.109	91.99
374.572	99.99
375.035	97.39
375.497	96.49
375.96	92.49
376.423	91.69
376.886	93.39
377.349	94.59
377.811	86.39
378.274	95.79
378.737	94.49
379.199	96.39
379.662	101.29
380.125	99.39
380.587	105.39
381.05	107.69
381.512	116.39
381.975	120.39
382.437	115.19
382.9	115.29
383.362	119.69
383.825	122.29
384.287	132.89
384.75	128.09
385.212	117.59
385.674	125.79
386.136	129.69
386.599	106.99
387.061	111.39
387.523	114.29
387.985	121.89
388.447	131.29
388.91	133.39
389.372	145.09
389.834	132.29
390.296	134.69
390.758	138.89
391.22	154.29
391.682	195.29
392.144	270.69
392.606	212.59
393.068	152.79
393.529	151.99
393.991	139.49
394.453	134.59
394.915	141.09
395.377	175.09
395.838	193.29
396.3	136.19
396.762	134.59
397.224	115.99
397.685	117.89
398.147	116.59
398.608	113.79
399.07	116.99
399.531	116.09
399.993	128.69
400.454	134.69
400.916	134.29
401.377	132.19
401.839	137.89
402.3	139.79
402.762	150.49
403.223	159.59
403.684	154.09
404.145	148.19
404.607	142.39
405.068	154.19
405.529	162.69
405.99	173.59
406.451	160.99
406.913	153.19
407.374	152.59
407.835	147.19
408.296	151.29
408.757	156.79
409.218	169.69
409.679	159.99
410.14	169.49
410.601	164.59
411.062	168.89
411.522	184.39
411.983	180.29
412.444	167.29
412.905	167.39
413.366	169.09
413.826	183.39
414.287	193.49
414.748	236.39
415.208	226.79
415.669	200.19
416.13	199.39
416.59	188.19
417.051	198.79
417.511	200.79
417.972	219.59
418.432	226.29
418.893	260.59
419.353	233.79
419.814	181.29
420.274	171.69
420.734	164.89
421.195	181.99
421.655	181.69
422.115	177.59
422.576	174.99
423.036	180.79
423.496	188.69
423.956	207.99
424.416	210.59
424.876	242.29
425.336	238.19
425.797	240.29
426.257	231.59
426.717	226.59
427.177	221.29
427.637	212.19
428.097	221.69
428.556	228.89
429.016	241.29
429.476	243.09
429.936	255.29
430.396	257.69
430.856	272.19
431.315	300.29
431.775	329.49
432.235	351.29
432.694	329.39
433.154	341.99
433.614	363.79
434.073	314.49
434.533	270.99
434.993	255.29
435.452	266.79
435.912	278.69
436.371	263.69
436.83	263.89
437.29	249.89
437.749	231.79
438.209	228.59
438.668	252.29
439.127	265.59
439.587	241.19
440.046	232.09
440.505	236.89
440.964	264.09
441.424	294.39
441.883	289.59
442.342	244.59
442.801	208.39
443.26	204.99
443.719	210.59
444.178	205.69
444.637	201.49
445.096	210.19
445.555	212.89
446.014	210.59
446.473	216.89
446.932	221.49
447.391	214.19
447.849	213.29
448.308	211.79
448.767	216.79
449.226	224.29
449.685	228.19
450.143	237.29
450.602	218.99
451.061	212.49
451.519	218.59
451.978	218.99
452.436	219.49
452.895	222.59
453.353	241.89
453.812	225.29
454.27	221.09
454.729	225.59
455.187	223.19
455.646	229.89
456.104	231.59
456.562	240.79
457.021	252.99
457.479	250.69
457.937	258.69
458.395	250.09
458.854	225.89
459.312	236.59
459.77	255.59
460.228	239.39
460.686	232.19
461.144	232.09
461.602	226.29
462.06	228.99
462.518	241.09
462.976	241.39
463.434	244.79
463.892	249.99
464.35	258.59
464.808	266.39
465.266	251.29
465.724	259.39
466.181	255.99
466.639	254.49
467.097	268.09
467.555	282.29
468.012	287.29
468.47	298.39
468.928	296.49
469.385	319.89
469.843	326.29
470.3	325.19
470.758	341.99
471.215	361.19
471.673	386.19
472.13	393.89
472.588	395.09
473.045	355.69
473.503	360.79
473.96	376.59
474.417	386.59
474.875	407.19
475.332	443.89
475.789	431.29
476.246	438.49
476.704	464.99
477.161	481.89
477.618	503.09
478.075	524.79
478.532	580.19
478.989	648.99
479.446	754.99
479.903	734.19
480.36	769.39
480.817	819.59
481.274	922.59
481.731	1024.19
482.188	1104.89
482.645	1232.19
483.102	1327.39
483.558	1466.29
484.015	1521.19
484.472	1482.09
484.929	1438.79
485.385	1395.89
485.842	1353.79
486.299	1296.89
486.755	1235.39
487.212	1047.19
487.668	884.29
488.125	805.09
488.582	739.79
489.038	719.49
489.494	672.59
489.951	651.89
490.407	626.99
490.864	620.39
491.32	608.59
491.776	608.19
492.233	618.39
492.689	580.69
493.145	574.19
493.602	569.29
494.058	585.19
494.514	587.69
494.97	610.39
495.426	614.79
495.882	585.29
496.338	579.19
496.794	594.39
497.251	587.39
497.707	602.79
498.163	618.39
498.618	611.09
499.074	605.09
499.53	639.39
499.986	637.09
500.442	616.09
500.898	593.29
501.354	591.49
501.809	602.99
502.265	607.49
502.721	632.49
503.177	645.09
503.632	635.79
504.088	642.29
504.543	683.59
504.999	678.79
505.455	628.29
505.91	596.69
506.366	599.79
506.821	597.99
507.277	595.19
507.732	584.89
508.187	593.39
508.643	590.99
509.098	602.69
509.553	617.79
510.009	630.39
510.464	644.99
510.919	661.59
511.375	653.99
511.83	664.49
512.285	682.19
512.74	728.49
513.195	749.19
513.65	737.69
514.105	726.19
514.56	733.59
515.015	757.49
515.47	763.19
515.925	754.69
516.38	750.49
516.835	761.69
517.29	741.99
517.745	740.79
518.2	727.89
518.655	706.39
519.109	708.79
519.564	696.49
520.019	694.99
520.474	695.39
520.928	696.09
521.383	682.29
521.838	676.09
522.292	681.19
522.747	677.09
523.201	679.29
523.656	663.39
524.11	659.59
524.565	657.39
525.019	660.09
525.474	667.89
525.928	668.89
526.382	653.99
526.837	669.89
527.291	675.19
527.745	667.99
528.2	667.09
528.654	667.99
529.108	662.79
529.562	655.79
530.016	650.49
530.47	652.29
530.925	661.09
531.379	665.79
531.833	668.29
532.287	667.69
532.741	673.89
533.195	669.49
533.649	682.79
534.103	690.49
534.556	681.79
535.01	686.99
535.464	682.89
535.918	687.89
536.372	685.19
536.826	682.99
537.279	670.79
537.733	687.19
538.187	686.19
538.64	680.79
539.094	692.39
539.548	695.19
540.001	690.29
540.455	692.39
540.908	706.89
541.362	705.59
541.815	710.29
542.269	730.09
542.722	724.69
543.175	733.19
543.629	731.29
544.082	745.59
544.536	753.09
544.989	750.89
545.442	759.99
545.895	754.39
546.349	763.09
546.802	758.29
547.255	764.29
547.708	768.69
548.161	788.99
548.614	788.09
549.067	793.89
549.52	779.69
549.973	771.69
550.426	771.19
550.879	759.99
551.332	768.09
551.785	769.19
552.238	773.89
552.691	787.79
553.144	795.99
553.596	813.39
554.049	816.49
554.502	855.49
554.955	884.99
555.407	877.59
555.86	870.09
556.313	857.89
556.765	836.59
557.218	844.39
557.67	844.39
558.123	845.49
558.576	834.99
559.028	848.19
559.48	851.09
559.933	834.09
560.385	797.69
560.838	786.69
561.29	753.89
561.742	755.49
562.195	738.69
562.647	739.89
563.099	744.19
563.551	743.79
564.004	756.19
564.456	739.59
564.908	731.69
565.36	728.19
565.812	709.09
566.264	703.99
566.716	693.99
567.168	686.59
567.62	695.69
568.072	686.39
568.524	672.59
568.976	662.59
569.428	655.19
569.88	653.59
570.332	657.29
570.784	662.79
571.235	662.09
571.687	666.49
572.139	675.69
572.59	685.89
573.042	679.29
573.494	682.89
573.945	683.29
574.397	655.89
574.849	659.99
575.3	667.99
575.752	654.09
576.203	649.59
576.655	650.29
577.106	640.39
577.557	640.59
578.009	640.29
578.46	640.99
578.912	638.59
579.363	637.69
579.814	650.39
580.265	639.29
580.717	640.59
581.168	647.19
581.619	655.59
582.07	647.29
582.521	656.09
582.972	644.19
583.423	653.19
583.875	658.69
584.326	676.09
584.777	719.09
585.227	795.39
585.678	895.19
586.129	987.19
586.58	1057.49
587.031	1140.69
587.482	1278.99
587.933	1462.89
588.384	1274.19
588.834	954.99
589.285	777.99
589.736	763.79
590.186	744.09
590.637	740.29
591.088	707.19
591.538	708.29
591.989	700.29
592.439	698.49
592.89	692.99
593.34	679.49
593.791	689.19
594.241	676.99
594.692	682.09
595.142	678.99
595.593	673.59
596.043	683.19
596.493	693.69
596.943	693.29
597.394	693.99
597.844	686.39
598.294	700.59
598.744	728.19
599.195	746.89
599.645	780.69
600.095	827.09
600.545	889.69
600.995	928.39
601.445	990.79
601.895	1048.49
602.345	1093.99
602.795	1066.09
603.245	1035.09
603.695	975.09
604.145	929.89
604.594	879.89
605.044	823.39
605.494	772.89
605.944	726.29
606.393	716.19
606.843	703.99
607.293	701.99
607.743	698.09
608.192	715.79
608.642	735.89
609.091	749.49
609.541	742.49
609.99	743.89
610.44	745.09
610.889	696.69
611.339	674.99
611.788	671.39
612.238	677.49
612.687	691.19
613.136	693.59
613.586	716.69
614.035	707.29
614.484	720.19
614.933	732.59
615.383	736.19
615.832	717.29
616.281	697.19
616.73	664.69
617.179	646.39
617.628	633.89
618.077	612.79
618.526	606.89
618.975	603.19
619.424	597.69
619.873	589.69
620.322	611.99
620.771	590.49
621.22	584.59
621.669	577.49
622.118	567.89
622.567	565.89
623.015	547.39
623.464	552.99
623.913	534.39
624.361	530.39
624.81	527.99
625.259	536.29
625.707	548.99
626.156	544.79
626.604	548.49
627.053	534.89
627.501	544.59
627.95	551.69
628.398	550.69
628.847	557.29
629.295	548.29
629.744	560.99
630.192	555.49
630.64	544.39
631.089	556.99
631.537	556.49
631.985	562.49
632.433	574.49
632.881	595.89
633.33	640.79
633.778	628.99
634.226	548.59
634.674	553.09
635.122	563.19
635.57	580.19
636.018	602.09
636.466	565.59
636.914	544.19
637.362	548.29
637.81	555.99
638.258	560.49
638.705	565.69
639.153	589.99
639.601	606.19
640.049	619.09
640.497	647.89
640.944	665.19
641.392	625.29
641.84	593.09
642.287	559.89
642.735	548.69
643.182	557.29
643.63	562.79
644.078	562.29
644.525	574.79
644.973	592.19
645.42	584.49
645.867	607.59
646.315	622.89
646.762	631.99
647.21	665.99
647.657	689.99
648.104	730.99
648.551	754.19
648.999	800.59
649.446	897.69
649.893	987.59
650.34	1132.79
650.787	1363.59
651.234	1696.89
651.682	2205.69
652.129	3052.99
652.576	4379.09
653.023	6516.19
653.47	8891.09
653.917	10986.89
654.363	12634.49
654.81	13946.69
655.257	13275.19
655.704	8683.39
656.151	5119.59
656.598	3321.49
657.044	2366.69
657.491	1814.49
657.938	1451.29
658.385	1209.99
658.831	1048.29
659.278	936.79
659.724	830.89
660.171	768.19
660.618	705.09
661.064	658.39
661.511	648.09
661.957	634.19
662.404	619.49
662.85	634.79
663.296	602.49
663.743	540.79
664.189	523.59
664.635	510.29
665.082	512.09
665.528	509.59
665.974	505.09
666.42	495.39
666.867	493.39
667.313	475.39
667.759	465.99
668.205	466.99
668.651	467.79
669.097	465.29
669.543	490.19
669.989	458.99
670.435	438.99
670.881	432.19
671.327	431.99
671.773	451.89
672.219	463.99
672.665	526.69
673.11	572.19
673.556	614.49
674.002	640.19
674.448	636.49
674.893	533.79
675.339	459.29
675.785	427.49
676.23	402.89
676.676	375.89
677.122	370.99
677.567	363.99
678.013	361.09
678.458	352.89
678.904	348.59
679.349	341.79
679.794	341.89
680.24	335.89
680.685	330.29
681.131	340.69
681.576	334.49
682.021	348.99
682.466	336.69
682.912	336.69
683.357	338.99
683.802	368.99
684.247	398.29
684.692	441.59
685.137	479.59
685.583	517.39
686.028	540.69
686.473	491.79
686.918	427.19
687.363	397.69
687.807	383.29
688.252	347.89
688.697	345.39
689.142	318.69
689.587	327.19
690.032	321.29
690.477	334.39
690.921	336.19
691.366	370.99
691.811	382.89
692.255	410.39
692.7	442.49
693.145	488.99
693.589	684.49
694.034	1101.99
694.478	1499.69
694.923	1678.89
695.367	2177.89
695.812	1147.39
696.256	484.89
696.701	349.49
697.145	331.69
697.59	321.19
698.034	309.59
698.478	316.09
698.922	310.19
699.367	319.09
699.811	331.49
700.255	346.89
700.699	370.59
701.143	413.19
701.588	458.39
702.032	489.59
702.476	494.99
702.92	482.29
703.364	477.99
703.808	622.49
704.252	1011.09
704.696	1403.39
705.14	1612.99
705.584	2040.89
706.027	1022.49
706.471	505.09
706.915	385.79
707.359	333.99
707.803	304.49
708.246	295.19
708.69	300.39
709.134	307.49
709.577	299.89
710.021	300.69
710.465	285.99
710.908	292.39
711.352	282.39
711.795	307.39
712.239	337.89
712.682	378.49
713.126	398.79
713.569	446.29
714.012	364.19
714.456	306.69
714.899	297.49
715.342	276.89
715.786	249.29
716.229	244.89
716.672	249.79
717.115	249.79
717.558	243.79
718.002	247.59
718.445	255.99
718.888	280.59
719.331	288.39
719.774	296.99
720.217	291.59
720.66	275.59
721.103	254.49
721.546	239.69
721.989	236.09
722.432	224.89
722.874	229.39
723.317	213.19
723.76	230.69
724.203	250.09
724.645	308.89
725.088	445.69
725.531	550.09
725.974	619.79
726.416	526.79
726.859	298.29
727.301	237.49
727.744	231.89
728.187	225.49
728.629	228.19
729.071	237.49
729.514	253.39
729.956	263.79
730.399	277.59
730.841	283.79
731.283	259.79
731.726	260.89
732.168	252.99
732.61	266.09
733.053	274.39
733.495	298.69
733.937	343.49
734.379	384.19
734.821	426.29
735.263	536.19
735.705	825.29
736.148	1547.99
736.59	2501.09
737.032	2937.79
737.474	2381.99
737.916	778.89
738.357	412.99
738.799	308.49
739.241	286.99
739.683	271.89
740.125	280.59
740.567	285.39
741.008	301.89
741.45	309.79
741.892	310.39
742.334	341.29
742.775	354.49
743.217	337.09
743.658	264.29
744.1	240.99
744.542	252.09
744.983	303.69
745.425	330.89
745.866	325.59
746.307	280.59
746.749	276.79
747.19	319.79
747.632	442.29
748.073	872.99
748.514	1838.79
748.956	2769.29
749.397	3449.49
749.838	2861.49
750.279	2848.29
750.72	1439.19
751.162	519.19
751.603	311.69
752.044	240.99
752.485	207.89
752.926	205.49
753.367	194.19
753.808	187.69
754.249	189.99
754.69	184.59
755.131	177.69
755.572	176.29
756.013	172.49
756.453	174.49
756.894	181.39
757.335	186.49
757.776	191.89
758.216	185.39
758.657	189.39
759.098	194.69
759.538	221.99
759.979	265.09
760.42	363.79
760.86	698.29
761.301	1821.79
761.741	4311.89
762.182	6158.29
762.622	4327.39
763.063	1259.79
763.503	526.39
763.943	333.49
764.384	335.69
764.824	392.19
765.264	425.29
765.705	297.89
766.145	200.49
766.585	188.19
767.025	185.39
767.465	188.69
767.906	240.99
768.346	311.59
768.786	332.99
769.226	258.99
769.666	312.49
770.106	620.99
770.546	1532.99
770.986	2557.39
771.426	2265.99
771.866	771.79
772.306	314.99
772.745	201.99
773.185	169.69
773.625	167.39
774.065	164.99
774.505	194.29
774.944	307.19
775.384	670.79
775.824	1209.69
776.263	1152.69
776.703	493.89
777.142	215.89
777.582	149.99
778.021	128.69
778.461	136.29
778.9	135.69
779.34	131.09
779.779	114.59
780.219	104.39
780.658	99.39
781.097	102.49
781.537	108.69
781.976	104.69
782.415	104.49
782.855	99.79
783.294	100.39
783.733	98.09
784.172	103.59
784.611	101.69
785.05	105.19
785.489	113.69
785.928	120.69
786.367	120.19
786.806	113.59
787.245	125.79
787.684	131.89
788.123	147.29
788.562	132.69
789.001	126.49
789.44	118.39
789.879	115.39
790.317	121.99
790.756	126.39
791.195	124.29
791.634	147.69
792.072	200.09
792.511	363.79
792.95	998.89
793.388	2080.79
793.827	1858.49
794.265	656.89
794.704	267.99
795.142	172.99
795.581	146.59
796.019	132.69
796.458	124.59
796.896	116.39
797.334	125.19
797.773	150.59
798.211	213.79
798.649	438.09
799.087	993.99
799.526	1540.89
799.964	1953.09
800.402	1932.09
800.84	730.99
801.278	292.19
801.716	183.59
802.154	148.79
802.592	137.49
803.03	137.69
803.468	135.39
803.906	139.39
804.344	146.49
804.782	144.79
805.22	129.29
805.658	129.69
806.096	142.49
806.533	157.99
806.971	173.09
807.409	209.89
807.847	309.39
808.284	658.39
808.722	1830.79
809.16	3179.99
809.597	3054.69
810.035	5267.89
810.472	5506.79
810.91	2011.59
811.347	777.69
811.785	391.19
812.222	246.29
812.66	191.09
813.097	160.89
813.535	137.79
813.972	127.29
814.409	107.59
814.846	102.89
815.284	103.29
815.721	104.29
816.158	95.99
816.595	120.39
817.032	171.49
817.47	191.99
817.907	159.29
818.344	147.49
818.781	115.69
819.218	100.09
819.655	114.59
820.092	183.99
820.529	207.59
820.966	174.39
821.403	126.79
821.839	102.79
822.276	99.39
822.713	121.09
823.15	126.79
823.587	107.89
824.023	140.89
824.46	294.39
824.897	877.39
825.333	1301.29
825.77	558.99
826.206	223.39
826.643	135.99
827.08	96.19
827.516	80.69
827.953	74.89
828.389	81.19
828.825	69.49
829.262	71.09
829.698	61.59
830.135	64.39
830.571	60.59
831.007	62.19
831.443	62.19
831.88	58.79
832.316	63.79
832.752	64.29
833.188	58.89
833.624	60.29
834.06	65.69
834.497	68.29
834.933	66.99
835.369	79.89
835.805	65.09
836.241	74.29
836.677	76.79
837.112	86.09
837.548	100.69
837.984	126.39
838.42	197.09
838.856	482.49
839.292	1502.49
839.727	2186.19
840.163	1032.39
840.599	908.19
841.034	1982.49
841.47	2027.99
841.906	750.79
842.341	322.09
842.777	225.59
843.212	311.89
843.648	296.79
844.083	151.09
844.519	92.39
844.954	80.69
845.39	59.89
845.825	50.69
846.261	56.69
846.696	50.99
847.131	55.99
847.566	58.49
848.002	54.89
848.437	56.99
848.872	66.09
849.307	60.09
849.742	85.99
850.177	177.89
850.613	543.49
851.048	847.09
851.483	362.29
851.918	145.49
852.353	87.89
852.788	65.79
853.223	54.29
853.657	55.39
854.092	46.69
854.527	40.89
854.962	40.29
855.397	41.69
855.832	49.99
856.266	36.59
856.701	37.19
857.136	42.19
857.57	40.59
858.005	49.79
858.44	64.49
858.874	44.79
859.309	57.79
859.743	38.39
860.178	43.49
860.612	42.59
861.047	45.99
861.481	62.79
861.915	71.79
862.35	45.89
862.784	35.99
863.218	34.19
863.653	34.99
864.087	43.29
864.521	58.69
864.955	61.69
865.39	148.99
865.824	171.59
866.258	114.29
866.692	161.49
867.126	168.69
867.56	94.39
867.994	48.69
868.428	34.19
868.862	42.89
869.296	58.39
869.73	58.69
870.164	49.39
870.598	47.39
871.031	36.39
871.465	25.69
871.899	31.29
872.333	27.59
872.766	27.99
873.2	20.49
873.634	27.59
874.067	28.59
874.501	24.59
874.935	34.69
875.368	29.89
875.802	30.99
876.235	18.99
876.669	24.69
877.102	21.79
877.535	18.79
877.969	23.39
878.402	20.19
878.836	23.19
879.269	20.19
879.702	26.09
880.135	21.29
880.569	24.09
881.002	24.39
881.435	22.69
881.868	17.69
882.301	20.49
882.734	13.79
883.167	24.99
883.601	20.99
884.034	21.29
884.467	11.19
884.899	23.19
885.332	20.19
885.765	15.59
886.198	19.79
886.631	18.79
887.064	11.29
887.497	20.09
887.929	26.49
888.362	12.29
888.795	17.19
889.228	17.19
889.66	24.79
890.093	17.29
890.526	17.89
890.958	12.59
891.391	18.29
891.823	17.89
892.256	12.29
892.688	12.79
893.121	11.99
893.553	12.69
893.985	14.89
894.418	20.29
894.85	14.99
895.282	14.79
895.715	17.99
896.147	15.09
896.579	18.09
897.011	11.69
897.444	19.09
897.876	14.79
898.308	18.19
898.74	17.59
899.172	12.29
899.604	18.39
900.036	20.59
900.468	17.19
900.9	15.29
901.332	14.59
901.764	13.99
902.196	19.09
902.628	15.29
903.06	10.69
903.491	24.19
903.923	23.09
904.355	14.49
904.787	20.09
905.218	23.79
905.65	18.99
906.082	14.19
906.513	11.19
906.945	12.99
907.376	9.59
907.808	18.09
908.239	24.49
908.671	21.79
909.102	23.19
909.534	29.59
909.965	52.59
910.397	89.69
910.828	299.59
911.259	456.69
911.691	209.89
912.122	100.69
912.553	52.49
912.984	32.99
913.415	20.39
913.847	16.79
914.278	13.29
914.709	16.49
915.14	16.89
915.571	17.09
916.002	14.09
916.433	16.99
916.864	15.39
917.295	14.99
917.726	20.59
918.157	14.99
918.587	28.39
919.018	22.39
919.449	16.39
919.88	22.49
920.311	32.69
920.741	52.99
921.172	163.69
921.603	147.29
922.033	70.49
922.464	43.29
922.895	21.89
923.325	26.39
923.756	19.29
924.186	14.29
924.617	24.39
925.047	42.29
925.478	51.39
925.908	48.59
926.338	22.29
926.769	17.69
927.199	17.79
927.629	3.49
928.06	14.59
928.49	10.49
928.92	11.79
929.35	11.19
929.78	11.59
930.21	9.19
930.641	9.89
931.071	9.19
931.501	3.99
931.931	8.99
932.361	9.69
932.791	7.89
933.221	8.69
933.651	4.19
934.08	15.19
934.51	28.69
934.94	7.79
935.37	6.19
935.8	7.59
936.229	9.79
936.659	2.49
937.089	-1.11
937.519	14.49
937.948	24.29
938.378	13.99
938.807	1.89
939.237	0.29
939.666	1.89
940.096	-5.81
940.525	1.29
940.955	0.99
941.384	3.49
941.814	-5.51
942.243	-4.21
942.672	1.69
943.102	2.49
943.531	-0.91
943.96	0.59
944.39	-1.41
944.819	2.29
945.248	7.99
945.677	4.99
946.106	10.39
946.535	5.29
946.964	2.09
947.393	2.59
947.822	3.69
948.251	-6.11
948.68	-1.71
949.109	3.39
949.538	4.29
949.967	0.09
950.396	2.49
950.825	-7.21
951.254	1.09
951.682	-4.91
952.111	4.49
952.54	7.39
952.969	-8.91
953.397	-5.71
953.826	4.19
954.254	-13.21
954.683	0.29
955.112	-2.81
955.54	-2.81
955.969	-0.21
956.397	2.79
956.826	-3.31
957.254	6.49
957.682	4.19
958.111	2.79
958.539	1.19
958.967	-1.01
959.396	0.69
959.824	1.99
960.252	3.59
960.68	-9.21
961.109	-0.31
961.537	0.79
961.965	-0.11
962.393	-2.91
962.821	-2.41
963.249	7.09
963.677	5.09
964.105	2.69
964.533	46.59
964.961	40.39
965.389	25.49
965.817	14.09
966.245	0.79
966.672	-2.41
967.1	-3.91
967.528	-3.81
967.956	-1.81
968.383	-0.11
968.811	-0.41
969.239	-0.11
969.666	-0.41
970.094	6.49
970.522	-0.01
970.949	1.09
971.377	-6.61
971.804	-2.61
972.232	-5.81
972.659	-4.01
973.087	-0.61
973.514	-8.11
973.941	-7.61
974.369	4.49
974.796	-0.31
975.223	-3.31
975.651	-2.71
976.078	-3.01
976.505	1.29
976.932	3.99
977.359	16.19
977.786	18.09
978.214	3.69
978.641	-3.61
979.068	-6.61
979.495	-2.61
979.922	-1.91
980.349	-0.21
980.776	5.89
981.202	-1.71
981.629	6.79
982.056	2.79
982.483	-2.51
982.91	5.29
983.337	-7.41
983.763	0.59
984.19	-6.01
984.617	-7.31
985.043	-8.91
985.47	-3.51
985.897	-8.21
986.323	-9.61
986.75	3.29
987.176	5.59
987.603	-1.01
988.029	-2.61
988.456	3.49
988.882	5.19
989.308	-4.21
989.735	-2.71
990.161	-0.41
990.587	-3.61
991.014	-1.51
991.44	8.29
991.866	-5.91
992.292	-3.41
992.719	-5.11
993.145	-1.31
993.571	-7.01
993.997	-6.61
994.423	-3.01
994.849	-2.31
995.275	-4.21
995.701	2.29
996.127	-2.51
996.553	1.29
996.979	-8.41
997.405	-0.51
997.83	-6.21
998.256	-10.11
998.682	-4.61
999.108	-9.41
999.534	-6.91
999.959	-2.21
1000.385	-5.71
1000.811	5.09
1001.236	-7.11
1001.662	-7.01
1002.087	-10.11
1002.513	-2.31
1002.938	3.59
1003.364	-6.31
1003.789	1.09
1004.215	2.09
1004.64	-3.51
1005.066	0.59
1005.491	-0.61
1005.916	-4.81
1006.342	-2.41
1006.767	-5.21
1007.192	6.09
1007.617	-8.61
1008.042	-9.11
1008.468	-5.61
1008.893	-4.01
1009.318	-7.51
1009.743	-3.01
1010.168	1.99
1010.593	2.79
1011.018	-7.71
1011.443	-3.11
1011.868	-1.61
1012.293	-4.01
1012.718	-10.11
1013.143	4.99
1013.567	-1.61
1013.992	-2.51
1014.417	-13.61
1014.842	5.29
1015.267	-1.71
1015.691	-1.81
1016.116	3.69
1016.541	-2.11
1016.965	2.79
1017.39	-1.31
1017.814	-0.01
1018.239	5.09
1018.663	-2.81
1019.088	-10.81
1019.512	-5.21
1019.937	-2.11
1020.361	-7.61
1020.785	-12.71
1021.21	-6.11
1021.634	4.89
1022.058	1.49
1022.483	7.99
1022.907	-4.11
1023.331	-5.21
1023.755	-4.91
1024.179	-2.71
1024.604	-9.21
1025.028	-10.01
1025.452	-5.81
1025.876	-2.81
1026.3	2.59
1026.724	-12.91
1027.148	-6.61
1027.572	-9.41
1027.996	-2.31
1028.42	-0.61
1028.843	-2.51
1029.267	-8.01
1029.691	-5.41
1030.115	-3.01
1030.539	-9.61
1030.962	-8.31
1031.386	-9.41
1031.81	2.69
1032.233	-4.61
1032.657	-1.01
1033.08	-3.31
1033.504	-1.81
1033.927	0.59
1034.351	-4.91
1034.774	-9.01
1035.198	-0.41
1035.621	-7.61
1036.045	-6.51
1036.468	1.59
1036.891	-12.01
1037.315	-13.21
1037.738	-11.71
1038.161	-5.81
1038.584	1.59
1039.008	-4.71
1039.431	-3.01
1039.854	-7.61
1040.277	-7.31
1040.7	-14.41
1041.123	0.49
1041.546	-5.31
1041.969	-1.01
1042.392	-8.01
1042.815	-3.31
1043.238	0.89
1043.661	4.99
1044.084	-4.81
1044.507	-4.61
1044.93	-1.21
1045.352	-8.11
1045.775	-3.11
1046.198	-2.61
1046.621	-1.31
1047.043	0.79
1047.466	9.29
1047.889	-5.31
1048.311	-7.21
1048.734	-7.71
1049.156	-2.91
1049.579	-4.91
1050.001	-0.31
1050.424	-4.71
1050.846	-3.61
1051.269	-0.51
1051.691	-4.11
1052.113	-10.61
1052.536	0.09
1052.958	0.89
1053.38	-1.71
1053.802	-10.11
1054.225	0.59
1054.647	-13.41
1055.069	-6.51
1055.491	7.89
1055.913	-8.51
1056.335	-2.51
1056.757	-2.21
1057.179	-7.21
1057.601	-4.01
1058.023	-7.81
1058.445	-2.41
1058.867	-1.41
1059.289	-4.01
1059.711	-10.61
1060.133	1.69
1060.555	-7.31
1060.976	-9.01
1061.398	-7.81
1061.82	-9.11
1062.241	-6.21
1062.663	-12.01
1063.085	1.49
1063.506	-3.01
1063.928	-0.81
1064.35	-2.71
1064.771	-8.51
1065.193	-6.31
1065.614	-10.11
1066.035	3.79
1066.457	-4.81
1066.878	3.39
1067.3	-2.51
1067.721	-8.31
1068.142	-5.91
1068.564	-5.71
1068.985	-7.81
1069.406	-6.01
1069.827	-8.81
1070.248	-3.71
1070.67	-6.01
1071.091	-7.91
1071.512	-5.51
1071.933	-9.21
1072.354	-9.41
1072.775	-5.81
1073.196	-7.81
1073.617	-3.41
1074.038	-7.81
1074.459	-2.21
1074.88	-9.41
1075.3	-1.21
1075.721	-6.81
1076.142	-1.21
1076.563	2.99
1076.983	-4.01
1077.404	-10.91
1077.825	-12.71
1078.246	-7.61
1078.666	-9.71
1079.087	-3.91
1079.507	-2.21
1079.928	-1.11
1080.348	-1.31
1080.769	-2.91
1081.189	-3.51
1081.61	-7.61
1082.03	-4.41
1082.451	-10.21
1082.871	-2.51
1083.291	-4.61
1083.711	-12.31
1084.132	-2.51
1084.552	-12.81
1084.972	-5.01
1085.392	-13.51
1085.813	-8.81
1086.233	-8.41
1086.653	-4.11
1087.073	1.39
1087.493	-5.71
1087.913	-11.21
1088.333	-10.21
1088.753	-4.21
1089.173	1.89
1089.593	-6.61
1090.013	-0.91
1090.433	-3.91
1090.852	-8.71
1091.272	-3.41
1091.692	-0.31
1092.112	-4.61
1092.531	-9.01
1092.951	-12.31
1093.371	1.19
1093.79	0.19
1094.21	-8.81
1094.63	-3.51
1095.049	-7.31
1095.469	-6.71
1095.888	-4.41
1096.308	6.69
1096.727	1.79
1097.146	-7.21
1097.566	-3.41
1097.985	-5.81
1098.405	-8.91
1098.824	-7.51
1099.243	-5.71
1099.662	-6.11
1100.082	-1.01
1100.501	-3.01
1100.92	-5.81
1101.339	-7.91
1101.758	-7.31
