Data from 20171114-ORNL-Ar_H_NY_Subt18_08-05-39-242.txt Node
Date: Tue Nov 14 08:05:39 EST 2017
User: Ender
Spectrometer: HR+D1039
Trigger mode: 0
Integration Time (sec): 2.730000E-2
Scans to average: 10
Electric dark correction enabled: true
Nonlinearity correction enabled: false
Boxcar width: 0
XAxis mode: Wavelengths
Number of Pixels in Spectrum: 2048
>>>>>Begin Spectral Data<<<<<
187.836	-1.43
188.309	-1.43
188.782	-1.43
189.255	2.77
189.728	2.77
190.201	5.77
190.674	3.77
191.147	6.27
191.619	-9.03
192.092	3.67
192.565	0.07
193.038	-1.83
193.511	0.57
193.984	-0.43
194.456	-4.53
194.929	-0.93
195.402	-4.73
195.874	-2.73
196.347	-3.13
196.82	-5.83
197.292	4.47
197.765	0.47
198.237	-6.33
198.71	4.67
199.182	-0.73
199.655	4.37
200.127	3.27
200.6	-2.83
201.072	-4.03
201.544	-0.23
202.017	-0.73
202.489	1.07
202.961	1.77
203.433	-7.03
203.906	-6.03
204.378	-8.43
204.85	-0.73
205.322	-4.33
205.794	-0.03
206.266	1.47
206.739	-2.33
207.211	-0.93
207.683	-10.23
208.155	-3.03
208.627	-4.93
209.099	-1.43
209.57	-8.13
210.042	-0.33
210.514	-7.23
210.986	-2.23
211.458	-10.23
211.93	-0.73
212.402	0.67
212.873	-4.23
213.345	-6.93
213.817	-11.53
214.288	-0.53
214.76	-10.53
215.232	-1.13
215.703	-9.83
216.175	-1.53
216.646	-8.53
217.118	-2.73
217.589	-4.03
218.061	-1.43
218.532	-4.63
219.004	-0.03
219.475	-5.73
219.946	-1.23
220.418	-10.03
220.889	2.67
221.36	-1.43
221.832	-6.63
222.303	-9.73
222.774	-0.63
223.245	-7.03
223.717	0.77
224.188	-1.33
224.659	-7.43
225.13	-1.83
225.601	-1.93
226.072	-4.33
226.543	-2.23
227.014	4.87
227.485	-2.93
227.956	-6.93
228.427	0.67
228.898	-0.03
229.369	6.87
229.839	-4.23
230.31	-1.93
230.781	2.97
231.252	-2.93
231.722	-2.53
232.193	0.77
232.664	-6.23
233.135	-0.63
233.605	-1.43
234.076	-4.03
234.546	1.37
235.017	7.37
235.487	4.67
235.958	0.77
236.428	0.07
236.899	2.37
237.369	0.47
237.84	-2.43
238.31	7.47
238.78	1.77
239.251	-4.53
239.721	0.87
240.191	3.37
240.662	-2.03
241.132	-6.13
241.602	-3.33
242.072	-0.13
242.542	11.37
243.013	0.57
243.483	-1.63
243.953	3.67
244.423	-0.73
244.893	1.67
245.363	-5.03
245.833	2.17
246.303	1.67
246.773	7.97
247.243	5.17
247.712	3.97
248.182	9.97
248.652	8.97
249.122	1.67
249.592	6.07
250.061	23.37
250.531	34.67
251.001	15.47
251.471	20.47
251.94	20.37
252.41	6.97
252.879	2.37
253.349	16.47
253.818	7.57
254.288	8.47
254.757	10.37
255.227	2.07
255.696	2.57
256.166	3.47
256.635	5.77
257.105	17.07
257.574	6.57
258.043	8.27
258.513	10.77
258.982	17.67
259.451	8.87
259.92	18.97
260.389	13.97
260.859	18.17
261.328	11.77
261.797	13.47
262.266	7.07
262.735	9.17
263.204	7.67
263.673	8.57
264.142	2.07
264.611	-5.03
265.08	-2.63
265.549	-1.03
266.018	13.07
266.487	-1.73
266.955	-0.33
267.424	1.07
267.893	10.47
268.362	-0.73
268.83	5.47
269.299	4.07
269.768	13.07
270.236	11.07
270.705	6.47
271.174	7.47
271.642	10.57
272.111	6.57
272.579	13.77
273.048	28.17
273.516	37.47
273.985	31.17
274.453	23.27
274.922	15.37
275.39	14.77
275.858	6.57
276.327	7.67
276.795	21.97
277.263	17.67
277.731	29.67
278.2	57.07
278.668	63.37
279.136	51.87
279.604	19.87
280.072	19.67
280.54	12.27
281.008	9.77
281.477	19.97
281.945	12.07
282.413	13.67
282.881	17.67
283.348	7.07
283.816	11.37
284.284	14.87
284.752	24.77
285.22	12.37
285.688	17.07
286.156	21.47
286.623	51.97
287.091	53.97
287.559	30.57
288.026	17.87
288.494	15.07
288.962	13.27
289.429	8.87
289.897	18.67
290.364	13.77
290.832	16.07
291.3	13.57
291.767	22.87
292.234	19.47
292.702	14.77
293.169	22.47
293.637	26.27
294.104	23.17
294.571	7.67
295.039	16.27
295.506	16.37
295.973	20.37
296.44	13.37
296.908	17.57
297.375	26.87
297.842	22.97
298.309	16.37
298.776	17.27
299.243	23.07
299.71	10.67
300.177	22.07
300.644	21.27
301.111	24.67
301.578	27.97
302.045	23.57
302.512	28.17
302.979	22.37
303.446	26.37
303.913	25.47
304.379	15.67
304.846	27.17
305.313	25.87
305.78	23.87
306.246	26.67
306.713	30.97
307.18	27.47
307.646	30.27
308.113	30.67
308.579	30.97
309.046	30.67
309.512	24.77
309.979	20.77
310.445	33.47
310.912	34.47
311.378	32.77
311.845	31.97
312.311	29.27
312.777	37.37
313.244	33.57
313.71	42.47
314.176	32.87
314.642	34.67
315.109	38.77
315.575	38.27
316.041	39.77
316.507	33.57
316.973	38.97
317.439	34.57
317.905	42.27
318.371	38.17
318.837	31.77
319.303	40.27
319.769	35.67
320.235	37.97
320.701	34.97
321.167	38.17
321.633	37.07
322.099	43.57
322.564	49.47
323.03	41.97
323.496	38.97
323.962	47.47
324.427	38.47
324.893	40.77
325.359	41.67
325.824	37.67
326.29	32.77
326.755	35.17
327.221	41.07
327.686	48.77
328.152	45.47
328.617	42.77
329.083	49.27
329.548	58.47
330.014	52.07
330.479	39.27
330.944	52.27
331.41	45.17
331.875	50.67
332.34	49.57
332.805	49.97
333.271	49.07
333.736	49.97
334.201	57.37
334.666	50.87
335.131	59.47
335.596	54.17
336.061	52.77
336.526	45.27
336.991	52.77
337.456	58.37
337.921	49.07
338.386	43.37
338.851	47.47
339.316	54.77
339.781	54.37
340.246	59.47
340.711	50.07
341.175	52.37
341.64	43.87
342.105	52.27
342.569	57.87
343.034	67.47
343.499	61.97
343.963	50.47
344.428	71.27
344.893	62.67
345.357	71.07
345.822	57.67
346.286	70.27
346.751	74.97
347.215	61.37
347.679	80.67
348.144	95.77
348.608	90.17
349.073	66.47
349.537	78.77
350.001	77.57
350.465	88.37
350.93	76.07
351.394	82.07
351.858	78.17
352.322	98.07
352.786	85.77
353.25	104.27
353.715	118.17
354.179	105.27
354.643	126.77
355.107	124.17
355.571	108.47
356.035	103.67
356.498	123.27
356.962	128.77
357.426	138.67
357.89	122.97
358.354	95.47
358.818	86.07
359.281	81.47
359.745	87.97
360.209	79.27
360.673	80.87
361.136	77.67
361.6	89.17
362.064	82.27
362.527	90.47
362.991	91.87
363.454	80.77
363.918	72.47
364.381	79.57
364.845	83.37
365.308	88.77
365.772	86.57
366.235	87.77
366.698	83.87
367.162	93.77
367.625	94.47
368.088	89.97
368.552	91.67
369.015	92.27
369.478	91.07
369.941	104.87
370.404	92.97
370.867	110.27
371.331	111.87
371.794	115.27
372.257	119.77
372.72	119.27
373.183	106.77
373.646	109.67
374.109	107.57
374.572	113.27
375.035	113.97
375.497	112.07
375.96	105.57
376.423	114.67
376.886	120.27
377.349	110.37
377.811	102.27
378.274	106.97
378.737	113.07
379.199	113.57
379.662	117.07
380.125	118.17
380.587	127.67
381.05	124.67
381.512	129.27
381.975	140.87
382.437	140.27
382.9	130.97
383.362	136.47
383.825	145.67
384.287	147.07
384.75	147.67
385.212	141.67
385.674	142.07
386.136	135.27
386.599	127.27
387.061	129.97
387.523	130.87
387.985	145.97
388.447	149.07
388.91	145.67
389.372	157.77
389.834	156.57
390.296	155.97
390.758	153.77
391.22	171.57
391.682	211.57
392.144	297.37
392.606	231.17
393.068	172.67
393.529	173.97
393.991	154.57
394.453	150.37
394.915	159.07
395.377	187.37
395.838	217.47
396.3	162.17
396.762	143.17
397.224	135.27
397.685	125.27
398.147	132.07
398.608	133.97
399.07	130.87
399.531	129.37
399.993	144.37
400.454	157.67
400.916	148.47
401.377	142.67
401.839	154.07
402.3	155.77
402.762	164.57
403.223	181.57
403.684	173.87
404.145	161.87
404.607	156.17
405.068	167.17
405.529	178.47
405.99	193.57
406.451	179.07
406.913	176.67
407.374	170.17
407.835	162.47
408.296	170.27
408.757	175.87
409.218	190.17
409.679	178.77
410.14	177.07
410.601	176.57
411.062	179.47
411.522	193.57
411.983	195.77
412.444	176.57
412.905	176.47
413.366	194.47
413.826	202.47
414.287	221.77
414.748	260.67
415.208	251.37
415.669	211.97
416.13	212.27
416.59	201.87
417.051	208.47
417.511	222.47
417.972	241.77
418.432	249.47
418.893	288.67
419.353	251.17
419.814	202.87
420.274	185.37
420.734	186.27
421.195	204.37
421.655	197.27
422.115	199.27
422.576	200.27
423.036	204.77
423.496	208.57
423.956	230.37
424.416	231.37
424.876	266.97
425.336	262.97
425.797	262.07
426.257	260.37
426.717	246.37
427.177	236.67
427.637	223.17
428.097	243.07
428.556	247.07
429.016	276.87
429.476	265.17
429.936	280.27
430.396	281.17
430.856	295.37
431.315	322.67
431.775	355.67
432.235	381.07
432.694	356.67
433.154	365.87
433.614	398.77
434.073	351.87
434.533	293.57
434.993	279.87
435.452	286.87
435.912	297.87
436.371	296.67
436.83	290.97
437.29	272.47
437.749	249.67
438.209	250.67
438.668	275.77
439.127	289.27
439.587	270.47
440.046	252.97
440.505	265.47
440.964	281.27
441.424	330.47
441.883	315.27
442.342	265.47
442.801	232.17
443.26	225.57
443.719	228.37
444.178	220.97
444.637	216.37
445.096	222.17
445.555	229.17
446.014	227.27
446.473	233.17
446.932	234.67
447.391	229.17
447.849	232.77
448.308	222.57
448.767	224.27
449.226	229.57
449.685	237.37
450.143	247.67
450.602	240.77
451.061	234.57
451.519	242.37
451.978	233.17
452.436	237.57
452.895	242.17
453.353	259.37
453.812	253.17
454.27	243.77
454.729	236.37
455.187	244.67
455.646	241.97
456.104	252.97
456.562	265.97
457.021	270.27
457.479	265.17
457.937	282.37
458.395	264.57
458.854	253.07
459.312	259.47
459.77	277.87
460.228	260.57
460.686	242.57
461.144	256.67
461.602	244.87
462.06	244.47
462.518	252.97
462.976	258.07
463.434	270.57
463.892	270.77
464.35	281.57
464.808	293.87
465.266	264.27
465.724	273.17
466.181	276.17
466.639	279.07
467.097	296.17
467.555	305.87
468.012	311.47
468.47	313.37
468.928	332.17
469.385	346.17
469.843	356.67
470.3	355.07
470.758	372.37
471.215	393.47
471.673	418.77
472.13	412.37
472.588	424.97
473.045	380.27
473.503	381.47
473.96	402.97
474.417	415.57
474.875	441.07
475.332	480.07
475.789	464.67
476.246	475.97
476.704	494.27
477.161	516.07
477.618	538.97
478.075	571.17
478.532	628.97
478.989	692.77
479.446	823.27
479.903	788.87
480.36	835.57
480.817	882.17
481.274	979.77
481.731	1091.27
482.188	1187.17
482.645	1324.27
483.102	1434.87
483.558	1579.87
484.015	1624.37
484.472	1607.27
484.929	1560.27
485.385	1494.07
485.842	1474.67
486.299	1391.47
486.755	1330.57
487.212	1121.67
487.668	943.67
488.125	875.27
488.582	797.77
489.038	764.47
489.494	722.37
489.951	699.97
490.407	674.87
490.864	670.17
491.32	648.47
491.776	650.27
492.233	661.07
492.689	624.17
493.145	619.17
493.602	616.07
494.058	627.37
494.514	626.87
494.97	649.27
495.426	658.67
495.882	635.17
496.338	630.17
496.794	645.17
497.251	635.57
497.707	640.07
498.163	647.27
498.618	664.57
499.074	660.77
499.53	690.67
499.986	684.17
500.442	667.47
500.898	644.67
501.354	645.67
501.809	645.67
502.265	658.07
502.721	678.87
503.177	690.67
503.632	681.37
504.088	697.17
504.543	722.17
504.999	724.37
505.455	674.37
505.91	640.47
506.366	640.27
506.821	639.47
507.277	631.77
507.732	632.77
508.187	635.57
508.643	637.17
509.098	633.87
509.553	668.97
510.009	672.17
510.464	684.07
510.919	688.27
511.375	698.97
511.83	719.37
512.285	728.37
512.74	767.57
513.195	801.67
513.65	780.77
514.105	777.07
514.56	790.67
515.015	807.67
515.47	821.77
515.925	802.47
516.38	801.47
516.835	809.67
517.29	801.67
517.745	795.87
518.2	781.37
518.655	770.77
519.109	760.87
519.564	761.37
520.019	738.57
520.474	737.97
520.928	737.37
521.383	732.67
521.838	717.27
522.292	719.17
522.747	719.47
523.201	704.97
523.656	707.77
524.11	699.67
524.565	709.37
525.019	702.97
525.474	709.67
525.928	703.37
526.382	705.67
526.837	714.07
527.291	714.17
527.745	713.27
528.2	711.37
528.654	701.17
529.108	700.87
529.562	704.17
530.016	696.87
530.47	702.17
530.925	701.07
531.379	715.77
531.833	719.57
532.287	717.87
532.741	711.87
533.195	724.37
533.649	723.97
534.103	733.67
534.556	729.07
535.01	728.17
535.464	712.77
535.918	727.27
536.372	732.07
536.826	738.97
537.279	723.37
537.733	727.07
538.187	723.47
538.64	732.07
539.094	735.27
539.548	738.97
540.001	735.27
540.455	731.37
540.908	735.67
541.362	741.07
541.815	756.77
542.269	769.17
542.722	762.97
543.175	762.47
543.629	774.17
544.082	793.77
544.536	797.07
544.989	794.07
545.442	805.67
545.895	799.47
546.349	798.07
546.802	796.57
547.255	808.47
547.708	822.17
548.161	822.17
548.614	832.87
549.067	839.77
549.52	827.57
549.973	827.97
550.426	822.57
550.879	811.87
551.332	809.57
551.785	813.07
552.238	815.27
552.691	824.27
553.144	840.27
553.596	856.47
554.049	879.47
554.502	903.57
554.955	922.57
555.407	932.27
555.86	913.87
556.313	906.97
556.765	886.07
557.218	890.67
557.67	897.97
558.123	886.07
558.576	873.07
559.028	892.67
559.48	886.27
559.933	880.07
560.385	841.77
560.838	817.27
561.29	794.27
561.742	786.47
562.195	775.27
562.647	763.97
563.099	782.57
563.551	768.17
564.004	793.87
564.456	776.37
564.908	777.17
565.36	759.27
565.812	732.87
566.264	726.17
566.716	730.47
567.168	721.67
567.62	728.57
568.072	713.57
568.524	696.27
568.976	701.27
569.428	686.87
569.88	677.27
570.332	687.67
570.784	685.77
571.235	685.77
571.687	692.57
572.139	710.97
572.59	708.47
573.042	711.47
573.494	709.77
573.945	708.77
574.397	687.07
574.849	690.27
575.3	701.57
575.752	685.27
576.203	689.47
576.655	687.77
577.106	670.37
577.557	669.17
578.009	663.77
578.46	664.67
578.912	659.07
579.363	662.97
579.814	672.77
580.265	674.77
580.717	667.17
581.168	668.07
581.619	679.47
582.07	682.67
582.521	675.37
582.972	677.67
583.423	683.47
583.875	678.47
584.326	712.37
584.777	747.07
585.227	818.47
585.678	911.07
586.129	1003.47
586.58	1075.57
587.031	1143.57
587.482	1305.07
587.933	1493.17
588.384	1300.17
588.834	974.97
589.285	804.57
589.736	778.87
590.186	773.77
590.637	760.77
591.088	740.47
591.538	731.77
591.989	733.47
592.439	732.47
592.89	728.37
593.34	704.97
593.791	706.07
594.241	711.77
594.692	706.97
595.142	700.97
595.593	694.37
596.043	705.17
596.493	705.67
596.943	715.67
597.394	718.77
597.844	711.07
598.294	723.97
598.744	751.57
599.195	774.77
599.645	803.27
600.095	853.37
600.545	914.17
600.995	955.97
601.445	1018.77
601.895	1081.77
602.345	1132.27
602.795	1111.87
603.245	1065.87
603.695	1011.87
604.145	952.57
604.594	906.67
605.044	857.27
605.494	799.07
605.944	750.47
606.393	753.47
606.843	726.17
607.293	733.77
607.743	719.97
608.192	742.37
608.642	761.07
609.091	765.47
609.541	765.57
609.99	761.17
610.44	764.87
610.889	715.37
611.339	699.67
611.788	687.17
612.238	695.07
612.687	709.47
613.136	713.37
613.586	734.77
614.035	732.67
614.484	752.07
614.933	756.17
615.383	741.37
615.832	731.37
616.281	718.17
616.73	681.87
617.179	659.47
617.628	651.57
618.077	620.57
618.526	625.77
618.975	615.47
619.424	606.07
619.873	606.87
620.322	609.47
620.771	598.67
621.22	595.17
621.669	589.47
622.118	581.87
622.567	573.27
623.015	565.07
623.464	564.37
623.913	555.07
624.361	553.87
624.81	551.07
625.259	551.37
625.707	552.87
626.156	549.47
626.604	562.17
627.053	554.17
627.501	545.27
627.95	558.07
628.398	575.17
628.847	559.17
629.295	566.07
629.744	571.47
630.192	561.17
630.64	559.67
631.089	561.17
631.537	572.37
631.985	577.47
632.433	597.07
632.881	592.47
633.33	640.87
633.778	628.57
634.226	558.47
634.674	558.07
635.122	563.07
635.57	587.07
636.018	613.37
636.466	574.57
636.914	550.27
637.362	569.67
637.81	564.17
638.258	576.57
638.705	564.97
639.153	597.07
639.601	598.87
640.049	622.67
640.497	662.67
640.944	683.57
641.392	624.77
641.84	607.57
642.287	574.77
642.735	563.17
643.182	563.67
643.63	559.97
644.078	563.77
644.525	583.87
644.973	587.87
645.42	592.77
645.867	611.87
646.315	633.67
646.762	657.17
647.21	684.47
647.657	706.67
648.104	742.67
648.551	756.37
648.999	822.87
649.446	907.27
649.893	985.87
650.34	1136.77
650.787	1373.57
651.234	1695.27
651.682	2212.57
652.129	3017.37
652.576	4351.47
653.023	6431.87
653.47	8838.27
653.917	11069.97
654.363	12856.67
654.81	14238.37
655.257	13537.07
655.704	8898.07
656.151	5259.37
656.598	3391.47
657.044	2406.87
657.491	1848.17
657.938	1475.17
658.385	1223.37
658.831	1059.77
659.278	952.97
659.724	854.17
660.171	779.27
660.618	713.27
661.064	681.07
661.511	657.57
661.957	643.47
662.404	643.47
662.85	642.47
663.296	600.87
663.743	552.07
664.189	530.77
664.635	531.47
665.082	520.37
665.528	520.97
665.974	511.97
666.42	494.47
666.867	503.87
667.313	483.37
667.759	467.07
668.205	464.27
668.651	476.57
669.097	469.47
669.543	488.67
669.989	467.47
670.435	438.97
670.881	437.27
671.327	443.67
671.773	463.37
672.219	477.17
672.665	528.07
673.11	570.47
673.556	612.87
674.002	652.77
674.448	639.17
674.893	532.87
675.339	465.37
675.785	431.97
676.23	406.97
676.676	378.57
677.122	372.77
677.567	364.87
678.013	356.57
678.458	350.27
678.904	350.47
679.349	341.97
679.794	352.97
680.24	343.67
680.685	343.07
681.131	335.07
681.576	343.17
682.021	342.07
682.466	342.37
682.912	331.97
683.357	344.37
683.802	370.37
684.247	390.47
684.692	451.67
685.137	479.97
685.583	521.37
686.028	548.77
686.473	501.37
686.918	429.47
687.363	410.07
687.807	386.67
688.252	347.97
688.697	344.97
689.142	326.07
689.587	321.57
690.032	318.17
690.477	337.77
690.921	344.87
691.366	372.47
691.811	394.17
692.255	412.77
692.7	445.27
693.145	481.97
693.589	672.47
694.034	1079.87
694.478	1479.57
694.923	1691.37
695.367	2221.27
695.812	1165.47
696.256	480.97
696.701	360.87
697.145	329.47
697.59	319.57
698.034	311.27
698.478	321.67
698.922	311.17
699.367	318.57
699.811	327.17
700.255	340.77
700.699	378.77
701.143	409.67
701.588	468.27
702.032	495.87
702.476	494.77
702.92	476.47
703.364	469.37
703.808	606.57
704.252	985.77
704.696	1397.77
705.14	1627.17
705.584	2075.37
706.027	1038.97
706.471	499.47
706.915	379.57
707.359	334.27
707.803	310.97
708.246	301.67
708.69	303.57
709.134	302.77
709.577	295.67
710.021	303.17
710.465	297.97
710.908	295.07
711.352	289.87
711.795	309.17
712.239	342.87
712.682	368.77
713.126	402.27
713.569	452.87
714.012	354.77
714.456	311.77
714.899	289.27
715.342	269.27
715.786	250.27
716.229	248.37
716.672	247.17
717.115	243.07
717.558	243.67
718.002	241.57
718.445	249.97
718.888	277.77
719.331	278.97
719.774	304.27
720.217	293.07
720.66	272.57
721.103	259.17
721.546	242.87
721.989	244.17
722.432	223.37
722.874	232.87
723.317	232.87
723.76	228.87
724.203	245.17
724.645	308.57
725.088	424.97
725.531	554.87
725.974	627.97
726.416	524.77
726.859	301.47
727.301	240.77
727.744	228.67
728.187	230.07
728.629	235.37
729.071	236.07
729.514	256.07
729.956	254.87
730.399	273.87
730.841	278.47
731.283	271.57
731.726	256.67
732.168	255.97
732.61	258.77
733.053	272.77
733.495	307.27
733.937	336.67
734.379	385.47
734.821	421.47
735.263	519.87
735.705	795.47
736.148	1492.27
736.59	2465.07
737.032	2977.47
737.474	2416.67
737.916	781.17
738.357	419.07
738.799	315.67
739.241	284.37
739.683	270.47
740.125	282.87
740.567	277.77
741.008	295.97
741.45	305.47
741.892	309.37
742.334	337.37
742.775	347.27
743.217	333.07
743.658	257.87
744.1	249.47
744.542	244.37
744.983	292.67
745.425	332.37
745.866	336.37
746.307	273.07
746.749	273.07
747.19	312.07
747.632	434.57
748.073	836.37
748.514	1768.07
748.956	2719.97
749.397	3446.67
749.838	2842.77
750.279	2888.97
750.72	1460.07
751.162	527.77
751.603	315.47
752.044	250.27
752.485	206.97
752.926	202.47
753.367	192.97
753.808	185.47
754.249	183.17
754.69	179.27
755.131	180.57
755.572	174.67
756.013	176.37
756.453	172.27
756.894	179.77
757.335	179.57
757.776	185.47
758.216	195.87
758.657	186.77
759.098	196.67
759.538	213.47
759.979	256.87
760.42	348.17
760.86	658.77
761.301	1702.07
761.741	4169.37
762.182	6283.47
762.622	4399.07
763.063	1266.77
763.503	514.77
763.943	340.47
764.384	324.77
764.824	387.47
765.264	429.07
765.705	297.77
766.145	208.07
766.585	179.77
767.025	177.87
767.465	175.07
767.906	228.97
768.346	308.57
768.786	331.47
769.226	248.57
769.666	301.67
770.106	581.77
770.546	1464.07
770.986	2566.77
771.426	2306.87
771.866	762.57
772.306	315.67
772.745	201.77
773.185	165.57
773.625	164.27
774.065	164.67
774.505	185.57
774.944	294.67
775.384	631.57
775.824	1176.37
776.263	1156.87
776.703	489.37
777.142	213.47
777.582	155.57
778.021	133.57
778.461	134.87
778.9	129.27
779.34	125.37
779.779	116.27
780.219	108.37
780.658	106.67
781.097	105.67
781.537	110.07
781.976	107.67
782.415	94.77
782.855	96.37
783.294	102.27
783.733	103.37
784.172	106.47
784.611	101.47
785.05	104.37
785.489	111.67
785.928	117.47
786.367	115.97
786.806	116.97
787.245	127.97
787.684	125.97
788.123	140.07
788.562	128.47
789.001	116.07
789.44	117.67
789.879	112.07
790.317	105.97
790.756	119.47
791.195	111.67
791.634	137.17
792.072	194.07
792.511	342.27
792.95	926.77
793.388	2064.17
793.827	1883.67
794.265	651.07
794.704	268.57
795.142	178.17
795.581	148.07
796.019	128.57
796.458	122.97
796.896	116.97
797.334	128.47
797.773	153.47
798.211	205.17
798.649	404.07
799.087	970.07
799.526	1521.67
799.964	1921.17
800.402	1962.67
800.84	733.07
801.278	286.97
801.716	173.47
802.154	148.67
802.592	142.27
803.03	141.67
803.468	131.77
803.906	133.87
804.344	145.77
804.782	137.37
805.22	129.27
805.658	123.97
806.096	144.87
806.533	148.07
806.971	165.37
807.409	207.77
807.847	295.47
808.284	614.17
808.722	1752.37
809.16	3158.07
809.597	2954.37
810.035	5162.17
810.472	5655.67
810.91	2026.87
811.347	766.67
811.785	384.87
812.222	248.07
812.66	190.07
813.097	156.27
813.535	134.87
813.972	126.07
814.409	116.67
814.846	95.87
815.284	111.07
815.721	94.17
816.158	101.07
816.595	115.67
817.032	171.57
817.47	189.57
817.907	168.07
818.344	148.87
818.781	113.17
819.218	97.87
819.655	122.47
820.092	187.67
820.529	210.27
820.966	173.07
821.403	129.27
821.839	106.07
822.276	98.57
822.713	121.17
823.15	126.97
823.587	117.57
824.023	144.67
824.46	280.87
824.897	843.37
825.333	1316.97
825.77	569.77
826.206	214.57
826.643	127.47
827.08	99.57
827.516	77.67
827.953	71.47
828.389	82.27
828.825	70.97
829.262	71.27
829.698	61.97
830.135	64.37
830.571	63.27
831.007	64.57
831.443	62.77
831.88	59.27
832.316	61.77
832.752	62.97
833.188	57.17
833.624	60.47
834.06	68.67
834.497	63.97
834.933	66.17
835.369	69.77
835.805	61.97
836.241	73.17
836.677	76.17
837.112	85.27
837.548	95.37
837.984	128.17
838.42	193.67
838.856	461.57
839.292	1426.67
839.727	2237.27
840.163	1032.57
840.599	864.07
841.034	1934.47
841.47	2076.07
841.906	747.27
842.341	307.07
842.777	212.97
843.212	298.67
843.648	300.67
844.083	147.87
844.519	91.37
844.954	73.77
845.39	56.97
845.825	54.57
846.261	55.07
846.696	54.97
847.131	52.77
847.566	55.37
848.002	48.57
848.437	50.17
848.872	56.47
849.307	60.17
849.742	77.87
850.177	167.17
850.613	527.97
851.048	842.57
851.483	369.17
851.918	146.47
852.353	77.17
852.788	55.97
853.223	52.57
853.657	52.67
854.092	50.57
854.527	33.97
854.962	40.97
855.397	45.87
855.832	43.37
856.266	40.47
856.701	37.37
857.136	39.17
857.57	34.07
858.005	50.17
858.44	63.27
858.874	39.47
859.309	48.67
859.743	36.77
860.178	45.27
860.612	37.27
861.047	51.37
861.481	64.97
861.915	72.07
862.35	46.77
862.784	38.17
863.218	29.67
863.653	33.47
864.087	43.37
864.521	50.57
864.955	71.67
865.39	155.97
865.824	174.37
866.258	107.87
866.692	152.07
867.126	174.57
867.56	100.47
867.994	49.57
868.428	29.17
868.862	47.07
869.296	44.17
869.73	53.67
870.164	52.07
870.598	46.27
871.031	37.67
871.465	28.97
871.899	28.37
872.333	22.77
872.766	25.57
873.2	20.47
873.634	27.87
874.067	30.17
874.501	27.57
874.935	31.97
875.368	26.07
875.802	22.07
876.235	18.67
876.669	20.87
877.102	23.97
877.535	26.27
877.969	21.17
878.402	26.37
878.836	15.77
879.269	20.47
879.702	22.37
880.135	19.87
880.569	22.37
881.002	26.47
881.435	17.87
881.868	17.57
882.301	22.57
882.734	16.17
883.167	25.17
883.601	13.57
884.034	11.47
884.467	9.27
884.899	17.57
885.332	20.17
885.765	11.77
886.198	14.17
886.631	21.67
887.064	22.07
887.497	24.37
887.929	19.97
888.362	14.87
888.795	16.67
889.228	17.57
889.66	18.57
890.093	20.17
890.526	18.27
890.958	15.27
891.391	17.97
891.823	15.47
892.256	20.07
892.688	11.47
893.121	14.07
893.553	15.87
893.985	20.67
894.418	18.27
894.85	11.07
895.282	15.07
895.715	13.97
896.147	16.27
896.579	10.97
897.011	15.07
897.444	19.57
897.876	7.27
898.308	7.47
898.74	15.97
899.172	11.77
899.604	21.67
900.036	22.67
900.468	10.87
900.9	14.37
901.332	10.77
901.764	13.67
902.196	15.77
902.628	16.37
903.06	15.07
903.491	25.57
903.923	24.27
904.355	19.37
904.787	22.37
905.218	16.17
905.65	21.27
906.082	4.97
906.513	10.57
906.945	12.07
907.376	10.77
907.808	23.87
908.239	25.57
908.671	17.97
909.102	21.67
909.534	20.47
909.965	41.97
910.397	90.47
910.828	297.07
911.259	462.47
911.691	207.47
912.122	106.47
912.553	55.07
912.984	33.27
913.415	24.27
913.847	23.57
914.278	12.77
914.709	14.27
915.14	15.67
915.571	14.37
916.002	14.17
916.433	19.67
916.864	12.27
917.295	8.27
917.726	18.87
918.157	15.47
918.587	23.47
919.018	19.17
919.449	18.67
919.88	21.47
920.311	27.47
920.741	45.67
921.172	167.17
921.603	148.87
922.033	67.07
922.464	48.67
922.895	21.37
923.325	17.67
923.756	18.77
924.186	14.97
924.617	22.47
925.047	37.07
925.478	48.37
925.908	41.17
926.338	25.67
926.769	20.57
927.199	15.27
927.629	9.57
928.06	16.87
928.49	11.47
928.92	12.67
929.35	6.87
929.78	8.27
930.21	6.47
930.641	6.47
931.071	9.97
931.501	7.57
931.931	10.07
932.361	6.77
932.791	6.67
933.221	1.77
933.651	7.37
934.08	19.57
934.51	31.67
934.94	11.17
935.37	11.97
935.8	12.67
936.229	11.77
936.659	8.57
937.089	2.67
937.519	15.87
937.948	26.27
938.378	11.27
938.807	4.57
939.237	8.37
939.666	3.47
940.096	-5.03
940.525	1.47
940.955	-1.93
941.384	6.77
941.814	3.47
942.243	-4.03
942.672	5.77
943.102	-3.33
943.531	0.97
943.96	2.97
944.39	7.37
944.819	2.57
945.248	7.87
945.677	-0.93
946.106	5.17
946.535	3.67
946.964	0.27
947.393	3.97
947.822	3.67
948.251	-7.43
948.68	0.47
949.109	5.97
949.538	4.87
949.967	-1.33
950.396	0.67
950.825	0.57
951.254	4.47
951.682	-10.33
952.111	6.77
952.54	4.07
952.969	-6.73
953.397	-4.53
953.826	7.67
954.254	-10.33
954.683	3.47
955.112	-4.03
955.54	6.87
955.969	0.87
956.397	2.87
956.826	-6.43
957.254	-4.73
957.682	-1.53
958.111	5.47
958.539	-0.73
958.967	4.17
959.396	-1.13
959.824	4.97
960.252	2.67
960.68	1.37
961.109	-1.13
961.537	1.07
961.965	6.27
962.393	-6.03
962.821	-0.33
963.249	5.47
963.677	1.77
964.105	2.47
964.533	43.77
964.961	36.17
965.389	17.77
965.817	1.47
966.245	0.87
966.672	4.67
967.1	-6.03
967.528	3.57
967.956	-4.03
968.383	-0.43
968.811	-3.33
969.239	1.37
969.666	-1.93
970.094	6.17
970.522	1.07
970.949	-0.63
971.377	-0.13
971.804	-0.83
972.232	-4.83
972.659	-5.43
973.087	-2.63
973.514	-5.83
973.941	-3.63
974.369	5.87
974.796	-1.83
975.223	-2.43
975.651	-1.23
976.078	3.47
976.505	-2.13
976.932	3.77
977.359	10.87
977.786	10.47
978.214	-1.13
978.641	0.47
979.068	-5.03
979.495	-4.83
979.922	-1.73
980.349	-7.83
980.776	4.97
981.202	-4.53
981.629	3.87
982.056	-1.73
982.483	-1.83
982.91	4.17
983.337	-4.93
983.763	4.07
984.19	-6.23
984.617	-1.93
985.043	-7.43
985.47	0.47
985.897	-2.63
986.323	-1.73
986.75	-1.33
987.176	-4.13
987.603	-4.13
988.029	-1.63
988.456	-3.73
988.882	2.97
989.308	-3.63
989.735	-6.43
990.161	7.87
990.587	-6.63
991.014	-4.03
991.44	7.47
991.866	3.97
992.292	-6.03
992.719	-0.63
993.145	-2.33
993.571	-9.93
993.997	-2.83
994.423	-1.53
994.849	-7.33
995.275	2.87
995.701	-1.63
996.127	-2.83
996.553	6.87
996.979	-2.93
997.405	-2.93
997.83	-0.13
998.256	-5.03
998.682	-2.83
999.108	-7.23
999.534	1.17
999.959	-4.23
1000.385	-9.73
1000.811	3.17
1001.236	-12.23
1001.662	-4.43
1002.087	-7.43
1002.513	-0.03
1002.938	4.27
1003.364	-0.53
1003.789	-0.33
1004.215	0.77
1004.64	-3.63
1005.066	-0.03
1005.491	-2.53
1005.916	-5.53
1006.342	-2.33
1006.767	-7.83
1007.192	0.67
1007.617	-5.93
1008.042	-2.73
1008.468	-8.03
1008.893	-0.93
1009.318	1.77
1009.743	-6.23
1010.168	2.67
1010.593	0.07
1011.018	-6.23
1011.443	-2.13
1011.868	-2.43
1012.293	-3.33
1012.718	-5.03
1013.143	0.47
1013.567	3.87
1013.992	-9.13
1014.417	-13.93
1014.842	0.87
1015.267	-1.63
1015.691	-6.93
1016.116	4.17
1016.541	-0.73
1016.965	-0.23
1017.39	-2.43
1017.814	-0.23
1018.239	-2.03
1018.663	-6.43
1019.088	-11.13
1019.512	-3.93
1019.937	1.47
1020.361	-5.43
1020.785	-6.43
1021.21	-8.73
1021.634	-2.83
1022.058	-4.93
1022.483	1.87
1022.907	-1.73
1023.331	-9.53
1023.755	-5.93
1024.179	-1.33
1024.604	-1.03
1025.028	-5.13
1025.452	-5.63
1025.876	-3.93
1026.3	1.17
1026.724	-10.03
1027.148	-3.03
1027.572	-7.73
1027.996	-5.23
1028.42	-3.63
1028.843	-1.83
1029.267	-7.63
1029.691	-5.63
1030.115	-3.03
1030.539	-9.13
1030.962	-2.33
1031.386	-7.73
1031.81	-2.83
1032.233	-4.43
1032.657	-4.63
1033.08	-1.53
1033.504	-8.53
1033.927	-3.13
1034.351	-3.23
1034.774	-12.23
1035.198	-1.13
1035.621	-4.53
1036.045	-6.23
1036.468	2.67
1036.891	-5.23
1037.315	-6.03
1037.738	-11.13
1038.161	0.57
1038.584	-2.53
1039.008	-3.33
1039.431	-6.43
1039.854	-4.93
1040.277	-6.83
1040.7	-13.93
1041.123	-5.03
1041.546	-9.63
1041.969	-12.13
1042.392	-3.03
1042.815	-1.23
1043.238	-2.73
1043.661	2.57
1044.084	-6.63
1044.507	-7.43
1044.93	-6.93
1045.352	-3.53
1045.775	-6.23
1046.198	-4.83
1046.621	-3.43
1047.043	2.87
1047.466	4.87
1047.889	2.07
1048.311	-1.43
1048.734	-4.13
1049.156	-6.43
1049.579	-3.63
1050.001	-2.73
1050.424	-1.83
1050.846	-1.93
1051.269	-2.43
1051.691	-6.03
1052.113	-0.13
1052.536	-4.53
1052.958	-4.23
1053.38	-1.83
1053.802	-8.73
1054.225	-0.33
1054.647	-8.43
1055.069	-5.93
1055.491	-5.43
1055.913	-7.73
1056.335	-1.13
1056.757	-2.93
1057.179	-6.13
1057.601	-8.43
1058.023	-4.63
1058.445	-4.73
1058.867	-0.73
1059.289	-0.33
1059.711	-5.33
1060.133	-5.73
1060.555	1.67
1060.976	-6.53
1061.398	-9.73
1061.82	-5.33
1062.241	-8.63
1062.663	-9.23
1063.085	-4.93
1063.506	-0.73
1063.928	-8.83
1064.35	0.17
1064.771	-10.23
1065.193	-2.93
1065.614	-9.13
1066.035	-5.83
1066.457	2.47
1066.878	1.77
1067.3	-1.93
1067.721	-5.03
1068.142	-2.03
1068.564	-3.73
1068.985	-6.23
1069.406	-6.13
1069.827	-9.63
1070.248	2.97
1070.67	-6.13
1071.091	-4.63
1071.512	-2.03
1071.933	-4.23
1072.354	-9.03
1072.775	-6.23
1073.196	-5.43
1073.617	-2.23
1074.038	-7.63
1074.459	-5.93
1074.88	-4.33
1075.3	-0.73
1075.721	-3.13
1076.142	-1.43
1076.563	-2.53
1076.983	-8.73
1077.404	-9.53
1077.825	-7.73
1078.246	-7.93
1078.666	-12.33
1079.087	-8.03
1079.507	1.77
1079.928	2.37
1080.348	-4.43
1080.769	-6.43
1081.189	4.67
1081.61	-5.63
1082.03	0.37
1082.451	-9.53
1082.871	-2.83
1083.291	-6.83
1083.711	-8.73
1084.132	-3.13
1084.552	-5.43
1084.972	-3.43
1085.392	-8.53
1085.813	-7.63
1086.233	-6.43
1086.653	-4.83
1087.073	-1.93
1087.493	-9.73
1087.913	-2.23
1088.333	-6.33
1088.753	2.47
1089.173	-3.33
1089.593	-5.53
1090.013	-0.83
1090.433	0.17
1090.852	-1.63
1091.272	0.07
1091.692	-0.73
1092.112	1.27
1092.531	-9.33
1092.951	-10.53
1093.371	-1.53
1093.79	-0.13
1094.21	-1.93
1094.63	-9.53
1095.049	-7.13
1095.469	-0.23
1095.888	-8.13
1096.308	6.67
1096.727	1.57
1097.146	-6.93
1097.566	-0.23
1097.985	-7.13
1098.405	-0.73
1098.824	-7.43
1099.243	-9.93
1099.662	-11.03
1100.082	-1.73
1100.501	-3.33
1100.92	-0.23
1101.339	-3.53
1101.758	-7.93
