Data from 20171114-ORNL-Ar_H_NY_Subt18_08-05-54-528.txt Node
Date: Tue Nov 14 08:05:54 EST 2017
User: Ender
Spectrometer: HR+D1039
Trigger mode: 0
Integration Time (sec): 2.730000E-2
Scans to average: 10
Electric dark correction enabled: true
Nonlinearity correction enabled: false
Boxcar width: 0
XAxis mode: Wavelengths
Number of Pixels in Spectrum: 2048
>>>>>Begin Spectral Data<<<<<
187.836	-2.87
188.309	-2.87
188.782	-2.87
189.255	-1.47
189.728	-1.57
190.201	8.23
190.674	-1.97
191.147	0.23
191.619	-7.47
192.092	2.43
192.565	7.03
193.038	-0.67
193.511	2.43
193.984	0.93
194.456	-0.37
194.929	-1.77
195.402	-2.37
195.874	-0.77
196.347	4.93
196.82	-7.67
197.292	8.93
197.765	-2.37
198.237	-7.97
198.71	4.73
199.182	3.63
199.655	3.63
200.127	7.23
200.6	-3.27
201.072	-2.97
201.544	-8.37
202.017	1.43
202.489	0.43
202.961	-7.87
203.433	-4.87
203.906	-4.07
204.378	-7.57
204.85	-0.47
205.322	-11.27
205.794	1.83
206.266	-3.97
206.739	-6.17
207.211	-5.37
207.683	-5.57
208.155	-6.17
208.627	-7.67
209.099	-3.67
209.57	-6.97
210.042	0.73
210.514	-1.07
210.986	-0.67
211.458	-0.07
211.93	1.23
212.402	4.13
212.873	-1.27
213.345	-11.07
213.817	-6.47
214.288	-3.47
214.76	-6.87
215.232	-5.37
215.703	-2.07
216.175	-3.27
216.646	-1.47
217.118	-11.07
217.589	-3.67
218.061	-3.37
218.532	-1.07
219.004	4.03
219.475	-2.67
219.946	-3.07
220.418	-0.87
220.889	4.73
221.36	-7.57
221.832	-0.47
222.303	-8.47
222.774	0.63
223.245	-8.47
223.717	-5.17
224.188	-3.67
224.659	-14.57
225.13	-7.57
225.601	2.33
226.072	0.33
226.543	-0.77
227.014	4.23
227.485	0.63
227.956	-5.27
228.427	1.13
228.898	0.73
229.369	5.03
229.839	-4.97
230.31	0.53
230.781	6.03
231.252	-2.67
231.722	0.53
232.193	7.73
232.664	4.93
233.135	-1.97
233.605	0.33
234.076	-9.17
234.546	1.23
235.017	3.03
235.487	0.73
235.958	-2.27
236.428	-1.27
236.899	6.73
237.369	4.73
237.84	0.13
238.31	9.03
238.78	8.73
239.251	2.23
239.721	1.73
240.191	3.43
240.662	-2.37
241.132	3.03
241.602	-1.97
242.072	6.53
242.542	12.33
243.013	7.33
243.483	2.53
243.953	5.83
244.423	5.33
244.893	1.03
245.363	5.83
245.833	6.63
246.303	-1.97
246.773	5.03
247.243	0.73
247.712	4.53
248.182	12.73
248.652	5.13
249.122	1.03
249.592	10.33
250.061	25.23
250.531	35.33
251.001	16.73
251.471	22.13
251.94	21.03
252.41	4.13
252.879	4.23
253.349	12.83
253.818	8.43
254.288	1.03
254.757	6.33
255.227	1.03
255.696	9.13
256.166	8.23
256.635	6.83
257.105	10.93
257.574	14.23
258.043	11.13
258.513	12.83
258.982	16.23
259.451	8.83
259.92	9.13
260.389	12.43
260.859	21.33
261.328	15.73
261.797	19.53
262.266	11.63
262.735	18.33
263.204	7.53
263.673	-1.67
264.142	3.93
264.611	-4.37
265.08	9.73
265.549	3.03
266.018	8.93
266.487	5.13
266.955	3.53
267.424	4.83
267.893	8.03
268.362	7.73
268.83	2.83
269.299	8.53
269.768	7.63
270.236	11.93
270.705	9.13
271.174	9.43
271.642	13.73
272.111	10.93
272.579	15.93
273.048	22.13
273.516	30.03
273.985	28.93
274.453	27.93
274.922	23.33
275.39	15.63
275.858	10.03
276.327	12.93
276.795	21.33
277.263	12.63
277.731	36.23
278.2	57.23
278.668	58.73
279.136	51.63
279.604	24.33
280.072	18.93
280.54	9.23
281.008	14.93
281.477	14.13
281.945	12.03
282.413	14.43
282.881	21.03
283.348	11.23
283.816	21.13
284.284	18.63
284.752	26.73
285.22	16.13
285.688	19.53
286.156	24.03
286.623	48.43
287.091	52.83
287.559	31.83
288.026	22.33
288.494	16.43
288.962	1.83
289.429	5.03
289.897	18.83
290.364	15.73
290.832	18.93
291.3	18.23
291.767	19.43
292.234	24.03
292.702	16.23
293.169	18.43
293.637	22.03
294.104	22.53
294.571	15.33
295.039	14.13
295.506	19.43
295.973	20.03
296.44	20.03
296.908	22.23
297.375	17.13
297.842	23.13
298.309	20.73
298.776	14.83
299.243	23.23
299.71	19.03
300.177	20.83
300.644	22.83
301.111	22.83
301.578	28.53
302.045	25.53
302.512	26.13
302.979	30.63
303.446	26.23
303.913	22.83
304.379	21.03
304.846	25.73
305.313	26.23
305.78	26.53
306.246	28.03
306.713	30.93
307.18	29.33
307.646	33.53
308.113	29.83
308.579	26.23
309.046	30.33
309.512	28.83
309.979	23.43
310.445	31.23
310.912	36.83
311.378	38.93
311.845	29.83
312.311	38.13
312.777	33.73
313.244	30.63
313.71	38.63
314.176	31.93
314.642	31.13
315.109	39.33
315.575	41.23
316.041	39.63
316.507	40.13
316.973	43.63
317.439	34.33
317.905	39.03
318.371	34.33
318.837	33.93
319.303	39.43
319.769	38.43
320.235	38.03
320.701	48.83
321.167	36.83
321.633	33.43
322.099	41.03
322.564	51.43
323.03	43.03
323.496	44.73
323.962	38.83
324.427	34.23
324.893	51.43
325.359	36.73
325.824	38.03
326.29	41.53
326.755	45.33
327.221	50.53
327.686	44.33
328.152	48.33
328.617	47.53
329.083	52.33
329.548	55.63
330.014	50.73
330.479	45.43
330.944	50.13
331.41	46.63
331.875	49.03
332.34	42.73
332.805	45.63
333.271	49.03
333.736	50.83
334.201	61.03
334.666	54.93
335.131	62.23
335.596	57.33
336.061	47.03
336.526	45.73
336.991	45.73
337.456	59.73
337.921	49.83
338.386	50.53
338.851	44.73
339.316	58.23
339.781	49.83
340.246	62.13
340.711	50.93
341.175	48.93
341.64	51.83
342.105	57.53
342.569	51.33
343.034	59.93
343.499	63.33
343.963	53.73
344.428	64.03
344.893	62.63
345.357	63.73
345.822	64.23
346.286	67.63
346.751	78.63
347.215	73.03
347.679	74.93
348.144	97.33
348.608	77.23
349.073	76.43
349.537	77.03
350.001	80.83
350.465	91.03
350.93	84.43
351.394	88.13
351.858	73.23
352.322	89.43
352.786	95.13
353.25	106.43
353.715	120.53
354.179	107.83
354.643	126.63
355.107	126.73
355.571	104.43
356.035	109.43
356.498	125.93
356.962	133.53
357.426	137.13
357.89	121.83
358.354	93.93
358.818	84.33
359.281	81.03
359.745	84.43
360.209	81.73
360.673	81.33
361.136	81.03
361.6	82.33
362.064	89.23
362.527	83.93
362.991	92.33
363.454	81.83
363.918	79.33
364.381	84.03
364.845	88.03
365.308	95.23
365.772	91.83
366.235	92.63
366.698	87.93
367.162	90.63
367.625	89.63
368.088	89.13
368.552	87.83
369.015	93.33
369.478	99.13
369.941	96.23
370.404	97.83
370.867	111.13
371.331	109.23
371.794	116.13
372.257	117.33
372.72	120.63
373.183	115.73
373.646	107.03
374.109	101.63
374.572	111.33
375.035	109.93
375.497	112.53
375.96	105.33
376.423	109.33
376.886	119.03
377.349	111.33
377.811	102.23
378.274	103.23
378.737	110.33
379.199	114.93
379.662	116.93
380.125	122.73
380.587	115.13
381.05	121.23
381.512	126.43
381.975	133.03
382.437	130.73
382.9	130.03
383.362	132.53
383.825	146.33
384.287	148.03
384.75	141.93
385.212	140.63
385.674	142.93
386.136	132.93
386.599	130.53
387.061	129.33
387.523	131.13
387.985	133.13
388.447	144.63
388.91	145.73
389.372	157.93
389.834	154.13
390.296	147.73
390.758	153.03
391.22	171.23
391.682	214.33
392.144	303.33
392.606	228.93
393.068	172.33
393.529	173.63
393.991	157.93
394.453	152.83
394.915	162.23
395.377	188.73
395.838	207.13
396.3	151.33
396.762	149.33
397.224	130.63
397.685	134.43
398.147	130.13
398.608	132.93
399.07	129.83
399.531	138.13
399.993	147.93
400.454	153.23
400.916	143.63
401.377	149.53
401.839	158.63
402.3	154.13
402.762	168.33
403.223	181.83
403.684	170.83
404.145	163.53
404.607	168.13
405.068	170.73
405.529	177.33
405.99	193.33
406.451	174.33
406.913	176.43
407.374	166.53
407.835	168.03
408.296	173.33
408.757	173.83
409.218	193.23
409.679	183.23
410.14	177.33
410.601	181.63
411.062	187.83
411.522	189.13
411.983	193.83
412.444	176.03
412.905	186.13
413.366	185.73
413.826	196.93
414.287	218.43
414.748	257.83
415.208	252.73
415.669	212.83
416.13	209.53
416.59	208.63
417.051	220.93
417.511	224.43
417.972	237.83
418.432	246.43
418.893	290.53
419.353	257.33
419.814	195.83
420.274	184.83
420.734	181.43
421.195	203.23
421.655	195.33
422.115	200.23
422.576	195.43
423.036	199.13
423.496	210.53
423.956	222.13
424.416	243.93
424.876	270.83
425.336	262.03
425.797	273.03
426.257	262.73
426.717	239.73
427.177	236.13
427.637	225.83
428.097	236.43
428.556	250.43
429.016	276.73
429.476	266.13
429.936	271.23
430.396	282.53
430.856	297.83
431.315	321.83
431.775	352.43
432.235	385.13
432.694	357.23
433.154	375.93
433.614	399.73
434.073	341.33
434.533	290.63
434.993	278.23
435.452	284.73
435.912	302.93
436.371	297.13
436.83	291.63
437.29	276.03
437.749	261.33
438.209	255.33
438.668	279.93
439.127	301.53
439.587	270.33
440.046	251.63
440.505	264.73
440.964	284.83
441.424	327.73
441.883	312.73
442.342	257.23
442.801	229.33
443.26	226.33
443.719	224.53
444.178	212.93
444.637	208.03
445.096	217.63
445.555	229.43
446.014	227.73
446.473	222.33
446.932	239.33
447.391	227.73
447.849	231.33
448.308	220.83
448.767	229.13
449.226	240.13
449.685	240.73
450.143	251.33
450.602	237.93
451.061	226.13
451.519	236.23
451.978	242.03
452.436	236.53
452.895	242.73
453.353	259.13
453.812	243.93
454.27	241.33
454.729	237.63
455.187	249.53
455.646	251.43
456.104	250.83
456.562	262.53
457.021	266.13
457.479	259.83
457.937	275.83
458.395	261.53
458.854	251.33
459.312	259.93
459.77	279.13
460.228	267.63
460.686	253.63
461.144	252.13
461.602	251.43
462.06	247.53
462.518	256.73
462.976	263.73
463.434	263.53
463.892	270.43
464.35	288.73
464.808	291.73
465.266	261.83
465.724	268.33
466.181	274.63
466.639	275.83
467.097	295.43
467.555	311.23
468.012	303.23
468.47	312.83
468.928	341.23
469.385	348.43
469.843	349.63
470.3	357.43
470.758	372.03
471.215	394.03
471.673	410.83
472.13	410.43
472.588	429.13
473.045	374.13
473.503	394.03
473.96	404.53
474.417	411.93
474.875	446.03
475.332	477.23
475.789	468.53
476.246	476.63
476.704	500.03
477.161	513.93
477.618	532.53
478.075	572.03
478.532	629.23
478.989	708.23
479.446	824.83
479.903	786.53
480.36	827.73
480.817	888.03
481.274	982.73
481.731	1090.03
482.188	1185.43
482.645	1335.33
483.102	1418.03
483.558	1566.23
484.015	1632.33
484.472	1599.93
484.929	1548.23
485.385	1510.93
485.842	1458.43
486.299	1401.33
486.755	1335.13
487.212	1118.33
487.668	936.53
488.125	864.73
488.582	787.73
489.038	756.13
489.494	730.93
489.951	692.93
490.407	679.53
490.864	660.23
491.32	658.03
491.776	649.33
492.233	649.73
492.689	625.13
493.145	615.43
493.602	607.93
494.058	619.53
494.514	628.43
494.97	641.63
495.426	664.03
495.882	636.03
496.338	626.33
496.794	626.53
497.251	621.13
497.707	637.73
498.163	648.03
498.618	653.33
499.074	659.63
499.53	696.93
499.986	687.53
500.442	657.73
500.898	644.13
501.354	639.43
501.809	647.73
502.265	651.43
502.721	663.93
503.177	681.93
503.632	670.63
504.088	686.43
504.543	726.33
504.999	713.93
505.455	669.33
505.91	645.73
506.366	646.53
506.821	635.03
507.277	637.63
507.732	628.73
508.187	629.73
508.643	634.83
509.098	646.73
509.553	658.93
510.009	671.73
510.464	680.73
510.919	688.93
511.375	707.73
511.83	717.13
512.285	731.63
512.74	778.83
513.195	799.13
513.65	785.83
514.105	784.33
514.56	775.03
515.015	804.33
515.47	804.43
515.925	805.43
516.38	803.43
516.835	801.13
517.29	801.53
517.745	797.73
518.2	771.33
518.655	753.73
519.109	748.23
519.564	749.43
520.019	743.23
520.474	728.93
520.928	739.73
521.383	723.73
521.838	715.23
522.292	720.23
522.747	718.03
523.201	711.73
523.656	704.23
524.11	694.93
524.565	705.23
525.019	701.43
525.474	706.43
525.928	703.63
526.382	698.33
526.837	706.63
527.291	708.53
527.745	703.33
528.2	708.83
528.654	696.23
529.108	701.33
529.562	699.03
530.016	700.53
530.47	707.13
530.925	703.83
531.379	708.83
531.833	713.73
532.287	707.93
532.741	707.43
533.195	713.13
533.649	721.43
534.103	729.63
534.556	727.53
535.01	719.33
535.464	725.13
535.918	724.03
536.372	725.63
536.826	731.33
537.279	721.73
537.733	719.63
538.187	722.23
538.64	725.43
539.094	727.93
539.548	737.43
540.001	735.03
540.455	726.03
540.908	737.33
541.362	740.53
541.815	752.63
542.269	758.13
542.722	771.13
543.175	775.83
543.629	767.03
544.082	803.23
544.536	797.93
544.989	788.53
545.442	797.53
545.895	800.93
546.349	798.73
546.802	802.73
547.255	798.63
547.708	813.23
548.161	821.73
548.614	827.33
549.067	829.63
549.52	819.73
549.973	822.33
550.426	817.23
550.879	798.83
551.332	805.83
551.785	816.13
552.238	820.33
552.691	822.13
553.144	833.53
553.596	853.43
554.049	876.33
554.502	898.53
554.955	931.13
555.407	913.83
555.86	911.73
556.313	899.73
556.765	899.23
557.218	885.33
557.67	883.53
558.123	886.43
558.576	878.93
559.028	889.73
559.48	887.83
559.933	878.63
560.385	841.13
560.838	816.53
561.29	789.93
561.742	785.63
562.195	769.73
562.647	764.13
563.099	786.73
563.551	776.83
564.004	779.73
564.456	782.43
564.908	763.63
565.36	757.53
565.812	747.23
566.264	725.33
566.716	725.93
567.168	715.43
567.62	725.53
568.072	714.43
568.524	697.63
568.976	701.53
569.428	676.93
569.88	681.23
570.332	690.93
570.784	685.73
571.235	686.13
571.687	686.03
572.139	714.83
572.59	709.03
573.042	712.13
573.494	721.83
573.945	703.83
574.397	688.93
574.849	690.73
575.3	690.33
575.752	687.93
576.203	683.93
576.655	688.43
577.106	666.83
577.557	668.43
578.009	674.13
578.46	670.23
578.912	668.53
579.363	670.23
579.814	665.73
580.265	667.63
580.717	671.03
581.168	675.63
581.619	680.93
582.07	677.23
582.521	671.93
582.972	673.33
583.423	670.73
583.875	688.13
584.326	704.33
584.777	743.73
585.227	813.23
585.678	898.73
586.129	987.63
586.58	1062.83
587.031	1156.73
587.482	1306.33
587.933	1487.33
588.384	1284.03
588.834	973.63
589.285	810.73
589.736	786.93
590.186	777.33
590.637	765.03
591.088	748.53
591.538	734.23
591.989	736.33
592.439	722.13
592.89	716.73
593.34	710.13
593.791	705.43
594.241	702.83
594.692	715.33
595.142	705.83
595.593	695.13
596.043	699.03
596.493	708.83
596.943	715.73
597.394	719.73
597.844	720.83
598.294	718.43
598.744	741.13
599.195	770.93
599.645	815.13
600.095	852.93
600.545	914.03
600.995	969.03
601.445	1023.13
601.895	1067.93
602.345	1132.03
602.795	1104.23
603.245	1062.53
603.695	1002.23
604.145	946.33
604.594	900.83
605.044	858.43
605.494	793.83
605.944	755.83
606.393	742.83
606.843	717.53
607.293	731.43
607.743	727.63
608.192	743.83
608.642	753.63
609.091	762.93
609.541	759.23
609.99	761.23
610.44	764.13
610.889	721.93
611.339	690.53
611.788	684.23
612.238	687.53
612.687	711.23
613.136	710.73
613.586	740.53
614.035	738.23
614.484	747.93
614.933	751.53
615.383	741.63
615.832	722.03
616.281	719.83
616.73	694.13
617.179	666.53
617.628	645.63
618.077	630.63
618.526	616.53
618.975	615.43
619.424	615.23
619.873	606.13
620.322	608.63
620.771	601.53
621.22	590.73
621.669	600.43
622.118	592.13
622.567	573.33
623.015	560.53
623.464	561.13
623.913	551.13
624.361	551.63
624.81	543.83
625.259	553.23
625.707	545.93
626.156	547.33
626.604	559.23
627.053	556.93
627.501	548.63
627.95	570.63
628.398	569.93
628.847	563.33
629.295	559.43
629.744	571.23
630.192	565.03
630.64	561.33
631.089	551.23
631.537	569.23
631.985	575.83
632.433	581.53
632.881	597.63
633.33	653.33
633.778	625.43
634.226	564.23
634.674	568.83
635.122	570.33
635.57	588.73
636.018	602.03
636.466	573.93
636.914	557.53
637.362	561.93
637.81	567.73
638.258	569.23
638.705	574.53
639.153	605.53
639.601	613.23
640.049	625.23
640.497	663.23
640.944	691.63
641.392	632.33
641.84	613.73
642.287	574.13
642.735	566.03
643.182	579.53
643.63	562.03
644.078	570.53
644.525	588.53
644.973	591.93
645.42	595.43
645.867	611.03
646.315	628.93
646.762	643.03
647.21	678.73
647.657	706.13
648.104	744.73
648.551	764.33
648.999	823.83
649.446	912.53
649.893	989.23
650.34	1147.03
650.787	1381.53
651.234	1705.83
651.682	2225.53
652.129	3045.73
652.576	4387.73
653.023	6485.03
653.47	8884.73
653.917	11112.63
654.363	12920.23
654.81	14290.83
655.257	13620.23
655.704	8936.23
656.151	5252.93
656.598	3405.03
657.044	2405.63
657.491	1835.23
657.938	1475.83
658.385	1224.73
658.831	1079.73
659.278	955.03
659.724	850.83
660.171	768.13
660.618	717.23
661.064	676.93
661.511	659.23
661.957	647.33
662.404	628.63
662.85	637.83
663.296	611.83
663.743	556.53
664.189	524.83
664.635	527.53
665.082	518.43
665.528	515.33
665.974	508.23
666.42	510.33
666.867	501.23
667.313	485.93
667.759	474.43
668.205	470.03
668.651	478.83
669.097	478.03
669.543	493.23
669.989	467.93
670.435	444.03
670.881	435.23
671.327	442.33
671.773	457.93
672.219	477.83
672.665	533.83
673.11	567.73
673.556	607.23
674.002	646.83
674.448	635.63
674.893	548.63
675.339	472.33
675.785	440.53
676.23	414.73
676.676	382.53
677.122	364.23
677.567	365.93
678.013	360.03
678.458	354.83
678.904	352.13
679.349	342.83
679.794	344.53
680.24	346.63
680.685	341.83
681.131	340.73
681.576	344.23
682.021	356.93
682.466	335.63
682.912	348.33
683.357	336.43
683.802	372.43
684.247	396.33
684.692	442.93
685.137	479.63
685.583	518.33
686.028	557.93
686.473	504.13
686.918	426.43
687.363	406.03
687.807	385.33
688.252	351.93
688.697	337.43
689.142	335.93
689.587	328.23
690.032	319.73
690.477	328.33
690.921	341.23
691.366	375.13
691.811	392.73
692.255	423.73
692.7	455.43
693.145	488.13
693.589	667.63
694.034	1095.63
694.478	1489.73
694.923	1700.43
695.367	2213.23
695.812	1166.33
696.256	490.53
696.701	365.03
697.145	337.63
697.59	321.03
698.034	317.23
698.478	320.43
698.922	312.83
699.367	312.53
699.811	338.23
700.255	345.93
700.699	376.53
701.143	411.83
701.588	466.93
702.032	504.53
702.476	496.83
702.92	473.83
703.364	471.73
703.808	606.33
704.252	997.93
704.696	1404.93
705.14	1629.33
705.584	2076.23
706.027	1039.73
706.471	518.63
706.915	385.83
707.359	337.33
707.803	313.73
708.246	305.03
708.69	301.83
709.134	302.73
709.577	301.43
710.021	312.23
710.465	296.83
710.908	286.73
711.352	291.23
711.795	302.53
712.239	343.63
712.682	370.63
713.126	404.33
713.569	450.73
714.012	361.83
714.456	318.23
714.899	294.03
715.342	269.33
715.786	255.53
716.229	249.63
716.672	251.23
717.115	234.23
717.558	253.13
718.002	242.83
718.445	251.23
718.888	282.83
719.331	281.03
719.774	309.43
720.217	298.83
720.66	270.23
721.103	257.13
721.546	243.23
721.989	242.13
722.432	220.33
722.874	234.13
723.317	219.23
723.76	232.33
724.203	252.13
724.645	310.03
725.088	426.53
725.531	556.73
725.974	637.03
726.416	535.63
726.859	301.33
727.301	245.73
727.744	228.03
728.187	231.63
728.629	238.53
729.071	241.33
729.514	248.43
729.956	260.63
730.399	274.73
730.841	274.93
731.283	265.93
731.726	257.23
732.168	254.53
732.61	254.83
733.053	279.63
733.495	305.73
733.937	338.53
734.379	385.43
734.821	419.43
735.263	511.13
735.705	796.23
736.148	1495.73
736.59	2471.03
737.032	2950.93
737.474	2419.53
737.916	792.13
738.357	410.53
738.799	313.33
739.241	289.73
739.683	274.73
740.125	281.53
740.567	289.73
741.008	301.43
741.45	312.53
741.892	309.73
742.334	335.03
742.775	345.93
743.217	330.73
743.658	268.83
744.1	243.53
744.542	253.63
744.983	306.53
745.425	330.03
745.866	329.73
746.307	275.33
746.749	277.03
747.19	308.13
747.632	438.23
748.073	828.53
748.514	1762.83
748.956	2741.83
749.397	3462.83
749.838	2862.73
750.279	2878.43
750.72	1454.13
751.162	520.23
751.603	305.53
752.044	247.03
752.485	210.43
752.926	204.63
753.367	198.43
753.808	191.93
754.249	183.73
754.69	180.63
755.131	180.83
755.572	174.03
756.013	179.13
756.453	173.43
756.894	187.43
757.335	191.53
757.776	190.83
758.216	191.83
758.657	188.53
759.098	197.23
759.538	214.93
759.979	258.83
760.42	353.73
760.86	664.93
761.301	1726.53
761.741	4204.13
762.182	6220.43
762.622	4401.73
763.063	1271.83
763.503	521.53
763.943	340.13
764.384	318.83
764.824	390.13
765.264	419.73
765.705	299.03
766.145	205.83
766.585	186.23
767.025	171.13
767.465	181.33
767.906	225.43
768.346	307.73
768.786	327.63
769.226	255.13
769.666	305.63
770.106	591.73
770.546	1477.73
770.986	2539.13
771.426	2308.13
771.866	762.93
772.306	317.33
772.745	203.13
773.185	172.23
773.625	166.33
774.065	166.83
774.505	192.73
774.944	295.23
775.384	644.13
775.824	1191.73
776.263	1167.13
776.703	490.23
777.142	216.63
777.582	155.63
778.021	131.33
778.461	138.23
778.9	131.83
779.34	128.83
779.779	115.63
780.219	111.13
780.658	110.33
781.097	105.53
781.537	110.73
781.976	108.43
782.415	105.13
782.855	103.63
783.294	98.93
783.733	103.93
784.172	105.83
784.611	102.13
785.05	102.23
785.489	111.63
785.928	113.23
786.367	121.93
786.806	110.73
787.245	129.53
787.684	137.93
788.123	142.73
788.562	133.53
789.001	130.33
789.44	116.43
789.879	115.53
790.317	112.73
790.756	125.33
791.195	121.03
791.634	140.73
792.072	194.63
792.511	352.93
792.95	947.43
793.388	2058.53
793.827	1885.53
794.265	656.93
794.704	274.23
795.142	175.63
795.581	147.03
796.019	138.93
796.458	131.33
796.896	120.13
797.334	122.03
797.773	154.73
798.211	205.43
798.649	419.43
799.087	966.33
799.526	1529.83
799.964	1916.63
800.402	1941.03
800.84	730.03
801.278	290.13
801.716	180.83
802.154	140.63
802.592	143.93
803.03	135.93
803.468	129.03
803.906	144.93
804.344	142.83
804.782	140.93
805.22	136.93
805.658	126.83
806.096	143.73
806.533	149.13
806.971	166.73
807.409	207.23
807.847	293.03
808.284	619.83
808.722	1771.43
809.16	3178.63
809.597	2980.63
810.035	5185.43
810.472	5627.13
810.91	2024.63
811.347	763.83
811.785	382.63
812.222	250.83
812.66	196.93
813.097	159.53
813.535	136.23
813.972	124.33
814.409	122.03
814.846	110.63
815.284	108.13
815.721	98.23
816.158	100.73
816.595	118.83
817.032	175.03
817.47	192.93
817.907	168.93
818.344	138.73
818.781	115.23
819.218	102.33
819.655	113.63
820.092	182.73
820.529	201.23
820.966	170.63
821.403	136.43
821.839	102.93
822.276	106.53
822.713	122.53
823.15	132.43
823.587	110.43
824.023	145.43
824.46	281.43
824.897	860.43
825.333	1308.93
825.77	565.13
826.206	221.03
826.643	135.63
827.08	101.03
827.516	83.73
827.953	74.93
828.389	72.03
828.825	69.03
829.262	67.83
829.698	65.33
830.135	65.83
830.571	61.23
831.007	60.83
831.443	62.73
831.88	67.23
832.316	66.03
832.752	63.73
833.188	63.13
833.624	59.23
834.06	63.73
834.497	70.63
834.933	70.93
835.369	81.93
835.805	70.73
836.241	76.03
836.677	71.63
837.112	93.23
837.548	103.33
837.984	128.63
838.42	195.03
838.856	468.93
839.292	1437.33
839.727	2221.53
840.163	1036.73
840.599	875.63
841.034	1937.23
841.47	2061.43
841.906	752.53
842.341	314.23
842.777	220.93
843.212	305.73
843.648	309.63
844.083	152.03
844.519	92.93
844.954	74.43
845.39	57.03
845.825	57.33
846.261	57.73
846.696	60.03
847.131	55.93
847.566	53.93
848.002	51.93
848.437	56.33
848.872	58.83
849.307	61.73
849.742	84.03
850.177	171.63
850.613	528.83
851.048	851.93
851.483	370.43
851.918	144.53
852.353	84.53
852.788	61.43
853.223	55.53
853.657	57.23
854.092	46.13
854.527	44.73
854.962	36.73
855.397	47.53
855.832	48.73
856.266	40.03
856.701	39.63
857.136	39.53
857.57	40.53
858.005	49.03
858.44	55.83
858.874	47.23
859.309	51.23
859.743	40.23
860.178	47.13
860.612	38.23
861.047	51.73
861.481	69.83
861.915	72.03
862.35	49.23
862.784	30.43
863.218	35.13
863.653	33.93
864.087	46.13
864.521	57.03
864.955	68.63
865.39	143.33
865.824	164.93
866.258	113.13
866.692	154.03
867.126	174.43
867.56	104.33
867.994	50.73
868.428	39.53
868.862	47.13
869.296	58.43
869.73	59.43
870.164	49.33
870.598	44.53
871.031	43.13
871.465	34.83
871.899	28.43
872.333	24.63
872.766	27.13
873.2	29.53
873.634	32.23
874.067	21.73
874.501	26.33
874.935	36.93
875.368	30.73
875.802	25.83
876.235	24.93
876.669	26.03
877.102	27.93
877.535	27.63
877.969	27.13
878.402	28.13
878.836	15.93
879.269	27.83
879.702	25.53
880.135	23.23
880.569	28.13
881.002	26.63
881.435	22.13
881.868	25.43
882.301	24.33
882.734	15.33
883.167	20.73
883.601	21.63
884.034	23.93
884.467	15.23
884.899	27.93
885.332	16.83
885.765	17.03
886.198	14.43
886.631	17.63
887.064	19.03
887.497	24.93
887.929	27.73
888.362	11.63
888.795	19.43
889.228	20.93
889.66	18.03
890.093	19.33
890.526	21.83
890.958	18.53
891.391	20.63
891.823	22.33
892.256	15.93
892.688	11.93
893.121	17.33
893.553	16.23
893.985	21.63
894.418	18.23
894.85	11.13
895.282	19.53
895.715	15.93
896.147	14.63
896.579	18.43
897.011	11.73
897.444	15.03
897.876	11.93
898.308	21.63
898.74	12.03
899.172	11.93
899.604	25.63
900.036	21.73
900.468	16.23
900.9	10.73
901.332	20.73
901.764	13.73
902.196	16.03
902.628	16.63
903.06	13.73
903.491	28.93
903.923	17.93
904.355	21.73
904.787	28.53
905.218	24.83
905.65	20.33
906.082	12.13
906.513	11.23
906.945	17.23
907.376	10.63
907.808	18.13
908.239	25.73
908.671	14.03
909.102	23.33
909.534	27.43
909.965	48.83
910.397	86.13
910.828	308.13
911.259	463.83
911.691	209.13
912.122	102.33
912.553	52.73
912.984	37.03
913.415	30.13
913.847	23.03
914.278	19.13
914.709	12.03
915.14	23.93
915.571	16.13
916.002	14.73
916.433	17.33
916.864	20.03
917.295	14.33
917.726	24.23
918.157	18.83
918.587	27.03
919.018	23.53
919.449	22.43
919.88	24.53
920.311	33.13
920.741	41.53
921.172	160.63
921.603	150.63
922.033	66.73
922.464	39.73
922.895	25.83
923.325	21.83
923.756	22.43
924.186	15.53
924.617	26.73
925.047	40.63
925.478	51.73
925.908	41.73
926.338	24.33
926.769	20.53
927.199	16.93
927.629	9.43
928.06	17.93
928.49	14.73
928.92	18.13
929.35	18.63
929.78	12.43
930.21	4.33
930.641	8.73
931.071	11.33
931.501	3.43
931.931	5.23
932.361	11.13
932.791	2.53
933.221	7.53
933.651	5.53
934.08	20.63
934.51	31.53
934.94	15.03
935.37	11.53
935.8	9.83
936.229	10.03
936.659	11.73
937.089	6.23
937.519	17.73
937.948	24.43
938.378	14.03
938.807	3.23
939.237	5.23
939.666	10.23
940.096	0.53
940.525	1.03
940.955	5.33
941.384	3.53
941.814	-3.97
942.243	3.93
942.672	-0.47
943.102	-5.27
943.531	-1.17
943.96	0.93
944.39	3.93
944.819	3.33
945.248	7.53
945.677	8.13
946.106	6.43
946.535	6.23
946.964	-7.57
947.393	4.43
947.822	5.73
948.251	-4.67
948.68	7.03
949.109	7.03
949.538	8.93
949.967	4.23
950.396	0.83
950.825	3.03
951.254	4.23
951.682	-3.17
952.111	9.13
952.54	6.83
952.969	-0.07
953.397	-2.87
953.826	3.23
954.254	-2.77
954.683	0.03
955.112	-5.97
955.54	0.23
955.969	3.43
956.397	-1.67
956.826	4.33
957.254	4.73
957.682	0.03
958.111	9.73
958.539	-3.47
958.967	8.13
959.396	-2.37
959.824	8.93
960.252	2.43
960.68	0.53
961.109	-5.17
961.537	-1.37
961.965	1.83
962.393	3.13
962.821	0.63
963.249	-0.57
963.677	2.03
964.105	-0.57
964.533	40.63
964.961	40.63
965.389	16.73
965.817	11.33
966.245	7.03
966.672	-0.07
967.1	-5.37
967.528	4.53
967.956	0.63
968.383	0.03
968.811	-3.87
969.239	3.83
969.666	-4.57
970.094	-0.27
970.522	-0.17
970.949	0.83
971.377	-7.67
971.804	-6.07
972.232	1.73
972.659	3.63
973.087	0.33
973.514	4.63
973.941	-7.07
974.369	9.83
974.796	3.03
975.223	-0.07
975.651	-2.97
976.078	3.83
976.505	8.93
976.932	9.63
977.359	18.43
977.786	17.93
978.214	-0.07
978.641	0.53
979.068	-1.77
979.495	-5.77
979.922	4.73
980.349	-1.37
980.776	7.13
981.202	9.83
981.629	6.93
982.056	4.63
982.483	-6.77
982.91	1.73
983.337	-2.47
983.763	5.13
984.19	-4.27
984.617	0.43
985.043	-5.97
985.47	0.93
985.897	-0.47
986.323	-4.87
986.75	2.83
987.176	0.13
987.603	4.83
988.029	1.03
988.456	-1.77
988.882	6.73
989.308	-4.57
989.735	-8.07
990.161	1.03
990.587	-0.87
991.014	-1.67
991.44	10.03
991.866	2.03
992.292	-6.77
992.719	-5.27
993.145	3.93
993.571	-8.47
993.997	-4.57
994.423	-3.87
994.849	0.13
995.275	1.83
995.701	4.23
996.127	-0.27
996.553	0.63
996.979	1.93
997.405	6.03
997.83	-2.07
998.256	-4.57
998.682	-0.57
999.108	-6.87
999.534	-1.97
999.959	1.93
1000.385	-3.17
1000.811	-1.57
1001.236	-8.07
1001.662	-3.17
1002.087	-8.77
1002.513	-2.97
1002.938	3.03
1003.364	-2.67
1003.789	-0.67
1004.215	1.73
1004.64	3.03
1005.066	3.73
1005.491	-1.67
1005.916	-4.57
1006.342	-4.47
1006.767	-10.47
1007.192	-0.27
1007.617	-3.37
1008.042	-5.97
1008.468	-4.47
1008.893	0.43
1009.318	3.03
1009.743	-3.57
1010.168	6.13
1010.593	-1.67
1011.018	-4.07
1011.443	-2.17
1011.868	0.23
1012.293	-2.37
1012.718	-6.67
1013.143	6.03
1013.567	4.13
1013.992	-1.17
1014.417	-9.17
1014.842	1.03
1015.267	-2.87
1015.691	-5.37
1016.116	5.23
1016.541	-1.07
1016.965	5.33
1017.39	2.03
1017.814	0.23
1018.239	-1.47
1018.663	-3.27
1019.088	-8.87
1019.512	-3.47
1019.937	2.13
1020.361	-4.37
1020.785	-6.87
1021.21	1.33
1021.634	-1.27
1022.058	-4.87
1022.483	3.13
1022.907	-0.87
1023.331	-7.77
1023.755	1.63
1024.179	-0.07
1024.604	-7.27
1025.028	-7.37
1025.452	-0.77
1025.876	-0.37
1026.3	6.13
1026.724	-11.87
1027.148	-7.07
1027.572	-10.17
1027.996	-2.67
1028.42	-3.67
1028.843	-2.57
1029.267	-3.37
1029.691	-1.97
1030.115	-7.07
1030.539	-10.87
1030.962	-2.67
1031.386	-6.97
1031.81	-1.37
1032.233	-0.17
1032.657	-1.77
1033.08	2.53
1033.504	0.33
1033.927	-1.57
1034.351	-1.57
1034.774	-3.97
1035.198	-1.57
1035.621	-4.07
1036.045	-4.37
1036.468	3.33
1036.891	-12.77
1037.315	-8.27
1037.738	-9.77
1038.161	-1.97
1038.584	-7.67
1039.008	-6.87
1039.431	-2.67
1039.854	-3.87
1040.277	-6.57
1040.7	-6.47
1041.123	2.33
1041.546	-5.87
1041.969	-3.17
1042.392	-7.17
1042.815	-2.57
1043.238	3.73
1043.661	6.13
1044.084	-3.07
1044.507	-1.07
1044.93	-8.77
1045.352	-2.27
1045.775	-3.87
1046.198	2.53
1046.621	0.53
1047.043	0.23
1047.466	11.93
1047.889	2.53
1048.311	-2.17
1048.734	-2.17
1049.156	-1.47
1049.579	-0.77
1050.001	-2.07
1050.424	-0.47
1050.846	-8.17
1051.269	-2.57
1051.691	-3.17
1052.113	-2.67
1052.536	-0.97
1052.958	-1.17
1053.38	-2.47
1053.802	-15.97
1054.225	-0.57
1054.647	-7.77
1055.069	-3.87
1055.491	2.73
1055.913	-9.57
1056.335	-2.57
1056.757	-3.77
1057.179	-8.47
1057.601	-5.37
1058.023	-1.17
1058.445	2.13
1058.867	-5.17
1059.289	-8.27
1059.711	-2.77
1060.133	-1.27
1060.555	-8.47
1060.976	-4.67
1061.398	-5.17
1061.82	-9.37
1062.241	-8.17
1062.663	-1.27
1063.085	-5.97
1063.506	0.73
1063.928	-1.17
1064.35	2.43
1064.771	-13.07
1065.193	-7.57
1065.614	-2.57
1066.035	0.43
1066.457	0.53
1066.878	-1.47
1067.3	-1.57
1067.721	-2.17
1068.142	-8.27
1068.564	-5.37
1068.985	-3.57
1069.406	-8.07
1069.827	-3.67
1070.248	0.13
1070.67	-6.07
1071.091	-2.77
1071.512	2.53
1071.933	-5.87
1072.354	-9.97
1072.775	-5.67
1073.196	-6.77
1073.617	-3.37
1074.038	-6.57
1074.459	0.03
1074.88	-4.97
1075.3	7.53
1075.721	3.23
1076.142	1.43
1076.563	-5.57
1076.983	-8.57
1077.404	-8.87
1077.825	-9.27
1078.246	-7.17
1078.666	-11.97
1079.087	-6.47
1079.507	-2.87
1079.928	3.23
1080.348	-1.67
1080.769	-4.67
1081.189	-1.07
1081.61	2.53
1082.03	-7.27
1082.451	-7.87
1082.871	-3.57
1083.291	-9.37
1083.711	-10.97
1084.132	-7.07
1084.552	-5.87
1084.972	-3.87
1085.392	-7.57
1085.813	-5.57
1086.233	-5.67
1086.653	-5.87
1087.073	0.63
1087.493	-8.47
1087.913	-7.07
1088.333	-4.47
1088.753	-4.97
1089.173	4.53
1089.593	-0.47
1090.013	3.63
1090.433	4.03
1090.852	0.53
1091.272	-2.67
1091.692	0.03
1092.112	-2.77
1092.531	-8.17
1092.951	-12.67
1093.371	-0.87
1093.79	1.53
1094.21	-4.97
1094.63	0.23
1095.049	-10.67
1095.469	-5.57
1095.888	-3.97
1096.308	0.63
1096.727	3.63
1097.146	-6.17
1097.566	-0.07
1097.985	-4.77
1098.405	-0.77
1098.824	-7.57
1099.243	-2.87
1099.662	-7.97
1100.082	-4.47
1100.501	1.43
1100.92	-1.77
1101.339	-4.47
1101.758	-3.67
