Data from 20171114-ORNL-Ar_H_NY_Subt18_08-05-14-674.txt Node
Date: Tue Nov 14 08:05:14 EST 2017
User: Ender
Spectrometer: HR+D1039
Trigger mode: 0
Integration Time (sec): 2.730000E-2
Scans to average: 10
Electric dark correction enabled: true
Nonlinearity correction enabled: false
Boxcar width: 0
XAxis mode: Wavelengths
Number of Pixels in Spectrum: 2048
>>>>>Begin Spectral Data<<<<<
187.836	-5.19
188.309	-5.19
188.782	-5.19
189.255	0.81
189.728	-3.59
190.201	3.11
190.674	0.31
191.147	-3.09
191.619	-2.79
192.092	5.61
192.565	1.81
193.038	-2.69
193.511	-1.69
193.984	-0.19
194.456	1.01
194.929	2.61
195.402	0.81
195.874	3.21
196.347	-1.09
196.82	-8.89
197.292	6.01
197.765	-1.89
198.237	-7.99
198.71	-1.49
199.182	-3.39
199.655	1.61
200.127	-1.79
200.6	-4.99
201.072	-2.19
201.544	-6.59
202.017	-9.29
202.489	7.31
202.961	-0.09
203.433	-3.99
203.906	-7.49
204.378	-5.99
204.85	-1.69
205.322	-7.59
205.794	-2.39
206.266	-3.99
206.739	-8.69
207.211	3.41
207.683	-3.09
208.155	-12.69
208.627	-7.09
209.099	-5.89
209.57	-8.39
210.042	-5.19
210.514	-0.89
210.986	0.61
211.458	-5.69
211.93	-5.39
212.402	1.21
212.873	-9.89
213.345	-12.49
213.817	-16.69
214.288	-3.09
214.76	-8.99
215.232	-4.79
215.703	-5.99
216.175	-1.19
216.646	-2.59
217.118	-7.89
217.589	3.31
218.061	-0.69
218.532	-1.59
219.004	-5.99
219.475	-0.79
219.946	-4.19
220.418	0.21
220.889	2.11
221.36	2.71
221.832	-1.39
222.303	-12.19
222.774	0.01
223.245	-8.69
223.717	-7.19
224.188	-5.69
224.659	-3.99
225.13	-9.09
225.601	0.81
226.072	3.21
226.543	2.91
227.014	4.11
227.485	-6.19
227.956	-7.89
228.427	1.31
228.898	-2.49
229.369	3.71
229.839	-6.89
230.31	-7.29
230.781	2.61
231.252	2.71
231.722	-7.19
232.193	-0.89
232.664	-1.89
233.135	1.01
233.605	-2.49
234.076	-6.59
234.546	-2.99
235.017	7.11
235.487	-2.59
235.958	2.61
236.428	1.61
236.899	-0.89
237.369	2.51
237.84	2.01
238.31	4.51
238.78	1.61
239.251	1.61
239.721	3.81
240.191	-1.09
240.662	-2.99
241.132	-2.29
241.602	-3.49
242.072	7.71
242.542	4.31
243.013	3.21
243.483	0.11
243.953	4.11
244.423	-3.09
244.893	-2.19
245.363	7.51
245.833	4.31
246.303	-1.79
246.773	7.81
247.243	5.41
247.712	1.01
248.182	7.51
248.652	9.81
249.122	-3.49
249.592	9.11
250.061	23.41
250.531	32.71
251.001	17.31
251.471	22.51
251.94	18.91
252.41	6.51
252.879	0.11
253.349	10.41
253.818	7.41
254.288	5.21
254.757	7.41
255.227	6.71
255.696	4.31
256.166	10.81
256.635	6.91
257.105	6.71
257.574	12.21
258.043	6.71
258.513	14.51
258.982	18.11
259.451	6.51
259.92	9.11
260.389	8.41
260.859	18.31
261.328	15.31
261.797	14.81
262.266	7.41
262.735	13.81
263.204	3.51
263.673	0.21
264.142	9.11
264.611	-6.79
265.08	1.81
265.549	3.81
266.018	6.41
266.487	-1.39
266.955	-2.19
267.424	3.41
267.893	9.21
268.362	-1.49
268.83	5.71
269.299	11.51
269.768	9.01
270.236	4.71
270.705	-0.29
271.174	8.11
271.642	0.31
272.111	11.61
272.579	20.81
273.048	25.01
273.516	29.71
273.985	28.61
274.453	22.91
274.922	20.01
275.39	21.11
275.858	7.81
276.327	14.31
276.795	19.21
277.263	9.31
277.731	25.71
278.2	57.31
278.668	63.91
279.136	50.31
279.604	19.51
280.072	14.11
280.54	8.61
281.008	8.71
281.477	18.71
281.945	19.61
282.413	13.31
282.881	13.51
283.348	8.71
283.816	23.51
284.284	17.11
284.752	28.61
285.22	18.81
285.688	15.51
286.156	23.91
286.623	47.61
287.091	53.41
287.559	33.01
288.026	20.21
288.494	17.11
288.962	14.91
289.429	14.91
289.897	22.21
290.364	19.71
290.832	18.81
291.3	11.81
291.767	15.01
292.234	18.41
292.702	20.51
293.169	18.71
293.637	20.41
294.104	22.41
294.571	17.01
295.039	17.61
295.506	19.51
295.973	24.51
296.44	17.81
296.908	19.81
297.375	19.11
297.842	17.61
298.309	23.71
298.776	18.11
299.243	21.41
299.71	12.91
300.177	22.91
300.644	26.71
301.111	23.31
301.578	34.91
302.045	18.21
302.512	26.81
302.979	33.31
303.446	25.91
303.913	14.21
304.379	19.31
304.846	27.91
305.313	22.01
305.78	22.91
306.246	25.51
306.713	29.71
307.18	28.61
307.646	30.91
308.113	36.61
308.579	24.91
309.046	34.21
309.512	30.11
309.979	14.71
310.445	26.41
310.912	35.51
311.378	34.91
311.845	27.51
312.311	29.51
312.777	35.11
313.244	33.31
313.71	38.51
314.176	31.71
314.642	33.11
315.109	34.61
315.575	38.91
316.041	39.71
316.507	37.81
316.973	44.01
317.439	31.71
317.905	37.51
318.371	34.41
318.837	36.01
319.303	38.31
319.769	35.81
320.235	38.51
320.701	37.41
321.167	42.41
321.633	34.21
322.099	38.01
322.564	44.01
323.03	42.51
323.496	40.01
323.962	39.21
324.427	38.41
324.893	45.31
325.359	39.31
325.824	37.41
326.29	39.11
326.755	42.81
327.221	43.11
327.686	47.01
328.152	44.51
328.617	38.81
329.083	47.41
329.548	55.31
330.014	46.41
330.479	42.11
330.944	44.91
331.41	47.21
331.875	50.71
332.34	44.61
332.805	48.61
333.271	52.21
333.736	46.31
334.201	56.41
334.666	54.71
335.131	59.51
335.596	55.51
336.061	54.21
336.526	45.51
336.991	50.51
337.456	59.81
337.921	49.11
338.386	46.21
338.851	47.31
339.316	46.71
339.781	50.91
340.246	57.61
340.711	52.91
341.175	51.81
341.64	48.11
342.105	55.01
342.569	55.21
343.034	60.21
343.499	61.91
343.963	52.31
344.428	63.81
344.893	68.21
345.357	65.41
345.822	67.91
346.286	68.11
346.751	79.21
347.215	74.71
347.679	78.31
348.144	98.41
348.608	88.61
349.073	71.21
349.537	76.01
350.001	83.51
350.465	93.91
350.93	87.01
351.394	81.41
351.858	69.81
352.322	90.41
352.786	87.71
353.25	99.71
353.715	121.01
354.179	105.31
354.643	125.81
355.107	129.51
355.571	110.31
356.035	108.11
356.498	127.01
356.962	127.61
357.426	135.91
357.89	123.41
358.354	92.61
358.818	86.31
359.281	85.91
359.745	84.41
360.209	80.61
360.673	80.01
361.136	81.41
361.6	90.01
362.064	83.41
362.527	86.91
362.991	100.51
363.454	82.91
363.918	76.11
364.381	82.01
364.845	83.31
365.308	84.21
365.772	87.81
366.235	92.01
366.698	90.31
367.162	81.71
367.625	84.81
368.088	90.71
368.552	90.01
369.015	94.61
369.478	103.71
369.941	101.81
370.404	94.81
370.867	109.01
371.331	115.01
371.794	118.31
372.257	119.61
372.72	117.41
373.183	119.61
373.646	104.41
374.109	103.41
374.572	110.41
375.035	106.31
375.497	116.11
375.96	107.31
376.423	106.61
376.886	113.71
377.349	112.51
377.811	105.11
378.274	106.91
378.737	103.31
379.199	106.21
379.662	115.01
380.125	115.91
380.587	120.51
381.05	125.11
381.512	127.31
381.975	127.91
382.437	130.81
382.9	130.21
383.362	132.51
383.825	142.61
384.287	146.81
384.75	142.41
385.212	139.01
385.674	141.91
386.136	136.91
386.599	128.01
387.061	124.41
387.523	130.41
387.985	138.81
388.447	146.91
388.91	147.51
389.372	164.21
389.834	155.11
390.296	153.31
390.758	154.11
391.22	171.81
391.682	207.51
392.144	294.41
392.606	229.21
393.068	173.61
393.529	170.41
393.991	155.61
394.453	153.21
394.915	157.31
395.377	192.21
395.838	211.11
396.3	159.21
396.762	149.21
397.224	148.11
397.685	133.51
398.147	127.41
398.608	129.01
399.07	139.91
399.531	143.61
399.993	144.31
400.454	157.71
400.916	152.31
401.377	151.01
401.839	155.81
402.3	150.91
402.762	171.01
403.223	180.31
403.684	175.11
404.145	158.81
404.607	165.21
405.068	173.21
405.529	171.91
405.99	190.21
406.451	186.01
406.913	179.91
407.374	160.41
407.835	159.71
408.296	169.51
408.757	171.41
409.218	186.91
409.679	178.61
410.14	172.01
410.601	192.01
411.062	191.11
411.522	196.51
411.983	182.31
412.444	178.61
412.905	176.01
413.366	186.11
413.826	205.01
414.287	215.11
414.748	266.81
415.208	250.61
415.669	210.61
416.13	208.21
416.59	200.01
417.051	208.41
417.511	219.71
417.972	238.31
418.432	246.41
418.893	291.71
419.353	255.81
419.814	200.61
420.274	183.81
420.734	182.41
421.195	199.71
421.655	198.61
422.115	193.91
422.576	194.61
423.036	201.21
423.496	213.01
423.956	224.11
424.416	232.91
424.876	263.41
425.336	262.01
425.797	262.61
426.257	255.31
426.717	240.11
427.177	233.51
427.637	220.11
428.097	242.61
428.556	250.31
429.016	267.61
429.476	273.01
429.936	275.41
430.396	285.91
430.856	289.11
431.315	315.81
431.775	352.31
432.235	380.11
432.694	357.51
433.154	368.41
433.614	395.81
434.073	346.51
434.533	290.71
434.993	282.71
435.452	285.01
435.912	296.31
436.371	296.31
436.83	290.01
437.29	276.61
437.749	256.41
438.209	252.01
438.668	279.01
439.127	285.81
439.587	263.81
440.046	252.71
440.505	266.21
440.964	280.01
441.424	328.61
441.883	312.31
442.342	259.71
442.801	226.11
443.26	217.21
443.719	220.81
444.178	222.01
444.637	205.31
445.096	227.41
445.555	234.11
446.014	223.01
446.473	229.21
446.932	232.01
447.391	226.11
447.849	231.21
448.308	222.31
448.767	222.71
449.226	236.01
449.685	242.61
450.143	251.31
450.602	239.21
451.061	226.81
451.519	235.61
451.978	232.91
452.436	239.41
452.895	252.91
453.353	252.41
453.812	248.71
454.27	241.91
454.729	247.01
455.187	247.91
455.646	247.51
456.104	247.21
456.562	259.41
457.021	272.71
457.479	264.81
457.937	283.51
458.395	275.21
458.854	253.81
459.312	260.01
459.77	279.71
460.228	260.01
460.686	233.91
461.144	253.91
461.602	250.31
462.06	250.11
462.518	259.11
462.976	257.91
463.434	257.01
463.892	262.01
464.35	271.91
464.808	296.71
465.266	268.71
465.724	272.61
466.181	273.51
466.639	275.71
467.097	293.31
467.555	302.51
468.012	303.61
468.47	307.11
468.928	330.01
469.385	346.01
469.843	353.91
470.3	353.01
470.758	358.21
471.215	384.81
471.673	413.61
472.13	410.51
472.588	422.21
473.045	375.71
473.503	384.91
473.96	400.61
474.417	411.41
474.875	428.81
475.332	477.41
475.789	467.51
476.246	471.21
476.704	486.91
477.161	518.21
477.618	524.81
478.075	567.71
478.532	628.51
478.989	692.51
479.446	810.41
479.903	771.31
480.36	805.81
480.817	870.11
481.274	975.81
481.731	1084.11
482.188	1170.61
482.645	1309.21
483.102	1413.51
483.558	1552.91
484.015	1601.41
484.472	1583.01
484.929	1539.31
485.385	1481.61
485.842	1452.41
486.299	1388.41
486.755	1314.01
487.212	1099.01
487.668	932.51
488.125	864.51
488.582	792.31
489.038	756.31
489.494	722.61
489.951	705.01
490.407	678.51
490.864	658.81
491.32	647.01
491.776	656.81
492.233	650.41
492.689	621.61
493.145	609.11
493.602	605.31
494.058	625.41
494.514	621.01
494.97	639.01
495.426	649.11
495.882	630.41
496.338	623.71
496.794	631.11
497.251	620.91
497.707	639.01
498.163	642.11
498.618	649.31
499.074	664.81
499.53	681.21
499.986	683.21
500.442	659.91
500.898	641.51
501.354	634.11
501.809	643.51
502.265	650.81
502.721	663.01
503.177	681.41
503.632	664.81
504.088	685.81
504.543	720.11
504.999	715.21
505.455	664.51
505.91	636.21
506.366	647.21
506.821	642.41
507.277	634.71
507.732	633.31
508.187	621.91
508.643	642.41
509.098	640.71
509.553	653.21
510.009	667.41
510.464	669.21
510.919	691.91
511.375	700.41
511.83	706.91
512.285	733.81
512.74	768.21
513.195	781.51
513.65	774.51
514.105	778.51
514.56	778.01
515.015	795.61
515.47	813.51
515.925	795.61
516.38	788.81
516.835	804.91
517.29	789.91
517.745	788.61
518.2	771.21
518.655	748.11
519.109	749.51
519.564	750.91
520.019	734.91
520.474	721.71
520.928	736.61
521.383	731.31
521.838	714.61
522.292	715.31
522.747	705.11
523.201	706.51
523.656	696.61
524.11	692.71
524.565	698.11
525.019	691.31
525.474	711.21
525.928	715.51
526.382	697.41
526.837	709.51
527.291	708.81
527.745	698.01
528.2	701.71
528.654	686.81
529.108	693.01
529.562	702.21
530.016	687.91
530.47	698.11
530.925	692.11
531.379	693.81
531.833	709.61
532.287	699.51
532.741	703.41
533.195	708.51
533.649	715.01
534.103	713.31
534.556	715.51
535.01	721.21
535.464	713.71
535.918	718.01
536.372	718.71
536.826	724.41
537.279	713.21
537.733	711.21
538.187	720.41
538.64	711.41
539.094	721.21
539.548	722.81
540.001	725.71
540.455	718.81
540.908	734.31
541.362	740.81
541.815	744.51
542.269	753.51
542.722	765.11
543.175	770.41
543.629	771.01
544.082	788.31
544.536	796.21
544.989	793.01
545.442	790.81
545.895	794.71
546.349	784.51
546.802	796.31
547.255	789.51
547.708	800.51
548.161	813.81
548.614	822.41
549.067	827.31
549.52	821.31
549.973	812.61
550.426	806.01
550.879	796.51
551.332	800.31
551.785	812.41
552.238	805.61
552.691	811.91
553.144	821.51
553.596	838.11
554.049	863.51
554.502	896.21
554.955	914.61
555.407	906.31
555.86	898.01
556.313	895.11
556.765	881.81
557.218	888.41
557.67	871.31
558.123	882.81
558.576	862.41
559.028	873.01
559.48	884.81
559.933	862.51
560.385	829.71
560.838	803.51
561.29	780.21
561.742	771.61
562.195	754.51
562.647	755.51
563.099	762.11
563.551	750.41
564.004	774.11
564.456	763.41
564.908	761.41
565.36	733.91
565.812	728.01
566.264	718.71
566.716	720.81
567.168	712.71
567.62	713.21
568.072	700.31
568.524	691.91
568.976	679.91
569.428	659.91
569.88	670.61
570.332	673.61
570.784	665.71
571.235	681.01
571.687	685.11
572.139	695.41
572.59	697.21
573.042	710.51
573.494	700.81
573.945	695.11
574.397	672.41
574.849	690.51
575.3	673.31
575.752	670.11
576.203	666.81
576.655	678.01
577.106	672.51
577.557	651.51
578.009	658.51
578.46	657.51
578.912	664.31
579.363	656.51
579.814	655.41
580.265	655.61
580.717	649.11
581.168	660.81
581.619	668.81
582.07	672.21
582.521	653.61
582.972	666.01
583.423	664.01
583.875	677.11
584.326	683.51
584.777	724.01
585.227	804.51
585.678	879.91
586.129	972.41
586.58	1039.31
587.031	1115.41
587.482	1267.81
587.933	1448.11
588.384	1254.21
588.834	936.91
589.285	780.81
589.736	769.01
590.186	766.01
590.637	754.81
591.088	725.61
591.538	728.51
591.989	714.01
592.439	715.31
592.89	706.21
593.34	700.21
593.791	696.61
594.241	689.21
594.692	698.61
595.142	672.41
595.593	680.21
596.043	696.51
596.493	695.31
596.943	702.71
597.394	704.11
597.844	692.61
598.294	713.31
598.744	731.81
599.195	752.61
599.645	791.01
600.095	828.31
600.545	892.71
600.995	931.91
601.445	995.01
601.895	1052.11
602.345	1104.21
602.795	1080.31
603.245	1044.51
603.695	980.61
604.145	941.91
604.594	889.01
605.044	838.51
605.494	786.61
605.944	729.61
606.393	720.61
606.843	709.41
607.293	717.41
607.743	711.81
608.192	718.31
608.642	743.21
609.091	742.41
609.541	744.51
609.99	743.01
610.44	737.01
610.889	700.81
611.339	686.11
611.788	665.41
612.238	676.11
612.687	691.01
613.136	702.21
613.586	717.61
614.035	718.71
614.484	731.31
614.933	726.71
615.383	712.01
615.832	703.51
616.281	699.11
616.73	661.21
617.179	646.81
617.628	636.51
618.077	617.41
618.526	595.71
618.975	586.81
619.424	601.81
619.873	594.11
620.322	600.51
620.771	591.81
621.22	583.11
621.669	568.61
622.118	569.01
622.567	554.01
623.015	553.11
623.464	550.01
623.913	544.81
624.361	535.81
624.81	523.31
625.259	538.11
625.707	535.11
626.156	531.81
626.604	544.01
627.053	550.61
627.501	538.81
627.95	545.11
628.398	553.61
628.847	548.81
629.295	546.41
629.744	551.51
630.192	552.81
630.64	544.21
631.089	541.41
631.537	552.31
631.985	555.21
632.433	569.51
632.881	569.21
633.33	622.21
633.778	594.51
634.226	540.41
634.674	546.01
635.122	557.71
635.57	570.21
636.018	594.41
636.466	562.61
636.914	536.01
637.362	550.71
637.81	553.81
638.258	558.91
638.705	551.91
639.153	582.81
639.601	592.21
640.049	604.41
640.497	643.71
640.944	664.21
641.392	610.81
641.84	584.31
642.287	555.41
642.735	540.81
643.182	539.21
643.63	549.61
644.078	547.81
644.525	565.91
644.973	570.61
645.42	569.21
645.867	596.01
646.315	603.71
646.762	632.61
647.21	659.91
647.657	683.21
648.104	715.81
648.551	734.11
648.999	798.31
649.446	867.21
649.893	947.21
650.34	1091.11
650.787	1322.71
651.234	1623.01
651.682	2104.81
652.129	2897.91
652.576	4156.31
653.023	6132.01
653.47	8423.81
653.917	10588.11
654.363	12360.91
654.81	13765.51
655.257	13088.41
655.704	8556.41
656.151	5057.91
656.598	3276.41
657.044	2308.31
657.491	1780.31
657.938	1444.81
658.385	1196.11
658.831	1032.81
659.278	915.81
659.724	825.11
660.171	751.91
660.618	682.51
661.064	654.71
661.511	636.21
661.957	612.91
662.404	600.51
662.85	620.81
663.296	591.31
663.743	534.71
664.189	511.11
664.635	500.91
665.082	499.11
665.528	498.81
665.974	491.41
666.42	478.41
666.867	484.11
667.313	466.91
667.759	454.31
668.205	446.51
668.651	457.21
669.097	456.21
669.543	476.41
669.989	446.81
670.435	429.61
670.881	425.11
671.327	423.91
671.773	444.61
672.219	463.61
672.665	510.81
673.11	545.71
673.556	589.81
674.002	630.21
674.448	616.71
674.893	516.51
675.339	443.21
675.785	410.01
676.23	391.91
676.676	371.71
677.122	363.71
677.567	356.11
678.013	349.41
678.458	342.01
678.904	342.01
679.349	329.51
679.794	327.01
680.24	333.01
680.685	328.11
681.131	323.51
681.576	322.61
682.021	335.51
682.466	331.71
682.912	323.51
683.357	328.11
683.802	353.91
684.247	377.11
684.692	428.41
685.137	456.81
685.583	498.91
686.028	536.61
686.473	488.51
686.918	414.71
687.363	386.51
687.807	375.41
688.252	337.41
688.697	340.01
689.142	313.11
689.587	305.61
690.032	302.81
690.477	321.21
690.921	326.21
691.366	358.71
691.811	369.81
692.255	398.11
692.7	431.91
693.145	463.41
693.589	635.91
694.034	1030.81
694.478	1429.31
694.923	1643.11
695.367	2152.11
695.812	1125.11
696.256	464.61
696.701	343.51
697.145	323.21
697.59	303.71
698.034	299.31
698.478	300.21
698.922	305.51
699.367	301.41
699.811	319.01
700.255	329.61
700.699	361.71
701.143	395.81
701.588	451.91
702.032	487.01
702.476	478.51
702.92	467.81
703.364	457.31
703.808	587.11
704.252	949.71
704.696	1346.51
705.14	1575.51
705.584	2040.61
706.027	1009.51
706.471	491.51
706.915	372.71
707.359	330.11
707.803	294.61
708.246	288.21
708.69	294.71
709.134	286.41
709.577	287.61
710.021	293.71
710.465	285.41
710.908	282.61
711.352	279.11
711.795	291.81
712.239	317.21
712.682	357.71
713.126	382.41
713.569	425.41
714.012	346.31
714.456	298.31
714.899	279.71
715.342	254.61
715.786	233.51
716.229	233.41
716.672	239.11
717.115	227.11
717.558	240.61
718.002	234.11
718.445	243.11
718.888	261.01
719.331	272.61
719.774	281.91
720.217	276.91
720.66	264.51
721.103	252.11
721.546	236.21
721.989	230.01
722.432	217.91
722.874	217.21
723.317	214.31
723.76	219.51
724.203	236.61
724.645	286.41
725.088	408.11
725.531	533.51
725.974	606.51
726.416	518.21
726.859	287.41
727.301	224.81
727.744	215.81
728.187	213.51
728.629	218.81
729.071	231.61
729.514	244.01
729.956	250.71
730.399	265.41
730.841	263.61
731.283	249.01
731.726	245.31
732.168	243.41
732.61	243.51
733.053	261.81
733.495	293.81
733.937	330.31
734.379	369.61
734.821	406.21
735.263	488.31
735.705	748.81
736.148	1434.81
736.59	2378.51
737.032	2896.61
737.474	2363.01
737.916	750.11
738.357	400.31
738.799	304.61
739.241	272.41
739.683	262.81
740.125	264.01
740.567	278.91
741.008	289.01
741.45	300.11
741.892	294.31
742.334	316.71
742.775	334.81
743.217	323.71
743.658	253.61
744.1	239.01
744.542	250.51
744.983	290.51
745.425	323.01
745.866	324.71
746.307	272.11
746.749	255.61
747.19	296.11
747.632	411.91
748.073	787.41
748.514	1695.91
748.956	2662.21
749.397	3317.31
749.838	2743.81
750.279	2811.71
750.72	1414.01
751.162	525.41
751.603	299.61
752.044	233.51
752.485	204.31
752.926	195.41
753.367	184.71
753.808	184.91
754.249	170.81
754.69	169.11
755.131	173.11
755.572	166.31
756.013	168.41
756.453	171.91
756.894	181.41
757.335	183.01
757.776	183.91
758.216	178.51
758.657	188.71
759.098	192.51
759.538	215.81
759.979	248.71
760.42	344.21
760.86	634.11
761.301	1628.01
761.741	4060.71
762.182	6130.51
762.622	4309.41
763.063	1230.31
763.503	501.01
763.943	325.41
764.384	309.11
764.824	373.01
765.264	411.61
765.705	285.41
766.145	193.01
766.585	171.11
767.025	158.61
767.465	170.71
767.906	222.01
768.346	285.81
768.786	317.21
769.226	232.51
769.666	288.01
770.106	561.91
770.546	1405.71
770.986	2481.01
771.426	2247.81
771.866	746.21
772.306	305.31
772.745	196.31
773.185	161.61
773.625	154.81
774.065	154.01
774.505	183.51
774.944	274.21
775.384	588.31
775.824	1103.91
776.263	1094.61
776.703	455.51
777.142	204.81
777.582	147.71
778.021	127.81
778.461	129.51
778.9	125.01
779.34	121.91
779.779	104.41
780.219	106.61
780.658	103.91
781.097	101.91
781.537	104.01
781.976	103.81
782.415	99.01
782.855	98.81
783.294	92.21
783.733	100.91
784.172	102.21
784.611	98.81
785.05	104.31
785.489	105.71
785.928	111.31
786.367	111.81
786.806	109.81
787.245	121.51
787.684	126.01
788.123	136.41
788.562	119.31
789.001	120.51
789.44	108.01
789.879	108.41
790.317	112.11
790.756	118.21
791.195	121.01
791.634	134.01
792.072	182.01
792.511	334.21
792.95	898.81
793.388	1991.21
793.827	1846.81
794.265	635.41
794.704	264.21
795.142	167.51
795.581	146.31
796.019	128.51
796.458	122.01
796.896	112.11
797.334	117.11
797.773	144.11
798.211	199.11
798.649	387.41
799.087	926.01
799.526	1469.81
799.964	1859.71
800.402	1904.41
800.84	719.71
801.278	280.71
801.716	172.01
802.154	136.91
802.592	134.41
803.03	129.91
803.468	127.31
803.906	136.81
804.344	141.61
804.782	124.91
805.22	126.51
805.658	115.81
806.096	129.51
806.533	148.41
806.971	161.11
807.409	193.31
807.847	284.41
808.284	591.91
808.722	1689.81
809.16	3078.71
809.597	2862.41
810.035	5018.71
810.472	5528.31
810.91	1962.81
811.347	743.61
811.785	383.71
812.222	235.91
812.66	176.81
813.097	153.21
813.535	134.81
813.972	120.71
814.409	108.31
814.846	96.61
815.284	100.91
815.721	89.91
816.158	102.21
816.595	105.11
817.032	170.71
817.47	187.61
817.907	147.81
818.344	135.11
818.781	109.61
819.218	94.61
819.655	116.91
820.092	176.41
820.529	205.21
820.966	166.91
821.403	123.91
821.839	105.51
822.276	95.61
822.713	113.61
823.15	121.01
823.587	109.91
824.023	131.61
824.46	262.01
824.897	813.41
825.333	1282.31
825.77	548.11
826.206	216.51
826.643	128.81
827.08	94.51
827.516	76.91
827.953	68.31
828.389	75.31
828.825	73.41
829.262	59.51
829.698	57.11
830.135	54.21
830.571	58.31
831.007	58.91
831.443	55.91
831.88	61.21
832.316	53.51
832.752	64.01
833.188	59.01
833.624	62.21
834.06	63.01
834.497	62.91
834.933	65.21
835.369	71.81
835.805	61.71
836.241	72.31
836.677	75.51
837.112	80.01
837.548	96.61
837.984	121.41
838.42	179.41
838.856	438.81
839.292	1382.21
839.727	2175.51
840.163	1001.91
840.599	838.61
841.034	1858.11
841.47	2014.91
841.906	728.21
842.341	315.81
842.777	210.41
843.212	286.31
843.648	292.61
844.083	141.51
844.519	91.61
844.954	70.71
845.39	58.11
845.825	54.71
846.261	52.51
846.696	53.81
847.131	46.11
847.566	51.91
848.002	44.01
848.437	51.11
848.872	54.21
849.307	57.31
849.742	74.31
850.177	163.01
850.613	496.01
851.048	819.81
851.483	349.31
851.918	140.01
852.353	78.41
852.788	54.11
853.223	54.51
853.657	48.41
854.092	46.71
854.527	37.31
854.962	39.51
855.397	39.81
855.832	50.31
856.266	37.41
856.701	35.51
857.136	31.81
857.57	35.81
858.005	50.51
858.44	57.21
858.874	37.21
859.309	49.41
859.743	41.51
860.178	39.61
860.612	33.81
861.047	48.71
861.481	59.51
861.915	71.41
862.35	46.11
862.784	31.51
863.218	39.11
863.653	33.11
864.087	38.01
864.521	51.71
864.955	64.71
865.39	139.41
865.824	165.01
866.258	106.11
866.692	153.11
867.126	174.11
867.56	97.91
867.994	47.11
868.428	35.91
868.862	38.11
869.296	49.91
869.73	48.61
870.164	43.11
870.598	41.21
871.031	32.31
871.465	30.61
871.899	29.61
872.333	23.21
872.766	21.91
873.2	17.91
873.634	27.01
874.067	23.51
874.501	23.91
874.935	37.51
875.368	31.81
875.802	26.01
876.235	18.11
876.669	18.71
877.102	19.31
877.535	27.61
877.969	15.61
878.402	25.71
878.836	17.91
879.269	22.41
879.702	18.21
880.135	19.41
880.569	21.61
881.002	27.21
881.435	18.81
881.868	16.11
882.301	17.41
882.734	9.81
883.167	20.51
883.601	16.41
884.034	19.61
884.467	11.41
884.899	15.61
885.332	13.61
885.765	11.81
886.198	15.21
886.631	15.91
887.064	13.31
887.497	18.31
887.929	24.91
888.362	11.81
888.795	7.91
889.228	20.01
889.66	16.91
890.093	15.91
890.526	13.41
890.958	15.91
891.391	16.01
891.823	25.31
892.256	16.61
892.688	14.51
893.121	14.81
893.553	13.81
893.985	22.01
894.418	22.01
894.85	9.41
895.282	10.71
895.715	16.01
896.147	13.61
896.579	13.71
897.011	12.71
897.444	19.11
897.876	10.11
898.308	14.11
898.74	17.31
899.172	14.61
899.604	25.81
900.036	21.61
900.468	11.41
900.9	13.81
901.332	16.41
901.764	7.61
902.196	14.11
902.628	19.51
903.06	11.01
903.491	26.31
903.923	16.01
904.355	22.41
904.787	23.11
905.218	18.51
905.65	20.71
906.082	7.91
906.513	11.31
906.945	6.11
907.376	11.21
907.808	17.81
908.239	15.41
908.671	19.71
909.102	14.21
909.534	24.61
909.965	38.41
910.397	86.61
910.828	287.51
911.259	455.81
911.691	203.71
912.122	98.91
912.553	53.71
912.984	35.71
913.415	27.81
913.847	23.51
914.278	16.61
914.709	14.01
915.14	12.61
915.571	13.11
916.002	12.61
916.433	18.01
916.864	18.61
917.295	10.81
917.726	20.31
918.157	17.81
918.587	25.51
919.018	17.11
919.449	14.11
919.88	20.61
920.311	33.11
920.741	42.21
921.172	153.81
921.603	141.01
922.033	63.91
922.464	39.81
922.895	23.41
923.325	17.61
923.756	13.21
924.186	13.21
924.617	18.71
925.047	37.51
925.478	49.81
925.908	44.81
926.338	23.91
926.769	18.91
927.199	16.41
927.629	5.71
928.06	13.71
928.49	18.61
928.92	12.01
929.35	10.91
929.78	9.31
930.21	2.01
930.641	8.51
931.071	8.51
931.501	5.81
931.931	9.41
932.361	8.01
932.791	3.41
933.221	5.41
933.651	2.31
934.08	14.61
934.51	23.21
934.94	7.21
935.37	10.41
935.8	7.71
936.229	7.41
936.659	7.11
937.089	-0.89
937.519	13.81
937.948	19.61
938.378	17.61
938.807	0.51
939.237	5.31
939.666	7.01
940.096	-7.79
940.525	1.01
940.955	-0.49
941.384	2.41
941.814	-3.59
942.243	-1.69
942.672	-2.89
943.102	-2.09
943.531	-4.19
943.96	0.71
944.39	1.61
944.819	2.41
945.248	3.11
945.677	6.11
946.106	7.51
946.535	5.61
946.964	4.71
947.393	-0.79
947.822	3.71
948.251	-5.89
948.68	5.31
949.109	7.81
949.538	4.91
949.967	3.01
950.396	-6.89
950.825	-4.09
951.254	0.71
951.682	-3.49
952.111	4.31
952.54	4.11
952.969	-2.49
953.397	-5.79
953.826	1.91
954.254	-15.89
954.683	-1.79
955.112	1.01
955.54	1.21
955.969	0.51
956.397	4.11
956.826	-4.69
957.254	0.81
957.682	1.11
958.111	2.41
958.539	-9.89
958.967	-4.59
959.396	-5.39
959.824	-1.39
960.252	3.01
960.68	0.11
961.109	-4.29
961.537	-5.69
961.965	-3.59
962.393	3.71
962.821	0.91
963.249	0.21
963.677	1.11
964.105	7.01
964.533	43.81
964.961	40.91
965.389	22.31
965.817	4.41
966.245	1.21
966.672	-0.29
967.1	-8.79
967.528	-5.79
967.956	0.01
968.383	0.91
968.811	-2.89
969.239	-3.09
969.666	-2.69
970.094	3.91
970.522	-1.69
970.949	-3.79
971.377	-3.89
971.804	4.31
972.232	-3.59
972.659	1.51
973.087	-4.69
973.514	0.21
973.941	-0.79
974.369	0.01
974.796	-2.29
975.223	-1.99
975.651	1.11
976.078	2.41
976.505	0.41
976.932	5.41
977.359	10.01
977.786	19.31
978.214	-0.29
978.641	-2.29
979.068	-5.29
979.495	-8.59
979.922	-1.29
980.349	-3.19
980.776	1.61
981.202	-6.09
981.629	-1.59
982.056	1.31
982.483	2.31
982.91	6.41
983.337	-3.79
983.763	2.81
984.19	-1.39
984.617	-2.99
985.043	-7.79
985.47	3.51
985.897	-7.29
986.323	-7.19
986.75	-2.99
987.176	-6.89
987.603	-7.49
988.029	-3.69
988.456	-0.09
988.882	2.21
989.308	-7.09
989.735	-4.19
990.161	-1.69
990.587	-6.59
991.014	-1.69
991.44	8.21
991.866	-2.99
992.292	-3.29
992.719	-0.69
993.145	3.51
993.571	-8.79
993.997	-4.59
994.423	-1.39
994.849	-11.09
995.275	-3.69
995.701	0.71
996.127	-0.89
996.553	0.41
996.979	-1.29
997.405	-7.49
997.83	-3.69
998.256	-5.69
998.682	-8.79
999.108	-7.39
999.534	-3.19
999.959	-3.09
1000.385	-4.09
1000.811	-3.89
1001.236	-12.49
1001.662	-10.69
1002.087	-8.39
1002.513	-7.19
1002.938	0.81
1003.364	-2.39
1003.789	-6.69
1004.215	2.71
1004.64	-1.59
1005.066	1.61
1005.491	5.31
1005.916	-7.69
1006.342	-2.79
1006.767	-11.59
1007.192	6.31
1007.617	-1.79
1008.042	-4.29
1008.468	-6.59
1008.893	0.61
1009.318	-4.69
1009.743	-4.69
1010.168	0.41
1010.593	1.11
1011.018	-6.69
1011.443	-4.69
1011.868	-3.39
1012.293	0.61
1012.718	-9.99
1013.143	-5.19
1013.567	-4.69
1013.992	-3.99
1014.417	-13.39
1014.842	-4.19
1015.267	-0.79
1015.691	-2.69
1016.116	7.21
1016.541	-0.79
1016.965	-1.29
1017.39	-1.59
1017.814	-2.09
1018.239	-3.49
1018.663	-1.99
1019.088	-7.89
1019.512	-3.89
1019.937	-6.19
1020.361	-4.49
1020.785	-8.89
1021.21	-6.29
1021.634	-2.29
1022.058	-1.09
1022.483	1.01
1022.907	-8.29
1023.331	-2.39
1023.755	-6.39
1024.179	1.01
1024.604	-8.59
1025.028	-7.59
1025.452	-7.19
1025.876	-4.69
1026.3	0.51
1026.724	-16.29
1027.148	-9.69
1027.572	-13.29
1027.996	-6.49
1028.42	-0.19
1028.843	0.31
1029.267	-7.59
1029.691	-6.79
1030.115	-11.09
1030.539	-1.69
1030.962	-6.89
1031.386	-17.09
1031.81	-5.39
1032.233	3.01
1032.657	-1.79
1033.08	-4.09
1033.504	-8.09
1033.927	0.81
1034.351	-1.99
1034.774	-5.99
1035.198	4.51
1035.621	-8.19
1036.045	-6.59
1036.468	0.81
1036.891	-10.89
1037.315	-15.09
1037.738	-6.09
1038.161	-3.99
1038.584	-9.59
1039.008	-5.89
1039.431	-3.49
1039.854	-6.39
1040.277	-11.39
1040.7	-7.99
1041.123	-2.99
1041.546	-13.39
1041.969	-8.79
1042.392	-9.79
1042.815	-3.49
1043.238	2.41
1043.661	2.21
1044.084	-4.99
1044.507	-7.79
1044.93	-10.19
1045.352	-3.19
1045.775	-3.19
1046.198	-3.29
1046.621	-0.39
1047.043	2.11
1047.466	3.41
1047.889	-8.09
1048.311	-6.89
1048.734	-9.39
1049.156	1.41
1049.579	0.71
1050.001	-3.79
1050.424	-3.99
1050.846	-5.99
1051.269	-7.89
1051.691	-11.69
1052.113	-9.69
1052.536	-2.19
1052.958	-6.39
1053.38	-8.09
1053.802	-9.99
1054.225	-4.09
1054.647	-8.89
1055.069	-5.89
1055.491	1.91
1055.913	-12.59
1056.335	-0.79
1056.757	-3.29
1057.179	-8.79
1057.601	-5.79
1058.023	-6.29
1058.445	0.61
1058.867	-3.59
1059.289	-5.39
1059.711	-10.79
1060.133	-3.09
1060.555	-3.79
1060.976	-6.99
1061.398	-7.69
1061.82	-8.39
1062.241	-11.09
1062.663	-8.99
1063.085	-10.99
1063.506	0.11
1063.928	-0.59
1064.35	-5.49
1064.771	-14.69
1065.193	-7.59
1065.614	-13.49
1066.035	3.01
1066.457	-5.49
1066.878	-1.59
1067.3	-7.09
1067.721	-5.59
1068.142	-0.39
1068.564	-0.09
1068.985	-3.29
1069.406	-1.29
1069.827	-2.99
1070.248	-4.69
1070.67	-9.09
1071.091	-5.39
1071.512	-2.39
1071.933	-4.09
1072.354	-10.29
1072.775	-7.69
1073.196	-9.99
1073.617	-1.89
1074.038	-7.99
1074.459	-4.39
1074.88	-13.59
1075.3	-2.79
1075.721	-9.09
1076.142	-1.19
1076.563	-4.39
1076.983	-10.59
1077.404	-5.49
1077.825	-10.19
1078.246	-8.69
1078.666	-11.19
1079.087	-2.79
1079.507	-10.19
1079.928	-4.29
1080.348	0.61
1080.769	-6.19
1081.189	-3.69
1081.61	-9.49
1082.03	-6.29
1082.451	-8.79
1082.871	-8.39
1083.291	-6.09
1083.711	-12.89
1084.132	-7.09
1084.552	-9.99
1084.972	-0.39
1085.392	-14.89
1085.813	-13.39
1086.233	-4.39
1086.653	-5.39
1087.073	-4.89
1087.493	-5.39
1087.913	-3.29
1088.333	-6.89
1088.753	-1.09
1089.173	0.91
1089.593	-5.49
1090.013	-0.79
1090.433	-1.49
1090.852	-2.49
1091.272	-9.79
1091.692	3.01
1092.112	0.51
1092.531	-12.69
1092.951	-15.59
1093.371	-2.09
1093.79	0.01
1094.21	-1.79
1094.63	-7.99
1095.049	-9.39
1095.469	-6.79
1095.888	-8.09
1096.308	3.01
1096.727	-2.19
1097.146	-4.49
1097.566	-3.09
1097.985	-3.89
1098.405	0.41
1098.824	-10.99
1099.243	-12.19
1099.662	-10.59
1100.082	-3.89
1100.501	-5.59
1100.92	-7.39
1101.339	-10.49
1101.758	-3.39
