Data from 20171114-ORNL-Ar_H_NY_Subt18_08-04-42-463.txt Node
Date: Tue Nov 14 08:04:42 EST 2017
User: Ender
Spectrometer: HR+D1039
Trigger mode: 0
Integration Time (sec): 2.730000E-2
Scans to average: 10
Electric dark correction enabled: true
Nonlinearity correction enabled: false
Boxcar width: 0
XAxis mode: Wavelengths
Number of Pixels in Spectrum: 2048
>>>>>Begin Spectral Data<<<<<
187.836	-1.83
188.309	-1.83
188.782	-1.83
189.255	2.07
189.728	-0.12
190.201	1.77
190.674	1.57
191.147	4.07
191.619	-6.83
192.092	-4.62
192.565	5.38
193.038	-1.23
193.511	4.38
193.984	0.17
194.456	-2.52
194.929	-4.12
195.402	-1.52
195.874	3.38
196.347	-3.23
196.82	-6.23
197.292	6.48
197.765	6.28
198.237	-5.32
198.71	2.38
199.182	0.58
199.655	6.48
200.127	2.07
200.6	-0.73
201.072	-2.12
201.544	-4.82
202.017	-1.92
202.489	3.88
202.961	-4.82
203.433	-4.73
203.906	-6.82
204.378	-4.82
204.85	-1.43
205.322	-6.33
205.794	-6.23
206.266	0.38
206.739	-6.92
207.211	0.88
207.683	-3.12
208.155	-5.83
208.627	-5.92
209.099	-5.73
209.57	-3.52
210.042	-1.73
210.514	-2.02
210.986	-2.92
211.458	-7.43
211.93	-1.53
212.402	3.27
212.873	-1.93
213.345	-7.12
213.817	-13.33
214.288	-5.83
214.76	-6.12
215.232	-0.62
215.703	-3.92
216.175	-2.73
216.646	-0.82
217.118	-6.73
217.589	-3.42
218.061	1.07
218.532	-7.22
219.004	-4.42
219.475	-3.02
219.946	4.57
220.418	-4.32
220.889	3.88
221.36	1.08
221.832	-4.83
222.303	-7.82
222.774	-1.42
223.245	-5.42
223.717	-5.52
224.188	-0.92
224.659	-10.33
225.13	-6.22
225.601	-6.23
226.072	0.48
226.543	0.17
227.014	-2.52
227.485	4.07
227.956	-1.62
228.427	1.58
228.898	1.08
229.369	3.98
229.839	-2.73
230.31	-10.43
230.781	3.88
231.252	-5.62
231.722	-5.93
232.193	-3.62
232.664	2.77
233.135	-0.73
233.605	-5.02
234.076	-3.43
234.546	4.27
235.017	7.58
235.487	5.58
235.958	4.27
236.428	-0.52
236.899	10.48
237.369	2.18
237.84	-1.23
238.31	3.07
238.78	0.48
239.251	-4.32
239.721	-1.23
240.191	2.58
240.662	-2.82
241.132	2.08
241.602	0.97
242.072	0.67
242.542	10.48
243.013	1.77
243.483	6.18
243.953	9.88
244.423	4.68
244.893	-1.43
245.363	4.57
245.833	1.08
246.303	2.27
246.773	9.08
247.243	9.67
247.712	10.07
248.182	4.57
248.652	10.17
249.122	1.38
249.592	15.08
250.061	24.27
250.531	36.88
251.001	17.98
251.471	26.48
251.94	26.77
252.41	10.28
252.879	4.77
253.349	11.57
253.818	14.58
254.288	5.08
254.757	10.18
255.227	3.18
255.696	1.27
256.166	6.28
256.635	12.18
257.105	7.28
257.574	9.97
258.043	8.48
258.513	11.57
258.982	19.68
259.451	9.57
259.92	17.17
260.389	14.38
260.859	9.48
261.328	16.08
261.797	18.88
262.266	12.48
262.735	13.58
263.204	8.27
263.673	3.77
264.142	5.78
264.611	-3.12
265.08	8.07
265.549	8.88
266.018	8.08
266.487	0.38
266.955	0.48
267.424	5.08
267.893	6.48
268.362	5.38
268.83	6.08
269.299	12.48
269.768	9.17
270.236	4.88
270.705	6.88
271.174	3.38
271.642	8.77
272.111	9.38
272.579	20.07
273.048	22.38
273.516	31.77
273.985	30.88
274.453	25.38
274.922	22.17
275.39	9.57
275.858	7.27
276.327	10.58
276.795	20.58
277.263	9.98
277.731	33.67
278.2	61.57
278.668	65.77
279.136	53.48
279.604	22.98
280.072	22.38
280.54	12.98
281.008	10.67
281.477	17.38
281.945	14.38
282.413	14.88
282.881	16.38
283.348	10.98
283.816	14.98
284.284	11.27
284.752	18.17
285.22	16.98
285.688	20.67
286.156	23.38
286.623	46.27
287.091	53.08
287.559	35.88
288.026	23.48
288.494	21.48
288.962	8.67
289.429	13.97
289.897	17.78
290.364	20.27
290.832	25.88
291.3	14.98
291.767	19.98
292.234	23.67
292.702	21.77
293.169	21.08
293.637	26.88
294.104	20.08
294.571	13.17
295.039	19.77
295.506	12.17
295.973	24.48
296.44	20.58
296.908	25.68
297.375	19.27
297.842	21.38
298.309	18.38
298.776	19.78
299.243	21.97
299.71	19.27
300.177	25.08
300.644	22.58
301.111	19.08
301.578	25.98
302.045	18.88
302.512	19.18
302.979	31.88
303.446	23.27
303.913	17.58
304.379	24.38
304.846	29.78
305.313	28.67
305.78	28.77
306.246	31.77
306.713	27.38
307.18	27.58
307.646	26.27
308.113	31.07
308.579	27.57
309.046	31.78
309.512	29.88
309.979	26.27
310.445	32.67
310.912	27.38
311.378	33.88
311.845	33.08
312.311	37.77
312.777	27.98
313.244	37.68
313.71	45.58
314.176	34.98
314.642	35.77
315.109	31.58
315.575	37.98
316.041	44.58
316.507	37.38
316.973	47.48
317.439	36.67
317.905	42.28
318.371	40.88
318.837	37.98
319.303	33.07
319.769	38.18
320.235	33.17
320.701	41.97
321.167	40.17
321.633	34.68
322.099	44.57
322.564	45.58
323.03	41.88
323.496	38.38
323.962	47.88
324.427	39.88
324.893	50.57
325.359	40.38
325.824	37.17
326.29	38.07
326.755	42.07
327.221	46.88
327.686	46.17
328.152	46.18
328.617	40.68
329.083	54.77
329.548	54.38
330.014	53.18
330.479	37.57
330.944	45.77
331.41	43.27
331.875	48.08
332.34	51.77
332.805	47.07
333.271	56.88
333.736	45.77
334.201	51.58
334.666	48.67
335.131	53.17
335.596	50.97
336.061	50.27
336.526	49.17
336.991	43.08
337.456	62.28
337.921	47.88
338.386	46.17
338.851	46.88
339.316	54.38
339.781	48.38
340.246	56.27
340.711	49.57
341.175	51.38
341.64	47.98
342.105	47.08
342.569	53.17
343.034	62.47
343.499	56.98
343.963	49.68
344.428	61.38
344.893	65.88
345.357	62.98
345.822	61.07
346.286	71.27
346.751	84.58
347.215	68.67
347.679	79.27
348.144	104.98
348.608	86.08
349.073	75.58
349.537	70.68
350.001	82.38
350.465	91.18
350.93	80.08
351.394	84.08
351.858	72.68
352.322	86.28
352.786	83.78
353.25	105.67
353.715	112.18
354.179	102.17
354.643	119.28
355.107	132.77
355.571	106.77
356.035	102.77
356.498	114.77
356.962	122.27
357.426	136.97
357.89	121.38
358.354	101.38
358.818	82.17
359.281	84.08
359.745	81.78
360.209	81.38
360.673	74.68
361.136	81.08
361.6	86.88
362.064	85.98
362.527	87.17
362.991	86.38
363.454	82.38
363.918	80.17
364.381	79.77
364.845	84.77
365.308	88.38
365.772	80.38
366.235	88.17
366.698	83.17
367.162	85.27
367.625	89.67
368.088	91.27
368.552	94.98
369.015	83.38
369.478	90.38
369.941	105.67
370.404	94.67
370.867	107.57
371.331	109.67
371.794	113.38
372.257	116.48
372.72	116.47
373.183	108.18
373.646	103.48
374.109	108.28
374.572	104.77
375.035	106.67
375.497	105.27
375.96	102.27
376.423	99.07
376.886	108.78
377.349	104.88
377.811	101.08
378.274	102.08
378.737	105.48
379.199	112.98
379.662	113.67
380.125	116.28
380.587	107.98
381.05	119.38
381.512	127.17
381.975	136.67
382.437	128.08
382.9	128.98
383.362	126.77
383.825	135.68
384.287	146.08
384.75	131.17
385.212	143.88
385.674	137.88
386.136	137.48
386.599	122.67
387.061	126.18
387.523	124.08
387.985	133.57
388.447	138.88
388.91	138.18
389.372	146.88
389.834	155.27
390.296	138.57
390.758	147.38
391.22	154.58
391.682	199.87
392.144	278.38
392.606	220.97
393.068	161.98
393.529	168.17
393.991	149.77
394.453	142.07
394.915	158.47
395.377	188.27
395.838	208.87
396.3	147.38
396.762	136.98
397.224	133.98
397.685	130.77
398.147	126.88
398.608	130.38
399.07	124.58
399.531	135.38
399.993	142.38
400.454	146.88
400.916	140.77
401.377	135.78
401.839	148.57
402.3	148.27
402.762	171.38
403.223	168.17
403.684	168.47
404.145	157.47
404.607	154.17
405.068	162.77
405.529	171.68
405.99	189.68
406.451	176.27
406.913	167.38
407.374	164.58
407.835	157.77
408.296	160.48
408.757	164.67
409.218	179.57
409.679	177.38
410.14	167.18
410.601	166.38
411.062	182.77
411.522	182.18
411.983	179.27
412.444	170.88
412.905	173.68
413.366	169.67
413.826	185.88
414.287	213.68
414.748	254.57
415.208	245.08
415.669	201.97
416.13	198.27
416.59	198.97
417.051	206.17
417.511	212.17
417.972	219.88
418.432	234.07
418.893	276.18
419.353	245.08
419.814	188.67
420.274	179.27
420.734	174.47
421.195	187.17
421.655	187.98
422.115	189.38
422.576	192.77
423.036	191.58
423.496	201.17
423.956	203.28
424.416	223.67
424.876	261.28
425.336	252.88
425.797	256.38
426.257	249.08
426.717	232.78
427.177	223.98
427.637	216.58
428.097	227.38
428.556	236.18
429.016	259.27
429.476	254.67
429.936	261.38
430.396	268.37
430.856	284.67
431.315	308.27
431.775	332.58
432.235	362.98
432.694	340.17
433.154	342.98
433.614	366.08
434.073	319.47
434.533	276.08
434.993	262.27
435.452	272.27
435.912	282.38
436.371	274.08
436.83	279.17
437.29	258.77
437.749	238.77
438.209	241.87
438.668	260.87
439.127	277.88
439.587	243.38
440.046	241.38
440.505	249.28
440.964	267.38
441.424	308.28
441.883	301.47
442.342	244.67
442.801	216.77
443.26	215.37
443.719	212.77
444.178	207.68
444.637	206.08
445.096	210.58
445.555	210.98
446.014	219.58
446.473	221.38
446.932	217.17
447.391	216.48
447.849	221.47
448.308	207.98
448.767	211.38
449.226	225.08
449.685	227.27
450.143	237.98
450.602	227.58
451.061	217.07
451.519	227.78
451.978	225.27
452.436	224.27
452.895	232.17
453.353	243.67
453.812	234.38
454.27	232.37
454.729	229.88
455.187	229.77
455.646	234.88
456.104	229.68
456.562	247.17
457.021	249.87
457.479	257.48
457.937	256.58
458.395	262.78
458.854	235.07
459.312	244.18
459.77	259.68
460.228	249.08
460.686	235.18
461.144	238.27
461.602	234.67
462.06	232.38
462.518	241.08
462.976	243.97
463.434	250.48
463.892	256.98
464.35	263.27
464.808	274.27
465.266	253.88
465.724	257.28
466.181	256.18
466.639	255.87
467.097	277.57
467.555	289.88
468.012	289.18
468.47	295.48
468.928	307.77
469.385	330.78
469.843	338.68
470.3	335.98
470.758	354.68
471.215	373.48
471.673	393.27
472.13	386.08
472.588	398.88
473.045	349.67
473.503	367.48
473.96	376.77
474.417	384.98
474.875	417.67
475.332	447.68
475.789	442.28
476.246	440.97
476.704	458.28
477.161	478.77
477.618	503.07
478.075	536.88
478.532	594.27
478.989	665.57
479.446	767.17
479.903	733.58
480.36	769.57
480.817	833.47
481.274	931.87
481.731	1025.17
482.188	1126.38
482.645	1253.88
483.102	1365.58
483.558	1483.97
484.015	1531.38
484.472	1509.68
484.929	1467.97
485.385	1425.98
485.842	1386.88
486.299	1324.37
486.755	1251.27
487.212	1067.47
487.668	874.38
488.125	823.37
488.582	753.17
489.038	718.07
489.494	676.47
489.951	659.77
490.407	644.48
490.864	625.47
491.32	624.68
491.776	611.07
492.233	622.58
492.689	585.88
493.145	582.47
493.602	575.07
494.058	577.48
494.514	589.48
494.97	610.48
495.426	622.68
495.882	608.68
496.338	594.18
496.794	607.88
497.251	609.98
497.707	616.17
498.163	611.68
498.618	620.08
499.074	620.38
499.53	649.47
499.986	652.38
500.442	630.17
500.898	590.67
501.354	600.97
501.809	606.27
502.265	605.07
502.721	633.97
503.177	638.17
503.632	636.87
504.088	650.17
504.543	671.47
504.999	681.07
505.455	632.77
505.91	599.07
506.366	606.18
506.821	602.27
507.277	600.38
507.732	594.58
508.187	599.87
508.643	601.98
509.098	608.88
509.553	623.58
510.009	633.08
510.464	653.87
510.919	658.68
511.375	650.67
511.83	677.08
512.285	684.58
512.74	718.07
513.195	749.07
513.65	740.17
514.105	742.58
514.56	734.27
515.015	762.28
515.47	777.68
515.925	763.58
516.38	752.68
516.835	754.87
517.29	749.08
517.745	747.28
518.2	725.08
518.655	714.17
519.109	713.78
519.564	708.28
520.019	697.18
520.474	697.58
520.928	686.28
521.383	684.17
521.838	675.87
522.292	673.38
522.747	676.77
523.201	676.67
523.656	653.98
524.11	646.78
524.565	653.77
525.019	666.97
525.474	662.68
525.928	667.98
526.382	655.07
526.837	664.27
527.291	663.87
527.745	665.77
528.2	669.17
528.654	660.27
529.108	655.98
529.562	654.18
530.016	647.38
530.47	654.48
530.925	653.07
531.379	655.77
531.833	672.58
532.287	668.08
532.741	666.58
533.195	670.47
533.649	678.57
534.103	690.48
534.556	674.67
535.01	681.17
535.464	675.98
535.918	684.28
536.372	690.17
536.826	686.67
537.279	669.97
537.733	672.27
538.187	668.18
538.64	674.88
539.094	679.07
539.548	682.47
540.001	684.58
540.455	687.97
540.908	691.48
541.362	699.68
541.815	700.98
542.269	729.77
542.722	715.87
543.175	727.48
543.629	734.58
544.082	745.77
544.536	738.77
544.989	739.67
545.442	748.77
545.895	750.47
546.349	748.98
546.802	739.77
547.255	744.18
547.708	744.98
548.161	767.58
548.614	778.67
549.067	783.48
549.52	769.48
549.973	754.07
550.426	759.38
550.879	743.98
551.332	753.88
551.785	752.18
552.238	758.77
552.691	772.67
553.144	777.67
553.596	795.78
554.049	815.77
554.502	828.77
554.955	863.27
555.407	854.57
555.86	836.68
556.313	834.98
556.765	825.47
557.218	823.97
557.67	823.08
558.123	815.08
558.576	815.98
559.028	812.78
559.48	833.78
559.933	817.27
560.385	788.47
560.838	749.67
561.29	739.07
561.742	727.38
562.195	718.88
562.647	708.48
563.099	721.27
563.551	719.07
564.004	726.47
564.456	721.38
564.908	710.17
565.36	698.48
565.812	673.88
566.264	659.48
566.716	666.48
567.168	659.97
567.62	670.78
568.072	647.88
568.524	647.67
568.976	646.58
569.428	632.57
569.88	622.18
570.332	629.28
570.784	633.58
571.235	630.58
571.687	643.68
572.139	648.38
572.59	671.08
573.042	653.77
573.494	658.38
573.945	649.58
574.397	627.88
574.849	639.98
575.3	635.98
575.752	633.77
576.203	633.27
576.655	634.08
577.106	619.18
577.557	616.17
578.009	622.98
578.46	612.88
578.912	611.28
579.363	612.98
579.814	613.08
580.265	604.67
580.717	613.98
581.168	616.98
581.619	626.78
582.07	634.67
582.521	627.77
582.972	619.08
583.423	620.97
583.875	629.98
584.326	642.47
584.777	690.88
585.227	741.98
585.678	849.68
586.129	914.38
586.58	983.98
587.031	1075.07
587.482	1220.98
587.933	1405.67
588.384	1226.07
588.834	908.68
589.285	741.28
589.736	716.27
590.186	707.67
590.637	696.77
591.088	680.78
591.538	665.07
591.989	665.48
592.439	664.28
592.89	657.67
593.34	659.87
593.791	643.08
594.241	641.88
594.692	637.77
595.142	642.18
595.593	643.48
596.043	641.67
596.493	649.18
596.943	653.78
597.394	663.98
597.844	656.77
598.294	661.88
598.744	675.07
599.195	707.48
599.645	750.68
600.095	780.67
600.545	828.08
600.995	874.28
601.445	932.47
601.895	976.58
602.345	1030.57
602.795	1015.57
603.245	972.58
603.695	917.38
604.145	883.27
604.594	834.28
605.044	782.57
605.494	722.88
605.944	697.27
606.393	671.88
606.843	659.87
607.293	669.98
607.743	661.57
608.192	668.88
608.642	678.88
609.091	692.67
609.541	685.27
609.99	695.38
610.44	691.78
610.889	657.08
611.339	623.08
611.788	625.48
612.238	630.58
612.687	637.27
613.136	641.48
613.586	665.88
614.035	660.88
614.484	685.87
614.933	678.77
615.383	667.88
615.832	661.67
616.281	652.98
616.73	620.48
617.179	594.08
617.628	587.97
618.077	566.77
618.526	570.47
618.975	558.17
619.424	548.97
619.873	552.98
620.322	551.18
620.771	547.48
621.22	539.88
621.669	534.28
622.118	521.28
622.567	512.98
623.015	515.87
623.464	509.68
623.913	508.28
624.361	500.88
624.81	489.07
625.259	489.78
625.707	492.98
626.156	500.68
626.604	501.58
627.053	498.88
627.501	501.88
627.95	512.98
628.398	520.17
628.847	512.78
629.295	502.27
629.744	519.17
630.192	508.67
630.64	511.08
631.089	511.27
631.537	509.77
631.985	519.57
632.433	525.77
632.881	534.78
633.33	577.67
633.778	561.18
634.226	507.78
634.674	504.48
635.122	516.47
635.57	531.47
636.018	565.18
636.466	517.77
636.914	494.38
637.362	508.28
637.81	513.28
638.258	510.67
638.705	516.98
639.153	537.68
639.601	556.57
640.049	555.58
640.497	582.47
640.944	615.67
641.392	564.98
641.84	542.17
642.287	515.68
642.735	502.67
643.182	505.58
643.63	499.48
644.078	510.08
644.525	529.38
644.973	526.68
645.42	523.78
645.867	552.77
646.315	562.88
646.762	587.58
647.21	609.98
647.657	625.88
648.104	661.98
648.551	678.88
648.999	730.98
649.446	797.88
649.893	874.97
650.34	1013.88
650.787	1223.67
651.234	1514.38
651.682	1956.07
652.129	2675.17
652.576	3815.58
653.023	5687.68
653.47	7829.77
653.917	9900.88
654.363	11553.18
654.81	12952.38
655.257	12350.17
655.704	7992.07
656.151	4698.67
656.598	3037.58
657.044	2155.07
657.491	1662.28
657.938	1331.78
658.385	1099.78
658.831	955.48
659.278	844.77
659.724	756.08
660.171	701.08
660.618	638.77
661.064	601.78
661.511	588.48
661.957	577.67
662.404	566.18
662.85	557.67
663.296	543.48
663.743	490.77
664.189	474.08
664.635	468.48
665.082	458.98
665.528	459.47
665.974	462.57
666.42	447.67
666.867	443.48
667.313	428.07
667.759	425.58
668.205	425.88
668.651	421.48
669.097	427.97
669.543	445.08
669.989	414.77
670.435	387.98
670.881	391.88
671.327	394.07
671.773	407.88
672.219	426.77
672.665	466.08
673.11	508.88
673.556	540.98
674.002	582.88
674.448	573.38
674.893	481.07
675.339	424.08
675.785	388.38
676.23	363.67
676.676	343.57
677.122	338.38
677.567	326.87
678.013	320.37
678.458	316.27
678.904	308.48
679.349	298.68
679.794	302.77
680.24	305.97
680.685	313.18
681.131	303.48
681.576	307.47
682.021	305.48
682.466	292.97
682.912	304.67
683.357	306.07
683.802	334.48
684.247	357.77
684.692	396.67
685.137	426.68
685.583	473.37
686.028	490.67
686.473	452.38
686.918	387.47
687.363	357.58
687.807	339.47
688.252	318.78
688.697	310.78
689.142	292.37
689.587	286.38
690.032	279.27
690.477	297.58
690.921	302.58
691.366	332.98
691.811	351.38
692.255	366.68
692.7	403.18
693.145	435.58
693.589	581.17
694.034	954.98
694.478	1314.67
694.923	1519.88
695.367	2007.97
695.812	1050.97
696.256	436.27
696.701	323.28
697.145	299.77
697.59	294.08
698.034	283.27
698.478	288.17
698.922	290.38
699.367	279.18
699.811	299.07
700.255	305.08
700.699	336.18
701.143	364.48
701.588	410.78
702.032	443.27
702.476	438.17
702.92	426.88
703.364	417.47
703.808	526.97
704.252	875.27
704.696	1243.08
705.14	1462.88
705.584	1883.18
706.027	932.97
706.471	447.47
706.915	344.38
707.359	299.77
707.803	276.97
708.246	263.67
708.69	277.28
709.134	271.27
709.577	269.57
710.021	279.08
710.465	264.17
710.908	259.57
711.352	261.77
711.795	260.67
712.239	295.07
712.682	338.67
713.126	366.47
713.569	407.27
714.012	322.07
714.456	278.48
714.899	257.18
715.342	237.98
715.786	226.07
716.229	224.17
716.672	224.37
717.115	216.98
717.558	221.78
718.002	213.67
718.445	224.48
718.888	245.08
719.331	256.78
719.774	265.98
720.217	258.57
720.66	242.58
721.103	230.78
721.546	221.67
721.989	215.88
722.432	199.27
722.874	202.58
723.317	194.18
723.76	205.57
724.203	221.77
724.645	278.68
725.088	383.17
725.531	489.78
725.974	565.58
726.416	477.17
726.859	260.08
727.301	211.77
727.744	207.38
728.187	208.38
728.629	208.08
729.071	207.88
729.514	216.98
729.956	236.67
730.399	248.27
730.841	247.97
731.283	234.48
731.726	227.88
732.168	221.48
732.61	236.88
733.053	250.17
733.495	266.28
733.937	301.67
734.379	345.47
734.821	377.07
735.263	460.67
735.705	702.77
736.148	1308.97
736.59	2207.68
737.032	2684.98
737.474	2182.27
737.916	699.88
738.357	370.77
738.799	285.68
739.241	258.77
739.683	244.67
740.125	254.98
740.567	252.18
741.008	271.78
741.45	271.48
741.892	277.07
742.334	296.67
742.775	308.08
743.217	294.27
743.658	227.78
744.1	217.98
744.542	225.77
744.983	277.48
745.425	297.78
745.866	295.77
746.307	240.48
746.749	238.18
747.19	279.08
747.632	381.38
748.073	717.28
748.514	1536.27
748.956	2442.78
749.397	3069.18
749.838	2549.98
750.279	2612.78
750.72	1305.98
751.162	463.38
751.603	274.78
752.044	219.97
752.485	189.98
752.926	181.58
753.367	174.07
753.808	166.77
754.249	165.98
754.69	160.68
755.131	159.58
755.572	148.88
756.013	151.98
756.453	156.38
756.894	156.78
757.335	166.48
757.776	161.08
758.216	166.27
758.657	166.48
759.098	171.88
759.538	189.98
759.979	230.38
760.42	317.27
760.86	580.57
761.301	1493.28
761.741	3740.88
762.182	5715.27
762.622	3997.88
763.063	1131.67
763.503	462.47
763.943	297.08
764.384	299.17
764.824	349.88
765.264	387.18
765.705	274.17
766.145	176.88
766.585	161.07
767.025	156.57
767.465	161.07
767.906	201.68
768.346	274.67
768.786	301.58
769.226	224.18
769.666	272.58
770.106	512.08
770.546	1285.08
770.986	2310.98
771.426	2081.77
771.866	688.58
772.306	278.48
772.745	177.57
773.185	150.88
773.625	139.27
774.065	144.88
774.505	163.47
774.944	252.88
775.384	550.67
775.824	1056.88
776.263	1062.68
776.703	444.67
777.142	189.48
777.582	135.17
778.021	120.27
778.461	117.58
778.9	121.08
779.34	111.48
779.779	98.08
780.219	95.38
780.658	91.88
781.097	96.18
781.537	94.38
781.976	98.38
782.415	93.17
782.855	89.98
783.294	95.98
783.733	97.27
784.172	93.17
784.611	89.88
785.05	91.77
785.489	94.28
785.928	100.77
786.367	102.48
786.806	96.17
787.245	108.47
787.684	116.48
788.123	133.58
788.562	113.17
789.001	112.28
789.44	100.18
789.879	97.38
790.317	100.38
790.756	107.77
791.195	105.78
791.634	121.98
792.072	170.78
792.511	306.38
792.95	831.88
793.388	1848.78
793.827	1731.18
794.265	587.07
794.704	246.38
795.142	161.68
795.581	132.67
796.019	117.58
796.458	110.98
796.896	100.27
797.334	109.98
797.773	134.08
798.211	185.67
798.649	357.88
799.087	852.98
799.526	1355.68
799.964	1703.18
800.402	1776.78
800.84	656.27
801.278	252.98
801.716	163.38
802.154	128.77
802.592	131.78
803.03	121.08
803.468	116.58
803.906	123.48
804.344	122.18
804.782	123.98
805.22	116.57
805.658	107.38
806.096	121.98
806.533	137.17
806.971	149.57
807.409	186.47
807.847	264.67
808.284	544.78
808.722	1572.98
809.16	2874.47
809.597	2646.68
810.035	4671.48
810.472	5180.17
810.91	1840.78
811.347	684.67
811.785	346.17
812.222	218.17
812.66	168.58
813.097	140.67
813.535	117.38
813.972	107.48
814.409	98.98
814.846	93.88
815.284	106.67
815.721	91.57
816.158	91.28
816.595	99.18
817.032	152.17
817.47	177.57
817.907	150.08
818.344	127.47
818.781	102.98
819.218	85.68
819.655	106.48
820.092	165.77
820.529	191.27
820.966	157.48
821.403	115.07
821.839	94.68
822.276	85.68
822.713	101.38
823.15	115.68
823.587	97.67
824.023	122.57
824.46	238.17
824.897	749.27
825.333	1197.28
825.77	509.67
826.206	194.27
826.643	114.07
827.08	83.68
827.516	64.58
827.953	73.38
828.389	72.57
828.825	61.77
829.262	57.98
829.698	55.17
830.135	58.27
830.571	51.67
831.007	58.58
831.443	50.48
831.88	53.08
832.316	52.38
832.752	51.68
833.188	57.58
833.624	57.88
834.06	51.38
834.497	59.07
834.933	65.78
835.369	65.48
835.805	65.57
836.241	67.38
836.677	63.78
837.112	75.97
837.548	87.58
837.984	113.38
838.42	169.78
838.856	405.98
839.292	1288.57
839.727	2040.77
840.163	936.47
840.599	776.88
841.034	1742.88
841.47	1898.18
841.906	684.78
842.341	283.27
842.777	201.58
843.212	266.67
843.648	275.27
844.083	131.88
844.519	84.28
844.954	54.48
845.39	48.27
845.825	47.08
846.261	41.68
846.696	47.98
847.131	43.98
847.566	52.88
848.002	38.27
848.437	50.88
848.872	49.48
849.307	51.98
849.742	71.08
850.177	147.98
850.613	469.48
851.048	766.88
851.483	332.08
851.918	132.27
852.353	77.77
852.788	52.48
853.223	46.57
853.657	55.27
854.092	42.88
854.527	40.38
854.962	31.38
855.397	39.48
855.832	39.17
856.266	37.88
856.701	36.78
857.136	28.68
857.57	31.48
858.005	42.68
858.44	52.17
858.874	35.18
859.309	49.78
859.743	34.38
860.178	44.67
860.612	37.48
861.047	47.27
861.481	56.38
861.915	63.48
862.35	41.08
862.784	30.57
863.218	30.48
863.653	28.38
864.087	35.67
864.521	44.38
864.955	60.48
865.39	132.77
865.824	149.18
866.258	96.88
866.692	141.18
867.126	160.77
867.56	95.17
867.994	48.47
868.428	29.88
868.862	36.88
869.296	47.98
869.73	52.07
870.164	43.98
870.598	34.58
871.031	33.38
871.465	30.57
871.899	29.98
872.333	17.88
872.766	22.08
873.2	30.98
873.634	25.77
874.067	17.88
874.501	20.88
874.935	29.38
875.368	25.07
875.802	29.58
876.235	17.48
876.669	25.68
877.102	19.88
877.535	24.18
877.969	21.18
878.402	20.77
878.836	17.17
879.269	24.48
879.702	20.17
880.135	19.47
880.569	23.07
881.002	25.38
881.435	13.98
881.868	16.17
882.301	19.38
882.734	13.77
883.167	21.08
883.601	16.98
884.034	18.88
884.467	14.08
884.899	22.17
885.332	15.27
885.765	12.08
886.198	10.48
886.631	16.77
887.064	15.98
887.497	15.48
887.929	20.77
888.362	13.67
888.795	8.57
889.228	18.98
889.66	14.98
890.093	7.17
890.526	13.97
890.958	13.38
891.391	17.38
891.823	13.48
892.256	17.38
892.688	14.57
893.121	8.38
893.553	11.17
893.985	22.77
894.418	21.77
894.85	6.18
895.282	14.17
895.715	18.08
896.147	20.38
896.579	15.07
897.011	11.58
897.444	22.18
897.876	13.98
898.308	18.67
898.74	13.68
899.172	12.18
899.604	18.38
900.036	23.57
900.468	12.08
900.9	9.48
901.332	11.47
901.764	15.88
902.196	19.38
902.628	17.58
903.06	18.27
903.491	25.98
903.923	17.77
904.355	13.48
904.787	18.88
905.218	18.58
905.65	21.67
906.082	5.88
906.513	2.77
906.945	13.98
907.376	11.97
907.808	22.67
908.239	19.08
908.671	19.68
909.102	20.88
909.534	19.98
909.965	42.58
910.397	83.67
910.828	269.07
911.259	419.67
911.691	200.37
912.122	91.08
912.553	40.77
912.984	29.08
913.415	21.58
913.847	18.67
914.278	14.88
914.709	13.27
915.14	15.88
915.571	19.27
916.002	9.77
916.433	17.48
916.864	9.48
917.295	15.67
917.726	19.27
918.157	15.17
918.587	27.17
919.018	20.48
919.449	14.58
919.88	23.27
920.311	31.77
920.741	34.77
921.172	145.98
921.603	135.17
922.033	61.88
922.464	43.58
922.895	16.07
923.325	18.08
923.756	15.77
924.186	13.88
924.617	18.38
925.047	41.18
925.478	37.27
925.908	42.17
926.338	19.68
926.769	15.08
927.199	18.78
927.629	3.58
928.06	12.77
928.49	9.98
928.92	17.67
929.35	11.08
929.78	11.07
930.21	5.07
930.641	8.58
931.071	13.48
931.501	2.77
931.931	9.28
932.361	6.38
932.791	6.67
933.221	2.18
933.651	1.08
934.08	9.17
934.51	21.58
934.94	7.58
935.37	2.38
935.8	12.38
936.229	6.98
936.659	6.77
937.089	-2.32
937.519	10.98
937.948	22.77
938.378	12.77
938.807	6.88
939.237	3.48
939.666	4.68
940.096	-12.33
940.525	2.38
940.955	1.68
941.384	3.58
941.814	-6.02
942.243	-0.32
942.672	4.77
943.102	2.08
943.531	-2.82
943.96	5.88
944.39	6.97
944.819	2.97
945.248	-0.02
945.677	2.67
946.106	3.88
946.535	4.27
946.964	3.08
947.393	7.77
947.822	-0.22
948.251	-1.33
948.68	6.68
949.109	5.77
949.538	5.28
949.967	-0.92
950.396	-0.12
950.825	2.38
951.254	1.98
951.682	-6.43
952.111	10.88
952.54	8.27
952.969	-2.12
953.397	-10.03
953.826	0.57
954.254	-5.02
954.683	3.38
955.112	-3.82
955.54	5.98
955.969	4.58
956.397	-2.42
956.826	-0.32
957.254	0.38
957.682	5.17
958.111	8.88
958.539	2.68
958.967	-3.12
959.396	0.27
959.824	1.08
960.252	2.67
960.68	-0.23
961.109	-3.73
961.537	-7.32
961.965	3.48
962.393	1.98
962.821	-3.22
963.249	-0.52
963.677	4.48
964.105	1.17
964.533	42.38
964.961	37.97
965.389	19.88
965.817	11.67
966.245	7.57
966.672	1.88
967.1	-9.72
967.528	1.07
967.956	0.08
968.383	-2.33
968.811	-8.92
969.239	0.57
969.666	-2.62
970.094	0.77
970.522	1.58
970.949	-1.23
971.377	-5.82
971.804	-2.62
972.232	-0.73
972.659	4.08
973.087	-3.93
973.514	-6.33
973.941	-3.92
974.369	0.88
974.796	-0.92
975.223	0.17
975.651	-1.22
976.078	4.18
976.505	0.88
976.932	2.08
977.359	14.98
977.786	20.27
978.214	3.27
978.641	-1.62
979.068	1.88
979.495	-5.33
979.922	-1.23
980.349	-6.12
980.776	5.77
981.202	-0.62
981.629	2.88
982.056	2.07
982.483	-2.23
982.91	2.38
983.337	-8.42
983.763	-0.43
984.19	-6.73
984.617	0.48
985.043	-1.52
985.47	2.18
985.897	-0.92
986.323	-3.62
986.75	2.48
987.176	0.48
987.603	1.77
988.029	-1.33
988.456	-2.43
988.882	-1.52
989.308	-3.33
989.735	-8.33
990.161	-5.92
990.587	-3.43
991.014	5.08
991.44	3.67
991.866	-1.22
992.292	-1.72
992.719	1.77
993.145	6.88
993.571	-8.92
993.997	-0.12
994.423	3.58
994.849	-4.23
995.275	-3.42
995.701	4.38
996.127	0.97
996.553	0.38
996.979	-0.62
997.405	1.38
997.83	-0.93
998.256	-5.33
998.682	-0.72
999.108	-8.33
999.534	2.27
999.959	-4.23
1000.385	1.88
1000.811	1.67
1001.236	-10.93
1001.662	-8.42
1002.087	-5.32
1002.513	0.38
1002.938	2.58
1003.364	-5.52
1003.789	5.58
1004.215	5.98
1004.64	1.38
1005.066	5.48
1005.491	3.58
1005.916	-3.73
1006.342	1.38
1006.767	-0.92
1007.192	4.98
1007.617	-7.33
1008.042	-7.42
1008.468	-5.62
1008.893	-10.72
1009.318	1.17
1009.743	-0.83
1010.168	9.07
1010.593	3.98
1011.018	-9.92
1011.443	-3.83
1011.868	2.18
1012.293	-8.42
1012.718	-5.42
1013.143	-2.73
1013.567	-0.23
1013.992	-4.42
1014.417	-9.73
1014.842	3.67
1015.267	0.57
1015.691	-4.32
1016.116	5.07
1016.541	-0.52
1016.965	6.07
1017.39	0.88
1017.814	3.08
1018.239	0.67
1018.663	-5.02
1019.088	-7.62
1019.512	-3.73
1019.937	-4.23
1020.361	-6.42
1020.785	-8.62
1021.21	-0.73
1021.634	-6.52
1022.058	2.17
1022.483	-3.52
1022.907	1.88
1023.331	-6.02
1023.755	-3.93
1024.179	-6.62
1024.604	-4.32
1025.028	-9.23
1025.452	-0.62
1025.876	1.17
1026.3	2.38
1026.724	-13.83
1027.148	-5.73
1027.572	-5.52
1027.996	-5.92
1028.42	3.88
1028.843	-5.93
1029.267	-2.02
1029.691	2.27
1030.115	-4.02
1030.539	-6.62
1030.962	-3.02
1031.386	-7.72
1031.81	2.48
1032.233	-3.12
1032.657	0.58
1033.08	5.27
1033.504	-0.23
1033.927	-1.22
1034.351	-3.52
1034.774	-7.12
1035.198	-1.62
1035.621	-8.62
1036.045	-4.62
1036.468	-2.43
1036.891	-10.12
1037.315	-4.62
1037.738	-9.02
1038.161	-0.03
1038.584	-3.92
1039.008	-7.42
1039.431	-3.42
1039.854	-3.03
1040.277	-9.42
1040.7	-7.73
1041.123	5.17
1041.546	-4.12
1041.969	1.08
1042.392	-11.43
1042.815	2.17
1043.238	-5.73
1043.661	-0.12
1044.084	-6.52
1044.507	0.17
1044.93	-8.42
1045.352	-8.93
1045.775	-2.43
1046.198	1.38
1046.621	4.28
1047.043	-1.02
1047.466	11.48
1047.889	-2.83
1048.311	-6.73
1048.734	-1.33
1049.156	-1.42
1049.579	-3.03
1050.001	-1.23
1050.424	-0.03
1050.846	-0.62
1051.269	-0.12
1051.691	-3.82
1052.113	-1.62
1052.536	2.68
1052.958	-1.52
1053.38	-1.83
1053.802	-12.62
1054.225	-0.93
1054.647	-3.92
1055.069	-1.23
1055.491	0.48
1055.913	-9.83
1056.335	-1.62
1056.757	-11.42
1057.179	-8.43
1057.601	-3.92
1058.023	-3.62
1058.445	-3.12
1058.867	-1.12
1059.289	-1.33
1059.711	-3.92
1060.133	-3.73
1060.555	-3.33
1060.976	-7.83
1061.398	-4.52
1061.82	2.38
1062.241	-5.83
1062.663	-4.02
1063.085	-6.23
1063.506	0.78
1063.928	-5.33
1064.35	-2.82
1064.771	-11.23
1065.193	-4.12
1065.614	-4.73
1066.035	-0.12
1066.457	-6.23
1066.878	0.48
1067.3	-0.62
1067.721	-2.93
1068.142	-4.23
1068.564	-2.02
1068.985	-1.02
1069.406	-0.52
1069.827	-2.62
1070.248	3.98
1070.67	-6.02
1071.091	-7.32
1071.512	-3.93
1071.933	-9.43
1072.354	-7.82
1072.775	2.98
1073.196	-6.92
1073.617	-5.93
1074.038	-2.62
1074.459	-2.32
1074.88	-3.62
1075.3	0.88
1075.721	-7.43
1076.142	2.18
1076.563	2.38
1076.983	-9.12
1077.404	-9.32
1077.825	-13.62
1078.246	-9.33
1078.666	-7.03
1079.087	-3.22
1079.507	-2.73
1079.928	-3.53
1080.348	1.88
1080.769	-6.73
1081.189	0.68
1081.61	-0.73
1082.03	-4.23
1082.451	-4.33
1082.871	-6.62
1083.291	-8.93
1083.711	-9.92
1084.132	-2.82
1084.552	0.48
1084.972	-1.73
1085.392	-12.83
1085.813	-12.92
1086.233	-10.62
1086.653	-4.32
1087.073	1.68
1087.493	-7.83
1087.913	-0.33
1088.333	-7.02
1088.753	-0.83
1089.173	0.27
1089.593	-1.62
1090.013	3.88
1090.433	-0.02
1090.852	-0.83
1091.272	0.17
1091.692	-0.23
1092.112	0.48
1092.531	-4.73
1092.951	-11.92
1093.371	-0.73
1093.79	4.68
1094.21	-8.12
1094.63	-5.62
1095.049	-7.92
1095.469	-5.52
1095.888	-2.12
1096.308	3.67
1096.727	4.98
1097.146	0.77
1097.566	-0.02
1097.985	-8.12
1098.405	-0.62
1098.824	-7.02
1099.243	-3.42
1099.662	-12.43
1100.082	-4.92
1100.501	-3.93
1100.92	-5.83
1101.339	-7.73
1101.758	-11.02
