Data from 20171114-ORNL-Ar_H_NY_Subt18_08-07-00-588.txt Node
Date: Tue Nov 14 08:07:00 EST 2017
User: Ender
Spectrometer: HR+D1039
Trigger mode: 0
Integration Time (sec): 2.730000E-2
Scans to average: 10
Electric dark correction enabled: true
Nonlinearity correction enabled: false
Boxcar width: 0
XAxis mode: Wavelengths
Number of Pixels in Spectrum: 2048
>>>>>Begin Spectral Data<<<<<
187.836	-2.52
188.309	-2.52
188.782	-2.52
189.255	-0.12
189.728	-4.12
190.201	6.38
190.674	5.57
191.147	5.07
191.619	-6.73
192.092	-1.82
192.565	2.07
193.038	0.67
193.511	2.88
193.984	-0.73
194.456	-5.23
194.929	4.38
195.402	-6.83
195.874	1.08
196.347	0.38
196.82	-5.23
197.292	4.48
197.765	3.08
198.237	-6.82
198.71	-0.93
199.182	1.67
199.655	4.48
200.127	4.77
200.6	-0.12
201.072	5.38
201.544	-2.92
202.017	-4.33
202.489	1.27
202.961	-1.82
203.433	-0.52
203.906	-1.42
204.378	-3.22
204.85	-1.62
205.322	-5.93
205.794	-5.33
206.266	-3.73
206.739	-3.62
207.211	2.48
207.683	-4.22
208.155	-3.93
208.627	-5.33
209.099	-4.23
209.57	-7.32
210.042	1.17
210.514	-4.62
210.986	-1.82
211.458	-8.83
211.93	-0.33
212.402	2.07
212.873	-5.12
213.345	-7.52
213.817	-11.23
214.288	-4.53
214.76	-14.73
215.232	-1.82
215.703	-9.23
216.175	-3.23
216.646	-5.02
217.118	-5.62
217.589	-4.82
218.061	-4.23
218.532	-9.12
219.004	-2.62
219.475	-2.32
219.946	-2.02
220.418	-7.52
220.889	-4.62
221.36	2.68
221.832	-7.12
222.303	-4.52
222.774	6.98
223.245	-3.92
223.717	-2.43
224.188	-7.32
224.659	-2.62
225.13	-10.62
225.601	-1.12
226.072	2.58
226.543	-1.12
227.014	-4.02
227.485	-0.62
227.956	-5.42
228.427	-8.92
228.898	-2.73
229.369	-1.62
229.839	-2.92
230.31	-11.83
230.781	-5.33
231.252	-8.12
231.722	-11.33
232.193	-0.42
232.664	-4.23
233.135	-3.33
233.605	-6.02
234.076	-5.33
234.546	-6.62
235.017	-3.92
235.487	1.17
235.958	-4.82
236.428	-2.92
236.899	-5.12
237.369	-1.62
237.84	-11.73
238.31	1.57
238.78	2.08
239.251	-1.12
239.721	-1.62
240.191	-5.22
240.662	-1.02
241.132	0.98
241.602	-4.43
242.072	-2.12
242.542	8.68
243.013	-2.73
243.483	3.98
243.953	-3.72
244.423	-1.42
244.893	-8.43
245.363	0.67
245.833	-3.12
246.303	-4.42
246.773	6.98
247.243	-3.33
247.712	-1.23
248.182	2.77
248.652	7.07
249.122	-10.23
249.592	-1.33
250.061	5.67
250.531	13.48
251.001	2.08
251.471	9.17
251.94	8.77
252.41	-4.32
252.879	-4.42
253.349	11.07
253.818	3.58
254.288	-0.72
254.757	-1.52
255.227	-4.82
255.696	1.17
256.166	0.28
256.635	4.08
257.105	2.58
257.574	1.17
258.043	-1.72
258.513	-2.93
258.982	-0.92
259.451	-5.93
259.92	1.48
260.389	6.18
260.859	7.88
261.328	5.88
261.797	5.18
262.266	-0.52
262.735	6.88
263.204	0.38
263.673	-3.83
264.142	-0.72
264.611	2.48
265.08	-2.02
265.549	-4.12
266.018	3.78
266.487	2.17
266.955	-4.52
267.424	-1.42
267.893	4.78
268.362	-0.42
268.83	-2.73
269.299	2.28
269.768	-0.93
270.236	3.58
270.705	3.48
271.174	3.58
271.642	7.27
272.111	5.08
272.579	-1.83
273.048	5.38
273.516	2.08
273.985	7.48
274.453	7.38
274.922	8.17
275.39	7.07
275.858	-0.92
276.327	7.17
276.795	9.98
277.263	3.67
277.731	14.67
278.2	5.07
278.668	5.27
279.136	9.08
279.604	5.98
280.072	5.88
280.54	0.68
281.008	-2.52
281.477	10.38
281.945	3.17
282.413	12.77
282.881	7.18
283.348	1.38
283.816	9.98
284.284	3.88
284.752	13.17
285.22	11.58
285.688	7.57
286.156	6.08
286.623	13.67
287.091	5.88
287.559	9.27
288.026	8.18
288.494	4.98
288.962	-1.52
289.429	2.57
289.897	18.58
290.364	9.07
290.832	13.48
291.3	11.27
291.767	11.58
292.234	18.48
292.702	12.48
293.169	12.18
293.637	13.58
294.104	18.38
294.571	11.47
295.039	8.88
295.506	7.08
295.973	13.98
296.44	9.08
296.908	9.58
297.375	9.88
297.842	8.48
298.309	9.08
298.776	3.48
299.243	14.47
299.71	9.67
300.177	18.27
300.644	17.48
301.111	9.38
301.578	17.17
302.045	15.27
302.512	14.48
302.979	19.18
303.446	18.38
303.913	15.18
304.379	17.08
304.846	22.68
305.313	17.77
305.78	11.57
306.246	21.27
306.713	19.47
307.18	20.28
307.646	20.88
308.113	18.38
308.579	20.07
309.046	20.38
309.512	27.18
309.979	14.17
310.445	19.67
310.912	21.38
311.378	25.88
311.845	23.68
312.311	24.08
312.777	26.17
313.244	28.68
313.71	31.77
314.176	24.68
314.642	26.17
315.109	23.88
315.575	26.38
316.041	30.38
316.507	18.88
316.973	28.77
317.439	22.98
317.905	30.98
318.371	32.77
318.837	22.78
319.303	20.88
319.769	25.58
320.235	22.98
320.701	27.97
321.167	28.07
321.633	23.18
322.099	29.77
322.564	35.08
323.03	33.77
323.496	31.88
323.962	30.78
324.427	27.98
324.893	34.07
325.359	34.57
325.824	30.57
326.29	27.77
326.755	28.77
327.221	28.38
327.686	33.98
328.152	42.98
328.617	33.48
329.083	45.17
329.548	44.07
330.014	39.88
330.479	32.67
330.944	40.07
331.41	37.88
331.875	38.38
332.34	36.08
332.805	32.67
333.271	36.98
333.736	31.38
334.201	41.28
334.666	45.17
335.131	48.98
335.596	41.27
336.061	45.57
336.526	42.17
336.991	46.38
337.456	41.48
337.921	49.27
338.386	33.88
338.851	39.27
339.316	45.77
339.781	40.77
340.246	46.77
340.711	40.77
341.175	43.48
341.64	35.77
342.105	45.38
342.569	51.27
343.034	52.88
343.499	53.38
343.963	47.58
344.428	49.38
344.893	56.27
345.357	48.07
345.822	50.97
346.286	55.38
346.751	58.88
347.215	58.77
347.679	59.27
348.144	79.17
348.608	63.77
349.073	59.27
349.537	63.58
350.001	63.67
350.465	75.27
350.93	70.38
351.394	68.98
351.858	63.98
352.322	75.28
352.786	72.48
353.25	82.57
353.715	95.77
354.179	80.27
354.643	104.78
355.107	96.98
355.571	90.08
356.035	80.88
356.498	91.48
356.962	94.88
357.426	105.88
357.89	99.38
358.354	76.88
358.818	72.17
359.281	68.48
359.745	67.78
360.209	70.88
360.673	67.38
361.136	69.28
361.6	69.77
362.064	78.08
362.527	70.47
362.991	80.88
363.454	72.08
363.918	66.77
364.381	68.57
364.845	76.77
365.308	76.17
365.772	81.98
366.235	79.77
366.698	75.48
367.162	74.07
367.625	74.38
368.088	75.77
368.552	80.98
369.015	84.48
369.478	90.08
369.941	89.17
370.404	87.77
370.867	85.07
371.331	90.57
371.794	97.47
372.257	94.38
372.72	96.17
373.183	96.88
373.646	88.17
374.109	90.08
374.572	91.77
375.035	88.27
375.497	95.17
375.96	94.77
376.423	102.07
376.886	98.98
377.349	103.88
377.811	93.58
378.274	97.28
378.737	87.88
379.199	95.58
379.662	99.77
380.125	104.28
380.587	97.27
381.05	100.98
381.512	105.67
381.975	124.07
382.437	114.38
382.9	102.88
383.362	118.17
383.825	120.08
384.287	119.67
384.75	111.57
385.212	114.27
385.674	130.38
386.136	123.08
386.599	113.88
387.061	102.68
387.523	112.88
387.985	120.57
388.447	124.67
388.91	122.77
389.372	120.78
389.834	123.17
390.296	117.57
390.758	126.08
391.22	126.88
391.682	136.98
392.144	144.88
392.606	142.38
393.068	136.18
393.529	147.97
393.991	137.88
394.453	130.27
394.915	128.27
395.377	129.88
395.838	134.07
396.3	136.67
396.762	133.18
397.224	129.67
397.685	129.67
398.147	127.88
398.608	127.08
399.07	129.58
399.531	126.98
399.993	140.68
400.454	148.27
400.916	146.98
401.377	140.28
401.839	147.88
402.3	150.67
402.762	163.48
403.223	173.67
403.684	162.88
404.145	154.57
404.607	150.17
405.068	161.67
405.529	167.58
405.99	180.27
406.451	174.47
406.913	170.48
407.374	157.98
407.835	153.77
408.296	163.28
408.757	167.08
409.218	178.88
409.679	169.88
410.14	171.98
410.601	173.38
411.062	176.27
411.522	174.88
411.983	172.98
412.444	169.77
412.905	180.78
413.366	181.77
413.826	187.38
414.287	219.77
414.748	264.77
415.208	249.88
415.669	213.38
416.13	206.08
416.59	206.27
417.051	214.67
417.511	225.08
417.972	239.58
418.432	244.68
418.893	283.68
419.353	256.48
419.814	200.17
420.274	181.07
420.734	175.77
421.195	198.07
421.655	189.68
422.115	192.17
422.576	193.97
423.036	204.28
423.496	207.28
423.956	223.48
424.416	225.08
424.876	268.78
425.336	251.58
425.797	259.58
426.257	250.58
426.717	240.88
427.177	227.77
427.637	227.08
428.097	235.08
428.556	238.27
429.016	263.48
429.476	257.88
429.936	269.38
430.396	269.68
430.856	279.58
431.315	309.77
431.775	342.47
432.235	375.68
432.694	349.88
433.154	348.57
433.614	370.38
434.073	327.28
434.533	280.17
434.993	262.38
435.452	277.07
435.912	281.97
436.371	286.08
436.83	279.58
437.29	259.38
437.749	247.27
438.209	246.37
438.668	268.77
439.127	285.07
439.587	266.08
440.046	245.98
440.505	267.17
440.964	279.58
441.424	324.58
441.883	302.97
442.342	260.88
442.801	236.57
443.26	227.27
443.719	230.38
444.178	223.68
444.637	217.28
445.096	227.97
445.555	226.27
446.014	231.47
446.473	231.48
446.932	232.38
447.391	236.27
447.849	234.47
448.308	223.77
448.767	234.08
449.226	236.17
449.685	238.57
450.143	263.87
450.602	245.27
451.061	239.27
451.519	243.28
451.978	242.18
452.436	242.98
452.895	250.67
453.353	257.58
453.812	252.58
454.27	247.68
454.729	252.67
455.187	245.57
455.646	248.58
456.104	255.77
456.562	263.17
457.021	276.27
457.479	262.98
457.937	281.88
458.395	268.28
458.854	266.77
459.312	265.18
459.77	288.18
460.228	265.08
460.686	247.68
461.144	263.57
461.602	256.67
462.06	261.28
462.518	260.97
462.976	274.38
463.434	266.98
463.892	273.18
464.35	285.88
464.808	290.27
465.266	277.38
465.724	290.98
466.181	291.68
466.639	284.48
467.097	304.48
467.555	318.27
468.012	316.77
468.47	327.18
468.928	340.77
469.385	358.48
469.843	360.57
470.3	362.98
470.758	372.38
471.215	404.98
471.673	417.68
472.13	414.38
472.588	428.48
473.045	386.38
473.503	402.78
473.96	404.68
474.417	424.18
474.875	438.67
475.332	489.98
475.789	470.97
476.246	493.08
476.704	503.78
477.161	520.68
477.618	537.07
478.075	566.17
478.532	621.18
478.989	692.77
479.446	812.67
479.903	772.98
480.36	804.68
480.817	853.97
481.274	942.48
481.731	1038.08
482.188	1125.68
482.645	1249.58
483.102	1329.08
483.558	1443.18
484.015	1482.47
484.472	1461.47
484.929	1416.88
485.385	1372.58
485.842	1347.97
486.299	1301.48
486.755	1260.17
487.212	1081.38
487.668	916.17
488.125	850.57
488.582	785.48
489.038	763.77
489.494	726.88
489.951	704.68
490.407	689.67
490.864	662.88
491.32	662.68
491.776	656.68
492.233	670.47
492.689	633.68
493.145	624.38
493.602	617.48
494.058	638.18
494.514	635.67
494.97	662.98
495.426	676.27
495.882	651.38
496.338	638.48
496.794	649.98
497.251	645.77
497.707	659.58
498.163	672.87
498.618	664.27
499.074	670.48
499.53	695.28
499.986	697.17
500.442	657.67
500.898	638.58
501.354	637.47
501.809	646.08
502.265	646.57
502.721	656.38
503.177	665.98
503.632	676.87
504.088	675.28
504.543	693.28
504.999	719.57
505.455	687.08
505.91	661.77
506.366	673.57
506.821	670.08
507.277	672.58
507.732	669.47
508.187	664.48
508.643	674.68
509.098	677.07
509.553	692.08
510.009	696.08
510.464	708.37
510.919	733.38
511.375	724.67
511.83	743.77
512.285	765.17
512.74	798.18
513.195	826.07
513.65	804.08
514.105	802.88
514.56	801.88
515.015	831.67
515.47	832.38
515.925	817.38
516.38	826.37
516.835	825.18
517.29	820.28
517.745	809.28
518.2	806.17
518.655	789.67
519.109	771.38
519.564	775.67
520.019	767.48
520.474	768.38
520.928	766.58
521.383	760.67
521.838	753.77
522.292	744.98
522.747	749.98
523.201	746.77
523.656	739.57
524.11	719.17
524.565	723.77
525.019	730.08
525.474	736.37
525.928	726.67
526.382	733.98
526.837	736.38
527.291	737.68
527.745	727.77
528.2	741.08
528.654	719.77
529.108	717.37
529.562	729.57
530.016	723.28
530.47	728.07
530.925	720.98
531.379	734.18
531.833	744.47
532.287	740.97
532.741	741.08
533.195	743.08
533.649	749.48
534.103	753.57
534.556	740.77
535.01	742.17
535.464	747.87
535.918	753.58
536.372	749.97
536.826	751.28
537.279	733.17
537.733	752.57
538.187	743.98
538.64	756.17
539.094	767.27
539.548	769.17
540.001	771.97
540.455	756.17
540.908	770.27
541.362	774.57
541.815	786.18
542.269	799.88
542.722	788.37
543.175	808.48
543.629	818.88
544.082	829.18
544.536	835.88
544.989	828.58
545.442	837.37
545.895	846.88
546.349	837.88
546.802	836.08
547.255	841.68
547.708	843.57
548.161	862.67
548.614	866.17
549.067	861.68
549.52	886.57
549.973	859.18
550.426	854.17
550.879	846.48
551.332	846.97
551.785	862.68
552.238	853.57
552.691	859.98
553.144	876.27
553.596	889.38
554.049	908.48
554.502	938.87
554.955	971.58
555.407	964.18
555.86	955.27
556.313	947.07
556.765	938.67
557.218	941.58
557.67	931.67
558.123	923.67
558.576	922.27
559.028	932.48
559.48	933.88
559.933	932.48
560.385	899.08
560.838	862.67
561.29	838.57
561.742	833.78
562.195	810.27
562.647	817.38
563.099	824.27
563.551	815.77
564.004	820.27
564.456	816.58
564.908	803.17
565.36	782.87
565.812	771.38
566.264	754.08
566.716	759.08
567.168	746.97
567.62	752.08
568.072	742.98
568.524	728.88
568.976	730.58
569.428	711.57
569.88	717.57
570.332	723.48
570.784	726.77
571.235	726.88
571.687	727.98
572.139	749.58
572.59	758.47
573.042	757.17
573.494	762.08
573.945	754.47
574.397	720.38
574.849	728.18
575.3	726.27
575.752	717.27
576.203	715.17
576.655	724.27
577.106	713.77
577.557	700.98
578.009	709.78
578.46	704.38
578.912	702.97
579.363	708.48
579.814	702.77
580.265	697.28
580.717	711.87
581.168	706.48
581.619	723.38
582.07	716.58
582.521	716.38
582.972	706.97
583.423	717.88
583.875	705.88
584.326	719.58
584.777	728.78
585.227	761.68
585.678	760.77
586.129	793.78
586.58	812.98
587.031	828.88
587.482	870.08
587.933	892.27
588.384	878.17
588.834	811.88
589.285	815.67
589.736	808.57
590.186	804.67
590.637	807.37
591.088	795.17
591.538	779.68
591.989	771.07
592.439	763.38
592.89	748.47
593.34	742.98
593.791	748.08
594.241	745.47
594.692	743.57
595.142	730.27
595.593	728.27
596.043	748.08
596.493	750.27
596.943	746.67
597.394	752.88
597.844	746.68
598.294	768.17
598.744	795.68
599.195	819.27
599.645	868.18
600.095	907.88
600.545	969.17
600.995	1021.67
601.445	1085.88
601.895	1146.38
602.345	1186.88
602.795	1174.57
603.245	1125.38
603.695	1070.28
604.145	1013.38
604.594	973.58
605.044	912.57
605.494	845.08
605.944	798.57
606.393	788.28
606.843	760.37
607.293	775.08
607.743	771.77
608.192	774.97
608.642	797.27
609.091	791.88
609.541	804.07
609.99	794.78
610.44	794.08
610.889	749.58
611.339	740.08
611.788	708.17
612.238	720.47
612.687	728.47
613.136	733.07
613.586	747.28
614.035	735.88
614.484	749.57
614.933	744.27
615.383	740.77
615.832	742.58
616.281	739.28
616.73	710.18
617.179	685.78
617.628	679.47
618.077	658.37
618.526	653.97
618.975	650.28
619.424	643.47
619.873	646.08
620.322	649.77
620.771	631.27
621.22	628.67
621.669	623.38
622.118	607.28
622.567	604.67
623.015	588.57
623.464	603.68
623.913	588.67
624.361	568.58
624.81	577.68
625.259	580.48
625.707	578.78
626.156	578.68
626.604	593.17
627.053	588.77
627.501	595.97
627.95	593.38
628.398	601.27
628.847	597.08
629.295	594.68
629.744	600.67
630.192	594.88
630.64	595.97
631.089	570.47
631.537	567.07
631.985	557.27
632.433	557.57
632.881	548.67
633.33	549.38
633.778	554.48
634.226	550.58
634.674	557.67
635.122	557.97
635.57	582.08
636.018	580.27
636.466	587.77
636.914	579.27
637.362	597.08
637.81	606.38
638.258	609.58
638.705	606.68
639.153	636.68
639.601	651.57
640.049	665.58
640.497	703.38
640.944	725.88
641.392	672.77
641.84	645.17
642.287	619.57
642.735	590.28
643.182	591.67
643.63	586.68
644.078	587.17
644.525	599.27
644.973	598.68
645.42	603.88
645.867	625.57
646.315	650.17
646.762	677.98
647.21	707.58
647.657	724.47
648.104	756.87
648.551	784.98
648.999	844.77
649.446	904.77
649.893	997.97
650.34	1140.88
650.787	1355.28
651.234	1675.58
651.682	2138.28
652.129	2913.28
652.576	4151.17
653.023	6025.18
653.47	8157.67
653.917	10110.47
654.363	11649.48
654.81	12880.67
655.257	12175.17
655.704	8071.87
656.151	4889.67
656.598	3186.78
657.044	2286.27
657.491	1771.78
657.938	1438.38
658.385	1213.98
658.831	1067.17
659.278	957.87
659.724	852.78
660.171	791.38
660.618	733.27
661.064	700.67
661.511	682.98
661.957	665.88
662.404	647.77
662.85	667.67
663.296	645.87
663.743	585.27
664.189	549.38
664.635	546.68
665.082	544.87
665.528	544.97
665.974	533.07
666.42	528.97
666.867	529.57
667.313	509.27
667.759	485.67
668.205	461.78
668.651	468.38
669.097	463.58
669.543	458.67
669.989	460.48
670.435	467.67
670.881	472.78
671.327	470.87
671.773	497.08
672.219	515.58
672.665	571.78
673.11	607.77
673.556	650.48
674.002	698.07
674.448	681.97
674.893	574.77
675.339	495.17
675.785	465.27
676.23	440.58
676.676	418.68
677.122	405.78
677.567	387.87
678.013	386.07
678.458	371.98
678.904	378.78
679.349	365.18
679.794	369.98
680.24	364.47
680.685	359.48
681.131	359.98
681.576	375.77
682.021	362.57
682.466	369.28
682.912	366.47
683.357	370.77
683.802	401.17
684.247	424.17
684.692	474.78
685.137	526.98
685.583	557.07
686.028	584.58
686.473	536.38
686.918	466.97
687.363	445.97
687.807	412.17
688.252	386.17
688.697	365.97
689.142	354.98
689.587	343.17
690.032	349.17
690.477	358.47
690.921	369.47
691.366	405.27
691.811	423.08
692.255	451.48
692.7	483.07
693.145	527.67
693.589	738.78
694.034	1207.97
694.478	1625.48
694.923	1834.97
695.367	2379.38
695.812	1260.97
696.256	530.77
696.701	390.28
697.145	362.07
697.59	346.17
698.034	333.88
698.478	337.98
698.922	334.17
699.367	340.48
699.811	353.98
700.255	369.67
700.699	410.07
701.143	441.58
701.588	496.97
702.032	542.68
702.476	537.08
702.92	507.67
703.364	519.97
703.808	673.97
704.252	1092.18
704.696	1534.08
705.14	1760.17
705.584	2240.47
706.027	1122.88
706.471	551.77
706.915	418.78
707.359	369.98
707.803	344.97
708.246	330.78
708.69	331.78
709.134	323.68
709.577	316.48
710.021	326.58
710.465	323.28
710.908	309.57
711.352	309.27
711.795	327.88
712.239	369.27
712.682	405.97
713.126	421.38
713.569	475.48
714.012	363.68
714.456	313.88
714.899	304.68
715.342	285.28
715.786	278.27
716.229	270.08
716.672	268.98
717.115	251.38
717.558	265.88
718.002	261.78
718.445	276.77
718.888	295.28
719.331	306.58
719.774	322.98
720.217	321.77
720.66	300.97
721.103	275.88
721.546	262.98
721.989	263.08
722.432	242.57
722.874	253.27
723.317	241.57
723.76	242.87
724.203	269.38
724.645	326.98
725.088	470.97
725.531	593.97
725.974	686.27
726.416	574.08
726.859	326.88
727.301	260.88
727.744	250.17
728.187	245.28
728.629	254.77
729.071	253.18
729.514	267.07
729.956	284.78
730.399	294.68
730.841	304.78
731.283	281.17
731.726	279.67
732.168	269.48
732.61	274.97
733.053	303.48
733.495	337.98
733.937	372.28
734.379	413.08
734.821	455.88
735.263	585.47
735.705	890.48
736.148	1670.38
736.59	2740.18
737.032	3225.38
737.474	2619.07
737.916	853.68
738.357	449.98
738.799	348.87
739.241	313.27
739.683	299.47
740.125	306.18
740.567	313.48
741.008	330.97
741.45	336.18
741.892	338.57
742.334	368.78
742.775	378.17
743.217	370.08
743.658	292.08
744.1	269.28
744.542	286.18
744.983	334.27
745.425	366.88
745.866	360.48
746.307	291.57
746.749	293.98
747.19	337.28
747.632	481.48
748.073	951.88
748.514	1983.98
748.956	3018.57
749.397	3771.68
749.838	3158.27
750.279	3134.38
750.72	1572.67
751.162	579.27
751.603	345.58
752.044	272.38
752.485	239.77
752.926	217.47
753.367	212.38
753.808	201.58
754.249	205.17
754.69	196.57
755.131	188.38
755.572	191.77
756.013	191.57
756.453	196.27
756.894	199.67
757.335	201.58
757.776	206.08
758.216	195.88
758.657	203.78
759.098	217.07
759.538	236.68
759.979	281.47
760.42	401.57
760.86	753.48
761.301	1977.07
761.741	4715.08
762.182	6813.68
762.622	4775.58
763.063	1396.18
763.503	558.38
763.943	347.67
764.384	284.58
764.824	257.88
765.264	248.77
765.705	220.28
766.145	191.18
766.585	178.98
767.025	175.57
767.465	169.38
767.906	183.27
768.346	207.58
768.786	214.08
769.226	225.88
769.666	318.67
770.106	662.38
770.546	1658.88
770.986	2788.27
771.426	2499.57
771.866	840.88
772.306	342.88
772.745	218.27
773.185	172.27
773.625	165.38
774.065	157.27
774.505	169.97
774.944	217.88
775.384	377.67
775.824	631.78
776.263	606.18
776.703	287.58
777.142	161.08
777.582	136.57
778.021	130.98
778.461	126.08
778.9	130.17
779.34	129.28
779.779	117.68
780.219	110.18
780.658	118.18
781.097	111.27
781.537	113.67
781.976	117.57
782.415	107.77
782.855	115.17
783.294	104.28
783.733	106.58
784.172	117.17
784.611	104.77
785.05	117.57
785.489	117.98
785.928	124.17
786.367	124.98
786.806	128.17
787.245	137.47
787.684	146.27
788.123	154.98
788.562	137.38
789.001	130.18
789.44	124.77
789.879	117.88
790.317	120.77
790.756	132.77
791.195	136.68
791.634	154.28
792.072	220.98
792.511	390.78
792.95	1061.58
793.388	2233.38
793.827	2018.07
794.265	698.87
794.704	294.57
795.142	192.18
795.581	157.57
796.019	143.08
796.458	138.98
796.896	121.08
797.334	133.17
797.773	160.27
798.211	233.18
798.649	465.77
799.087	1080.78
799.526	1683.88
799.964	2136.78
800.402	2111.38
800.84	806.97
801.278	322.77
801.716	197.78
802.154	165.57
802.592	146.48
803.03	145.38
803.468	145.48
803.906	152.18
804.344	159.58
804.782	150.77
805.22	142.07
805.658	136.27
806.096	157.78
806.533	170.48
806.971	180.27
807.409	232.27
807.847	340.97
808.284	716.47
808.722	1993.77
809.16	3478.08
809.597	3342.18
810.035	5768.77
810.472	6114.88
810.91	2217.18
811.347	856.98
811.785	433.98
812.222	276.27
812.66	207.48
813.097	164.97
813.535	149.88
813.972	128.98
814.409	122.08
814.846	111.38
815.284	117.58
815.721	106.48
816.158	109.28
816.595	117.58
817.032	159.88
817.47	185.57
817.907	156.98
818.344	111.67
818.781	98.68
819.218	97.18
819.655	126.98
820.092	204.77
820.529	226.17
820.966	176.38
821.403	129.27
821.839	102.48
822.276	98.08
822.713	132.38
823.15	141.88
823.587	122.77
824.023	160.48
824.46	325.48
824.897	958.68
825.333	1422.88
825.77	612.27
826.206	245.97
826.643	140.17
827.08	110.88
827.516	91.68
827.953	80.38
828.389	81.47
828.825	77.58
829.262	69.98
829.698	60.58
830.135	67.88
830.571	67.88
831.007	68.38
831.443	63.27
831.88	60.58
832.316	67.88
832.752	67.18
833.188	70.38
833.624	70.78
834.06	70.18
834.497	70.07
834.933	74.48
835.369	75.17
835.805	72.67
836.241	81.77
836.677	80.48
837.112	91.38
837.548	112.77
837.984	142.48
838.42	209.58
838.856	524.48
839.292	1607.07
839.727	2428.27
840.163	1135.08
840.599	988.07
841.034	2168.88
841.47	2248.68
841.906	818.28
842.341	343.48
842.777	202.67
843.212	209.58
843.648	189.97
844.083	106.97
844.519	84.98
844.954	74.48
845.39	55.58
845.825	59.88
846.261	56.08
846.696	60.08
847.131	55.58
847.566	62.88
848.002	55.48
848.437	60.48
848.872	58.18
849.307	60.58
849.742	84.48
850.177	191.08
850.613	588.58
851.048	921.08
851.483	402.28
851.918	157.17
852.353	87.38
852.788	61.57
853.223	51.88
853.657	55.17
854.092	42.48
854.527	41.17
854.962	38.67
855.397	47.88
855.832	46.67
856.266	42.28
856.701	39.08
857.136	32.88
857.57	43.28
858.005	54.18
858.44	60.38
858.874	49.28
859.309	53.98
859.743	40.98
860.178	51.97
860.612	41.38
861.047	53.77
861.481	70.58
861.915	70.58
862.35	60.48
862.784	39.88
863.218	42.08
863.653	37.07
864.087	49.27
864.521	55.88
864.955	71.88
865.39	158.38
865.824	181.28
866.258	121.48
866.692	177.27
867.126	192.98
867.56	117.38
867.994	60.57
868.428	44.08
868.862	51.68
869.296	62.68
869.73	68.27
870.164	62.17
870.598	53.38
871.031	40.38
871.465	32.98
871.899	29.58
872.333	26.58
872.766	25.58
873.2	26.77
873.634	28.77
874.067	30.98
874.501	24.47
874.935	42.27
875.368	30.67
875.802	32.08
876.235	27.88
876.669	25.77
877.102	23.58
877.535	26.08
877.969	26.58
878.402	24.27
878.836	23.67
879.269	27.38
879.702	24.88
880.135	19.97
880.569	24.17
881.002	29.98
881.435	16.67
881.868	11.48
882.301	15.88
882.734	19.38
883.167	19.88
883.601	19.18
884.034	19.77
884.467	16.48
884.899	21.98
885.332	20.77
885.765	16.68
886.198	17.38
886.631	22.27
887.064	17.17
887.497	23.48
887.929	26.38
888.362	7.88
888.795	15.17
889.228	18.48
889.66	19.48
890.093	14.47
890.526	15.27
890.958	8.08
891.391	16.68
891.823	22.38
892.256	15.08
892.688	13.07
893.121	11.58
893.553	18.77
893.985	24.77
894.418	22.67
894.85	16.88
895.282	10.88
895.715	16.27
896.147	12.48
896.579	18.67
897.011	17.38
897.444	16.77
897.876	11.88
898.308	24.27
898.74	16.68
899.172	19.48
899.604	26.88
900.036	20.77
900.468	14.27
900.9	19.98
901.332	18.38
901.764	10.88
902.196	20.98
902.628	14.98
903.06	21.67
903.491	33.77
903.923	26.98
904.355	26.58
904.787	25.98
905.218	22.68
905.65	21.77
906.082	8.48
906.513	12.07
906.945	15.67
907.376	11.67
907.808	23.88
908.239	24.38
908.671	17.77
909.102	26.88
909.534	21.78
909.965	48.08
910.397	96.57
910.828	325.57
911.259	495.08
911.691	227.87
912.122	107.58
912.553	53.48
912.984	32.78
913.415	23.98
913.847	27.17
914.278	13.48
914.709	12.77
915.14	19.98
915.571	18.08
916.002	11.27
916.433	19.48
916.864	17.67
917.295	12.67
917.726	23.77
918.157	17.77
918.587	31.48
919.018	21.98
919.449	22.18
919.88	25.38
920.311	35.38
920.741	49.47
921.172	171.38
921.603	156.88
922.033	70.48
922.464	47.78
922.895	26.97
923.325	21.08
923.756	10.27
924.186	12.88
924.617	18.38
925.047	22.18
925.478	32.68
925.908	24.48
926.338	15.68
926.769	13.68
927.199	15.38
927.629	11.27
928.06	15.08
928.49	15.28
928.92	11.67
929.35	11.78
929.78	15.88
930.21	9.47
930.641	7.27
931.071	7.08
931.501	4.48
931.931	11.18
932.361	7.68
932.791	5.67
933.221	4.88
933.651	7.48
934.08	15.77
934.51	29.38
934.94	11.08
935.37	9.78
935.8	12.27
936.229	7.27
936.659	5.17
937.089	3.08
937.519	14.48
937.948	19.67
938.378	17.38
938.807	11.38
939.237	2.68
939.666	13.88
940.096	-4.12
940.525	4.48
940.955	3.38
941.384	2.88
941.814	-1.52
942.243	-2.32
942.672	9.58
943.102	-1.12
943.531	-1.02
943.96	5.58
944.39	4.88
944.819	0.97
945.248	-0.23
945.677	1.58
946.106	4.08
946.535	5.07
946.964	-4.62
947.393	6.88
947.822	-0.12
948.251	-6.43
948.68	7.28
949.109	2.57
949.538	1.28
949.967	-3.92
950.396	4.48
950.825	-9.33
951.254	-0.52
951.682	-4.23
952.111	6.88
952.54	11.27
952.969	-2.92
953.397	-4.33
953.826	7.88
954.254	-4.33
954.683	-3.73
955.112	-4.32
955.54	0.68
955.969	1.27
956.397	-0.82
956.826	-1.42
957.254	4.38
957.682	-1.02
958.111	-1.33
958.539	-3.52
958.967	0.98
959.396	0.38
959.824	3.88
960.252	-1.73
960.68	-5.23
961.109	-2.03
961.537	-5.32
961.965	-0.73
962.393	-1.32
962.821	1.48
963.249	1.17
963.677	6.58
964.105	1.67
964.533	45.88
964.961	39.38
965.389	24.88
965.817	11.07
966.245	2.07
966.672	-4.72
967.1	-8.32
967.528	-4.12
967.956	-6.92
968.383	-6.83
968.811	-2.82
969.239	-0.62
969.666	-3.52
970.094	-1.02
970.522	2.98
970.949	-1.33
971.377	3.28
971.804	-2.42
972.232	2.08
972.659	0.38
973.087	-1.83
973.514	-1.62
973.941	-0.83
974.369	4.38
974.796	-2.32
975.223	-0.62
975.651	2.98
976.078	0.08
976.505	0.57
976.932	-2.62
977.359	18.57
977.786	14.58
978.214	1.38
978.641	-5.83
979.068	-3.73
979.495	-4.52
979.922	-0.03
980.349	-5.83
980.776	1.98
981.202	0.27
981.629	4.17
982.056	2.77
982.483	-3.92
982.91	-0.92
983.337	-6.33
983.763	-2.93
984.19	0.57
984.617	1.27
985.043	-7.73
985.47	3.27
985.897	-1.32
986.323	-12.02
986.75	2.38
987.176	-3.02
987.603	0.88
988.029	-2.93
988.456	-1.23
988.882	6.18
989.308	-5.62
989.735	-1.43
990.161	-2.12
990.587	-7.62
991.014	-1.12
991.44	4.77
991.866	0.18
992.292	-4.72
992.719	-3.83
993.145	0.27
993.571	-6.32
993.997	-8.33
994.423	-1.92
994.849	-6.43
995.275	2.68
995.701	2.07
996.127	-4.62
996.553	-5.42
996.979	-8.92
997.405	3.08
997.83	-2.93
998.256	-3.83
998.682	-3.12
999.108	-4.83
999.534	-0.62
999.959	-2.42
1000.385	-3.92
1000.811	-4.33
1001.236	-3.12
1001.662	-12.02
1002.087	-15.02
1002.513	-5.73
1002.938	2.38
1003.364	-8.42
1003.789	0.38
1004.215	5.27
1004.64	-1.23
1005.066	-0.23
1005.491	-2.72
1005.916	-0.62
1006.342	-1.62
1006.767	-7.92
1007.192	1.77
1007.617	-3.02
1008.042	-3.02
1008.468	-7.33
1008.893	-5.32
1009.318	0.08
1009.743	-3.03
1010.168	2.07
1010.593	3.17
1011.018	-1.32
1011.443	-0.92
1011.868	1.08
1012.293	1.38
1012.718	-8.12
1013.143	3.97
1013.567	-2.52
1013.992	-2.83
1014.417	-10.12
1014.842	-2.03
1015.267	-3.43
1015.691	-5.52
1016.116	3.88
1016.541	-2.52
1016.965	4.27
1017.39	9.57
1017.814	-3.72
1018.239	1.38
1018.663	-4.73
1019.088	-3.43
1019.512	-4.02
1019.937	0.38
1020.361	-9.33
1020.785	-10.23
1021.21	-5.73
1021.634	-3.73
1022.058	-0.73
1022.483	4.98
1022.907	-0.83
1023.331	-5.72
1023.755	-1.52
1024.179	1.38
1024.604	-6.73
1025.028	-7.12
1025.452	-8.12
1025.876	0.38
1026.3	-0.43
1026.724	-2.73
1027.148	-11.52
1027.572	-7.62
1027.996	-1.33
1028.42	1.38
1028.843	-3.23
1029.267	-5.83
1029.691	-2.03
1030.115	-2.92
1030.539	-2.53
1030.962	-12.33
1031.386	-13.52
1031.81	-0.92
1032.233	6.27
1032.657	-1.12
1033.08	-6.83
1033.504	-3.93
1033.927	-2.32
1034.351	-6.02
1034.774	-4.62
1035.198	-1.02
1035.621	-7.02
1036.045	-10.93
1036.468	-0.43
1036.891	-10.73
1037.315	-6.62
1037.738	-13.12
1038.161	-4.33
1038.584	-4.33
1039.008	-5.33
1039.431	-2.23
1039.854	1.67
1040.277	-4.32
1040.7	-9.42
1041.123	9.27
1041.546	-3.22
1041.969	-3.62
1042.392	-4.02
1042.815	-7.73
1043.238	-7.93
1043.661	-0.93
1044.084	-1.02
1044.507	-8.92
1044.93	-6.33
1045.352	-6.12
1045.775	-5.43
1046.198	-2.42
1046.621	3.68
1047.043	-0.72
1047.466	7.68
1047.889	-3.33
1048.311	-4.52
1048.734	-1.73
1049.156	-2.52
1049.579	-0.12
1050.001	-7.32
1050.424	-1.62
1050.846	-11.12
1051.269	-2.92
1051.691	-9.72
1052.113	-3.62
1052.536	3.98
1052.958	-1.52
1053.38	-7.73
1053.802	-10.12
1054.225	-1.02
1054.647	-6.23
1055.069	-1.53
1055.491	-2.42
1055.913	-5.52
1056.335	0.07
1056.757	-5.23
1057.179	-8.02
1057.601	-5.82
1058.023	-0.02
1058.445	-7.33
1058.867	-5.52
1059.289	-2.03
1059.711	-5.82
1060.133	-1.02
1060.555	-4.02
1060.976	-7.12
1061.398	-6.52
1061.82	-6.52
1062.241	-9.12
1062.663	-11.43
1063.085	-6.83
1063.506	-2.12
1063.928	-3.73
1064.35	0.18
1064.771	-9.33
1065.193	4.67
1065.614	-4.02
1066.035	-0.72
1066.457	-2.02
1066.878	-0.52
1067.3	-4.23
1067.721	-2.83
1068.142	-8.93
1068.564	-6.73
1068.985	-6.43
1069.406	-1.42
1069.827	-6.83
1070.248	0.17
1070.67	-7.92
1071.091	-11.22
1071.512	2.07
1071.933	-10.12
1072.354	-8.52
1072.775	-7.12
1073.196	-8.62
1073.617	-8.23
1074.038	-4.42
1074.459	-5.12
1074.88	-3.92
1075.3	1.08
1075.721	-4.23
1076.142	0.88
1076.563	-4.23
1076.983	-8.73
1077.404	-2.02
1077.825	-4.32
1078.246	-6.83
1078.666	-16.73
1079.087	-3.32
1079.507	-8.03
1079.928	-4.83
1080.348	-5.62
1080.769	-7.02
1081.189	-8.72
1081.61	-1.12
1082.03	-3.33
1082.451	-2.92
1082.871	-1.12
1083.291	-10.33
1083.711	-12.52
1084.132	-4.42
1084.552	-1.62
1084.972	-0.62
1085.392	-8.62
1085.813	-8.42
1086.233	-4.92
1086.653	-0.92
1087.073	-3.62
1087.493	-4.83
1087.913	-7.03
1088.333	-4.83
1088.753	-5.83
1089.173	1.17
1089.593	-4.62
1090.013	-2.12
1090.433	-1.93
1090.852	-4.02
1091.272	-2.12
1091.692	-3.73
1092.112	-5.73
1092.531	-13.12
1092.951	-12.32
1093.371	-7.03
1093.79	-1.42
1094.21	-2.62
1094.63	-6.32
1095.049	-9.42
1095.469	2.77
1095.888	3.07
1096.308	-0.43
1096.727	8.08
1097.146	-6.52
1097.566	0.18
1097.985	-8.42
1098.405	5.88
1098.824	-7.33
1099.243	-7.42
1099.662	-5.02
1100.082	-6.42
1100.501	-1.43
1100.92	-4.93
1101.339	-1.62
1101.758	-7.72
