Data from 20171114-ORNL-Ar_H_NY_Subt18_08-05-30-233.txt Node
Date: Tue Nov 14 08:05:30 EST 2017
User: Ender
Spectrometer: HR+D1039
Trigger mode: 0
Integration Time (sec): 2.730000E-2
Scans to average: 10
Electric dark correction enabled: true
Nonlinearity correction enabled: false
Boxcar width: 0
XAxis mode: Wavelengths
Number of Pixels in Spectrum: 2048
>>>>>Begin Spectral Data<<<<<
187.836	-3.72
188.309	-3.72
188.782	-3.72
189.255	2.58
189.728	0.88
190.201	4.68
190.674	1.38
191.147	2.18
191.619	-7.62
192.092	1.58
192.565	0.18
193.038	-6.02
193.511	1.18
193.984	-1.72
194.456	-0.62
194.929	0.08
195.402	5.18
195.874	-0.22
196.347	-1.52
196.82	-6.72
197.292	6.38
197.765	1.58
198.237	-3.42
198.71	2.08
199.182	-2.12
199.655	-0.22
200.127	2.88
200.6	-2.12
201.072	-2.42
201.544	-7.32
202.017	-3.42
202.489	-0.12
202.961	0.48
203.433	-10.72
203.906	-8.72
204.378	-8.02
204.85	-9.82
205.322	-11.82
205.794	-3.02
206.266	-1.52
206.739	-9.82
207.211	2.38
207.683	-13.52
208.155	-6.92
208.627	-5.32
209.099	1.68
209.57	-14.82
210.042	-6.92
210.514	-2.62
210.986	2.18
211.458	-14.02
211.93	-3.92
212.402	2.98
212.873	-2.22
213.345	-7.92
213.817	-7.52
214.288	-4.92
214.76	-6.82
215.232	-3.22
215.703	0.48
216.175	-1.22
216.646	-4.22
217.118	-5.42
217.589	-6.42
218.061	-3.22
218.532	-3.92
219.004	-4.42
219.475	-8.22
219.946	-6.12
220.418	-5.92
220.889	5.68
221.36	-0.12
221.832	-3.12
222.303	-11.62
222.774	-1.42
223.245	-8.22
223.717	-4.62
224.188	-8.32
224.659	-4.52
225.13	-6.92
225.601	-0.12
226.072	-1.22
226.543	1.68
227.014	2.68
227.485	1.68
227.956	-4.12
228.427	-0.92
228.898	-2.32
229.369	-3.72
229.839	-1.42
230.31	-15.02
230.781	0.08
231.252	-3.02
231.722	-4.02
232.193	-5.02
232.664	0.98
233.135	7.18
233.605	-4.52
234.076	-9.72
234.546	3.48
235.017	2.28
235.487	-3.02
235.958	-5.02
236.428	-0.22
236.899	-0.32
237.369	2.18
237.84	4.08
238.31	2.58
238.78	-1.92
239.251	-3.52
239.721	-0.02
240.191	5.98
240.662	-4.42
241.132	4.28
241.602	-3.72
242.072	-3.52
242.542	8.48
243.013	-2.52
243.483	9.18
243.953	3.18
244.423	-2.72
244.893	-4.92
245.363	-1.22
245.833	2.98
246.303	-3.82
246.773	12.98
247.243	6.38
247.712	3.78
248.182	5.58
248.652	1.78
249.122	2.48
249.592	12.78
250.061	17.58
250.531	33.48
251.001	13.98
251.471	20.28
251.94	23.98
252.41	11.08
252.879	4.18
253.349	16.98
253.818	8.48
254.288	-0.32
254.757	3.48
255.227	1.98
255.696	3.58
256.166	7.48
256.635	5.08
257.105	8.58
257.574	5.28
258.043	7.18
258.513	17.08
258.982	17.88
259.451	2.58
259.92	19.38
260.389	10.28
260.859	13.98
261.328	13.88
261.797	22.38
262.266	8.68
262.735	7.48
263.204	4.48
263.673	-2.22
264.142	8.88
264.611	-1.02
265.08	0.18
265.549	-4.32
266.018	2.28
266.487	-0.22
266.955	-4.52
267.424	-0.82
267.893	8.08
268.362	9.48
268.83	6.58
269.299	11.28
269.768	9.58
270.236	9.68
270.705	9.18
271.174	9.98
271.642	8.28
272.111	10.48
272.579	18.48
273.048	22.48
273.516	28.28
273.985	26.88
274.453	27.58
274.922	21.88
275.39	13.88
275.858	5.88
276.327	8.68
276.795	22.28
277.263	12.68
277.731	30.48
278.2	62.98
278.668	59.78
279.136	57.28
279.604	25.58
280.072	17.88
280.54	12.88
281.008	17.08
281.477	15.38
281.945	14.38
282.413	13.38
282.881	24.08
283.348	8.48
283.816	15.18
284.284	17.38
284.752	20.78
285.22	9.48
285.688	18.68
286.156	23.68
286.623	41.48
287.091	55.58
287.559	29.38
288.026	20.98
288.494	22.08
288.962	8.68
289.429	10.68
289.897	22.28
290.364	18.58
290.832	18.48
291.3	14.48
291.767	21.58
292.234	20.18
292.702	15.38
293.169	17.08
293.637	24.98
294.104	19.68
294.571	8.78
295.039	12.28
295.506	15.38
295.973	19.08
296.44	20.18
296.908	17.08
297.375	18.98
297.842	27.28
298.309	12.88
298.776	12.08
299.243	24.48
299.71	18.38
300.177	28.08
300.644	23.98
301.111	27.38
301.578	25.68
302.045	18.48
302.512	22.38
302.979	34.08
303.446	23.98
303.913	18.48
304.379	24.38
304.846	30.38
305.313	20.98
305.78	22.38
306.246	28.88
306.713	29.58
307.18	25.78
307.646	32.18
308.113	36.48
308.579	25.48
309.046	31.28
309.512	27.88
309.979	21.88
310.445	31.98
310.912	30.98
311.378	26.78
311.845	35.58
312.311	32.78
312.777	32.48
313.244	30.88
313.71	36.08
314.176	28.28
314.642	32.18
315.109	28.48
315.575	44.58
316.041	42.08
316.507	33.88
316.973	46.58
317.439	33.68
317.905	33.38
318.371	35.08
318.837	29.58
319.303	36.68
319.769	36.78
320.235	35.18
320.701	38.18
321.167	40.18
321.633	30.68
322.099	43.08
322.564	41.28
323.03	41.98
323.496	44.48
323.962	41.08
324.427	34.58
324.893	46.08
325.359	36.68
325.824	38.98
326.29	38.48
326.755	39.68
327.221	39.58
327.686	45.28
328.152	46.28
328.617	43.38
329.083	47.48
329.548	49.48
330.014	48.88
330.479	39.98
330.944	47.88
331.41	45.88
331.875	45.08
332.34	43.18
332.805	45.48
333.271	48.18
333.736	47.08
334.201	54.38
334.666	49.98
335.131	54.08
335.596	53.68
336.061	52.78
336.526	42.78
336.991	54.28
337.456	59.18
337.921	55.18
338.386	47.28
338.851	48.18
339.316	51.28
339.781	52.98
340.246	57.18
340.711	45.88
341.175	52.58
341.64	46.18
342.105	50.68
342.569	51.98
343.034	56.58
343.499	56.28
343.963	49.08
344.428	64.38
344.893	67.38
345.357	60.58
345.822	61.28
346.286	65.68
346.751	77.08
347.215	75.58
347.679	73.88
348.144	99.78
348.608	89.18
349.073	73.98
349.537	75.18
350.001	79.08
350.465	89.58
350.93	84.08
351.394	82.48
351.858	79.98
352.322	86.08
352.786	82.58
353.25	99.98
353.715	109.98
354.179	105.88
354.643	125.98
355.107	125.28
355.571	111.98
356.035	108.78
356.498	121.18
356.962	120.68
357.426	134.68
357.89	115.68
358.354	95.18
358.818	82.18
359.281	84.38
359.745	74.98
360.209	77.78
360.673	74.98
361.136	81.58
361.6	89.88
362.064	86.48
362.527	88.88
362.991	92.58
363.454	85.28
363.918	79.68
364.381	90.08
364.845	87.88
365.308	91.98
365.772	86.08
366.235	86.58
366.698	84.38
367.162	95.68
367.625	87.38
368.088	85.88
368.552	91.98
369.015	82.48
369.478	101.78
369.941	102.68
370.404	92.68
370.867	111.98
371.331	111.18
371.794	111.88
372.257	112.28
372.72	120.68
373.183	106.38
373.646	105.18
374.109	102.08
374.572	112.28
375.035	114.28
375.497	112.98
375.96	107.48
376.423	110.58
376.886	114.18
377.349	107.98
377.811	107.28
378.274	103.48
378.737	108.08
379.199	110.28
379.662	111.58
380.125	129.38
380.587	115.88
381.05	120.08
381.512	133.88
381.975	133.88
382.437	128.18
382.9	127.68
383.362	134.08
383.825	140.18
384.287	153.08
384.75	140.18
385.212	146.08
385.674	142.18
386.136	142.78
386.599	130.38
387.061	125.18
387.523	128.48
387.985	133.88
388.447	139.68
388.91	142.98
389.372	159.68
389.834	155.18
390.296	154.48
390.758	154.48
391.22	167.08
391.682	212.48
392.144	299.28
392.606	233.28
393.068	167.58
393.529	170.28
393.991	158.38
394.453	147.08
394.915	161.38
395.377	189.48
395.838	210.08
396.3	153.08
396.762	144.58
397.224	139.38
397.685	124.58
398.147	134.98
398.608	131.68
399.07	132.18
399.531	134.48
399.993	145.48
400.454	158.88
400.916	148.28
401.377	145.98
401.839	152.28
402.3	148.88
402.762	158.88
403.223	175.78
403.684	178.48
404.145	166.28
404.607	161.28
405.068	169.48
405.529	172.68
405.99	188.38
406.451	173.58
406.913	173.08
407.374	158.88
407.835	166.58
408.296	165.48
408.757	172.08
409.218	188.38
409.679	170.78
410.14	174.18
410.601	177.68
411.062	182.08
411.522	187.68
411.983	184.68
412.444	176.88
412.905	182.28
413.366	185.38
413.826	200.68
414.287	217.78
414.748	255.38
415.208	249.28
415.669	211.38
416.13	204.58
416.59	200.98
417.051	211.18
417.511	224.88
417.972	229.28
418.432	248.08
418.893	283.28
419.353	251.98
419.814	198.68
420.274	185.38
420.734	177.78
421.195	198.58
421.655	186.08
422.115	192.48
422.576	187.08
423.036	203.58
423.496	211.18
423.956	216.58
424.416	226.28
424.876	277.18
425.336	270.18
425.797	268.18
426.257	250.48
426.717	233.88
427.177	232.98
427.637	224.28
428.097	237.28
428.556	247.18
429.016	270.58
429.476	272.28
429.936	274.78
430.396	283.78
430.856	287.78
431.315	317.88
431.775	358.48
432.235	385.78
432.694	354.38
433.154	366.88
433.614	397.18
434.073	344.28
434.533	286.38
434.993	267.38
435.452	281.88
435.912	293.38
436.371	288.58
436.83	280.38
437.29	272.78
437.749	241.28
438.209	242.48
438.668	272.08
439.127	285.58
439.587	265.88
440.046	244.18
440.505	259.98
440.964	280.38
441.424	321.88
441.883	306.48
442.342	264.58
442.801	226.48
443.26	222.98
443.719	225.98
444.178	215.28
444.637	214.18
445.096	224.08
445.555	222.78
446.014	226.38
446.473	227.98
446.932	233.88
447.391	227.48
447.849	227.28
448.308	218.98
448.767	221.38
449.226	230.38
449.685	236.38
450.143	251.18
450.602	233.88
451.061	228.88
451.519	235.48
451.978	233.68
452.436	232.68
452.895	239.88
453.353	251.18
453.812	235.28
454.27	240.28
454.729	237.78
455.187	244.58
455.646	243.98
456.104	250.48
456.562	261.28
457.021	267.38
457.479	258.78
457.937	274.18
458.395	262.68
458.854	256.18
459.312	257.08
459.77	276.28
460.228	254.58
460.686	245.38
461.144	249.48
461.602	245.18
462.06	244.68
462.518	258.98
462.976	252.38
463.434	258.58
463.892	261.78
464.35	277.68
464.808	289.18
465.266	270.58
465.724	271.28
466.181	270.08
466.639	270.08
467.097	284.98
467.555	299.98
468.012	307.08
468.47	312.08
468.928	327.68
469.385	342.98
469.843	347.18
470.3	347.18
470.758	363.38
471.215	385.08
471.673	413.48
472.13	401.78
472.588	417.08
473.045	368.78
473.503	375.18
473.96	399.98
474.417	401.68
474.875	431.98
475.332	474.78
475.789	466.98
476.246	471.98
476.704	491.68
477.161	509.28
477.618	529.48
478.075	559.08
478.532	618.48
478.989	708.28
479.446	802.68
479.903	777.28
480.36	812.58
480.817	867.08
481.274	977.78
481.731	1077.78
482.188	1176.98
482.645	1315.68
483.102	1424.78
483.558	1568.78
484.015	1627.78
484.472	1591.38
484.929	1543.88
485.385	1494.78
485.842	1454.98
486.299	1377.58
486.755	1301.98
487.212	1105.48
487.668	929.18
488.125	853.98
488.582	779.38
489.038	745.38
489.494	717.18
489.951	687.98
490.407	675.98
490.864	649.78
491.32	652.48
491.776	643.68
492.233	647.38
492.689	613.58
493.145	614.68
493.602	597.38
494.058	610.08
494.514	622.38
494.97	638.68
495.426	647.58
495.882	626.58
496.338	615.98
496.794	628.48
497.251	618.08
497.707	646.58
498.163	641.98
498.618	646.08
499.074	642.68
499.53	692.28
499.986	677.18
500.442	659.68
500.898	638.08
501.354	627.98
501.809	633.88
502.265	640.18
502.721	660.28
503.177	672.48
503.632	657.48
504.088	679.08
504.543	718.58
504.999	705.08
505.455	664.08
505.91	631.38
506.366	638.68
506.821	629.18
507.277	629.38
507.732	621.98
508.187	627.78
508.643	631.38
509.098	631.28
509.553	651.88
510.009	659.28
510.464	669.48
510.919	684.78
511.375	694.28
511.83	698.58
512.285	717.38
512.74	769.48
513.195	783.58
513.65	770.98
514.105	771.58
514.56	771.98
515.015	796.58
515.47	807.08
515.925	780.78
516.38	792.18
516.835	788.68
517.29	783.98
517.745	779.88
518.2	763.28
518.655	753.88
519.109	745.78
519.564	743.58
520.019	727.08
520.474	723.68
520.928	728.98
521.383	714.98
521.838	709.08
522.292	706.98
522.747	705.98
523.201	702.88
523.656	691.58
524.11	689.68
524.565	694.28
525.019	682.38
525.474	697.58
525.928	703.18
526.382	694.88
526.837	691.88
527.291	707.48
527.745	702.88
528.2	690.78
528.654	690.18
529.108	682.18
529.562	684.68
530.016	689.58
530.47	683.28
530.925	693.68
531.379	693.08
531.833	708.28
532.287	700.48
532.741	703.08
533.195	700.88
533.649	715.28
534.103	719.68
534.556	711.18
535.01	702.98
535.464	707.98
535.918	713.78
536.372	720.08
536.826	714.88
537.279	697.98
537.733	712.18
538.187	702.18
538.64	712.38
539.094	714.28
539.548	716.38
540.001	712.48
540.455	716.28
540.908	727.48
541.362	720.78
541.815	747.58
542.269	744.18
542.722	750.88
543.175	772.28
543.629	770.68
544.082	782.58
544.536	779.68
544.989	780.48
545.442	785.98
545.895	778.28
546.349	781.28
546.802	782.78
547.255	794.68
547.708	796.48
548.161	810.78
548.614	816.98
549.067	822.98
549.52	804.48
549.973	804.88
550.426	803.48
550.879	786.88
551.332	790.18
551.785	793.08
552.238	798.28
552.691	807.78
553.144	825.18
553.596	836.38
554.049	860.18
554.502	892.58
554.955	911.88
555.407	902.48
555.86	900.68
556.313	883.38
556.765	874.28
557.218	882.18
557.67	878.28
558.123	868.78
558.576	862.28
559.028	876.88
559.48	881.08
559.933	852.98
560.385	824.28
560.838	802.08
561.29	773.58
561.742	770.78
562.195	755.38
562.647	761.48
563.099	758.28
563.551	759.48
564.004	766.68
564.456	755.98
564.908	742.48
565.36	741.08
565.812	733.28
566.264	708.28
566.716	707.98
567.168	712.98
567.62	707.88
568.072	703.68
568.524	689.38
568.976	671.68
569.428	647.48
569.88	662.98
570.332	668.38
570.784	676.58
571.235	673.78
571.687	683.68
572.139	695.98
572.59	708.28
573.042	702.58
573.494	704.38
573.945	693.48
574.397	675.78
574.849	683.08
575.3	684.58
575.752	664.58
576.203	666.68
576.655	678.38
577.106	660.68
577.557	657.98
578.009	649.28
578.46	648.98
578.912	646.28
579.363	649.78
579.814	650.78
580.265	649.78
580.717	650.88
581.168	652.38
581.619	664.88
582.07	669.98
582.521	659.38
582.972	658.78
583.423	658.88
583.875	663.28
584.326	689.48
584.777	740.58
585.227	809.88
585.678	905.28
586.129	992.08
586.58	1067.88
587.031	1147.08
587.482	1311.08
587.933	1511.78
588.384	1301.28
588.834	965.18
589.285	794.18
589.736	764.58
590.186	758.88
590.637	749.58
591.088	730.48
591.538	722.88
591.989	719.28
592.439	717.08
592.89	700.48
593.34	691.68
593.791	699.68
594.241	686.28
594.692	696.58
595.142	685.08
595.593	686.38
596.043	687.18
596.493	687.98
596.943	703.38
597.394	699.48
597.844	686.88
598.294	701.28
598.744	726.18
599.195	742.68
599.645	797.68
600.095	826.88
600.545	888.78
600.995	934.98
601.445	982.98
601.895	1047.38
602.345	1099.18
602.795	1091.38
603.245	1046.38
603.695	987.68
604.145	934.48
604.594	882.68
605.044	839.88
605.494	774.68
605.944	732.28
606.393	717.58
606.843	712.48
607.293	711.28
607.743	708.58
608.192	725.38
608.642	729.68
609.091	737.68
609.541	754.78
609.99	739.78
610.44	755.98
610.889	700.28
611.339	681.98
611.788	666.68
612.238	685.98
612.687	692.38
613.136	690.78
613.586	710.18
614.035	711.68
614.484	739.48
614.933	738.88
615.383	731.48
615.832	725.78
616.281	701.18
616.73	661.98
617.179	648.58
617.628	622.18
618.077	620.08
618.526	601.58
618.975	597.88
619.424	597.78
619.873	591.78
620.322	601.68
620.771	584.88
621.22	581.48
621.669	573.48
622.118	566.78
622.567	559.78
623.015	558.58
623.464	552.28
623.913	538.18
624.361	531.08
624.81	536.98
625.259	536.98
625.707	540.38
626.156	527.98
626.604	551.78
627.053	543.68
627.501	544.28
627.95	553.18
628.398	556.58
628.847	547.98
629.295	548.78
629.744	547.48
630.192	554.68
630.64	552.38
631.089	540.68
631.537	553.98
631.985	560.98
632.433	569.18
632.881	584.78
633.33	627.98
633.778	614.58
634.226	547.38
634.674	547.58
635.122	550.98
635.57	571.08
636.018	600.18
636.466	550.38
636.914	536.28
637.362	542.58
637.81	550.78
638.258	558.88
638.705	555.88
639.153	578.58
639.601	580.68
640.049	610.88
640.497	642.88
640.944	661.18
641.392	614.68
641.84	588.48
642.287	558.28
642.735	552.18
643.182	552.08
643.63	550.28
644.078	554.28
644.525	562.38
644.973	567.38
645.42	571.28
645.867	599.88
646.315	624.88
646.762	633.98
647.21	663.78
647.657	692.58
648.104	717.18
648.551	742.38
648.999	810.38
649.446	881.78
649.893	958.38
650.34	1112.38
650.787	1321.68
651.234	1639.98
651.682	2147.58
652.129	2959.68
652.576	4258.58
653.023	6306.18
653.47	8674.38
653.917	10931.68
654.363	12654.38
654.81	14087.98
655.257	13402.58
655.704	8753.18
656.151	5147.88
656.598	3334.68
657.044	2337.08
657.491	1808.08
657.938	1448.78
658.385	1199.28
658.831	1041.18
659.278	934.18
659.724	821.18
660.171	761.48
660.618	694.28
661.064	654.08
661.511	644.18
661.957	622.98
662.404	621.18
662.85	629.98
663.296	598.18
663.743	539.08
664.189	511.28
664.635	504.38
665.082	503.78
665.528	505.68
665.974	487.38
666.42	488.48
666.867	491.78
667.313	464.68
667.759	455.98
668.205	451.48
668.651	468.18
669.097	464.88
669.543	481.08
669.989	454.18
670.435	435.78
670.881	431.18
671.327	429.18
671.773	444.08
672.219	458.38
672.665	517.18
673.11	546.88
673.556	588.08
674.002	636.78
674.448	626.58
674.893	525.98
675.339	450.88
675.785	420.18
676.23	398.38
676.676	369.38
677.122	357.78
677.567	353.78
678.013	345.08
678.458	340.38
678.904	337.38
679.349	328.48
679.794	334.88
680.24	331.68
680.685	327.68
681.131	329.88
681.576	329.68
682.021	328.88
682.466	332.98
682.912	328.18
683.357	334.68
683.802	359.18
684.247	385.18
684.692	428.48
685.137	471.28
685.583	500.68
686.028	532.68
686.473	488.38
686.918	419.78
687.363	394.08
687.807	368.68
688.252	337.08
688.697	335.88
689.142	314.88
689.587	315.38
690.032	306.88
690.477	321.28
690.921	333.28
691.366	359.88
691.811	378.28
692.255	406.78
692.7	431.48
693.145	476.58
693.589	645.98
694.034	1037.08
694.478	1429.58
694.923	1635.18
695.367	2155.48
695.812	1130.98
696.256	469.28
696.701	349.88
697.145	328.98
697.59	307.28
698.034	307.18
698.478	312.48
698.922	307.48
699.367	309.88
699.811	320.28
700.255	338.08
700.699	359.28
701.143	398.48
701.588	444.08
702.032	482.98
702.476	475.78
702.92	461.18
703.364	457.78
703.808	592.38
704.252	957.88
704.696	1332.28
705.14	1567.58
705.584	2013.48
706.027	993.48
706.471	492.58
706.915	373.08
707.359	327.68
707.803	298.08
708.246	280.28
708.69	296.48
709.134	296.38
709.577	292.88
710.021	300.58
710.465	286.48
710.908	289.88
711.352	285.38
711.795	296.38
712.239	327.58
712.682	359.58
713.126	389.08
713.569	442.18
714.012	347.58
714.456	301.88
714.899	280.48
715.342	248.38
715.786	243.38
716.229	242.98
716.672	235.78
717.115	233.88
717.558	237.28
718.002	229.88
718.445	246.08
718.888	270.28
719.331	284.18
719.774	290.58
720.217	287.18
720.66	263.18
721.103	249.38
721.546	236.08
721.989	234.38
722.432	211.48
722.874	217.98
723.317	212.28
723.76	221.18
724.203	245.98
724.645	292.48
725.088	411.78
725.531	525.68
725.974	612.08
726.416	518.48
726.859	283.68
727.301	241.68
727.744	226.88
728.187	221.28
728.629	220.88
729.071	229.98
729.514	240.48
729.956	253.98
730.399	273.58
730.841	270.98
731.283	248.38
731.726	247.68
732.168	236.98
732.61	247.38
733.053	272.98
733.495	290.08
733.937	323.58
734.379	372.18
734.821	404.78
735.263	499.58
735.705	771.48
736.148	1438.58
736.59	2379.98
737.032	2895.08
737.474	2337.28
737.916	758.68
738.357	396.08
738.799	309.48
739.241	284.38
739.683	262.88
740.125	266.88
740.567	281.18
741.008	294.08
741.45	292.58
741.892	299.18
742.334	322.48
742.775	337.08
743.217	323.98
743.658	259.78
744.1	239.08
744.542	244.18
744.983	290.98
745.425	319.58
745.866	317.08
746.307	263.28
746.749	261.88
747.19	299.08
747.632	415.18
748.073	791.08
748.514	1694.98
748.956	2666.88
749.397	3330.68
749.838	2760.28
750.279	2793.18
750.72	1409.28
751.162	509.68
751.603	303.48
752.044	236.88
752.485	200.48
752.926	202.18
753.367	188.98
753.808	178.58
754.249	172.68
754.69	168.38
755.131	171.38
755.572	169.58
756.013	171.18
756.453	168.08
756.894	173.58
757.335	181.08
757.776	176.88
758.216	184.38
758.657	182.58
759.098	189.08
759.538	209.08
759.979	248.08
760.42	341.48
760.86	637.48
761.301	1650.08
761.741	4082.18
762.182	6105.48
762.622	4305.18
763.063	1231.68
763.503	510.28
763.943	327.78
764.384	317.08
764.824	395.68
765.264	429.68
765.705	292.68
766.145	193.08
766.585	176.48
767.025	165.58
767.465	172.48
767.906	230.78
768.346	300.48
768.786	333.78
769.226	245.68
769.666	294.28
770.106	559.58
770.546	1414.88
770.986	2471.78
771.426	2233.78
771.866	741.68
772.306	298.48
772.745	192.78
773.185	162.88
773.625	156.68
774.065	155.38
774.505	178.28
774.944	287.28
775.384	643.88
775.824	1193.98
776.263	1173.68
776.703	492.38
777.142	206.18
777.582	150.18
778.021	131.28
778.461	133.48
778.9	134.58
779.34	124.68
779.779	107.88
780.219	105.58
780.658	100.08
781.097	106.78
781.537	104.38
781.976	96.38
782.415	101.08
782.855	92.88
783.294	101.78
783.733	102.88
784.172	101.08
784.611	95.78
785.05	98.48
785.489	102.18
785.928	110.48
786.367	111.88
786.806	105.48
787.245	120.88
787.684	128.48
788.123	136.28
788.562	122.38
789.001	115.68
789.44	118.98
789.879	104.28
790.317	104.38
790.756	119.38
791.195	121.08
791.634	135.08
792.072	186.48
792.511	324.48
792.95	909.88
793.388	1988.98
793.827	1855.38
794.265	629.08
794.704	256.18
795.142	172.48
795.581	142.38
796.019	131.98
796.458	125.48
796.896	116.78
797.334	117.78
797.773	139.38
798.211	204.18
798.649	393.88
799.087	942.68
799.526	1478.98
799.964	1858.98
800.402	1895.28
800.84	708.28
801.278	279.18
801.716	172.18
802.154	142.68
802.592	141.28
803.03	134.98
803.468	118.48
803.906	127.28
804.344	139.88
804.782	129.48
805.22	124.68
805.658	118.28
806.096	143.38
806.533	147.68
806.971	164.08
807.409	195.58
807.847	284.48
808.284	597.78
808.722	1693.08
809.16	3074.08
809.597	2884.68
810.035	5021.68
810.472	5502.58
810.91	1964.08
811.347	743.78
811.785	377.08
812.222	236.48
812.66	178.18
813.097	156.78
813.535	131.78
813.972	120.98
814.409	111.78
814.846	103.38
815.284	99.78
815.721	100.28
816.158	99.28
816.595	109.98
817.032	168.48
817.47	187.98
817.907	164.58
818.344	144.08
818.781	109.08
819.218	87.28
819.655	115.48
820.092	174.68
820.529	198.28
820.966	167.48
821.403	124.18
821.839	98.98
822.276	90.08
822.713	116.98
823.15	124.38
823.587	105.48
824.023	138.08
824.46	261.58
824.897	824.58
825.333	1285.78
825.77	549.28
826.206	216.18
826.643	124.78
827.08	96.38
827.516	79.48
827.953	78.08
828.389	71.98
828.825	64.18
829.262	59.78
829.698	62.28
830.135	58.08
830.571	66.38
831.007	58.68
831.443	62.08
831.88	54.58
832.316	56.88
832.752	62.98
833.188	64.98
833.624	60.78
834.06	68.08
834.497	65.28
834.933	66.08
835.369	72.78
835.805	55.88
836.241	68.48
836.677	73.08
837.112	84.38
837.548	93.88
837.984	122.58
838.42	182.48
838.856	452.48
839.292	1386.98
839.727	2169.88
840.163	1011.48
840.599	840.68
841.034	1873.28
841.47	2012.08
841.906	729.78
842.341	310.48
842.777	210.08
843.212	295.88
843.648	305.78
844.083	148.18
844.519	92.18
844.954	73.28
845.39	54.28
845.825	56.18
846.261	47.58
846.696	52.38
847.131	48.88
847.566	52.18
848.002	50.98
848.437	52.18
848.872	51.68
849.307	57.38
849.742	74.98
850.177	165.38
850.613	515.98
851.048	830.88
851.483	356.88
851.918	143.28
852.353	76.48
852.788	56.88
853.223	54.48
853.657	57.68
854.092	43.28
854.527	40.38
854.962	35.18
855.397	43.48
855.832	46.88
856.266	38.48
856.701	39.48
857.136	31.48
857.57	37.38
858.005	40.48
858.44	53.08
858.874	40.98
859.309	48.28
859.743	33.98
860.178	38.18
860.612	39.48
861.047	47.88
861.481	61.38
861.915	59.98
862.35	43.98
862.784	33.78
863.218	34.28
863.653	31.38
864.087	41.48
864.521	49.58
864.955	64.28
865.39	144.08
865.824	161.18
866.258	110.78
866.692	154.88
867.126	162.38
867.56	96.88
867.994	47.18
868.428	35.48
868.862	40.08
869.296	49.48
869.73	56.48
870.164	47.48
870.598	39.88
871.031	39.08
871.465	26.58
871.899	30.58
872.333	22.38
872.766	22.98
873.2	23.78
873.634	27.08
874.067	22.58
874.501	23.78
874.935	31.48
875.368	30.68
875.802	24.88
876.235	26.68
876.669	25.98
877.102	19.48
877.535	19.38
877.969	23.38
878.402	20.68
878.836	12.48
879.269	18.18
879.702	20.88
880.135	22.78
880.569	20.78
881.002	19.68
881.435	19.18
881.868	15.88
882.301	14.78
882.734	15.68
883.167	23.58
883.601	15.38
884.034	20.78
884.467	9.28
884.899	9.08
885.332	17.38
885.765	9.38
886.198	12.28
886.631	14.08
887.064	20.38
887.497	14.18
887.929	21.18
888.362	13.38
888.795	11.18
889.228	15.98
889.66	18.88
890.093	15.58
890.526	17.58
890.958	18.58
891.391	16.48
891.823	25.08
892.256	14.18
892.688	6.68
893.121	11.98
893.553	15.28
893.985	25.48
894.418	12.48
894.85	12.48
895.282	19.58
895.715	16.48
896.147	22.38
896.579	14.28
897.011	11.98
897.444	18.08
897.876	7.58
898.308	13.68
898.74	9.08
899.172	16.28
899.604	21.88
900.036	12.88
900.468	7.78
900.9	12.18
901.332	12.68
901.764	14.38
902.196	20.28
902.628	20.38
903.06	15.38
903.491	26.18
903.923	20.08
904.355	18.28
904.787	20.78
905.218	20.28
905.65	12.88
906.082	11.28
906.513	8.78
906.945	10.98
907.376	14.78
907.808	15.58
908.239	21.88
908.671	18.18
909.102	21.68
909.534	19.78
909.965	38.88
910.397	84.08
910.828	288.28
911.259	450.98
911.691	201.48
912.122	102.78
912.553	50.28
912.984	35.68
913.415	22.48
913.847	24.78
914.278	17.48
914.709	14.58
915.14	20.48
915.571	22.68
916.002	12.18
916.433	25.28
916.864	11.28
917.295	8.78
917.726	21.58
918.157	16.38
918.587	26.08
919.018	25.48
919.449	20.38
919.88	21.38
920.311	28.58
920.741	40.68
921.172	152.08
921.603	135.58
922.033	64.38
922.464	48.98
922.895	19.98
923.325	17.68
923.756	9.78
924.186	10.98
924.617	24.48
925.047	39.68
925.478	53.78
925.908	47.38
926.338	25.98
926.769	16.88
927.199	19.88
927.629	6.48
928.06	10.58
928.49	14.88
928.92	12.58
929.35	15.98
929.78	11.98
930.21	6.38
930.641	14.38
931.071	14.18
931.501	5.38
931.931	8.88
932.361	6.58
932.791	5.28
933.221	5.08
933.651	1.38
934.08	15.08
934.51	28.88
934.94	9.28
935.37	12.68
935.8	7.28
936.229	8.58
936.659	11.08
937.089	0.58
937.519	13.68
937.948	19.58
938.378	14.48
938.807	5.78
939.237	4.08
939.666	12.28
940.096	-1.42
940.525	0.28
940.955	1.88
941.384	3.18
941.814	-5.52
942.243	-1.22
942.672	5.08
943.102	-3.92
943.531	6.78
943.96	4.88
944.39	4.58
944.819	0.58
945.248	1.78
945.677	1.68
946.106	13.08
946.535	3.48
946.964	1.88
947.393	2.78
947.822	10.78
948.251	-2.02
948.68	4.48
949.109	5.98
949.538	6.38
949.967	3.58
950.396	-2.72
950.825	2.38
951.254	0.98
951.682	-8.72
952.111	7.48
952.54	4.98
952.969	-1.92
953.397	-1.32
953.826	-1.02
954.254	-7.42
954.683	1.98
955.112	-2.12
955.54	2.78
955.969	3.28
956.397	-4.52
956.826	-3.42
957.254	-1.22
957.682	6.48
958.111	5.28
958.539	-2.82
958.967	4.18
959.396	1.88
959.824	2.18
960.252	7.38
960.68	-4.62
961.109	-5.12
961.537	-6.92
961.965	2.68
962.393	4.48
962.821	-5.32
963.249	4.58
963.677	7.18
964.105	6.78
964.533	41.48
964.961	41.38
965.389	16.78
965.817	9.38
966.245	3.38
966.672	-7.52
967.1	-4.72
967.528	0.28
967.956	-2.32
968.383	1.78
968.811	-0.72
969.239	-3.42
969.666	-1.72
970.094	3.08
970.522	-0.52
970.949	-2.52
971.377	1.88
971.804	-1.02
972.232	-2.62
972.659	-2.22
973.087	-0.72
973.514	-6.82
973.941	-8.42
974.369	3.18
974.796	-1.92
975.223	-2.42
975.651	2.58
976.078	6.18
976.505	0.08
976.932	3.78
977.359	12.68
977.786	13.28
978.214	1.18
978.641	-0.92
979.068	-9.02
979.495	-1.12
979.922	-3.72
980.349	-4.92
980.776	5.78
981.202	-2.72
981.629	-0.52
982.056	5.98
982.483	-0.92
982.91	-4.32
983.337	-3.72
983.763	1.08
984.19	-6.42
984.617	-4.72
985.043	-3.52
985.47	-0.32
985.897	-5.22
986.323	-6.32
986.75	6.48
987.176	0.28
987.603	3.98
988.029	-2.92
988.456	-9.02
988.882	-0.72
989.308	-10.42
989.735	-5.22
990.161	2.28
990.587	-4.12
991.014	3.38
991.44	4.68
991.866	-3.02
992.292	-2.92
992.719	-2.12
993.145	3.98
993.571	-5.02
993.997	-1.72
994.423	1.08
994.849	-0.92
995.275	8.78
995.701	-4.42
996.127	-0.62
996.553	2.48
996.979	-3.32
997.405	-5.12
997.83	-3.52
998.256	-0.02
998.682	-6.12
999.108	-6.72
999.534	-4.72
999.959	2.38
1000.385	-0.12
1000.811	-1.02
1001.236	-6.62
1001.662	-8.12
1002.087	-7.82
1002.513	-0.02
1002.938	4.78
1003.364	0.88
1003.789	-3.72
1004.215	2.68
1004.64	-2.42
1005.066	1.18
1005.491	-1.12
1005.916	-7.92
1006.342	-1.32
1006.767	-9.52
1007.192	7.28
1007.617	-3.52
1008.042	-6.52
1008.468	-4.22
1008.893	-6.42
1009.318	-7.42
1009.743	-2.72
1010.168	4.78
1010.593	0.38
1011.018	-4.82
1011.443	-7.72
1011.868	-1.92
1012.293	-1.92
1012.718	-6.32
1013.143	1.78
1013.567	2.78
1013.992	-2.52
1014.417	-11.92
1014.842	-1.12
1015.267	-2.92
1015.691	-6.02
1016.116	7.68
1016.541	-1.42
1016.965	5.08
1017.39	3.28
1017.814	-1.82
1018.239	-3.02
1018.663	-7.32
1019.088	-10.32
1019.512	-7.12
1019.937	-3.52
1020.361	-4.22
1020.785	-10.02
1021.21	-6.12
1021.634	-1.72
1022.058	-0.22
1022.483	2.38
1022.907	-2.02
1023.331	-3.02
1023.755	-3.62
1024.179	-3.82
1024.604	-11.02
1025.028	-7.02
1025.452	-1.32
1025.876	-2.72
1026.3	-2.92
1026.724	-11.02
1027.148	-5.42
1027.572	-10.22
1027.996	-1.22
1028.42	-3.42
1028.843	-2.72
1029.267	-5.82
1029.691	1.78
1030.115	-10.32
1030.539	-7.72
1030.962	-8.42
1031.386	-10.72
1031.81	-1.32
1032.233	3.68
1032.657	1.68
1033.08	3.48
1033.504	-5.42
1033.927	-6.42
1034.351	0.28
1034.774	-5.12
1035.198	-1.62
1035.621	-3.52
1036.045	-9.62
1036.468	-1.92
1036.891	-10.42
1037.315	-6.32
1037.738	-9.82
1038.161	0.88
1038.584	0.08
1039.008	-4.02
1039.431	-5.12
1039.854	-5.92
1040.277	-7.52
1040.7	-11.02
1041.123	1.18
1041.546	-6.42
1041.969	-4.82
1042.392	-5.82
1042.815	1.38
1043.238	3.58
1043.661	-0.42
1044.084	-5.92
1044.507	-8.02
1044.93	-9.12
1045.352	-7.92
1045.775	-3.12
1046.198	-0.72
1046.621	4.28
1047.043	2.18
1047.466	4.98
1047.889	-3.72
1048.311	-5.92
1048.734	-2.62
1049.156	-6.32
1049.579	-2.22
1050.001	-3.02
1050.424	3.78
1050.846	-7.22
1051.269	-6.32
1051.691	-6.82
1052.113	-5.82
1052.536	-1.82
1052.958	-3.02
1053.38	-3.02
1053.802	-10.82
1054.225	2.38
1054.647	-11.52
1055.069	-2.42
1055.491	-0.32
1055.913	-9.52
1056.335	-0.52
1056.757	-7.32
1057.179	-5.82
1057.601	-7.02
1058.023	-7.82
1058.445	-7.52
1058.867	-8.52
1059.289	-4.12
1059.711	-8.02
1060.133	-2.82
1060.555	-5.62
1060.976	-1.32
1061.398	-3.72
1061.82	-7.32
1062.241	-4.02
1062.663	-6.72
1063.085	-3.42
1063.506	4.38
1063.928	-1.22
1064.35	-4.82
1064.771	-9.92
1065.193	4.08
1065.614	-7.92
1066.035	-8.02
1066.457	-3.22
1066.878	0.58
1067.3	-8.42
1067.721	-3.72
1068.142	0.78
1068.564	-4.72
1068.985	-2.22
1069.406	-9.12
1069.827	-3.02
1070.248	3.38
1070.67	-11.32
1071.091	-5.92
1071.512	-0.32
1071.933	-2.22
1072.354	-7.02
1072.775	-4.42
1073.196	-5.22
1073.617	-7.02
1074.038	-3.42
1074.459	-1.72
1074.88	-8.42
1075.3	-4.42
1075.721	-8.92
1076.142	-0.02
1076.563	-5.12
1076.983	-11.92
1077.404	-6.02
1077.825	-14.02
1078.246	-7.82
1078.666	-13.82
1079.087	-8.92
1079.507	-2.92
1079.928	0.28
1080.348	-2.02
1080.769	-9.02
1081.189	-2.02
1081.61	4.58
1082.03	-4.02
1082.451	-8.02
1082.871	-1.82
1083.291	-7.82
1083.711	-8.32
1084.132	-7.92
1084.552	-8.82
1084.972	-5.62
1085.392	-10.12
1085.813	-3.82
1086.233	-7.72
1086.653	-4.32
1087.073	-1.82
1087.493	-12.62
1087.913	-2.02
1088.333	-3.72
1088.753	0.88
1089.173	-0.62
1089.593	-3.22
1090.013	2.28
1090.433	-1.92
1090.852	-7.12
1091.272	-7.72
1091.692	2.78
1092.112	-5.92
1092.531	-4.72
1092.951	-16.42
1093.371	-3.62
1093.79	-2.72
1094.21	-10.32
1094.63	-7.82
1095.049	-10.42
1095.469	-9.62
1095.888	-5.32
1096.308	0.58
1096.727	1.28
1097.146	-7.22
1097.566	-0.22
1097.985	-8.52
1098.405	-1.62
1098.824	-5.32
1099.243	-9.12
1099.662	-6.92
1100.082	-3.42
1100.501	-1.62
1100.92	-1.52
1101.339	-11.42
1101.758	-2.52
