Data from 20171114-ORNL-Ar_H_NY_Subt18_08-06-30-015.txt Node
Date: Tue Nov 14 08:06:30 EST 2017
User: Ender
Spectrometer: HR+D1039
Trigger mode: 0
Integration Time (sec): 2.730000E-2
Scans to average: 10
Electric dark correction enabled: true
Nonlinearity correction enabled: false
Boxcar width: 0
XAxis mode: Wavelengths
Number of Pixels in Spectrum: 2048
>>>>>Begin Spectral Data<<<<<
187.836	-6.5
188.309	-6.5
188.782	-6.5
189.255	-1
189.728	-3.5
190.201	13.1
190.674	1.7
191.147	-0.5
191.619	-5.4
192.092	3.8
192.565	1.5
193.038	-4.6
193.511	2.5
193.984	2.5
194.456	-4.6
194.929	0.8
195.402	-0.5
195.874	0.7
196.347	-0
196.82	-9.6
197.292	5
197.765	0
198.237	-6.7
198.71	1
199.182	-2.7
199.655	1
200.127	-4
200.6	-2.1
201.072	-9
201.544	-3.9
202.017	-3.5
202.489	3.1
202.961	-3.3
203.433	-3.9
203.906	-3.1
204.378	-8.8
204.85	-3.8
205.322	-9.6
205.794	-4.4
206.266	-0.7
206.739	-2.5
207.211	2.2
207.683	-11
208.155	-5.4
208.627	1.9
209.099	-2.7
209.57	-9.7
210.042	-2.9
210.514	-2.7
210.986	-1.6
211.458	-7.1
211.93	-2.9
212.402	-1.9
212.873	-10.5
213.345	-8.7
213.817	-13.8
214.288	-8.5
214.76	-8.1
215.232	-5
215.703	1.7
216.175	-0.6
216.646	-7.3
217.118	-5.9
217.589	-11.4
218.061	-6.9
218.532	-4.8
219.004	-5.2
219.475	-4.3
219.946	-2.3
220.418	1.1
220.889	1.2
221.36	-0.1
221.832	-4.7
222.303	-6.2
222.774	3.8
223.245	-4.8
223.717	-12
224.188	-5.7
224.659	-0.8
225.13	-8.8
225.601	3.7
226.072	1.3
226.543	-2.1
227.014	-2.1
227.485	-2.5
227.956	-11.6
228.427	0
228.898	2.1
229.369	1.4
229.839	2.5
230.31	-8.6
230.781	0.2
231.252	-1.5
231.722	-5.2
232.193	-6.8
232.664	-0.8
233.135	-4.7
233.605	0.5
234.076	-8.9
234.546	3.2
235.017	0.6
235.487	-2.3
235.958	0.6
236.428	0.2
236.899	6.7
237.369	4.1
237.84	-1.5
238.31	8.3
238.78	7.2
239.251	-0.2
239.721	7.2
240.191	4.6
240.662	-3.1
241.132	2.2
241.602	1.3
242.072	-0.9
242.542	6.4
243.013	-0.7
243.483	3.9
243.953	-2.2
244.423	2.3
244.893	-4.2
245.363	0.1
245.833	1.6
246.303	4
246.773	7.9
247.243	2.9
247.712	4
248.182	1.4
248.652	7.1
249.122	-1
249.592	10.2
250.061	23
250.531	33
251.001	11.9
251.471	14.9
251.94	19.8
252.41	2.8
252.879	1.4
253.349	9.1
253.818	10.2
254.288	7.8
254.757	0.2
255.227	6.4
255.696	4.3
256.166	3.1
256.635	5.8
257.105	11.6
257.574	3
258.043	5.9
258.513	7.9
258.982	18.7
259.451	14.8
259.92	18.2
260.389	15.2
260.859	13.9
261.328	6.3
261.797	15.3
262.266	12.3
262.735	8.7
263.204	3.6
263.673	0.5
264.142	3.6
264.611	-3.9
265.08	-4.3
265.549	-0.6
266.018	4.1
266.487	-9.7
266.955	-1.7
267.424	2.7
267.893	5
268.362	-0.4
268.83	7.2
269.299	14.7
269.768	8.8
270.236	6.6
270.705	2.7
271.174	5.2
271.642	2
272.111	10.6
272.579	16.1
273.048	30.7
273.516	26.8
273.985	20.5
274.453	19
274.922	22.8
275.39	13.3
275.858	5.1
276.327	5.9
276.795	15.4
277.263	12.5
277.731	34
278.2	52.8
278.668	45.8
279.136	50.3
279.604	20.6
280.072	12.6
280.54	11.1
281.008	20.2
281.477	15.2
281.945	8.1
282.413	6.4
282.881	17.8
283.348	7.9
283.816	13.4
284.284	14.3
284.752	22.1
285.22	13.8
285.688	17.7
286.156	20.6
286.623	51.5
287.091	51.8
287.559	23.8
288.026	18.3
288.494	18.4
288.962	8.4
289.429	11.4
289.897	17.2
290.364	13
290.832	18.2
291.3	11.6
291.767	20.9
292.234	16.7
292.702	12.1
293.169	17.9
293.637	22.2
294.104	19.9
294.571	9.1
295.039	9.7
295.506	14.8
295.973	20.9
296.44	14.6
296.908	17.5
297.375	17.8
297.842	17.7
298.309	20.2
298.776	16.5
299.243	17.7
299.71	11.8
300.177	19.1
300.644	20.2
301.111	27.7
301.578	28
302.045	20.6
302.512	21.6
302.979	23.9
303.446	22.4
303.913	14.4
304.379	15.7
304.846	26.5
305.313	24.8
305.78	19.3
306.246	28.1
306.713	28.3
307.18	23.2
307.646	21.8
308.113	26.8
308.579	21.7
309.046	29.2
309.512	28.4
309.979	17.4
310.445	26.1
310.912	27.4
311.378	31.8
311.845	31.1
312.311	33.8
312.777	37.4
313.244	26.1
313.71	40.7
314.176	27.1
314.642	30.9
315.109	32.8
315.575	36
316.041	38.4
316.507	26.1
316.973	40.4
317.439	34.3
317.905	41.5
318.371	38.4
318.837	33.1
319.303	35.9
319.769	35.8
320.235	30.4
320.701	35.2
321.167	36.5
321.633	34.8
322.099	31.9
322.564	44.6
323.03	42.3
323.496	39.4
323.962	38.2
324.427	36.9
324.893	47.3
325.359	39.4
325.824	42.2
326.29	31.7
326.755	36.8
327.221	38.1
327.686	41.4
328.152	48.1
328.617	47.4
329.083	46.4
329.548	49.1
330.014	43.4
330.479	40.6
330.944	40.4
331.41	47.5
331.875	45.7
332.34	49.8
332.805	39.2
333.271	49.3
333.736	42.6
334.201	54.2
334.666	54.9
335.131	52.8
335.596	58.9
336.061	48.9
336.526	41.7
336.991	42.6
337.456	57
337.921	52
338.386	40.4
338.851	46.2
339.316	41.1
339.781	58.2
340.246	50.6
340.711	44.8
341.175	56.8
341.64	42.2
342.105	52.6
342.569	56.8
343.034	55.3
343.499	59.8
343.963	51.5
344.428	66.6
344.893	67.2
345.357	63.9
345.822	58.9
346.286	74.9
346.751	70.7
347.215	67.5
347.679	76
348.144	99.9
348.608	83.1
349.073	68.2
349.537	73.9
350.001	84.4
350.465	84.8
350.93	80.9
351.394	79.4
351.858	73.6
352.322	84.9
352.786	83.9
353.25	100.2
353.715	116.8
354.179	103.7
354.643	122.9
355.107	125.9
355.571	109.5
356.035	108.4
356.498	123.9
356.962	134.6
357.426	134
357.89	121.8
358.354	94.9
358.818	79.5
359.281	84
359.745	83.5
360.209	81.2
360.673	81.3
361.136	84.1
361.6	82.1
362.064	86.8
362.527	80.1
362.991	88.3
363.454	80.2
363.918	80.6
364.381	76.6
364.845	80.4
365.308	88.3
365.772	93.6
366.235	85.2
366.698	90.9
367.162	87.9
367.625	92.6
368.088	88
368.552	89.1
369.015	96.7
369.478	103.1
369.941	102.7
370.404	100.1
370.867	110.4
371.331	107.7
371.794	118.1
372.257	115.9
372.72	124.7
373.183	114.5
373.646	106
374.109	109.6
374.572	109.2
375.035	114.9
375.497	111.1
375.96	111.8
376.423	110.3
376.886	121
377.349	115.5
377.811	97
378.274	108
378.737	113
379.199	116.1
379.662	115.7
380.125	119.5
380.587	120.9
381.05	131.8
381.512	138.4
381.975	137
382.437	135.1
382.9	133.8
383.362	142.6
383.825	142.1
384.287	148.7
384.75	140.1
385.212	143.6
385.674	142.9
386.136	141.5
386.599	127.5
387.061	133.4
387.523	128.9
387.985	143.1
388.447	148.8
388.91	145.8
389.372	165.4
389.834	156.1
390.296	152.9
390.758	159
391.22	171.5
391.682	215.5
392.144	305.3
392.606	230.8
393.068	176
393.529	170.8
393.991	164.4
394.453	150.4
394.915	161.2
395.377	202.1
395.838	212.7
396.3	159.8
396.762	142.8
397.224	140.6
397.685	137.9
398.147	139
398.608	134.4
399.07	134.6
399.531	139.1
399.993	149.1
400.454	154
400.916	159.2
401.377	149.7
401.839	156.9
402.3	160.7
402.762	170.7
403.223	189.6
403.684	170.9
404.145	162.8
404.607	168.5
405.068	173.8
405.529	170.9
405.99	191.5
406.451	183.5
406.913	183.8
407.374	177.1
407.835	173.1
408.296	178.6
408.757	176.2
409.218	193.2
409.679	180.9
410.14	180
410.601	184.7
411.062	185.4
411.522	199.6
411.983	196.9
412.444	186.9
412.905	187.7
413.366	195.6
413.826	205.2
414.287	224.4
414.748	270
415.208	255.3
415.669	219
416.13	211.5
416.59	208.6
417.051	221.9
417.511	227.5
417.972	251.3
418.432	255.4
418.893	296.5
419.353	257.8
419.814	209.3
420.274	190.9
420.734	184.9
421.195	208.1
421.655	202.2
422.115	206.4
422.576	208.9
423.036	205.7
423.496	220.7
423.956	220.5
424.416	240
424.876	278.7
425.336	276.2
425.797	265.1
426.257	266.4
426.717	249.5
427.177	240.9
427.637	232.7
428.097	243.7
428.556	255.3
429.016	281.1
429.476	281.4
429.936	288.7
430.396	286.5
430.856	304.6
431.315	324.7
431.775	367.5
432.235	395.3
432.694	366.2
433.154	375.2
433.614	400.2
434.073	351.9
434.533	296.8
434.993	277.2
435.452	291.6
435.912	305.4
436.371	300.6
436.83	295.9
437.29	281.6
437.749	251.6
438.209	254.6
438.668	285.9
439.127	292.7
439.587	271.1
440.046	261.1
440.505	268.2
440.964	289.8
441.424	333.4
441.883	324.3
442.342	268.7
442.801	234.5
443.26	232.1
443.719	222.7
444.178	228.5
444.637	219.2
445.096	220.9
445.555	228
446.014	233.9
446.473	238.5
446.932	238
447.391	236.2
447.849	236.9
448.308	229.8
448.767	232.4
449.226	237.8
449.685	245.8
450.143	251.2
450.602	256.9
451.061	235.5
451.519	245.6
451.978	245.4
452.436	248.5
452.895	245.5
453.353	262.3
453.812	252
454.27	246.7
454.729	252.4
455.187	251.6
455.646	255.9
456.104	259.5
456.562	274
457.021	279
457.479	269.3
457.937	289.5
458.395	279.1
458.854	266
459.312	265.4
459.77	285.2
460.228	266.8
460.686	252.3
461.144	258.9
461.602	257
462.06	247.4
462.518	261
462.976	262.3
463.434	278.2
463.892	275.9
464.35	283.8
464.808	300.6
465.266	279
465.724	276.8
466.181	284.3
466.639	284.6
467.097	304.5
467.555	317
468.012	314.4
468.47	334.1
468.928	345.6
469.385	354.3
469.843	360.2
470.3	362.7
470.758	375.2
471.215	409.2
471.673	420.8
472.13	432.4
472.588	432
473.045	393.6
473.503	394.7
473.96	410.5
474.417	419
474.875	452.9
475.332	488.8
475.789	482.3
476.246	482.7
476.704	504.8
477.161	525
477.618	542
478.075	571.8
478.532	632.6
478.989	721.5
479.446	834
479.903	808.3
480.36	835.3
480.817	898.1
481.274	996.5
481.731	1121.5
482.188	1211.5
482.645	1350.2
483.102	1465.4
483.558	1594.5
484.015	1650.7
484.472	1614
484.929	1578.4
485.385	1519.9
485.842	1477
486.299	1412.7
486.755	1337.1
487.212	1144.7
487.668	962.4
488.125	896.1
488.582	808
489.038	777.8
489.494	744.3
489.951	717.2
490.407	699.8
490.864	672.9
491.32	668.1
491.776	667.6
492.233	677.2
492.689	640.5
493.145	630
493.602	635.5
494.058	635.9
494.514	635.4
494.97	658.6
495.426	675.9
495.882	647.1
496.338	639.5
496.794	653.3
497.251	649.4
497.707	656.9
498.163	659.1
498.618	673.7
499.074	672.4
499.53	705.3
499.986	708.5
500.442	679.6
500.898	661.2
501.354	651.7
501.809	668.2
502.265	670.6
502.721	687.7
503.177	702.1
503.632	695.3
504.088	703.3
504.543	737.4
504.999	736.6
505.455	687.8
505.91	654.6
506.366	667.3
506.821	650.1
507.277	647.9
507.732	653.4
508.187	658.7
508.643	662.7
509.098	657.9
509.553	674.7
510.009	698.5
510.464	703.8
510.919	709.3
511.375	723.2
511.83	748.7
512.285	752.4
512.74	794.4
513.195	814.8
513.65	796.9
514.105	805.5
514.56	811.2
515.015	817.8
515.47	839.5
515.925	822.9
516.38	822.4
516.835	825.9
517.29	813.4
517.745	812.4
518.2	797.8
518.655	781
519.109	776.1
519.564	777.7
520.019	761.2
520.474	757.2
520.928	748.5
521.383	758.9
521.838	736
522.292	741.9
522.747	748
523.201	729.2
523.656	732.2
524.11	723.2
524.565	727.7
525.019	729.4
525.474	723.8
525.928	725.1
526.382	729.1
526.837	725.8
527.291	730.5
527.745	727.2
528.2	727.7
528.654	719.2
529.108	714.7
529.562	715.8
530.016	722.5
530.47	725.3
530.925	725.2
531.379	734.8
531.833	729.1
532.287	730.4
532.741	724.9
533.195	735.7
533.649	742.2
534.103	746.1
534.556	733.9
535.01	744
535.464	733.5
535.918	758.8
536.372	754.7
536.826	745.2
537.279	733.9
537.733	742.9
538.187	740.4
538.64	744.5
539.094	755.5
539.548	763.8
540.001	749.3
540.455	753.9
540.908	751.9
541.362	768.1
541.815	775.8
542.269	790.6
542.722	795.9
543.175	803.6
543.629	803.7
544.082	821.7
544.536	822.1
544.989	813
545.442	825
545.895	822.4
546.349	834.7
546.802	820.7
547.255	837.1
547.708	843.6
548.161	852.5
548.614	859.7
549.067	866.6
549.52	850.9
549.973	843.6
550.426	843.6
550.879	831.7
551.332	843.8
551.785	845
552.238	834.1
552.691	855.4
553.144	870.7
553.596	879.8
554.049	896.1
554.502	927.1
554.955	951.2
555.407	949.6
555.86	938.5
556.313	934.3
556.765	931.7
557.218	923.1
557.67	926.3
558.123	909.4
558.576	906.6
559.028	923
559.48	910.5
559.933	910.5
560.385	864.3
560.838	846.6
561.29	809.9
561.742	813.9
562.195	794.7
562.647	795.8
563.099	805.1
563.551	803.3
564.004	814.1
564.456	805
564.908	799.6
565.36	781.8
565.812	773
566.264	758
566.716	753.4
567.168	741.3
567.62	741.2
568.072	733.9
568.524	726.6
568.976	721.5
569.428	707.9
569.88	702.7
570.332	707.6
570.784	711.2
571.235	709.8
571.687	724.2
572.139	734.2
572.59	735
573.042	749.8
573.494	730
573.945	729.9
574.397	717.1
574.849	714.7
575.3	716.3
575.752	706
576.203	702
576.655	715.2
577.106	708.7
577.557	693
578.009	696.2
578.46	689.5
578.912	687
579.363	694.2
579.814	680.8
580.265	693.8
580.717	704.4
581.168	702
581.619	705.3
582.07	709.9
582.521	694.9
582.972	690.5
583.423	705.5
583.875	706.8
584.326	727.8
584.777	777.7
585.227	854.6
585.678	938
586.129	1027.2
586.58	1110.2
587.031	1166.7
587.482	1327.2
587.933	1491.8
588.384	1313.7
588.834	1000.6
589.285	834
589.736	807
590.186	808.1
590.637	802.7
591.088	767.3
591.538	765.3
591.989	756
592.439	757.9
592.89	745
593.34	743.6
593.791	737.8
594.241	729.9
594.692	731.5
595.142	732.7
595.593	721
596.043	732
596.493	739.1
596.943	741
597.394	742.4
597.844	738.4
598.294	761.2
598.744	785.2
599.195	796.1
599.645	848.4
600.095	884.3
600.545	944.5
600.995	1000.8
601.445	1065.7
601.895	1131.8
602.345	1171.4
602.795	1152.9
603.245	1109.3
603.695	1057.1
604.145	990.8
604.594	950.6
605.044	893.6
605.494	831.1
605.944	776.9
606.393	779.3
606.843	759.7
607.293	760.2
607.743	755.4
608.192	779.2
608.642	777.2
609.091	791.2
609.541	799.8
609.99	799.6
610.44	795
610.889	749.6
611.339	723.2
611.788	710.2
612.238	724.6
612.687	742.2
613.136	745.7
613.586	759
614.035	764.7
614.484	779.4
614.933	788.4
615.383	769.5
615.832	767.4
616.281	746.8
616.73	716
617.179	687.2
617.628	684.5
618.077	660.9
618.526	645.2
618.975	634
619.424	644.6
619.873	649.9
620.322	644.3
620.771	629.8
621.22	640.2
621.669	608.5
622.118	612.6
622.567	608.6
623.015	588.4
623.464	586.3
623.913	583.8
624.361	566.7
624.81	575.9
625.259	570.5
625.707	571.6
626.156	573.1
626.604	588.9
627.053	582.4
627.501	591.8
627.95	580.5
628.398	608
628.847	584.1
629.295	592.6
629.744	587.6
630.192	593.4
630.64	600.1
631.089	585.3
631.537	592.8
631.985	605.7
632.433	622.3
632.881	624.1
633.33	674.4
633.778	650.1
634.226	586.2
634.674	592.2
635.122	590.8
635.57	612.3
636.018	639.7
636.466	609.9
636.914	588.1
637.362	595.3
637.81	592.8
638.258	608.6
638.705	599.8
639.153	631.1
639.601	645
640.049	663.2
640.497	697.1
640.944	708.5
641.392	661.9
641.84	623.5
642.287	604.8
642.735	584.4
643.182	591.8
643.63	585.7
644.078	597.9
644.525	604.4
644.973	615.4
645.42	624
645.867	650.4
646.315	653.9
646.762	683.9
647.21	704.5
647.657	738.5
648.104	776.7
648.551	796.7
648.999	863.9
649.446	951.6
649.893	1037.6
650.34	1189.8
650.787	1437.1
651.234	1771.8
651.682	2310.5
652.129	3178
652.576	4553.4
653.023	6696.7
653.47	9191.1
653.917	11474.5
654.363	13227.6
654.81	14572.6
655.257	13868.9
655.704	9146.9
656.151	5391.1
656.598	3502.3
657.044	2483.6
657.491	1907.4
657.938	1530.4
658.385	1278.6
658.831	1114.7
659.278	994.5
659.724	883.8
660.171	812.7
660.618	739.3
661.064	718.3
661.511	691.7
661.957	677.4
662.404	661.4
662.85	652.9
663.296	649.6
663.743	582.2
664.189	557.7
664.635	556.6
665.082	545.6
665.528	546.8
665.974	536.9
666.42	532.1
666.867	523.2
667.313	507.1
667.759	485.6
668.205	498
668.651	503.8
669.097	494.2
669.543	507.6
669.989	487.3
670.435	468.5
670.881	456
671.327	468.6
671.773	482.2
672.219	495.5
672.665	564.5
673.11	596
673.556	650.3
674.002	693.1
674.448	676
674.893	555.3
675.339	493.4
675.785	443.7
676.23	438.8
676.676	411.4
677.122	390.6
677.567	378.7
678.013	372.8
678.458	373.9
678.904	369.7
679.349	356.1
679.794	367
680.24	358.3
680.685	363
681.131	360.6
681.576	354.5
682.021	357.1
682.466	350.3
682.912	356.4
683.357	362.9
683.802	384.8
684.247	424.8
684.692	468.8
685.137	506.5
685.583	557.1
686.028	579.3
686.473	528
686.918	456.3
687.363	427.3
687.807	409.5
688.252	379.2
688.697	366.3
689.142	354.5
689.587	337.3
690.032	332.1
690.477	342
690.921	357.2
691.366	391.3
691.811	405.5
692.255	445.7
692.7	471.7
693.145	517.7
693.589	714.9
694.034	1164.2
694.478	1574.3
694.923	1770.9
695.367	2325.1
695.812	1234.5
696.256	514.2
696.701	384.7
697.145	357.7
697.59	348
698.034	336.3
698.478	330.5
698.922	334.1
699.367	339.5
699.811	351.7
700.255	369.5
700.699	398.1
701.143	430.1
701.588	485.9
702.032	540.5
702.476	526.7
702.92	501.5
703.364	498.9
703.808	654.5
704.252	1054.6
704.696	1494.1
705.14	1714.2
705.584	2190.9
706.027	1085.7
706.471	531.7
706.915	411.4
707.359	359.9
707.803	322.1
708.246	315.8
708.69	318.9
709.134	325.8
709.577	320.5
710.021	320.4
710.465	304.7
710.908	304.7
711.352	304.4
711.795	327
712.239	362.5
712.682	394.8
713.126	427.6
713.569	477.7
714.012	387.7
714.456	333
714.899	305.4
715.342	283.8
715.786	269.2
716.229	259.8
716.672	261.8
717.115	255.1
717.558	256.3
718.002	254.9
718.445	269.9
718.888	293.5
719.331	303.7
719.774	318
720.217	306.6
720.66	283.2
721.103	270.5
721.546	263.8
721.989	261.1
722.432	238.1
722.874	243.3
723.317	238
723.76	231.6
724.203	269.3
724.645	333.1
725.088	461
725.531	584.8
725.974	655.3
726.416	559.1
726.859	311.4
727.301	250.4
727.744	238.9
728.187	240.4
728.629	246.6
729.071	245.5
729.514	266.6
729.956	270.5
730.399	290.1
730.841	300.5
731.283	283.8
731.726	272
732.168	263.1
732.61	270
733.053	295.3
733.495	326.8
733.937	358.6
734.379	409.6
734.821	449.8
735.263	554.3
735.705	840.4
736.148	1610.4
736.59	2646.4
737.032	3116.8
737.474	2552.3
737.916	831.3
738.357	437.4
738.799	332.3
739.241	308.1
739.683	291.2
740.125	291.4
740.567	305.8
741.008	319.5
741.45	321.7
741.892	325.5
742.334	353.4
742.775	358.5
743.217	350.3
743.658	274.8
744.1	260.5
744.542	270.7
744.983	325.8
745.425	348.5
745.866	358
746.307	285.1
746.749	288.4
747.19	334.6
747.632	459.2
748.073	906.3
748.514	1891.1
748.956	2915.1
749.397	3650.4
749.838	3015.9
750.279	3033.2
750.72	1519.7
751.162	557.3
751.603	325.3
752.044	265.3
752.485	216.7
752.926	219.7
753.367	202.3
753.808	194.1
754.249	198.6
754.69	192.1
755.131	184.4
755.572	186.1
756.013	191.6
756.453	189
756.894	191.5
757.335	198.6
757.776	196.8
758.216	202.6
758.657	200.1
759.098	208.2
759.538	227.2
759.979	275.6
760.42	381.4
760.86	720
761.301	1853
761.741	4536.8
762.182	6570.7
762.622	4604.6
763.063	1335.7
763.503	549.8
763.943	354.4
764.384	341.7
764.824	411.3
765.264	429.9
765.705	301.9
766.145	217.5
766.585	196.1
767.025	186.2
767.465	188.5
767.906	242.9
768.346	323.9
768.786	341.9
769.226	264.6
769.666	328.3
770.106	628.9
770.546	1582.9
770.986	2712.5
771.426	2422
771.866	807.9
772.306	333.2
772.745	211
773.185	180.2
773.625	172.1
774.065	171.5
774.505	208.5
774.944	301.6
775.384	658.4
775.824	1192.4
776.263	1152.4
776.703	496
777.142	228.8
777.582	157.5
778.021	145.6
778.461	143.1
778.9	145.7
779.34	137.4
779.779	123.8
780.219	112.8
780.658	109.5
781.097	113.6
781.537	114.7
781.976	112
782.415	111.8
782.855	111
783.294	107.8
783.733	115.3
784.172	108
784.611	106.4
785.05	110.8
785.489	110.2
785.928	125.5
786.367	125.7
786.806	127.8
787.245	128.7
787.684	139.9
788.123	146.9
788.562	138.5
789.001	123.5
789.44	128.9
789.879	114.5
790.317	121.9
790.756	133
791.195	127.3
791.634	155
792.072	210.7
792.511	373.3
792.95	1028.7
793.388	2180.2
793.827	1981.4
794.265	685.5
794.704	290.9
795.142	189.5
795.581	153.5
796.019	138.9
796.458	127.8
796.896	125.9
797.334	132
797.773	157.9
798.211	227
798.649	445.1
799.087	1037.6
799.526	1629.1
799.964	2055.6
800.402	2059.2
800.84	763.8
801.278	308.8
801.716	193
802.154	164.4
802.592	153.4
803.03	142.8
803.468	135.3
803.906	142.9
804.344	155.2
804.782	143
805.22	137
805.658	141.8
806.096	152.4
806.533	164.1
806.971	182.1
807.409	220.4
807.847	319.1
808.284	668
808.722	1897.7
809.16	3348.3
809.597	3187.4
810.035	5514.3
810.472	5899.1
810.91	2116.9
811.347	807
811.785	408.9
812.222	257.1
812.66	195.7
813.097	160.9
813.535	141.6
813.972	134.2
814.409	126.4
814.846	113.8
815.284	113.3
815.721	106.2
816.158	111.3
816.595	122.7
817.032	176.5
817.47	193.6
817.907	175.2
818.344	152.2
818.781	127.8
819.218	106.1
819.655	127.1
820.092	192.3
820.529	213.3
820.966	177.1
821.403	136.3
821.839	117.4
822.276	106.7
822.713	122.6
823.15	136.2
823.587	120.1
824.023	154.3
824.46	306.3
824.897	914.3
825.333	1391.9
825.77	583.5
826.206	237.3
826.643	134.2
827.08	112.8
827.516	85.3
827.953	84.8
828.389	81.3
828.825	72
829.262	69.6
829.698	57.1
830.135	66.1
830.571	60.5
831.007	65.6
831.443	65.7
831.88	64.9
832.316	66.1
832.752	62.6
833.188	64.1
833.624	66.6
834.06	68.7
834.497	71.1
834.933	77.2
835.369	73.9
835.805	70.3
836.241	78.1
836.677	84.4
837.112	95
837.548	112.9
837.984	132.5
838.42	202.3
838.856	489.3
839.292	1539
839.727	2352
840.163	1095
840.599	941.7
841.034	2084.8
841.47	2154
841.906	786.5
842.341	342.2
842.777	230.6
843.212	301.4
843.648	307.9
844.083	148.7
844.519	94.4
844.954	80.4
845.39	61.6
845.825	61.2
846.261	60.9
846.696	51.3
847.131	55.1
847.566	60.8
848.002	51.6
848.437	55.3
848.872	58.7
849.307	59.3
849.742	81.1
850.177	179.8
850.613	553.6
851.048	894.2
851.483	385.5
851.918	151.7
852.353	89.1
852.788	72.3
853.223	55.1
853.657	53.7
854.092	49.4
854.527	43.1
854.962	49.7
855.397	47.7
855.832	48.1
856.266	39.4
856.701	48.5
857.136	38.1
857.57	43.8
858.005	50.6
858.44	58.6
858.874	44.3
859.309	49.9
859.743	39.8
860.178	48.8
860.612	49.3
861.047	50.1
861.481	64.7
861.915	72.4
862.35	42.8
862.784	34.9
863.218	36
863.653	30.2
864.087	48.6
864.521	51.8
864.955	71.7
865.39	158.2
865.824	178.7
866.258	108.5
866.692	164.3
867.126	183.5
867.56	109.2
867.994	51.3
868.428	39
868.862	50.1
869.296	57.1
869.73	56.2
870.164	57.7
870.598	48.4
871.031	39
871.465	29.5
871.899	31.9
872.333	24.8
872.766	29.3
873.2	24.9
873.634	30.6
874.067	23.2
874.501	26.2
874.935	33.2
875.368	35.3
875.802	28.5
876.235	25.6
876.669	27.4
877.102	28.4
877.535	27.2
877.969	21.9
878.402	24.7
878.836	18.3
879.269	18.3
879.702	24.9
880.135	22.7
880.569	23.8
881.002	25.1
881.435	25.5
881.868	18.2
882.301	21.4
882.734	16.4
883.167	23.1
883.601	22.3
884.034	21.9
884.467	14.3
884.899	10.9
885.332	19.4
885.765	14.4
886.198	20.2
886.631	21.4
887.064	21
887.497	16.3
887.929	21.7
888.362	13.3
888.795	7.1
889.228	15.4
889.66	28.7
890.093	15.4
890.526	15.5
890.958	18.3
891.391	18.9
891.823	22.3
892.256	17.6
892.688	11.6
893.121	15.3
893.553	16.7
893.985	21.3
894.418	20.8
894.85	8.8
895.282	21
895.715	14.8
896.147	18.8
896.579	16.6
897.011	15.1
897.444	17.9
897.876	15.4
898.308	12.6
898.74	16.8
899.172	15.3
899.604	22.5
900.036	21.8
900.468	13.1
900.9	13
901.332	18.7
901.764	15
902.196	20.1
902.628	14.8
903.06	14.5
903.491	31.1
903.923	23.3
904.355	24.9
904.787	28
905.218	20.6
905.65	22
906.082	14.8
906.513	9.7
906.945	17.3
907.376	8.6
907.808	21.3
908.239	25.4
908.671	23.2
909.102	24.4
909.534	24.2
909.965	47
910.397	94.5
910.828	320.9
911.259	479.9
911.691	224.5
912.122	112.8
912.553	49.8
912.984	29.6
913.415	22.2
913.847	25.3
914.278	19.2
914.709	15.1
915.14	17.1
915.571	14.3
916.002	11.6
916.433	20.2
916.864	20.8
917.295	16.4
917.726	23.3
918.157	15.8
918.587	25.7
919.018	17.9
919.449	18.4
919.88	24.4
920.311	29.4
920.741	52.5
921.172	169.9
921.603	158.1
922.033	73.8
922.464	41.2
922.895	24
923.325	19.6
923.756	18.9
924.186	17.2
924.617	33.1
925.047	40.6
925.478	50.5
925.908	43.3
926.338	23.4
926.769	15.4
927.199	22.9
927.629	4.8
928.06	10.7
928.49	8.3
928.92	16.7
929.35	10.8
929.78	10.6
930.21	7.5
930.641	9
931.071	7.9
931.501	-1.5
931.931	6.4
932.361	11.1
932.791	6.5
933.221	8.1
933.651	6.5
934.08	13.3
934.51	27.9
934.94	9.8
935.37	5.5
935.8	10.9
936.229	4.7
936.659	8.9
937.089	6.8
937.519	14.1
937.948	19.4
938.378	18.8
938.807	6.3
939.237	1.3
939.666	12.4
940.096	-0.3
940.525	5.4
940.955	3.5
941.384	3.3
941.814	-2.1
942.243	0.5
942.672	0.3
943.102	3.4
943.531	3.5
943.96	7.2
944.39	9.9
944.819	1.4
945.248	0.1
945.677	-3.7
946.106	6.9
946.535	5.6
946.964	2
947.393	5.1
947.822	0.5
948.251	-1.2
948.68	4
949.109	5.3
949.538	5.1
949.967	0.6
950.396	-1.4
950.825	-7.2
951.254	4.1
951.682	-1.2
952.111	0.7
952.54	1.8
952.969	-2.4
953.397	-0.7
953.826	5.1
954.254	-4.5
954.683	2.1
955.112	-1.6
955.54	3.2
955.969	2.7
956.397	5.1
956.826	-2.6
957.254	5.8
957.682	4.4
958.111	-2.2
958.539	-2.5
958.967	1.6
959.396	-2.3
959.824	3
960.252	3.4
960.68	-7.2
961.109	-1.9
961.537	-2.1
961.965	-6.7
962.393	-2.4
962.821	-7.5
963.249	-2.5
963.677	4
964.105	0.7
964.533	41.5
964.961	43
965.389	25.6
965.817	7.8
966.245	1.9
966.672	-7.5
967.1	-12.9
967.528	-3.4
967.956	0.9
968.383	2.2
968.811	-6.7
969.239	-5.6
969.666	-0.8
970.094	5.5
970.522	-0.5
970.949	-0.9
971.377	-0.1
971.804	-4.1
972.232	-7.6
972.659	-4.7
973.087	-1.1
973.514	-0.8
973.941	-2.1
974.369	0.8
974.796	1.4
975.223	0.5
975.651	-2.6
976.078	4.4
976.505	0.7
976.932	6.9
977.359	16.9
977.786	8.1
978.214	-5.7
978.641	-5.9
979.068	-3.9
979.495	-0.2
979.922	-1.6
980.349	-2.5
980.776	2.6
981.202	-2.1
981.629	7
982.056	2.4
982.483	3.2
982.91	3.9
983.337	-1.3
983.763	3.3
984.19	-4.8
984.617	-7.1
985.043	0.4
985.47	-3.5
985.897	-5.7
986.323	-8.4
986.75	1.3
987.176	-1
987.603	-1.4
988.029	-1.1
988.456	-3.5
988.882	-0.9
989.308	-4.1
989.735	0.2
990.161	-0.4
990.587	-7.4
991.014	-3.1
991.44	8.7
991.866	-1.4
992.292	-3
992.719	-0
993.145	1.9
993.571	-11.4
993.997	-8.8
994.423	2.9
994.849	-1.6
995.275	1.2
995.701	-0.2
996.127	-0.6
996.553	4.8
996.979	-3
997.405	-5.2
997.83	-15.4
998.256	-7.6
998.682	-6.9
999.108	-13.1
999.534	-1.8
999.959	-1.6
1000.385	-2
1000.811	-2.7
1001.236	-6.1
1001.662	-5.9
1002.087	-6
1002.513	5.7
1002.938	-0.7
1003.364	-1.3
1003.789	-0.4
1004.215	4
1004.64	-2.3
1005.066	3.6
1005.491	0.2
1005.916	-3.6
1006.342	-3.8
1006.767	-12.1
1007.192	6.3
1007.617	-8.8
1008.042	-3.1
1008.468	-5.4
1008.893	-6.9
1009.318	1.3
1009.743	3
1010.168	4.7
1010.593	-0.8
1011.018	-14.7
1011.443	-3.7
1011.868	5.2
1012.293	-4.5
1012.718	-3.8
1013.143	-0.8
1013.567	-3.2
1013.992	-3.9
1014.417	-12
1014.842	-2.5
1015.267	-11.7
1015.691	-7.3
1016.116	8.5
1016.541	-2.7
1016.965	-2.4
1017.39	1.1
1017.814	0.2
1018.239	0.6
1018.663	-12.1
1019.088	-11.4
1019.512	-1.6
1019.937	1.8
1020.361	-2.1
1020.785	-9
1021.21	0.1
1021.634	1.1
1022.058	-0.1
1022.483	1.3
1022.907	-9.2
1023.331	-1.3
1023.755	-3.6
1024.179	-2.1
1024.604	-6.8
1025.028	-8.6
1025.452	-5.4
1025.876	-6.1
1026.3	-3.1
1026.724	-8.8
1027.148	-5.7
1027.572	-3
1027.996	1.3
1028.42	-2.7
1028.843	-4.2
1029.267	-8
1029.691	-6.5
1030.115	-9.6
1030.539	-7.5
1030.962	-9.2
1031.386	-10.7
1031.81	-0.3
1032.233	2.3
1032.657	-3
1033.08	-1
1033.504	-1.2
1033.927	-5.5
1034.351	1.8
1034.774	-5.2
1035.198	0.7
1035.621	-5.1
1036.045	-6.9
1036.468	7.1
1036.891	-8.6
1037.315	-12.4
1037.738	-14.8
1038.161	-1.3
1038.584	-5.5
1039.008	-8.9
1039.431	-2.9
1039.854	-3.9
1040.277	-3.8
1040.7	-5
1041.123	-4.7
1041.546	-7.9
1041.969	-9
1042.392	-11.3
1042.815	-5.3
1043.238	4.2
1043.661	-2.7
1044.084	-7.8
1044.507	-6.5
1044.93	-10.6
1045.352	-3.5
1045.775	-8.3
1046.198	-3.3
1046.621	-1.9
1047.043	0
1047.466	7.7
1047.889	-2.4
1048.311	-4.6
1048.734	-7.1
1049.156	6.4
1049.579	1.5
1050.001	0.3
1050.424	-4.3
1050.846	-7.6
1051.269	-2.4
1051.691	-6.4
1052.113	-4.7
1052.536	-4.5
1052.958	-4.1
1053.38	-8.3
1053.802	-10.1
1054.225	4.1
1054.647	-5.1
1055.069	-3.5
1055.491	-0.7
1055.913	-11.4
1056.335	0.2
1056.757	-7.3
1057.179	-7.6
1057.601	-2.1
1058.023	-4.3
1058.445	-2.8
1058.867	-4.8
1059.289	-6.1
1059.711	-0.7
1060.133	1.2
1060.555	-3.5
1060.976	-7.2
1061.398	-4.2
1061.82	-6
1062.241	-11.2
1062.663	-3.4
1063.085	-2.5
1063.506	-0.3
1063.928	-1
1064.35	-4.4
1064.771	-16
1065.193	-6.5
1065.614	-9.1
1066.035	-6.2
1066.457	-6.7
1066.878	2.6
1067.3	-9.7
1067.721	-5.1
1068.142	-7.8
1068.564	-3.6
1068.985	-2.3
1069.406	-1.4
1069.827	-6.5
1070.248	2.1
1070.67	-6.5
1071.091	-3.1
1071.512	-4.5
1071.933	-8.2
1072.354	-6.5
1072.775	-7.2
1073.196	-5.3
1073.617	-9.7
1074.038	-7.5
1074.459	-5.8
1074.88	-9.2
1075.3	0.1
1075.721	-4.9
1076.142	0.4
1076.563	3.1
1076.983	-9.2
1077.404	-10
1077.825	-14.3
1078.246	-6.1
1078.666	-7.7
1079.087	-6.3
1079.507	-6.6
1079.928	-0.4
1080.348	4.8
1080.769	-6.4
1081.189	0.5
1081.61	0.9
1082.03	-7.1
1082.451	-8.6
1082.871	-2.7
1083.291	-6.6
1083.711	-7.4
1084.132	-12.4
1084.552	-5.8
1084.972	-0.3
1085.392	-16.1
1085.813	-15.8
1086.233	-6.1
1086.653	-3.5
1087.073	-2.1
1087.493	-2.7
1087.913	-3.6
1088.333	-4.7
1088.753	-3.5
1089.173	3.7
1089.593	-7
1090.013	-1.5
1090.433	0.3
1090.852	-6.1
1091.272	2.3
1091.692	-0.3
1092.112	-7.2
1092.531	-9.3
1092.951	-10.9
1093.371	-3.6
1093.79	3.9
1094.21	-8.9
1094.63	-0.6
1095.049	-4
1095.469	-2.4
1095.888	-4.9
1096.308	4
1096.727	7.6
1097.146	-1.4
1097.566	-3
1097.985	-4.6
1098.405	-6.2
1098.824	-1
1099.243	-5.5
1099.662	-6.7
1100.082	-5.4
1100.501	4.2
1100.92	-7.2
1101.339	-6.1
1101.758	-3.9
