Data from 20171114-ORNL-Ar_H_NY_Subt18_08-04-46-830.txt Node
Date: Tue Nov 14 08:04:46 EST 2017
User: Ender
Spectrometer: HR+D1039
Trigger mode: 0
Integration Time (sec): 2.730000E-2
Scans to average: 10
Electric dark correction enabled: true
Nonlinearity correction enabled: false
Boxcar width: 0
XAxis mode: Wavelengths
Number of Pixels in Spectrum: 2048
>>>>>Begin Spectral Data<<<<<
187.836	-1.28
188.309	-1.28
188.782	-1.28
189.255	-2.18
189.728	-4.68
190.201	0.32
190.674	4.52
191.147	0.02
191.619	-8.48
192.092	2.82
192.565	5.82
193.038	-3.78
193.511	0.42
193.984	3.62
194.456	1.52
194.929	1.42
195.402	-1.78
195.874	1.72
196.347	1.62
196.82	-7.58
197.292	8.72
197.765	1.22
198.237	-0.28
198.71	2.12
199.182	0.42
199.655	1.12
200.127	-0.48
200.6	-5.28
201.072	-1.58
201.544	-7.18
202.017	0.72
202.489	4.72
202.961	-2.18
203.433	-4.68
203.906	-6.48
204.378	-9.18
204.85	-2.18
205.322	-5.38
205.794	0.72
206.266	-0.48
206.739	-6.78
207.211	3.32
207.683	-9.38
208.155	-5.98
208.627	-6.78
209.099	-0.88
209.57	-9.48
210.042	1.02
210.514	-2.08
210.986	2.52
211.458	-3.78
211.93	-0.98
212.402	4.32
212.873	-5.58
213.345	-9.28
213.817	-6.98
214.288	-0.88
214.76	-7.78
215.232	-4.68
215.703	-5.38
216.175	-1.18
216.646	-0.98
217.118	-5.08
217.589	-11.28
218.061	-2.88
218.532	-0.18
219.004	3.02
219.475	2.22
219.946	-4.68
220.418	-5.68
220.889	3.52
221.36	4.42
221.832	-4.48
222.303	-7.58
222.774	3.82
223.245	-12.58
223.717	-2.68
224.188	-0.38
224.659	-4.18
225.13	-1.48
225.601	-1.18
226.072	5.42
226.543	1.72
227.014	-2.58
227.485	2.72
227.956	-1.98
228.427	-4.88
228.898	2.92
229.369	1.22
229.839	0.42
230.31	-4.88
230.781	3.62
231.252	-3.28
231.722	-4.88
232.193	-0.68
232.664	0.32
233.135	-0.28
233.605	3.32
234.076	-4.58
234.546	1.42
235.017	3.92
235.487	1.72
235.958	6.82
236.428	-0.18
236.899	10.42
237.369	8.72
237.84	-0.68
238.31	5.42
238.78	7.92
239.251	5.72
239.721	6.12
240.191	-0.28
240.662	3.12
241.132	7.82
241.602	-1.98
242.072	2.02
242.542	11.72
243.013	7.22
243.483	6.62
243.953	8.62
244.423	1.32
244.893	-0.88
245.363	10.22
245.833	1.82
246.303	-3.08
246.773	12.12
247.243	11.32
247.712	6.02
248.182	15.92
248.652	11.82
249.122	2.62
249.592	17.92
250.061	24.72
250.531	33.82
251.001	13.42
251.471	28.32
251.94	25.12
252.41	6.62
252.879	7.12
253.349	18.52
253.818	15.42
254.288	7.22
254.757	7.62
255.227	3.92
255.696	7.52
256.166	8.62
256.635	13.82
257.105	12.32
257.574	12.82
258.043	12.02
258.513	14.02
258.982	24.42
259.451	6.52
259.92	15.22
260.389	8.82
260.859	15.62
261.328	13.72
261.797	18.32
262.266	15.12
262.735	14.82
263.204	8.32
263.673	7.82
264.142	6.42
264.611	0.92
265.08	8.92
265.549	5.32
266.018	10.22
266.487	6.72
266.955	2.02
267.424	6.52
267.893	12.92
268.362	3.42
268.83	13.02
269.299	15.62
269.768	11.72
270.236	17.32
270.705	13.02
271.174	11.02
271.642	13.42
272.111	15.42
272.579	15.32
273.048	32.32
273.516	32.82
273.985	30.72
274.453	29.22
274.922	25.62
275.39	14.52
275.858	6.82
276.327	10.22
276.795	18.32
277.263	20.82
277.731	39.12
278.2	62.72
278.668	68.82
279.136	58.92
279.604	22.52
280.072	18.22
280.54	19.92
281.008	17.72
281.477	14.12
281.945	8.52
282.413	18.22
282.881	17.72
283.348	14.22
283.816	19.32
284.284	20.32
284.752	24.02
285.22	17.02
285.688	15.22
286.156	19.92
286.623	48.62
287.091	48.22
287.559	30.12
288.026	24.32
288.494	21.92
288.962	10.92
289.429	17.32
289.897	17.02
290.364	16.62
290.832	15.42
291.3	14.82
291.767	21.82
292.234	24.22
292.702	19.42
293.169	27.32
293.637	29.72
294.104	21.12
294.571	16.32
295.039	13.32
295.506	17.42
295.973	24.12
296.44	10.62
296.908	19.62
297.375	19.92
297.842	25.12
298.309	16.72
298.776	10.92
299.243	23.12
299.71	15.62
300.177	30.12
300.644	24.02
301.111	23.12
301.578	27.42
302.045	26.82
302.512	31.02
302.979	29.52
303.446	32.42
303.913	16.32
304.379	20.62
304.846	29.92
305.313	28.92
305.78	24.52
306.246	31.22
306.713	28.52
307.18	24.52
307.646	34.62
308.113	36.52
308.579	32.32
309.046	30.42
309.512	28.32
309.979	21.72
310.445	29.32
310.912	31.82
311.378	35.92
311.845	32.12
312.311	33.82
312.777	36.62
313.244	32.12
313.71	40.82
314.176	39.62
314.642	36.92
315.109	33.42
315.575	40.12
316.041	47.22
316.507	37.72
316.973	44.82
317.439	41.32
317.905	37.02
318.371	35.52
318.837	44.22
319.303	34.12
319.769	39.92
320.235	44.42
320.701	36.32
321.167	39.42
321.633	35.22
322.099	45.02
322.564	46.42
323.03	48.82
323.496	43.42
323.962	45.12
324.427	47.42
324.893	49.52
325.359	48.62
325.824	38.82
326.29	38.02
326.755	40.82
327.221	48.02
327.686	43.32
328.152	49.12
328.617	45.32
329.083	48.42
329.548	53.52
330.014	54.52
330.479	42.72
330.944	48.32
331.41	43.02
331.875	45.12
332.34	46.12
332.805	46.22
333.271	46.02
333.736	49.02
334.201	58.22
334.666	51.02
335.131	55.72
335.596	53.02
336.061	56.52
336.526	47.62
336.991	51.52
337.456	62.82
337.921	53.62
338.386	40.02
338.851	45.22
339.316	49.52
339.781	46.92
340.246	46.12
340.711	50.32
341.175	50.22
341.64	49.82
342.105	58.02
342.569	53.92
343.034	62.52
343.499	60.02
343.963	57.02
344.428	62.92
344.893	57.12
345.357	60.62
345.822	66.82
346.286	68.82
346.751	74.92
347.215	63.92
347.679	72.92
348.144	97.82
348.608	85.82
349.073	74.52
349.537	76.22
350.001	84.22
350.465	91.62
350.93	80.82
351.394	84.12
351.858	76.12
352.322	89.92
352.786	85.82
353.25	101.72
353.715	113.52
354.179	100.02
354.643	121.82
355.107	127.82
355.571	110.92
356.035	103.62
356.498	114.22
356.962	120.12
357.426	124.82
357.89	117.02
358.354	93.42
358.818	85.32
359.281	87.22
359.745	82.02
360.209	80.12
360.673	77.12
361.136	72.42
361.6	82.22
362.064	84.02
362.527	83.52
362.991	90.42
363.454	85.72
363.918	79.52
364.381	76.12
364.845	82.32
365.308	85.52
365.772	89.82
366.235	86.62
366.698	83.52
367.162	88.22
367.625	85.82
368.088	88.12
368.552	93.12
369.015	89.02
369.478	94.92
369.941	100.32
370.404	92.82
370.867	99.72
371.331	112.82
371.794	114.52
372.257	113.92
372.72	111.82
373.183	107.52
373.646	102.12
374.109	102.22
374.572	106.22
375.035	111.12
375.497	104.22
375.96	102.32
376.423	97.22
376.886	109.72
377.349	108.02
377.811	103.12
378.274	110.12
378.737	104.32
379.199	108.82
379.662	114.92
380.125	117.42
380.587	115.72
381.05	121.62
381.512	124.42
381.975	130.72
382.437	126.52
382.9	127.42
383.362	132.72
383.825	136.52
384.287	149.72
384.75	140.02
385.212	138.62
385.674	139.42
386.136	134.42
386.599	124.22
387.061	121.32
387.523	134.22
387.985	134.32
388.447	139.02
388.91	143.42
389.372	156.22
389.834	152.92
390.296	140.32
390.758	148.92
391.22	162.52
391.682	205.92
392.144	288.62
392.606	226.92
393.068	162.72
393.529	163.12
393.991	143.82
394.453	142.62
394.915	152.72
395.377	187.72
395.838	213.62
396.3	157.32
396.762	143.02
397.224	126.42
397.685	130.12
398.147	127.72
398.608	126.02
399.07	130.52
399.531	134.02
399.993	138.12
400.454	149.22
400.916	144.72
401.377	142.22
401.839	150.22
402.3	149.52
402.762	156.42
403.223	175.72
403.684	174.32
404.145	159.32
404.607	155.12
405.068	164.32
405.529	163.12
405.99	183.92
406.451	171.42
406.913	172.72
407.374	157.12
407.835	154.52
408.296	164.92
408.757	167.22
409.218	179.52
409.679	168.62
410.14	177.52
410.601	174.82
411.062	181.62
411.522	177.02
411.983	184.22
412.444	166.52
412.905	172.12
413.366	181.02
413.826	182.92
414.287	201.92
414.748	258.12
415.208	238.52
415.669	207.02
416.13	192.42
416.59	192.42
417.051	205.32
417.511	212.82
417.972	227.02
418.432	240.82
418.893	278.42
419.353	243.02
419.814	198.82
420.274	178.42
420.734	184.22
421.195	190.22
421.655	191.02
422.115	181.22
422.576	181.12
423.036	192.02
423.496	198.12
423.956	217.62
424.416	224.52
424.876	261.22
425.336	251.42
425.797	249.82
426.257	240.92
426.717	234.32
427.177	226.92
427.637	211.82
428.097	226.22
428.556	235.32
429.016	257.32
429.476	254.62
429.936	269.52
430.396	262.62
430.856	276.52
431.315	307.42
431.775	338.42
432.235	366.42
432.694	339.02
433.154	338.12
433.614	363.72
434.073	328.12
434.533	274.22
434.993	262.22
435.452	272.42
435.912	287.72
436.371	272.52
436.83	269.92
437.29	250.92
437.749	236.32
438.209	227.82
438.668	264.42
439.127	271.62
439.587	255.12
440.046	240.32
440.505	255.42
440.964	265.42
441.424	306.12
441.883	300.22
442.342	249.32
442.801	212.32
443.26	217.52
443.719	214.62
444.178	210.22
444.637	201.02
445.096	214.62
445.555	207.22
446.014	214.02
446.473	214.42
446.932	220.42
447.391	218.42
447.849	213.42
448.308	208.92
448.767	218.12
449.226	228.12
449.685	234.22
450.143	241.02
450.602	223.92
451.061	221.62
451.519	221.82
451.978	225.22
452.436	214.82
452.895	226.32
453.353	235.42
453.812	230.22
454.27	230.72
454.729	232.52
455.187	228.72
455.646	239.42
456.104	238.82
456.562	246.82
457.021	253.82
457.479	242.52
457.937	255.82
458.395	249.72
458.854	242.72
459.312	248.82
459.77	262.42
460.228	243.92
460.686	234.62
461.144	239.12
461.602	234.02
462.06	227.02
462.518	244.22
462.976	244.92
463.434	254.62
463.892	245.92
464.35	263.52
464.808	278.22
465.266	253.42
465.724	258.12
466.181	263.12
466.639	262.22
467.097	282.62
467.555	293.72
468.012	289.82
468.47	300.42
468.928	314.12
469.385	325.42
469.843	328.52
470.3	336.92
470.758	346.72
471.215	373.02
471.673	391.52
472.13	388.52
472.588	396.52
473.045	354.12
473.503	362.72
473.96	377.62
474.417	388.22
474.875	413.12
475.332	450.82
475.789	434.62
476.246	449.12
476.704	470.22
477.161	482.82
477.618	501.92
478.075	532.62
478.532	591.52
478.989	662.62
479.446	763.02
479.903	745.42
480.36	770.12
480.817	836.82
481.274	939.12
481.731	1016.42
482.188	1130.32
482.645	1249.62
483.102	1355.82
483.558	1490.42
484.015	1546.02
484.472	1509.72
484.929	1470.62
485.385	1413.22
485.842	1384.22
486.299	1300.22
486.755	1240.72
487.212	1049.32
487.668	890.32
488.125	816.22
488.582	754.62
489.038	719.52
489.494	687.02
489.951	664.02
490.407	642.92
490.864	611.82
491.32	614.62
491.776	615.02
492.233	619.22
492.689	587.82
493.145	570.62
493.602	566.52
494.058	584.02
494.514	581.42
494.97	617.32
495.426	619.22
495.882	595.42
496.338	591.22
496.794	603.02
497.251	594.92
497.707	611.52
498.163	621.02
498.618	620.92
499.074	627.62
499.53	652.82
499.986	650.82
500.442	619.82
500.898	607.92
501.354	595.22
501.809	611.32
502.265	617.62
502.721	633.22
503.177	638.12
503.632	630.92
504.088	644.32
504.543	679.32
504.999	679.52
505.455	632.02
505.91	615.12
506.366	604.62
506.821	602.42
507.277	601.32
507.732	609.32
508.187	591.02
508.643	603.62
509.098	608.52
509.553	624.32
510.009	623.92
510.464	637.12
510.919	658.52
511.375	659.72
511.83	670.22
512.285	695.52
512.74	734.32
513.195	743.22
513.65	737.42
514.105	738.62
514.56	736.42
515.015	750.12
515.47	772.22
515.925	750.92
516.38	758.32
516.835	774.62
517.29	756.22
517.745	740.92
518.2	724.82
518.655	723.52
519.109	722.02
519.564	712.62
520.019	707.82
520.474	692.72
520.928	691.02
521.383	692.22
521.838	687.12
522.292	685.02
522.747	684.22
523.201	667.72
523.656	662.12
524.11	662.62
524.565	654.72
525.019	660.42
525.474	666.72
525.928	665.72
526.382	663.72
526.837	669.72
527.291	668.72
527.745	674.42
528.2	662.12
528.654	654.82
529.108	660.02
529.562	655.82
530.016	656.02
530.47	657.52
530.925	660.82
531.379	672.22
531.833	672.02
532.287	667.02
532.741	665.82
533.195	676.02
533.649	690.62
534.103	694.92
534.556	676.02
535.01	676.42
535.464	668.22
535.918	682.42
536.372	681.82
536.826	682.72
537.279	671.02
537.733	676.32
538.187	676.92
538.64	680.72
539.094	688.12
539.548	688.12
540.001	685.02
540.455	680.82
540.908	686.02
541.362	694.52
541.815	697.62
542.269	717.72
542.722	712.72
543.175	727.32
543.629	723.22
544.082	750.82
544.536	750.42
544.989	747.72
545.442	757.42
545.895	743.02
546.349	752.72
546.802	740.22
547.255	757.52
547.708	759.92
548.161	765.12
548.614	771.52
549.067	774.62
549.52	766.32
549.973	763.42
550.426	757.52
550.879	743.62
551.332	749.52
551.785	759.22
552.238	761.02
552.691	767.62
553.144	778.72
553.596	807.22
554.049	808.52
554.502	846.52
554.955	856.12
555.407	849.32
555.86	847.42
556.313	852.42
556.765	840.62
557.218	838.92
557.67	822.22
558.123	820.62
558.576	821.32
559.028	826.32
559.48	823.82
559.933	823.52
560.385	784.82
560.838	760.12
561.29	745.92
561.742	721.52
562.195	713.22
562.647	715.52
563.099	719.62
563.551	727.62
564.004	732.12
564.456	722.32
564.908	707.72
565.36	694.42
565.812	693.22
566.264	681.22
566.716	669.22
567.168	667.12
567.62	678.02
568.072	653.92
568.524	644.02
568.976	637.42
569.428	625.92
569.88	627.62
570.332	631.62
570.784	645.82
571.235	638.52
571.687	646.82
572.139	651.22
572.59	656.42
573.042	661.72
573.494	659.62
573.945	651.92
574.397	635.32
574.849	645.32
575.3	644.12
575.752	636.12
576.203	633.72
576.655	645.62
577.106	618.02
577.557	622.32
578.009	620.62
578.46	617.72
578.912	612.42
579.363	615.92
579.814	616.12
580.265	603.62
580.717	626.02
581.168	625.02
581.619	632.42
582.07	633.62
582.521	622.72
582.972	624.72
583.423	626.32
583.875	621.22
584.326	645.62
584.777	691.02
585.227	763.52
585.678	832.22
586.129	925.72
586.58	991.02
587.031	1062.12
587.482	1232.62
587.933	1387.12
588.384	1205.12
588.834	893.42
589.285	737.62
589.736	721.12
590.186	702.52
590.637	698.82
591.088	682.52
591.538	680.12
591.989	660.92
592.439	675.82
592.89	658.42
593.34	658.82
593.791	653.82
594.241	641.92
594.692	650.22
595.142	644.82
595.593	641.62
596.043	649.52
596.493	663.12
596.943	652.02
597.394	653.12
597.844	652.02
598.294	677.22
598.744	679.12
599.195	707.32
599.645	739.92
600.095	783.52
600.545	831.72
600.995	878.72
601.445	939.42
601.895	1003.92
602.345	1039.62
602.795	1024.02
603.245	978.42
603.695	929.42
604.145	877.52
604.594	829.62
605.044	778.42
605.494	733.32
605.944	683.22
606.393	682.92
606.843	657.12
607.293	668.12
607.743	665.22
608.192	674.82
608.642	687.42
609.091	694.52
609.541	705.52
609.99	701.12
610.44	701.62
610.889	657.02
611.339	638.22
611.788	624.42
612.238	625.42
612.687	645.62
613.136	650.02
613.586	672.62
614.035	675.02
614.484	686.82
614.933	681.32
615.383	686.62
615.832	666.42
616.281	653.42
616.73	622.92
617.179	602.32
617.628	591.12
618.077	579.12
618.526	563.42
618.975	552.82
619.424	550.72
619.873	555.02
620.322	559.52
620.771	543.02
621.22	546.82
621.669	541.12
622.118	529.82
622.567	520.62
623.015	514.52
623.464	511.22
623.913	503.32
624.361	502.02
624.81	505.02
625.259	501.12
625.707	496.72
626.156	504.82
626.604	512.22
627.053	511.62
627.501	508.52
627.95	514.22
628.398	520.62
628.847	511.42
629.295	519.62
629.744	513.62
630.192	513.42
630.64	514.72
631.089	515.22
631.537	521.42
631.985	517.72
632.433	545.52
632.881	542.92
633.33	597.62
633.778	565.22
634.226	507.32
634.674	513.42
635.122	513.82
635.57	536.12
636.018	553.42
636.466	520.72
636.914	498.02
637.362	510.12
637.81	518.32
638.258	518.22
638.705	522.52
639.153	541.02
639.601	546.02
640.049	579.82
640.497	600.62
640.944	612.42
641.392	584.62
641.84	548.82
642.287	525.92
642.735	513.42
643.182	512.62
643.63	508.92
644.078	513.62
644.525	528.62
644.973	531.32
645.42	538.92
645.867	556.02
646.315	566.22
646.762	584.52
647.21	617.02
647.657	632.42
648.104	671.42
648.551	679.82
648.999	739.82
649.446	803.72
649.893	895.42
650.34	1026.82
650.787	1219.52
651.234	1505.02
651.682	1960.22
652.129	2682.22
652.576	3868.02
653.023	5698.22
653.47	7840.42
653.917	9953.22
654.363	11620.52
654.81	13020.22
655.257	12398.22
655.704	8057.02
656.151	4730.32
656.598	3057.22
657.044	2167.42
657.491	1660.82
657.938	1326.82
658.385	1101.82
658.831	952.82
659.278	857.72
659.724	764.92
660.171	699.22
660.618	646.72
661.064	600.72
661.511	597.52
661.957	574.12
662.404	572.02
662.85	576.42
663.296	549.72
663.743	486.02
664.189	470.22
664.635	467.92
665.082	469.32
665.528	469.82
665.974	450.12
666.42	448.22
666.867	449.82
667.313	435.32
667.759	428.12
668.205	417.02
668.651	430.12
669.097	435.92
669.543	443.12
669.989	421.42
670.435	400.32
670.881	396.82
671.327	397.02
671.773	416.22
672.219	422.52
672.665	477.72
673.11	499.72
673.556	551.92
674.002	592.62
674.448	572.12
674.893	483.32
675.339	418.12
675.785	386.52
676.23	371.02
676.676	342.82
677.122	338.82
677.567	335.92
678.013	328.32
678.458	319.92
678.904	314.62
679.349	300.62
679.794	309.72
680.24	303.92
680.685	306.12
681.131	300.42
681.576	312.82
682.021	312.42
682.466	299.22
682.912	302.02
683.357	306.82
683.802	335.02
684.247	353.72
684.692	398.92
685.137	427.42
685.583	470.12
686.028	493.42
686.473	460.82
686.918	389.42
687.363	365.82
687.807	347.52
688.252	317.42
688.697	300.72
689.142	294.62
689.587	284.02
690.032	283.62
690.477	297.82
690.921	309.12
691.366	330.32
691.811	361.22
692.255	379.52
692.7	409.82
693.145	433.22
693.589	591.92
694.034	960.92
694.478	1331.22
694.923	1531.62
695.367	2025.92
695.812	1059.32
696.256	441.52
696.701	325.92
697.145	299.92
697.59	293.62
698.034	273.22
698.478	281.22
698.922	284.12
699.367	283.32
699.811	291.42
700.255	304.72
700.699	332.22
701.143	377.42
701.588	410.92
702.032	453.62
702.476	454.82
702.92	428.22
703.364	415.72
703.808	529.02
704.252	876.02
704.696	1252.82
705.14	1477.52
705.584	1893.52
706.027	937.22
706.471	458.12
706.915	347.12
707.359	306.22
707.803	279.92
708.246	274.72
708.69	274.22
709.134	274.32
709.577	270.12
710.021	277.22
710.465	265.42
710.908	259.92
711.352	267.72
711.795	271.22
712.239	302.52
712.682	330.92
713.126	363.12
713.569	403.42
714.012	327.62
714.456	277.32
714.899	261.32
715.342	240.12
715.786	225.92
716.229	226.62
716.672	222.52
717.115	217.02
717.558	220.92
718.002	217.52
718.445	228.32
718.888	245.02
719.331	254.22
719.774	269.62
720.217	256.52
720.66	244.02
721.103	227.92
721.546	223.62
721.989	220.02
722.432	200.32
722.874	210.92
723.317	207.32
723.76	207.92
724.203	223.82
724.645	263.92
725.088	384.32
725.531	487.92
725.974	567.92
726.416	477.62
726.859	272.52
727.301	220.82
727.744	217.02
728.187	199.02
728.629	207.62
729.071	207.42
729.514	227.82
729.956	237.62
730.399	247.22
730.841	245.12
731.283	233.42
731.726	226.92
732.168	218.42
732.61	234.12
733.053	246.22
733.495	270.62
733.937	301.92
734.379	340.12
734.821	375.72
735.263	469.02
735.705	699.32
736.148	1321.32
736.59	2226.02
737.032	2695.72
737.474	2191.42
737.916	696.52
738.357	371.02
738.799	285.02
739.241	257.82
739.683	249.12
740.125	251.12
740.567	262.12
741.008	280.82
741.45	275.72
741.892	276.42
742.334	305.92
742.775	312.82
743.217	300.42
743.658	232.02
744.1	225.22
744.542	228.22
744.983	265.42
745.425	299.62
745.866	307.52
746.307	248.12
746.749	248.82
747.19	284.72
747.632	386.32
748.073	735.42
748.514	1560.22
748.956	2463.42
749.397	3087.82
749.838	2555.92
750.279	2628.12
750.72	1322.92
751.162	468.82
751.603	277.52
752.044	216.62
752.485	190.42
752.926	179.32
753.367	171.22
753.808	168.82
754.249	162.42
754.69	163.92
755.131	154.12
755.572	159.62
756.013	156.32
756.453	156.62
756.894	159.32
757.335	161.32
757.776	166.62
758.216	172.62
758.657	169.92
759.098	173.72
759.538	195.42
759.979	225.72
760.42	318.72
760.86	587.32
761.301	1508.32
761.741	3758.22
762.182	5742.22
762.622	4010.12
763.063	1148.72
763.503	468.22
763.943	293.12
764.384	290.72
764.824	344.22
765.264	383.32
765.705	263.82
766.145	184.72
766.585	160.02
767.025	162.02
767.465	163.52
767.906	202.82
768.346	274.02
768.786	291.22
769.226	220.42
769.666	270.12
770.106	517.52
770.546	1298.22
770.986	2322.82
771.426	2110.12
771.866	688.82
772.306	281.22
772.745	184.72
773.185	157.02
773.625	151.72
774.065	144.92
774.505	175.62
774.944	253.62
775.384	565.72
775.824	1064.52
776.263	1054.32
776.703	443.72
777.142	189.42
777.582	138.22
778.021	122.22
778.461	124.42
778.9	126.82
779.34	121.22
779.779	102.92
780.219	97.42
780.658	94.42
781.097	99.62
781.537	97.82
781.976	91.62
782.415	94.32
782.855	92.02
783.294	96.12
783.733	93.02
784.172	91.82
784.611	89.32
785.05	98.42
785.489	101.92
785.928	102.72
786.367	100.52
786.806	102.42
787.245	115.82
787.684	113.52
788.123	127.92
788.562	121.72
789.001	112.32
789.44	101.62
789.879	100.62
790.317	103.22
790.756	108.12
791.195	116.62
791.634	125.02
792.072	178.72
792.511	303.82
792.95	828.72
793.388	1863.12
793.827	1730.82
794.265	597.72
794.704	241.32
795.142	156.32
795.581	128.22
796.019	122.92
796.458	109.12
796.896	111.02
797.334	109.32
797.773	137.02
798.211	189.52
798.649	358.72
799.087	863.12
799.526	1362.52
799.964	1727.32
800.402	1788.82
800.84	656.52
801.278	259.72
801.716	163.62
802.154	133.32
802.592	132.52
803.03	124.02
803.468	114.62
803.906	119.12
804.344	132.02
804.782	118.52
805.22	120.62
805.658	112.12
806.096	130.52
806.533	139.12
806.971	151.02
807.409	189.72
807.847	263.12
808.284	553.02
808.722	1571.32
809.16	2874.22
809.597	2673.72
810.035	4708.82
810.472	5205.02
810.91	1854.52
811.347	690.12
811.785	352.22
812.222	219.32
812.66	169.32
813.097	142.42
813.535	118.82
813.972	109.52
814.409	102.92
814.846	94.62
815.284	96.52
815.721	90.52
816.158	87.12
816.595	106.62
817.032	160.32
817.47	180.52
817.907	144.92
818.344	131.82
818.781	96.32
819.218	80.72
819.655	105.92
820.092	164.12
820.529	192.92
820.966	154.22
821.403	119.92
821.839	96.02
822.276	88.02
822.713	106.82
823.15	113.42
823.587	100.22
824.023	125.02
824.46	248.62
824.897	760.52
825.333	1204.02
825.77	506.72
826.206	203.62
826.643	122.12
827.08	89.32
827.516	68.02
827.953	67.62
828.389	71.72
828.825	62.22
829.262	57.62
829.698	56.72
830.135	56.82
830.571	52.52
831.007	56.12
831.443	57.92
831.88	50.72
832.316	54.22
832.752	53.32
833.188	51.92
833.624	56.22
834.06	59.22
834.497	59.02
834.933	55.32
835.369	68.72
835.805	54.72
836.241	70.02
836.677	67.42
837.112	83.22
837.548	93.12
837.984	117.32
838.42	171.32
838.856	409.92
839.292	1293.62
839.727	2048.32
840.163	942.22
840.599	785.62
841.034	1754.52
841.47	1896.42
841.906	683.82
842.341	281.22
842.777	196.02
843.212	282.92
843.648	272.92
844.083	133.22
844.519	88.82
844.954	74.92
845.39	52.82
845.825	45.42
846.261	49.22
846.696	48.02
847.131	43.32
847.566	50.02
848.002	43.52
848.437	51.02
848.872	51.72
849.307	48.62
849.742	73.62
850.177	143.02
850.613	471.82
851.048	769.22
851.483	328.92
851.918	131.12
852.353	76.02
852.788	53.92
853.223	52.62
853.657	46.82
854.092	41.82
854.527	39.02
854.962	40.22
855.397	37.12
855.832	44.82
856.266	38.32
856.701	37.72
857.136	30.32
857.57	42.02
858.005	46.52
858.44	49.62
858.874	40.62
859.309	50.62
859.743	38.42
860.178	38.22
860.612	35.92
861.047	46.32
861.481	58.22
861.915	63.82
862.35	40.12
862.784	26.62
863.218	36.82
863.653	28.82
864.087	41.42
864.521	50.52
864.955	68.42
865.39	136.62
865.824	153.32
866.258	99.52
866.692	142.82
867.126	161.72
867.56	93.32
867.994	55.42
868.428	32.62
868.862	39.82
869.296	45.52
869.73	46.32
870.164	42.22
870.598	40.62
871.031	31.92
871.465	24.92
871.899	28.02
872.333	15.62
872.766	23.22
873.2	23.82
873.634	25.42
874.067	21.32
874.501	21.62
874.935	29.22
875.368	27.02
875.802	30.32
876.235	27.52
876.669	21.82
877.102	17.12
877.535	26.72
877.969	22.72
878.402	22.62
878.836	15.02
879.269	21.22
879.702	18.72
880.135	23.92
880.569	22.82
881.002	25.52
881.435	23.52
881.868	14.62
882.301	22.32
882.734	7.42
883.167	14.12
883.601	15.92
884.034	16.12
884.467	9.22
884.899	19.02
885.332	13.52
885.765	18.82
886.198	19.62
886.631	21.02
887.064	21.82
887.497	22.72
887.929	25.62
888.362	15.02
888.795	13.12
889.228	20.02
889.66	16.12
890.093	13.22
890.526	17.02
890.958	19.82
891.391	16.32
891.823	21.32
892.256	14.52
892.688	12.82
893.121	10.32
893.553	16.12
893.985	19.62
894.418	22.42
894.85	15.52
895.282	19.32
895.715	20.22
896.147	22.92
896.579	14.92
897.011	17.52
897.444	14.62
897.876	7.82
898.308	20.32
898.74	7.12
899.172	9.62
899.604	21.62
900.036	21.12
900.468	19.72
900.9	15.32
901.332	15.02
901.764	14.72
902.196	15.02
902.628	19.82
903.06	17.02
903.491	28.62
903.923	18.72
904.355	11.92
904.787	22.12
905.218	21.32
905.65	16.42
906.082	8.22
906.513	10.52
906.945	11.92
907.376	17.52
907.808	17.32
908.239	16.62
908.671	15.52
909.102	19.62
909.534	23.12
909.965	43.22
910.397	76.92
910.828	276.12
911.259	424.52
911.691	196.22
912.122	91.52
912.553	43.02
912.984	32.22
913.415	28.32
913.847	25.72
914.278	18.02
914.709	15.12
915.14	20.02
915.571	17.22
916.002	10.72
916.433	21.32
916.864	14.22
917.295	12.12
917.726	20.92
918.157	20.52
918.587	24.12
919.018	24.52
919.449	19.32
919.88	18.42
920.311	24.52
920.741	41.92
921.172	148.42
921.603	132.22
922.033	57.52
922.464	44.42
922.895	19.72
923.325	19.42
923.756	14.22
924.186	21.82
924.617	26.62
925.047	41.52
925.478	44.72
925.908	40.42
926.338	20.72
926.769	15.42
927.199	24.22
927.629	11.72
928.06	20.32
928.49	17.52
928.92	11.72
929.35	13.02
929.78	7.82
930.21	10.62
930.641	7.42
931.071	12.12
931.501	5.12
931.931	9.82
932.361	8.52
932.791	6.72
933.221	8.02
933.651	8.52
934.08	16.92
934.51	31.82
934.94	9.42
935.37	12.32
935.8	11.12
936.229	8.02
936.659	13.02
937.089	-1.18
937.519	10.02
937.948	25.82
938.378	15.52
938.807	9.02
939.237	8.12
939.666	6.82
940.096	-8.98
940.525	1.42
940.955	0.52
941.384	3.92
941.814	-5.38
942.243	1.12
942.672	3.12
943.102	0.92
943.531	3.12
943.96	9.02
944.39	5.82
944.819	-0.88
945.248	2.22
945.677	1.52
946.106	0.42
946.535	1.42
946.964	1.02
947.393	6.12
947.822	7.62
948.251	-0.28
948.68	6.32
949.109	8.02
949.538	10.42
949.967	0.22
950.396	-0.28
950.825	-0.58
951.254	1.52
951.682	-4.18
952.111	7.32
952.54	3.92
952.969	-2.18
953.397	-7.88
953.826	0.72
954.254	-2.68
954.683	3.02
955.112	-0.58
955.54	-2.18
955.969	2.82
956.397	4.82
956.826	-0.58
957.254	-1.88
957.682	0.82
958.111	8.82
958.539	0.42
958.967	1.92
959.396	-0.88
959.824	-0.38
960.252	-1.88
960.68	-5.18
961.109	1.92
961.537	-1.88
961.965	1.92
962.393	0.52
962.821	-13.38
963.249	3.52
963.677	5.22
964.105	6.32
964.533	42.62
964.961	36.72
965.389	18.22
965.817	10.02
966.245	0.62
966.672	-1.28
967.1	-1.28
967.528	0.62
967.956	-5.78
968.383	0.32
968.811	-1.38
969.239	-1.68
969.666	-5.58
970.094	2.22
970.522	2.52
970.949	1.42
971.377	0.72
971.804	0.92
972.232	1.12
972.659	-0.78
973.087	-5.28
973.514	1.12
973.941	-5.18
974.369	2.02
974.796	3.92
975.223	2.32
975.651	3.22
976.078	6.72
976.505	-1.58
976.932	1.72
977.359	17.32
977.786	11.22
978.214	1.12
978.641	1.42
979.068	-7.38
979.495	-1.48
979.922	-0.68
980.349	-3.78
980.776	3.12
981.202	3.02
981.629	8.52
982.056	10.42
982.483	-0.68
982.91	5.52
983.337	-5.88
983.763	8.32
984.19	-1.48
984.617	-0.48
985.043	-1.28
985.47	3.12
985.897	-0.18
986.323	-7.48
986.75	2.42
987.176	0.92
987.603	-0.68
988.029	2.82
988.456	3.02
988.882	1.92
989.308	-9.18
989.735	-3.88
990.161	2.12
990.587	-3.48
991.014	-1.08
991.44	10.72
991.866	-2.18
992.292	-3.18
992.719	-5.78
993.145	-1.08
993.571	-6.28
993.997	-1.28
994.423	4.92
994.849	-2.28
995.275	3.62
995.701	1.02
996.127	-3.48
996.553	3.72
996.979	-0.58
997.405	4.22
997.83	-1.28
998.256	0.12
998.682	-9.08
999.108	-8.38
999.534	2.92
999.959	-0.18
1000.385	-4.38
1000.811	0.62
1001.236	-4.88
1001.662	-3.68
1002.087	-6.48
1002.513	2.92
1002.938	5.72
1003.364	-3.28
1003.789	-0.78
1004.215	11.12
1004.64	2.82
1005.066	-0.98
1005.491	-4.38
1005.916	-3.78
1006.342	-2.38
1006.767	-4.58
1007.192	7.92
1007.617	-7.68
1008.042	-1.18
1008.468	-3.58
1008.893	-7.58
1009.318	-3.08
1009.743	4.12
1010.168	3.22
1010.593	0.02
1011.018	-3.78
1011.443	0.32
1011.868	2.22
1012.293	-0.18
1012.718	-12.68
1013.143	-6.78
1013.567	0.02
1013.992	-5.88
1014.417	-8.08
1014.842	-3.48
1015.267	-1.88
1015.691	-2.68
1016.116	6.82
1016.541	1.02
1016.965	14.72
1017.39	3.22
1017.814	-3.48
1018.239	6.02
1018.663	-7.98
1019.088	-8.88
1019.512	-4.48
1019.937	-0.68
1020.361	-5.08
1020.785	-13.98
1021.21	-0.58
1021.634	2.42
1022.058	1.82
1022.483	8.32
1022.907	-3.18
1023.331	2.02
1023.755	1.02
1024.179	0.92
1024.604	-1.68
1025.028	-1.68
1025.452	-2.78
1025.876	-3.78
1026.3	1.52
1026.724	-4.28
1027.148	-2.28
1027.572	-6.38
1027.996	-5.68
1028.42	-3.38
1028.843	-10.48
1029.267	-0.98
1029.691	0.12
1030.115	-2.28
1030.539	-0.68
1030.962	-3.98
1031.386	-9.88
1031.81	0.12
1032.233	3.12
1032.657	-2.28
1033.08	2.32
1033.504	1.02
1033.927	-4.48
1034.351	0.42
1034.774	-3.68
1035.198	-1.78
1035.621	-3.88
1036.045	-6.28
1036.468	3.42
1036.891	-10.98
1037.315	-9.08
1037.738	-9.28
1038.161	3.02
1038.584	-7.58
1039.008	-1.58
1039.431	2.22
1039.854	-1.58
1040.277	-7.78
1040.7	-10.58
1041.123	6.52
1041.546	-0.88
1041.969	-2.58
1042.392	-4.38
1042.815	4.02
1043.238	4.12
1043.661	2.32
1044.084	-4.58
1044.507	-5.28
1044.93	2.32
1045.352	2.92
1045.775	0.62
1046.198	-3.38
1046.621	-0.68
1047.043	2.12
1047.466	9.72
1047.889	-0.28
1048.311	-3.68
1048.734	1.62
1049.156	-4.58
1049.579	-2.28
1050.001	0.12
1050.424	3.52
1050.846	-4.68
1051.269	-0.28
1051.691	-5.28
1052.113	-6.08
1052.536	-4.78
1052.958	0.42
1053.38	-3.28
1053.802	-4.18
1054.225	4.92
1054.647	-7.38
1055.069	-3.58
1055.491	-2.58
1055.913	-2.98
1056.335	-2.38
1056.757	2.92
1057.179	-1.68
1057.601	-2.78
1058.023	-1.68
1058.445	-7.98
1058.867	-5.58
1059.289	-3.98
1059.711	-5.78
1060.133	-3.18
1060.555	-12.58
1060.976	-9.18
1061.398	-4.88
1061.82	-6.48
1062.241	-3.88
1062.663	-4.88
1063.085	-4.28
1063.506	3.32
1063.928	-3.08
1064.35	1.02
1064.771	-5.88
1065.193	-2.78
1065.614	-4.88
1066.035	0.52
1066.457	1.12
1066.878	1.62
1067.3	-3.78
1067.721	1.62
1068.142	-1.38
1068.564	1.82
1068.985	-3.68
1069.406	-6.88
1069.827	-3.38
1070.248	-4.58
1070.67	-2.78
1071.091	-6.78
1071.512	0.62
1071.933	-5.28
1072.354	-8.88
1072.775	-3.38
1073.196	-4.08
1073.617	-6.48
1074.038	-4.18
1074.459	-8.58
1074.88	-3.08
1075.3	1.92
1075.721	-5.68
1076.142	-0.88
1076.563	-3.68
1076.983	-2.08
1077.404	-2.78
1077.825	-3.98
1078.246	-3.18
1078.666	-8.48
1079.087	-5.08
1079.507	-5.28
1079.928	0.22
1080.348	0.82
1080.769	-2.28
1081.189	-1.18
1081.61	0.32
1082.03	-11.58
1082.451	-7.08
1082.871	-0.08
1083.291	-6.08
1083.711	-7.18
1084.132	-5.08
1084.552	-3.98
1084.972	-1.18
1085.392	-6.18
1085.813	-12.18
1086.233	-4.78
1086.653	-8.98
1087.073	0.42
1087.493	-3.48
1087.913	-3.48
1088.333	-10.18
1088.753	-1.48
1089.173	1.92
1089.593	2.82
1090.013	-2.08
1090.433	2.92
1090.852	0.42
1091.272	6.02
1091.692	-1.38
1092.112	-4.18
1092.531	-8.38
1092.951	-13.38
1093.371	-3.98
1093.79	3.62
1094.21	-3.88
1094.63	-7.88
1095.049	-7.58
1095.469	1.72
1095.888	-2.68
1096.308	3.32
1096.727	5.32
1097.146	-0.58
1097.566	0.52
1097.985	-4.48
1098.405	-5.78
1098.824	-7.88
1099.243	-7.68
1099.662	-9.98
1100.082	-9.48
1100.501	-2.18
1100.92	-6.28
1101.339	-5.38
1101.758	1.22
