Data from 20171114-ORNL-Ar_H_NY_Subt18_08-08-51-172.txt Node
Date: Tue Nov 14 08:08:51 EST 2017
User: Ender
Spectrometer: HR+D1039
Trigger mode: 0
Integration Time (sec): 2.730000E-2
Scans to average: 10
Electric dark correction enabled: true
Nonlinearity correction enabled: false
Boxcar width: 0
XAxis mode: Wavelengths
Number of Pixels in Spectrum: 2048
>>>>>Begin Spectral Data<<<<<
187.836	-0.52
188.309	-0.52
188.782	-0.52
189.255	-5.22
189.728	-0.42
190.201	7.88
190.674	-3.22
191.147	4.78
191.619	-8.22
192.092	-1.02
192.565	3.68
193.038	0.28
193.511	2.18
193.984	-0.72
194.456	-4.52
194.929	3.08
195.402	5.38
195.874	-3.42
196.347	-0.32
196.82	-8.02
197.292	9.28
197.765	-3.72
198.237	-6.32
198.71	2.18
199.182	-5.42
199.655	1.48
200.127	4.48
200.6	1.08
201.072	-1.82
201.544	-3.32
202.017	-4.62
202.489	5.28
202.961	0.08
203.433	-0.12
203.906	-11.72
204.378	-7.02
204.85	2.58
205.322	-8.32
205.794	2.58
206.266	-8.12
206.739	-9.22
207.211	-2.92
207.683	-8.72
208.155	-0.32
208.627	-4.92
209.099	-3.12
209.57	-13.12
210.042	-4.72
210.514	-7.22
210.986	4.38
211.458	-9.42
211.93	-1.82
212.402	-0.32
212.873	-10.92
213.345	-8.32
213.817	-13.12
214.288	-0.82
214.76	-10.92
215.232	2.08
215.703	-4.52
216.175	-1.52
216.646	-6.72
217.118	-5.02
217.589	-1.62
218.061	-3.92
218.532	-2.82
219.004	-5.52
219.475	-1.62
219.946	-6.12
220.418	-5.32
220.889	-1.72
221.36	-1.82
221.832	-8.72
222.303	-7.12
222.774	4.28
223.245	-14.72
223.717	-1.42
224.188	-0.92
224.659	-9.22
225.13	-3.82
225.601	-6.32
226.072	0.58
226.543	-1.92
227.014	4.18
227.485	-4.82
227.956	-8.92
228.427	-6.52
228.898	-3.42
229.369	5.08
229.839	-3.62
230.31	-7.92
230.781	-0.72
231.252	-2.62
231.722	1.38
232.193	-1.32
232.664	0.48
233.135	-1.22
233.605	1.08
234.076	-6.32
234.546	-1.92
235.017	3.18
235.487	-0.82
235.958	-4.32
236.428	-5.42
236.899	-3.12
237.369	4.08
237.84	-4.32
238.31	-0.62
238.78	1.68
239.251	-2.42
239.721	4.18
240.191	-8.62
240.662	-0.22
241.132	1.38
241.602	-4.42
242.072	5.28
242.542	7.18
243.013	-0.62
243.483	7.88
243.953	5.48
244.423	1.78
244.893	-1.32
245.363	2.98
245.833	5.48
246.303	-2.62
246.773	2.88
247.243	1.38
247.712	-1.62
248.182	4.98
248.652	0.38
249.122	-3.72
249.592	6.88
250.061	13.38
250.531	20.38
251.001	8.38
251.471	10.48
251.94	9.28
252.41	5.88
252.879	3.78
253.349	14.38
253.818	7.58
254.288	4.98
254.757	0.58
255.227	2.98
255.696	-2.22
256.166	0.68
256.635	7.08
257.105	7.18
257.574	8.58
258.043	0.38
258.513	8.38
258.982	10.98
259.451	0.88
259.92	8.08
260.389	5.98
260.859	11.28
261.328	10.48
261.797	11.38
262.266	1.98
262.735	9.38
263.204	-0.22
263.673	-2.42
264.142	2.98
264.611	-1.72
265.08	-2.72
265.549	-4.12
266.018	4.78
266.487	-6.72
266.955	-1.82
267.424	-1.72
267.893	3.88
268.362	-4.52
268.83	-0.52
269.299	3.58
269.768	4.38
270.236	5.68
270.705	-1.82
271.174	3.68
271.642	5.08
272.111	1.28
272.579	9.88
273.048	12.98
273.516	10.78
273.985	8.58
274.453	7.18
274.922	9.78
275.39	8.68
275.858	-6.42
276.327	10.98
276.795	13.58
277.263	0.98
277.731	20.48
278.2	26.98
278.668	40.18
279.136	27.18
279.604	13.98
280.072	12.58
280.54	2.08
281.008	5.78
281.477	11.78
281.945	12.08
282.413	11.68
282.881	15.08
283.348	-0.62
283.816	10.28
284.284	2.28
284.752	14.68
285.22	10.08
285.688	10.58
286.156	5.88
286.623	27.88
287.091	32.88
287.559	14.48
288.026	13.28
288.494	11.38
288.962	-0.42
289.429	6.68
289.897	18.68
290.364	7.98
290.832	14.18
291.3	12.88
291.767	9.48
292.234	16.08
292.702	8.68
293.169	11.98
293.637	14.18
294.104	9.08
294.571	8.88
295.039	8.18
295.506	14.88
295.973	10.98
296.44	5.58
296.908	14.98
297.375	12.58
297.842	10.78
298.309	9.28
298.776	9.98
299.243	18.08
299.71	7.68
300.177	17.98
300.644	21.58
301.111	11.18
301.578	15.38
302.045	6.18
302.512	17.58
302.979	19.88
303.446	17.48
303.913	15.68
304.379	14.88
304.846	24.18
305.313	15.78
305.78	15.38
306.246	19.28
306.713	12.68
307.18	20.18
307.646	15.48
308.113	23.18
308.579	14.88
309.046	12.88
309.512	19.78
309.979	6.78
310.445	20.08
310.912	23.48
311.378	26.88
311.845	19.78
312.311	18.68
312.777	14.38
313.244	26.18
313.71	33.08
314.176	24.78
314.642	25.88
315.109	28.98
315.575	32.68
316.041	28.68
316.507	28.48
316.973	28.88
317.439	33.98
317.905	28.58
318.371	27.28
318.837	24.38
319.303	26.28
319.769	26.48
320.235	24.78
320.701	28.58
321.167	28.98
321.633	20.98
322.099	33.68
322.564	36.58
323.03	26.78
323.496	27.28
323.962	32.58
324.427	31.08
324.893	36.18
325.359	25.38
325.824	30.58
326.29	24.08
326.755	29.08
327.221	27.08
327.686	27.18
328.152	37.58
328.617	38.88
329.083	40.48
329.548	41.78
330.014	42.58
330.479	33.98
330.944	39.18
331.41	34.78
331.875	38.18
332.34	31.28
332.805	31.78
333.271	36.18
333.736	30.48
334.201	46.38
334.666	39.78
335.131	42.38
335.596	40.88
336.061	39.38
336.526	33.98
336.991	39.88
337.456	46.48
337.921	39.48
338.386	41.98
338.851	35.48
339.316	38.98
339.781	36.78
340.246	43.88
340.711	45.28
341.175	46.98
341.64	40.98
342.105	42.38
342.569	43.58
343.034	44.68
343.499	47.88
343.963	42.68
344.428	57.08
344.893	51.78
345.357	47.88
345.822	57.08
346.286	55.28
346.751	64.08
347.215	55.48
347.679	57.18
348.144	73.28
348.608	61.58
349.073	54.48
349.537	58.88
350.001	67.08
350.465	73.88
350.93	69.08
351.394	64.48
351.858	63.58
352.322	72.58
352.786	72.28
353.25	90.28
353.715	90.48
354.179	80.08
354.643	99.28
355.107	103.98
355.571	89.58
356.035	81.28
356.498	93.58
356.962	99.48
357.426	110.18
357.89	94.38
358.354	82.78
358.818	74.08
359.281	64.68
359.745	61.98
360.209	66.68
360.673	64.88
361.136	72.58
361.6	68.38
362.064	71.58
362.527	72.18
362.991	78.98
363.454	72.98
363.918	66.78
364.381	72.38
364.845	74.58
365.308	77.58
365.772	75.08
366.235	75.38
366.698	78.98
367.162	83.38
367.625	79.58
368.088	73.68
368.552	80.98
369.015	77.68
369.478	85.38
369.941	86.48
370.404	82.08
370.867	96.88
371.331	101.38
371.794	98.48
372.257	99.48
372.72	100.08
373.183	94.88
373.646	96.28
374.109	91.28
374.572	91.08
375.035	98.58
375.497	93.18
375.96	94.68
376.423	92.28
376.886	98.48
377.349	98.28
377.811	89.48
378.274	90.28
378.737	98.18
379.199	105.98
379.662	94.28
380.125	103.88
380.587	107.68
381.05	111.78
381.512	108.98
381.975	122.68
382.437	111.58
382.9	117.48
383.362	113.98
383.825	125.98
384.287	133.78
384.75	124.48
385.212	122.98
385.674	128.68
386.136	129.68
386.599	123.58
387.061	114.78
387.523	120.28
387.985	122.98
388.447	137.08
388.91	131.58
389.372	147.08
389.834	131.48
390.296	137.68
390.758	140.88
391.22	151.88
391.682	175.08
392.144	239.78
392.606	199.08
393.068	155.18
393.529	155.88
393.991	141.08
394.453	140.98
394.915	140.78
395.377	172.58
395.838	185.68
396.3	139.78
396.762	135.18
397.224	127.28
397.685	124.78
398.147	124.98
398.608	120.48
399.07	116.58
399.531	136.88
399.993	135.58
400.454	140.58
400.916	134.58
401.377	136.88
401.839	152.28
402.3	144.18
402.762	162.28
403.223	159.78
403.684	165.88
404.145	161.28
404.607	154.58
405.068	162.28
405.529	163.78
405.99	175.88
406.451	161.28
406.913	165.58
407.374	153.78
407.835	152.58
408.296	159.58
408.757	161.68
409.218	179.88
409.679	172.78
410.14	172.38
410.601	168.78
411.062	176.38
411.522	184.08
411.983	179.68
412.444	168.08
412.905	175.38
413.366	180.68
413.826	187.68
414.287	219.38
414.748	256.28
415.208	236.48
415.669	212.08
416.13	206.38
416.59	193.78
417.051	204.98
417.511	208.98
417.972	232.98
418.432	250.08
418.893	281.18
419.353	248.68
419.814	187.48
420.274	178.38
420.734	182.78
421.195	186.18
421.655	188.08
422.115	188.48
422.576	193.78
423.036	192.88
423.496	210.58
423.956	212.48
424.416	232.88
424.876	255.78
425.336	254.88
425.797	249.98
426.257	247.08
426.717	228.78
427.177	226.58
427.637	221.48
428.097	226.48
428.556	241.18
429.016	266.28
429.476	252.98
429.936	268.88
430.396	265.98
430.856	284.38
431.315	303.98
431.775	337.88
432.235	365.68
432.694	348.88
433.154	349.58
433.614	376.48
434.073	335.68
434.533	273.68
434.993	259.98
435.452	278.98
435.912	294.58
436.371	280.38
436.83	274.28
437.29	259.48
437.749	246.08
438.209	238.88
438.668	265.88
439.127	285.58
439.587	259.98
440.046	241.68
440.505	257.78
440.964	270.78
441.424	312.68
441.883	298.08
442.342	259.68
442.801	217.68
443.26	224.08
443.719	227.18
444.178	216.58
444.637	203.28
445.096	215.38
445.555	223.68
446.014	222.98
446.473	227.78
446.932	226.28
447.391	226.08
447.849	221.48
448.308	216.48
448.767	218.58
449.226	235.38
449.685	231.18
450.143	245.58
450.602	239.48
451.061	225.58
451.519	229.28
451.978	230.88
452.436	234.38
452.895	244.88
453.353	252.28
453.812	240.68
454.27	234.28
454.729	234.38
455.187	241.58
455.646	250.98
456.104	246.28
456.562	259.08
457.021	265.48
457.479	254.38
457.937	265.28
458.395	269.88
458.854	244.98
459.312	257.38
459.77	274.88
460.228	256.68
460.686	243.78
461.144	243.48
461.602	246.28
462.06	244.08
462.518	258.48
462.976	252.68
463.434	266.58
463.892	262.18
464.35	271.08
464.808	288.98
465.266	264.08
465.724	273.18
466.181	267.78
466.639	270.28
467.097	287.38
467.555	292.98
468.012	296.78
468.47	298.58
468.928	319.88
469.385	344.58
469.843	351.48
470.3	355.18
470.758	362.48
471.215	371.58
471.673	396.28
472.13	404.48
472.588	416.18
473.045	371.58
473.503	373.18
473.96	385.88
474.417	397.28
474.875	426.48
475.332	473.48
475.789	461.68
476.246	459.48
476.704	483.58
477.161	515.48
477.618	514.18
478.075	563.58
478.532	606.08
478.989	677.08
479.446	784.08
479.903	747.98
480.36	789.18
480.817	827.08
481.274	933.88
481.731	1014.58
482.188	1116.58
482.645	1245.28
483.102	1331.28
483.558	1466.58
484.015	1501.88
484.472	1491.18
484.929	1442.48
485.385	1401.38
485.842	1356.38
486.299	1299.48
486.755	1253.68
487.212	1068.48
487.668	907.08
488.125	826.68
488.582	761.58
489.038	725.38
489.494	695.68
489.951	674.68
490.407	653.68
490.864	637.98
491.32	632.58
491.776	631.68
492.233	642.48
492.689	607.78
493.145	600.78
493.602	600.28
494.058	601.68
494.514	608.28
494.97	631.98
495.426	648.58
495.882	606.08
496.338	609.48
496.794	609.88
497.251	603.38
497.707	621.68
498.163	627.18
498.618	635.38
499.074	622.48
499.53	662.38
499.986	670.88
500.442	642.08
500.898	631.58
501.354	617.88
501.809	634.48
502.265	628.18
502.721	647.98
503.177	650.28
503.632	655.08
504.088	655.48
504.543	692.28
504.999	688.58
505.455	654.28
505.91	631.88
506.366	637.88
506.821	622.38
507.277	628.68
507.732	624.08
508.187	624.18
508.643	629.18
509.098	645.38
509.553	655.58
510.009	652.98
510.464	661.48
510.919	680.38
511.375	689.58
511.83	713.28
512.285	720.48
512.74	747.28
513.195	776.38
513.65	752.18
514.105	756.68
514.56	761.28
515.015	787.78
515.47	797.88
515.925	783.18
516.38	779.08
516.835	809.38
517.29	778.38
517.745	776.98
518.2	775.28
518.655	737.68
519.109	739.98
519.564	734.68
520.019	728.98
520.474	725.38
520.928	726.38
521.383	711.78
521.838	708.18
522.292	709.68
522.747	699.58
523.201	694.88
523.656	696.38
524.11	694.78
524.565	685.68
525.019	684.18
525.474	693.88
525.928	705.18
526.382	687.78
526.837	691.68
527.291	693.78
527.745	688.88
528.2	692.18
528.654	692.78
529.108	678.48
529.562	702.78
530.016	692.58
530.47	694.48
530.925	688.48
531.379	691.88
531.833	695.28
532.287	691.68
532.741	686.88
533.195	695.78
533.649	697.18
534.103	725.28
534.556	694.08
535.01	700.88
535.464	694.68
535.918	716.08
536.372	721.38
536.826	701.18
537.279	709.88
537.733	700.18
538.187	704.48
538.64	710.58
539.094	719.18
539.548	727.58
540.001	717.88
540.455	721.48
540.908	730.28
541.362	738.18
541.815	747.38
542.269	755.88
542.722	760.98
543.175	770.58
543.629	768.08
544.082	782.18
544.536	796.68
544.989	786.68
545.442	799.08
545.895	786.88
546.349	785.08
546.802	791.98
547.255	802.58
547.708	810.58
548.161	810.38
548.614	827.78
549.067	825.08
549.52	821.98
549.973	806.18
550.426	805.28
550.879	792.38
551.332	793.88
551.785	806.78
552.238	800.58
552.691	821.18
553.144	832.78
553.596	855.18
554.049	859.68
554.502	887.38
554.955	909.58
555.407	917.58
555.86	894.08
556.313	893.78
556.765	883.38
557.218	884.58
557.67	874.68
558.123	872.88
558.576	883.68
559.028	876.68
559.48	879.78
559.933	882.88
560.385	854.28
560.838	809.18
561.29	793.78
561.742	797.58
562.195	769.38
562.647	777.98
563.099	774.38
563.551	775.58
564.004	786.18
564.456	767.98
564.908	771.38
565.36	749.78
565.812	734.28
566.264	715.28
566.716	713.08
567.168	710.78
567.62	716.88
568.072	703.48
568.524	693.08
568.976	695.88
569.428	682.18
569.88	683.28
570.332	688.08
570.784	690.98
571.235	685.38
571.687	702.68
572.139	692.78
572.59	710.68
573.042	720.58
573.494	706.98
573.945	702.08
574.397	676.68
574.849	699.18
575.3	693.38
575.752	688.48
576.203	684.18
576.655	692.78
577.106	678.88
577.557	668.38
578.009	670.78
578.46	659.88
578.912	670.18
579.363	654.08
579.814	662.68
580.265	665.88
580.717	667.78
581.168	674.28
581.619	685.18
582.07	676.58
582.521	670.18
582.972	677.58
583.423	681.18
583.875	683.08
584.326	702.28
584.777	735.78
585.227	792.98
585.678	861.98
586.129	931.48
586.58	994.68
587.031	1052.48
587.482	1145.38
587.933	1307.78
588.384	1154.78
588.834	911.18
589.285	802.38
589.736	789.98
590.186	787.78
590.637	766.88
591.088	760.08
591.538	746.98
591.989	737.68
592.439	734.58
592.89	726.98
593.34	725.88
593.791	714.38
594.241	712.08
594.692	708.88
595.142	714.38
595.593	693.38
596.043	710.28
596.493	726.38
596.943	723.98
597.394	735.08
597.844	732.58
598.294	739.48
598.744	757.38
599.195	785.28
599.645	832.58
600.095	873.78
600.545	933.88
600.995	980.58
601.445	1030.58
601.895	1092.98
602.345	1137.88
602.795	1125.78
603.245	1085.68
603.695	1026.28
604.145	974.68
604.594	913.68
605.044	866.78
605.494	808.78
605.944	759.78
606.393	737.08
606.843	723.88
607.293	742.58
607.743	737.28
608.192	746.98
608.642	758.38
609.091	775.68
609.541	773.78
609.99	767.78
610.44	775.58
610.889	733.18
611.339	712.58
611.788	687.08
612.238	704.98
612.687	720.38
613.136	716.58
613.586	739.78
614.035	724.58
614.484	748.18
614.933	758.28
615.383	746.58
615.832	731.38
616.281	725.68
616.73	681.68
617.179	661.58
617.628	661.78
618.077	637.38
618.526	635.58
618.975	620.18
619.424	625.48
619.873	625.78
620.322	629.38
620.771	613.28
621.22	612.48
621.669	609.48
622.118	596.68
622.567	598.38
623.015	577.18
623.464	577.68
623.913	570.48
624.361	561.18
624.81	560.48
625.259	563.58
625.707	563.18
626.156	566.18
626.604	571.78
627.053	561.88
627.501	566.78
627.95	570.38
628.398	591.18
628.847	578.28
629.295	573.08
629.744	583.78
630.192	580.68
630.64	571.38
631.089	565.88
631.537	580.18
631.985	575.88
632.433	592.78
632.881	594.08
633.33	638.08
633.778	607.18
634.226	565.48
634.674	573.68
635.122	573.78
635.57	595.78
636.018	621.68
636.466	584.78
636.914	560.68
637.362	583.68
637.81	580.88
638.258	583.68
638.705	589.38
639.153	619.48
639.601	625.18
640.049	656.98
640.497	691.08
640.944	699.18
641.392	663.58
641.84	626.48
642.287	591.58
642.735	577.98
643.182	568.48
643.63	579.88
644.078	576.58
644.525	596.78
644.973	602.68
645.42	607.98
645.867	634.48
646.315	650.78
646.762	673.38
647.21	699.38
647.657	720.68
648.104	746.58
648.551	782.18
648.999	847.28
649.446	925.98
649.893	995.38
650.34	1160.98
650.787	1390.78
651.234	1718.88
651.682	2263.08
652.129	3082.18
652.576	4430.48
653.023	6487.48
653.47	8805.08
653.917	10858.38
654.363	12442.68
654.81	13674.28
655.257	12980.48
655.704	8548.38
656.151	5075.08
656.598	3319.68
657.044	2342.98
657.491	1813.28
657.938	1462.78
658.385	1244.58
658.831	1071.18
659.278	953.98
659.724	850.28
660.171	774.28
660.618	726.18
661.064	688.18
661.511	666.38
661.957	659.88
662.404	650.88
662.85	656.28
663.296	634.28
663.743	571.48
664.189	536.48
664.635	542.08
665.082	536.68
665.528	538.98
665.974	529.08
666.42	519.38
666.867	514.78
667.313	499.18
667.759	485.18
668.205	474.58
668.651	488.38
669.097	480.88
669.543	485.18
669.989	472.98
670.435	455.58
670.881	457.08
671.327	462.18
671.773	482.58
672.219	501.88
672.665	565.28
673.11	593.98
673.556	645.38
674.002	680.38
674.448	663.98
674.893	565.88
675.339	483.78
675.785	452.18
676.23	424.28
676.676	402.38
677.122	394.68
677.567	383.38
678.013	370.88
678.458	370.48
678.904	367.78
679.349	353.48
679.794	361.28
680.24	358.48
680.685	358.68
681.131	351.08
681.576	361.08
682.021	362.58
682.466	358.38
682.912	361.48
683.357	358.88
683.802	390.98
684.247	422.08
684.692	474.98
685.137	509.98
685.583	559.88
686.028	578.28
686.473	536.48
686.918	457.98
687.363	426.68
687.807	408.68
688.252	369.98
688.697	366.58
689.142	340.08
689.587	332.58
690.032	331.68
690.477	351.08
690.921	357.78
691.366	394.68
691.811	412.78
692.255	441.08
692.7	470.08
693.145	519.18
693.589	734.98
694.034	1201.78
694.478	1604.28
694.923	1777.88
695.367	2300.28
695.812	1229.88
696.256	507.78
696.701	389.08
697.145	348.68
697.59	338.48
698.034	326.88
698.478	338.08
698.922	335.58
699.367	341.08
699.811	345.88
700.255	361.68
700.699	397.38
701.143	437.58
701.588	486.28
702.032	519.98
702.476	526.88
702.92	507.58
703.364	518.78
703.808	672.18
704.252	1107.28
704.696	1511.78
705.14	1699.28
705.584	2163.58
706.027	1092.48
706.471	537.68
706.915	413.58
707.359	360.58
707.803	327.58
708.246	320.08
708.69	322.28
709.134	322.58
709.577	313.58
710.021	330.18
710.465	323.88
710.908	309.28
711.352	301.88
711.795	321.88
712.239	364.78
712.682	399.48
713.126	421.98
713.569	464.78
714.012	375.38
714.456	329.98
714.899	302.88
715.342	277.08
715.786	269.08
716.229	265.58
716.672	257.78
717.115	253.48
717.558	254.18
718.002	255.68
718.445	270.98
718.888	291.78
719.331	300.98
719.774	313.08
720.217	314.68
720.66	293.28
721.103	278.08
721.546	263.98
721.989	254.78
722.432	235.08
722.874	242.38
723.317	238.68
723.76	239.28
724.203	264.88
724.645	333.58
725.088	465.08
725.531	591.88
725.974	657.48
726.416	563.08
726.859	322.28
727.301	251.68
727.744	247.18
728.187	246.88
728.629	245.98
729.071	248.38
729.514	270.38
729.956	273.18
730.399	287.08
730.841	294.48
731.283	284.98
731.726	274.48
732.168	267.78
732.61	272.38
733.053	296.68
733.495	326.28
733.937	363.48
734.379	410.28
734.821	452.28
735.263	570.98
735.705	897.18
736.148	1695.28
736.59	2705.98
737.032	3074.78
737.474	2539.08
737.916	838.38
738.357	444.88
738.799	343.28
739.241	302.28
739.683	297.98
740.125	297.48
740.567	311.38
741.008	327.48
741.45	327.38
741.892	330.08
742.334	363.28
742.775	366.98
743.217	355.88
743.658	279.18
744.1	262.98
744.542	272.68
744.983	327.68
745.425	346.18
745.866	351.68
746.307	289.98
746.749	290.68
747.19	341.18
747.632	497.38
748.073	952.18
748.514	1992.28
748.956	2968.78
749.397	3714.78
749.838	3069.28
750.279	2982.08
750.72	1523.28
751.162	565.28
751.603	331.88
752.044	249.78
752.485	219.38
752.926	216.48
753.367	207.68
753.808	197.48
754.249	196.58
754.69	194.38
755.131	190.68
755.572	188.88
756.013	182.88
756.453	183.28
756.894	194.38
757.335	197.78
757.776	204.38
758.216	209.98
758.657	199.68
759.098	213.08
759.538	232.78
759.979	277.48
760.42	399.98
760.86	768.68
761.301	2021.38
761.741	4697.68
762.182	6521.38
762.622	4582.28
763.063	1346.28
763.503	557.98
763.943	359.58
764.384	323.98
764.824	352.38
765.264	379.08
765.705	273.08
766.145	205.38
766.585	187.28
767.025	183.38
767.465	183.68
767.906	226.78
768.346	281.38
768.786	299.98
769.226	249.48
769.666	333.98
770.106	678.98
770.546	1675.38
770.986	2689.18
771.426	2392.58
771.866	813.18
772.306	337.28
772.745	219.58
773.185	176.58
773.625	176.88
774.065	164.88
774.505	189.78
774.944	291.48
775.384	601.48
775.824	1006.18
776.263	944.58
776.703	417.38
777.142	201.58
777.582	149.48
778.021	137.68
778.461	139.58
778.9	139.58
779.34	130.28
779.779	116.48
780.219	116.48
780.658	113.68
781.097	115.78
781.537	113.28
781.976	117.18
782.415	115.98
782.855	110.98
783.294	110.28
783.733	108.68
784.172	105.98
784.611	110.38
785.05	120.18
785.489	112.18
785.928	124.18
786.367	121.98
786.806	120.38
787.245	131.28
787.684	141.48
788.123	149.78
788.562	142.28
789.001	127.58
789.44	122.88
789.879	121.48
790.317	121.58
790.756	136.38
791.195	132.18
791.634	153.68
792.072	213.28
792.511	398.98
792.95	1095.38
793.388	2204.78
793.827	1943.88
794.265	687.18
794.704	299.78
795.142	190.28
795.581	160.88
796.019	140.58
796.458	138.18
796.896	123.18
797.334	133.08
797.773	159.68
798.211	223.38
798.649	477.38
799.087	1076.78
799.526	1669.58
799.964	2107.88
800.402	2038.08
800.84	784.88
801.278	317.98
801.716	201.98
802.154	158.88
802.592	156.78
803.03	151.08
803.468	136.88
803.906	150.58
804.344	153.28
804.782	146.88
805.22	136.68
805.658	133.78
806.096	154.08
806.533	164.98
806.971	189.08
807.409	234.68
807.847	346.88
808.284	729.78
808.722	2007.98
809.16	3408.38
809.597	3331.08
810.035	5667.18
810.472	5805.78
810.91	2130.98
811.347	832.68
811.785	421.38
812.222	261.58
812.66	210.18
813.097	165.18
813.535	144.18
813.972	127.28
814.409	125.38
814.846	111.98
815.284	110.38
815.721	102.18
816.158	111.88
816.595	120.98
817.032	169.78
817.47	189.58
817.907	146.18
818.344	137.38
818.781	112.88
819.218	102.28
819.655	125.18
820.092	191.58
820.529	213.28
820.966	178.18
821.403	133.48
821.839	104.78
822.276	103.48
822.713	123.88
823.15	136.88
823.587	129.58
824.023	157.48
824.46	329.48
824.897	955.48
825.333	1378.98
825.77	584.68
826.206	233.58
826.643	145.88
827.08	105.18
827.516	89.08
827.953	85.68
828.389	86.38
828.825	75.48
829.262	73.98
829.698	66.58
830.135	69.88
830.571	64.38
831.007	62.68
831.443	66.78
831.88	60.68
832.316	59.68
832.752	59.18
833.188	69.18
833.624	63.38
834.06	69.58
834.497	73.48
834.933	74.48
835.369	78.88
835.805	67.58
836.241	88.38
836.677	91.18
837.112	94.28
837.548	109.78
837.984	144.08
838.42	215.08
838.856	533.08
839.292	1610.98
839.727	2341.78
840.163	1096.88
840.599	1003.78
841.034	2143.18
841.47	2138.78
841.906	794.98
842.341	348.98
842.777	229.28
843.212	280.48
843.648	257.18
844.083	136.28
844.519	97.08
844.954	73.98
845.39	65.38
845.825	58.08
846.261	59.68
846.696	57.28
847.131	56.68
847.566	56.08
848.002	57.88
848.437	51.88
848.872	59.08
849.307	61.68
849.742	90.48
850.177	194.88
850.613	599.28
851.048	895.78
851.483	389.68
851.918	163.88
852.353	92.08
852.788	59.38
853.223	55.08
853.657	57.98
854.092	47.38
854.527	44.28
854.962	41.08
855.397	51.48
855.832	49.08
856.266	40.08
856.701	37.98
857.136	36.38
857.57	44.88
858.005	48.18
858.44	61.08
858.874	47.58
859.309	58.08
859.743	38.78
860.178	46.48
860.612	45.48
861.047	53.78
861.481	69.58
861.915	75.28
862.35	53.18
862.784	38.28
863.218	42.18
863.653	38.28
864.087	46.78
864.521	58.18
864.955	73.18
865.39	169.08
865.824	172.88
866.258	124.68
866.692	167.08
867.126	179.28
867.56	98.18
867.994	53.28
868.428	44.38
868.862	47.68
869.296	52.28
869.73	56.68
870.164	58.78
870.598	50.28
871.031	39.48
871.465	39.48
871.899	34.38
872.333	21.78
872.766	24.78
873.2	25.18
873.634	30.38
874.067	24.98
874.501	26.48
874.935	34.78
875.368	33.68
875.802	28.38
876.235	25.28
876.669	27.08
877.102	27.28
877.535	28.28
877.969	23.88
878.402	24.28
878.836	20.68
879.269	25.48
879.702	24.18
880.135	24.18
880.569	25.08
881.002	32.58
881.435	25.48
881.868	23.18
882.301	25.08
882.734	16.98
883.167	18.18
883.601	16.88
884.034	25.48
884.467	12.98
884.899	25.58
885.332	17.28
885.765	16.58
886.198	16.88
886.631	20.58
887.064	20.48
887.497	20.88
887.929	23.38
888.362	11.68
888.795	17.28
889.228	21.88
889.66	25.58
890.093	20.18
890.526	16.08
890.958	17.18
891.391	16.28
891.823	19.88
892.256	16.88
892.688	18.18
893.121	15.58
893.553	21.38
893.985	24.78
894.418	21.08
894.85	10.58
895.282	19.28
895.715	20.88
896.147	18.38
896.579	18.08
897.011	18.18
897.444	23.88
897.876	13.28
898.308	17.88
898.74	17.08
899.172	9.88
899.604	20.48
900.036	17.18
900.468	14.78
900.9	18.68
901.332	21.38
901.764	18.88
902.196	21.78
902.628	21.08
903.06	15.08
903.491	30.68
903.923	27.58
904.355	19.98
904.787	21.88
905.218	28.18
905.65	18.78
906.082	13.18
906.513	13.08
906.945	19.98
907.376	16.78
907.808	20.88
908.239	24.88
908.671	21.28
909.102	30.08
909.534	22.58
909.965	50.38
910.397	97.38
910.828	326.98
911.259	484.78
911.691	223.68
912.122	112.38
912.553	50.18
912.984	37.58
913.415	23.88
913.847	27.58
914.278	16.38
914.709	12.48
915.14	16.78
915.571	19.78
916.002	6.98
916.433	19.88
916.864	16.88
917.295	11.98
917.726	23.98
918.157	20.78
918.587	31.38
919.018	26.08
919.449	25.68
919.88	24.88
920.311	29.18
920.741	55.68
921.172	168.78
921.603	158.28
922.033	78.68
922.464	43.98
922.895	25.78
923.325	24.28
923.756	13.08
924.186	13.68
924.617	29.98
925.047	31.48
925.478	41.18
925.908	35.48
926.338	23.38
926.769	12.48
927.199	23.98
927.629	13.28
928.06	20.48
928.49	14.38
928.92	17.28
929.35	5.88
929.78	8.68
930.21	11.38
930.641	12.18
931.071	3.98
931.501	8.48
931.931	9.68
932.361	6.38
932.791	2.38
933.221	8.78
933.651	3.18
934.08	17.48
934.51	30.58
934.94	12.48
935.37	13.68
935.8	9.28
936.229	8.78
936.659	8.28
937.089	-0.32
937.519	19.88
937.948	25.28
938.378	18.78
938.807	15.18
939.237	5.58
939.666	10.98
940.096	-1.82
940.525	-0.12
940.955	3.68
941.384	-0.42
941.814	-0.42
942.243	-1.02
942.672	2.88
943.102	-2.12
943.531	0.88
943.96	0.28
944.39	2.18
944.819	0.58
945.248	-1.02
945.677	9.18
946.106	5.98
946.535	10.68
946.964	8.38
947.393	4.98
947.822	5.08
948.251	-0.02
948.68	10.38
949.109	9.38
949.538	8.38
949.967	-1.82
950.396	5.98
950.825	-1.32
951.254	-2.72
951.682	-7.22
952.111	1.18
952.54	4.98
952.969	2.58
953.397	0.78
953.826	7.88
954.254	-3.42
954.683	4.08
955.112	0.48
955.54	4.48
955.969	1.88
956.397	5.18
956.826	-2.32
957.254	0.48
957.682	-0.02
958.111	5.98
958.539	6.38
958.967	0.88
959.396	0.88
959.824	3.28
960.252	6.08
960.68	-6.72
961.109	1.48
961.537	-2.02
961.965	4.58
962.393	-0.22
962.821	1.88
963.249	2.88
963.677	1.08
964.105	8.98
964.533	42.58
964.961	44.48
965.389	20.28
965.817	11.78
966.245	1.48
966.672	2.18
967.1	-3.82
967.528	0.28
967.956	3.58
968.383	2.88
968.811	-0.62
969.239	1.68
969.666	-4.82
970.094	3.48
970.522	5.48
970.949	1.78
971.377	-4.12
971.804	0.08
972.232	-4.92
972.659	-3.22
973.087	-7.12
973.514	-5.32
973.941	-6.92
974.369	3.08
974.796	-0.22
975.223	4.28
975.651	5.88
976.078	0.08
976.505	0.38
976.932	2.78
977.359	23.38
977.786	13.78
978.214	1.48
978.641	-0.52
979.068	-3.52
979.495	-3.92
979.922	-4.22
980.349	-0.02
980.776	3.48
981.202	3.78
981.629	3.78
982.056	4.08
982.483	0.48
982.91	-0.12
983.337	-7.02
983.763	4.28
984.19	1.08
984.617	-12.02
985.043	-7.72
985.47	-4.92
985.897	-3.02
986.323	-4.82
986.75	-1.72
987.176	1.78
987.603	1.18
988.029	1.78
988.456	-1.62
988.882	11.48
989.308	-6.12
989.735	-2.32
990.161	4.68
990.587	-2.62
991.014	1.18
991.44	2.68
991.866	-2.02
992.292	-7.02
992.719	-2.22
993.145	-0.32
993.571	-7.52
993.997	-5.12
994.423	-7.62
994.849	-2.42
995.275	0.28
995.701	2.38
996.127	1.68
996.553	7.18
996.979	-1.62
997.405	0.58
997.83	0.88
998.256	-5.02
998.682	-3.02
999.108	-3.52
999.534	-1.02
999.959	-1.12
1000.385	-2.22
1000.811	1.48
1001.236	-1.32
1001.662	-5.32
1002.087	-7.72
1002.513	5.38
1002.938	-0.32
1003.364	1.98
1003.789	-0.72
1004.215	5.88
1004.64	-1.32
1005.066	6.88
1005.491	-3.52
1005.916	1.58
1006.342	3.08
1006.767	-7.12
1007.192	10.48
1007.617	-6.02
1008.042	5.38
1008.468	-1.82
1008.893	-8.02
1009.318	-5.32
1009.743	3.98
1010.168	4.78
1010.593	-3.72
1011.018	-10.72
1011.443	-1.22
1011.868	5.78
1012.293	-5.82
1012.718	-2.92
1013.143	0.38
1013.567	2.38
1013.992	-3.12
1014.417	-12.02
1014.842	2.48
1015.267	-5.12
1015.691	-6.22
1016.116	3.48
1016.541	0.08
1016.965	3.78
1017.39	4.48
1017.814	2.08
1018.239	2.28
1018.663	-0.32
1019.088	-5.42
1019.512	-6.22
1019.937	-4.12
1020.361	-0.12
1020.785	-7.22
1021.21	-1.82
1021.634	-1.02
1022.058	-2.22
1022.483	8.28
1022.907	-9.92
1023.331	-5.32
1023.755	-2.82
1024.179	2.08
1024.604	-6.52
1025.028	-2.42
1025.452	-8.52
1025.876	-3.42
1026.3	-2.02
1026.724	-15.42
1027.148	-3.22
1027.572	-6.82
1027.996	-3.92
1028.42	-5.82
1028.843	-5.72
1029.267	-5.22
1029.691	3.38
1030.115	-0.02
1030.539	-7.72
1030.962	-8.82
1031.386	-12.72
1031.81	-2.22
1032.233	-5.32
1032.657	1.38
1033.08	2.18
1033.504	-1.32
1033.927	-0.82
1034.351	-1.32
1034.774	-3.62
1035.198	-2.32
1035.621	-5.42
1036.045	-9.22
1036.468	-8.22
1036.891	-11.42
1037.315	-10.92
1037.738	-9.82
1038.161	-2.82
1038.584	-10.32
1039.008	-2.52
1039.431	-2.72
1039.854	0.08
1040.277	-6.32
1040.7	-10.72
1041.123	1.28
1041.546	-5.92
1041.969	-6.72
1042.392	-4.02
1042.815	-6.52
1043.238	-1.12
1043.661	3.88
1044.084	-7.02
1044.507	-8.12
1044.93	-6.62
1045.352	-11.02
1045.775	0.68
1046.198	0.78
1046.621	-4.02
1047.043	1.88
1047.466	3.38
1047.889	-3.12
1048.311	0.38
1048.734	2.58
1049.156	-1.02
1049.579	-1.62
1050.001	-0.62
1050.424	-2.52
1050.846	2.08
1051.269	-4.72
1051.691	-4.42
1052.113	-3.22
1052.536	1.88
1052.958	-0.52
1053.38	-7.32
1053.802	-5.02
1054.225	0.58
1054.647	-7.22
1055.069	-2.82
1055.491	3.48
1055.913	-3.22
1056.335	1.18
1056.757	-2.62
1057.179	-3.72
1057.601	-2.42
1058.023	1.78
1058.445	0.78
1058.867	-8.42
1059.289	-5.12
1059.711	-4.52
1060.133	1.48
1060.555	-2.82
1060.976	-8.22
1061.398	-0.72
1061.82	-9.02
1062.241	-2.82
1062.663	-13.62
1063.085	0.98
1063.506	0.28
1063.928	-1.12
1064.35	2.18
1064.771	-9.22
1065.193	-1.92
1065.614	-9.42
1066.035	0.98
1066.457	-1.32
1066.878	1.58
1067.3	-6.72
1067.721	-5.12
1068.142	-1.42
1068.564	-1.72
1068.985	-3.92
1069.406	-7.32
1069.827	-4.32
1070.248	-0.52
1070.67	-0.42
1071.091	-6.62
1071.512	-3.02
1071.933	-7.72
1072.354	-10.42
1072.775	-2.82
1073.196	-12.22
1073.617	-1.22
1074.038	-8.32
1074.459	-1.62
1074.88	-4.42
1075.3	2.58
1075.721	-10.42
1076.142	-1.02
1076.563	-2.52
1076.983	-9.72
1077.404	1.88
1077.825	-12.02
1078.246	0.18
1078.666	-10.02
1079.087	-8.52
1079.507	-5.32
1079.928	3.48
1080.348	-0.42
1080.769	-7.02
1081.189	1.28
1081.61	-6.32
1082.03	-10.72
1082.451	-7.42
1082.871	-2.72
1083.291	0.28
1083.711	-11.92
1084.132	-5.12
1084.552	-8.82
1084.972	-2.32
1085.392	-13.52
1085.813	-7.52
1086.233	-10.12
1086.653	-6.92
1087.073	-1.82
1087.493	-5.12
1087.913	-4.12
1088.333	-7.22
1088.753	-0.62
1089.173	-2.52
1089.593	-1.02
1090.013	-0.32
1090.433	-1.02
1090.852	-1.92
1091.272	-1.42
1091.692	0.48
1092.112	-4.22
1092.531	-9.92
1092.951	-16.22
1093.371	-3.52
1093.79	-3.52
1094.21	-9.02
1094.63	-5.32
1095.049	-8.42
1095.469	-1.72
1095.888	-3.92
1096.308	2.58
1096.727	1.38
1097.146	3.38
1097.566	-3.82
1097.985	-3.72
1098.405	-3.02
1098.824	-10.62
1099.243	-5.32
1099.662	-8.82
1100.082	-2.82
1100.501	-6.02
1100.92	-10.12
1101.339	-0.42
1101.758	-6.22
