Data from 20171114-ORNL-Ar_H_NY_Subt18_08-04-46-284.txt Node
Date: Tue Nov 14 08:04:46 EST 2017
User: Ender
Spectrometer: HR+D1039
Trigger mode: 0
Integration Time (sec): 2.730000E-2
Scans to average: 10
Electric dark correction enabled: true
Nonlinearity correction enabled: false
Boxcar width: 0
XAxis mode: Wavelengths
Number of Pixels in Spectrum: 2048
>>>>>Begin Spectral Data<<<<<
187.836	-0.61
188.309	-0.61
188.782	-0.61
189.255	3.99
189.728	-0.41
190.201	0.89
190.674	1.89
191.147	3.29
191.619	-5.71
192.092	-0.01
192.565	2.09
193.038	-6.71
193.511	1.89
193.984	0.89
194.456	0.59
194.929	1.79
195.402	-0.11
195.874	-3.71
196.347	-1.61
196.82	-1.11
197.292	8.79
197.765	0.89
198.237	-6.51
198.71	3.59
199.182	-3.41
199.655	2.89
200.127	4.69
200.6	-4.01
201.072	-2.61
201.544	0.29
202.017	-2.01
202.489	0.69
202.961	-3.91
203.433	-7.81
203.906	-11.21
204.378	-3.51
204.85	-1.41
205.322	-11.91
205.794	-4.31
206.266	-3.81
206.739	-10.11
207.211	4.39
207.683	-2.91
208.155	-2.71
208.627	-8.41
209.099	-2.71
209.57	-8.51
210.042	-1.41
210.514	-1.61
210.986	-3.71
211.458	-5.21
211.93	-2.51
212.402	2.09
212.873	-4.71
213.345	-6.31
213.817	-11.91
214.288	-6.91
214.76	-9.21
215.232	-0.61
215.703	-2.91
216.175	-3.81
216.646	1.19
217.118	-0.51
217.589	-7.41
218.061	-4.01
218.532	-0.41
219.004	-0.21
219.475	-2.71
219.946	-5.61
220.418	-7.21
220.889	1.59
221.36	-0.01
221.832	-4.81
222.303	-2.01
222.774	3.09
223.245	-10.91
223.717	-4.71
224.188	-8.11
224.659	-4.11
225.13	-5.91
225.601	-2.21
226.072	6.69
226.543	-0.31
227.014	1.99
227.485	-0.41
227.956	-5.01
228.427	-5.01
228.898	3.19
229.369	2.59
229.839	-7.31
230.31	-9.11
230.781	-0.71
231.252	-2.11
231.722	-3.91
232.193	0.89
232.664	0.49
233.135	1.09
233.605	3.09
234.076	-6.31
234.546	-1.21
235.017	0.49
235.487	2.59
235.958	-5.61
236.428	4.49
236.899	5.69
237.369	5.79
237.84	-0.41
238.31	7.09
238.78	7.69
239.251	2.79
239.721	3.49
240.191	1.79
240.662	2.49
241.132	2.79
241.602	-7.81
242.072	-3.41
242.542	3.89
243.013	1.49
243.483	-0.81
243.953	8.09
244.423	3.39
244.893	5.09
245.363	3.79
245.833	7.99
246.303	-4.41
246.773	5.09
247.243	3.69
247.712	12.09
248.182	11.89
248.652	9.99
249.122	-0.01
249.592	13.99
250.061	23.99
250.531	37.09
251.001	17.59
251.471	21.79
251.94	21.59
252.41	5.59
252.879	6.29
253.349	13.49
253.818	9.89
254.288	7.79
254.757	7.39
255.227	0.09
255.696	5.69
256.166	3.99
256.635	7.89
257.105	7.09
257.574	10.39
258.043	12.69
258.513	10.29
258.982	17.29
259.451	7.79
259.92	18.59
260.389	19.19
260.859	13.59
261.328	17.99
261.797	17.59
262.266	11.69
262.735	14.39
263.204	3.19
263.673	3.89
264.142	4.79
264.611	4.39
265.08	2.99
265.549	5.49
266.018	9.79
266.487	6.89
266.955	2.29
267.424	3.09
267.893	11.19
268.362	2.59
268.83	4.59
269.299	12.79
269.768	2.79
270.236	12.49
270.705	3.49
271.174	5.59
271.642	7.89
272.111	11.49
272.579	17.29
273.048	24.29
273.516	30.99
273.985	32.69
274.453	26.79
274.922	21.59
275.39	10.09
275.858	11.69
276.327	11.99
276.795	19.19
277.263	14.79
277.731	25.89
278.2	59.99
278.668	60.49
279.136	49.49
279.604	24.39
280.072	16.99
280.54	13.39
281.008	10.99
281.477	15.29
281.945	15.39
282.413	17.19
282.881	18.69
283.348	8.99
283.816	12.09
284.284	18.09
284.752	21.69
285.22	15.89
285.688	14.79
286.156	17.09
286.623	47.39
287.091	58.59
287.559	33.29
288.026	19.49
288.494	25.39
288.962	10.99
289.429	11.19
289.897	18.59
290.364	17.49
290.832	23.89
291.3	20.49
291.767	23.29
292.234	26.59
292.702	19.49
293.169	20.09
293.637	29.29
294.104	19.79
294.571	13.19
295.039	19.19
295.506	18.79
295.973	21.99
296.44	22.29
296.908	18.39
297.375	19.19
297.842	24.39
298.309	13.49
298.776	12.69
299.243	25.69
299.71	16.99
300.177	21.69
300.644	22.09
301.111	22.69
301.578	30.19
302.045	19.69
302.512	21.89
302.979	23.59
303.446	28.09
303.913	19.49
304.379	19.09
304.846	29.99
305.313	26.09
305.78	26.09
306.246	19.09
306.713	26.69
307.18	30.79
307.646	26.79
308.113	30.39
308.579	28.99
309.046	31.59
309.512	29.69
309.979	20.59
310.445	29.89
310.912	35.99
311.378	30.69
311.845	33.59
312.311	32.79
312.777	35.49
313.244	31.69
313.71	41.59
314.176	36.29
314.642	34.39
315.109	26.59
315.575	39.19
316.041	40.19
316.507	31.39
316.973	42.49
317.439	32.79
317.905	38.59
318.371	40.99
318.837	41.29
319.303	40.19
319.769	41.39
320.235	32.79
320.701	40.69
321.167	36.19
321.633	35.89
322.099	42.59
322.564	50.09
323.03	38.39
323.496	41.49
323.962	44.39
324.427	43.09
324.893	41.29
325.359	37.89
325.824	40.39
326.29	36.19
326.755	40.99
327.221	45.69
327.686	42.69
328.152	49.09
328.617	45.79
329.083	49.89
329.548	54.29
330.014	45.09
330.479	38.79
330.944	50.29
331.41	43.29
331.875	43.99
332.34	49.09
332.805	44.79
333.271	47.49
333.736	50.79
334.201	54.99
334.666	52.59
335.131	55.49
335.596	53.69
336.061	56.89
336.526	48.99
336.991	49.69
337.456	62.29
337.921	51.59
338.386	47.89
338.851	47.19
339.316	49.39
339.781	51.39
340.246	50.39
340.711	49.79
341.175	52.79
341.64	46.49
342.105	48.29
342.569	56.19
343.034	56.99
343.499	57.59
343.963	54.59
344.428	64.79
344.893	62.19
345.357	62.99
345.822	58.39
346.286	69.19
346.751	75.59
347.215	69.89
347.679	75.49
348.144	98.49
348.608	83.49
349.073	69.89
349.537	72.19
350.001	71.29
350.465	93.69
350.93	76.49
351.394	78.29
351.858	79.49
352.322	86.69
352.786	92.69
353.25	102.89
353.715	107.69
354.179	97.99
354.643	123.19
355.107	119.79
355.571	106.69
356.035	102.09
356.498	117.69
356.962	125.29
357.426	131.29
357.89	116.39
358.354	90.79
358.818	84.89
359.281	81.59
359.745	75.29
360.209	80.39
360.673	71.99
361.136	82.09
361.6	83.89
362.064	84.09
362.527	81.79
362.991	84.79
363.454	74.99
363.918	76.49
364.381	82.29
364.845	77.59
365.308	88.69
365.772	89.29
366.235	86.49
366.698	77.19
367.162	87.79
367.625	84.79
368.088	86.59
368.552	86.99
369.015	88.59
369.478	96.09
369.941	98.19
370.404	88.69
370.867	102.79
371.331	100.99
371.794	113.49
372.257	110.19
372.72	116.09
373.183	108.19
373.646	101.49
374.109	100.69
374.572	106.59
375.035	101.39
375.497	103.39
375.96	102.99
376.423	104.49
376.886	107.49
377.349	103.19
377.811	97.09
378.274	97.09
378.737	110.29
379.199	111.29
379.662	110.99
380.125	111.79
380.587	106.59
381.05	114.59
381.512	120.79
381.975	128.69
382.437	125.59
382.9	119.49
383.362	124.89
383.825	138.69
384.287	140.29
384.75	134.19
385.212	137.79
385.674	129.79
386.136	130.39
386.599	122.69
387.061	123.79
387.523	123.39
387.985	123.69
388.447	136.39
388.91	136.79
389.372	159.49
389.834	148.39
390.296	142.99
390.758	153.89
391.22	167.59
391.682	198.89
392.144	288.49
392.606	225.49
393.068	168.59
393.529	163.69
393.991	148.39
394.453	139.19
394.915	151.69
395.377	182.49
395.838	201.29
396.3	147.79
396.762	136.59
397.224	126.59
397.685	123.79
398.147	125.19
398.608	120.79
399.07	126.59
399.531	132.79
399.993	139.59
400.454	146.99
400.916	139.79
401.377	139.69
401.839	145.89
402.3	147.29
402.762	162.19
403.223	174.49
403.684	164.59
404.145	154.59
404.607	145.29
405.068	155.59
405.529	166.39
405.99	189.49
406.451	176.89
406.913	162.59
407.374	151.79
407.835	142.99
408.296	150.69
408.757	163.09
409.218	172.89
409.679	172.39
410.14	160.79
410.601	166.29
411.062	172.79
411.522	173.29
411.983	179.79
412.444	168.39
412.905	168.69
413.366	176.29
413.826	182.79
414.287	206.49
414.748	257.49
415.208	228.19
415.669	203.39
416.13	193.99
416.59	188.59
417.051	199.19
417.511	211.19
417.972	228.59
418.432	234.09
418.893	278.59
419.353	233.19
419.814	190.69
420.274	178.89
420.734	169.39
421.195	185.09
421.655	183.79
422.115	179.29
422.576	179.39
423.036	187.99
423.496	194.09
423.956	208.49
424.416	220.99
424.876	247.49
425.336	247.49
425.797	250.19
426.257	239.19
426.717	223.59
427.177	223.49
427.637	212.89
428.097	222.39
428.556	234.39
429.016	251.09
429.476	247.99
429.936	253.89
430.396	270.59
430.856	281.19
431.315	300.29
431.775	336.39
432.235	357.09
432.694	330.69
433.154	342.79
433.614	366.29
434.073	312.39
434.533	269.09
434.993	250.59
435.452	271.99
435.912	275.19
436.371	269.19
436.83	266.89
437.29	258.39
437.749	237.79
438.209	230.79
438.668	255.29
439.127	266.59
439.587	261.19
440.046	238.19
440.505	253.49
440.964	259.99
441.424	306.79
441.883	293.39
442.342	244.09
442.801	213.89
443.26	212.49
443.719	208.59
444.178	209.49
444.637	198.39
445.096	205.59
445.555	210.69
446.014	210.39
446.473	209.59
446.932	211.39
447.391	213.39
447.849	214.09
448.308	205.49
448.767	213.29
449.226	219.69
449.685	223.99
450.143	235.39
450.602	228.29
451.061	221.49
451.519	223.79
451.978	222.09
452.436	212.19
452.895	215.39
453.353	236.29
453.812	233.99
454.27	226.79
454.729	229.89
455.187	227.89
455.646	228.09
456.104	230.19
456.562	246.49
457.021	248.99
457.479	240.29
457.937	256.69
458.395	239.29
458.854	227.19
459.312	242.59
459.77	256.19
460.228	239.19
460.686	232.69
461.144	238.89
461.602	230.69
462.06	228.09
462.518	244.89
462.976	239.89
463.434	240.39
463.892	252.89
464.35	257.99
464.808	276.19
465.266	249.99
465.724	251.69
466.181	254.59
466.639	258.59
467.097	269.39
467.555	294.39
468.012	285.99
468.47	291.69
468.928	304.09
469.385	318.49
469.843	326.99
470.3	339.79
470.758	341.29
471.215	364.09
471.673	387.19
472.13	376.89
472.588	389.19
473.045	341.09
473.503	355.19
473.96	366.69
474.417	377.69
474.875	409.09
475.332	455.89
475.789	433.09
476.246	441.79
476.704	461.99
477.161	475.59
477.618	496.09
478.075	529.19
478.532	573.29
478.989	656.89
479.446	766.59
479.903	731.39
480.36	771.09
480.817	823.09
481.274	920.99
481.731	1015.89
482.188	1120.19
482.645	1234.29
483.102	1346.79
483.558	1477.99
484.015	1530.09
484.472	1505.59
484.929	1458.59
485.385	1413.89
485.842	1370.69
486.299	1297.39
486.755	1235.49
487.212	1048.59
487.668	876.09
488.125	815.29
488.582	740.49
489.038	714.29
489.494	679.69
489.951	646.89
490.407	633.49
490.864	623.09
491.32	610.29
491.776	605.19
492.233	607.19
492.689	587.99
493.145	570.39
493.602	557.69
494.058	577.29
494.514	588.59
494.97	609.69
495.426	618.79
495.882	585.59
496.338	581.39
496.794	596.39
497.251	599.29
497.707	608.49
498.163	609.69
498.618	606.69
499.074	628.49
499.53	642.39
499.986	639.59
500.442	621.89
500.898	594.09
501.354	600.49
501.809	603.89
502.265	603.69
502.721	628.89
503.177	633.49
503.632	631.29
504.088	639.39
504.543	671.29
504.999	672.09
505.455	627.19
505.91	602.09
506.366	598.69
506.821	589.49
507.277	579.49
507.732	593.99
508.187	598.69
508.643	600.79
509.098	597.09
509.553	622.19
510.009	615.49
510.464	634.99
510.919	644.39
511.375	657.19
511.83	675.59
512.285	683.39
512.74	717.59
513.195	738.19
513.65	731.99
514.105	726.29
514.56	739.89
515.015	758.49
515.47	766.99
515.925	757.59
516.38	751.19
516.835	757.59
517.29	738.59
517.745	733.59
518.2	723.39
518.655	703.79
519.109	697.69
519.564	707.59
520.019	692.39
520.474	690.29
520.928	684.59
521.383	675.69
521.838	674.99
522.292	675.99
522.747	669.39
523.201	664.79
523.656	664.39
524.11	654.59
524.565	657.19
525.019	641.49
525.474	667.09
525.928	671.09
526.382	659.19
526.837	658.29
527.291	667.29
527.745	658.79
528.2	661.79
528.654	651.09
529.108	646.59
529.562	649.89
530.016	646.29
530.47	650.79
530.925	662.49
531.379	653.29
531.833	676.69
532.287	668.19
532.741	659.19
533.195	663.39
533.649	675.09
534.103	684.89
534.556	669.29
535.01	678.69
535.464	677.39
535.918	685.79
536.372	679.39
536.826	674.99
537.279	664.09
537.733	667.79
538.187	667.79
538.64	674.99
539.094	677.59
539.548	685.19
540.001	675.49
540.455	676.99
540.908	685.09
541.362	685.89
541.815	698.79
542.269	706.29
542.722	711.09
543.175	727.39
543.629	722.39
544.082	726.59
544.536	741.29
544.989	735.29
545.442	739.49
545.895	746.09
546.349	735.89
546.802	734.99
547.255	744.69
547.708	749.79
548.161	766.39
548.614	778.89
549.067	774.39
549.52	770.39
549.973	763.09
550.426	746.19
550.879	741.89
551.332	748.49
551.785	751.79
552.238	753.29
552.691	766.09
553.144	778.09
553.596	794.99
554.049	806.59
554.502	835.49
554.955	855.09
555.407	859.99
555.86	846.79
556.313	844.19
556.765	825.89
557.218	822.49
557.67	833.09
558.123	823.69
558.576	822.19
559.028	822.69
559.48	826.59
559.933	823.39
560.385	773.49
560.838	755.59
561.29	725.29
561.742	728.79
562.195	714.09
562.647	708.39
563.099	724.99
563.551	723.29
564.004	738.89
564.456	723.29
564.908	708.69
565.36	696.99
565.812	681.89
566.264	676.49
566.716	671.49
567.168	657.99
567.62	677.39
568.072	660.49
568.524	646.39
568.976	640.29
569.428	624.29
569.88	616.59
570.332	623.29
570.784	626.09
571.235	641.49
571.687	643.29
572.139	650.09
572.59	671.69
573.042	659.09
573.494	649.59
573.945	662.49
574.397	646.99
574.849	638.59
575.3	636.49
575.752	632.89
576.203	630.59
576.655	629.99
577.106	612.89
577.557	618.99
578.009	611.39
578.46	604.09
578.912	609.69
579.363	608.59
579.814	614.99
580.265	611.09
580.717	603.69
581.168	616.79
581.619	631.19
582.07	637.49
582.521	629.19
582.972	614.89
583.423	630.29
583.875	627.39
584.326	639.99
584.777	687.09
585.227	757.99
585.678	841.59
586.129	930.29
586.58	990.19
587.031	1071.69
587.482	1234.19
587.933	1412.29
588.384	1212.69
588.834	900.99
589.285	749.29
589.736	714.89
590.186	717.19
590.637	706.89
591.088	683.09
591.538	686.19
591.989	665.39
592.439	658.69
592.89	656.89
593.34	654.59
593.791	658.69
594.241	653.59
594.692	656.99
595.142	642.69
595.593	640.99
596.043	640.29
596.493	655.69
596.943	653.19
597.394	655.59
597.844	641.69
598.294	666.99
598.744	683.69
599.195	698.79
599.645	735.69
600.095	777.19
600.545	835.89
600.995	872.19
601.445	932.29
601.895	983.89
602.345	1031.29
602.795	1013.49
603.245	972.29
603.695	921.89
604.145	869.79
604.594	834.69
605.044	776.49
605.494	737.19
605.944	686.99
606.393	670.89
606.843	659.49
607.293	662.49
607.743	662.09
608.192	673.79
608.642	688.59
609.091	690.49
609.541	696.39
609.99	699.09
610.44	689.49
610.889	644.29
611.339	635.19
611.788	626.49
612.238	630.09
612.687	659.49
613.136	646.49
613.586	667.79
614.035	664.19
614.484	682.69
614.933	683.49
615.383	677.09
615.832	668.79
616.281	661.89
616.73	620.39
617.179	599.89
617.628	590.59
618.077	576.89
618.526	562.29
618.975	554.49
619.424	550.29
619.873	542.29
620.322	551.79
620.771	536.79
621.22	544.59
621.669	536.99
622.118	534.09
622.567	517.79
623.015	508.99
623.464	509.69
623.913	507.49
624.361	499.49
624.81	497.09
625.259	499.39
625.707	497.69
626.156	499.09
626.604	514.89
627.053	501.39
627.501	509.69
627.95	518.49
628.398	517.39
628.847	510.69
629.295	510.29
629.744	511.69
630.192	506.39
630.64	509.59
631.089	504.79
631.537	510.19
631.985	526.69
632.433	531.29
632.881	541.19
633.33	586.79
633.778	572.39
634.226	508.29
634.674	507.99
635.122	510.29
635.57	530.49
636.018	556.39
636.466	523.19
636.914	501.39
637.362	506.19
637.81	519.79
638.258	510.19
638.705	511.49
639.153	534.09
639.601	548.49
640.049	559.99
640.497	596.19
640.944	614.09
641.392	568.39
641.84	534.09
642.287	521.39
642.735	503.89
643.182	508.89
643.63	505.59
644.078	509.29
644.525	528.59
644.973	524.89
645.42	534.09
645.867	549.09
646.315	567.59
646.762	583.19
647.21	613.19
647.657	630.69
648.104	664.59
648.551	687.39
648.999	731.19
649.446	796.69
649.893	880.59
650.34	1024.59
650.787	1224.79
651.234	1509.19
651.682	1975.39
652.129	2684.49
652.576	3873.59
653.023	5750.79
653.47	7902.19
653.917	10013.79
654.363	11711.09
654.81	13091.99
655.257	12467.49
655.704	8076.29
656.151	4754.19
656.598	3070.39
657.044	2164.49
657.491	1678.29
657.938	1324.29
658.385	1097.59
658.831	960.89
659.278	855.79
659.724	753.39
660.171	700.69
660.618	649.99
661.064	603.29
661.511	585.29
661.957	573.79
662.404	563.89
662.85	576.59
663.296	557.39
663.743	494.79
664.189	474.09
664.635	476.49
665.082	464.69
665.528	468.19
665.974	460.79
666.42	451.39
666.867	448.99
667.313	430.19
667.759	414.99
668.205	430.09
668.651	420.69
669.097	430.09
669.543	443.49
669.989	418.89
670.435	400.59
670.881	386.59
671.327	387.69
671.773	402.89
672.219	433.79
672.665	480.29
673.11	513.99
673.556	542.89
674.002	590.99
674.448	573.39
674.893	483.39
675.339	419.69
675.785	386.49
676.23	358.99
676.676	346.89
677.122	325.49
677.567	322.49
678.013	321.59
678.458	314.19
678.904	310.49
679.349	302.19
679.794	310.29
680.24	312.59
680.685	304.99
681.131	303.49
681.576	304.99
682.021	306.69
682.466	297.49
682.912	298.59
683.357	304.19
683.802	338.59
684.247	355.69
684.692	395.69
685.137	431.09
685.583	467.19
686.028	500.39
686.473	454.69
686.918	381.49
687.363	361.19
687.807	334.19
688.252	318.69
688.697	306.19
689.142	287.49
689.587	287.99
690.032	283.39
690.477	298.59
690.921	299.09
691.366	329.19
691.811	357.99
692.255	368.09
692.7	400.39
693.145	433.09
693.589	598.39
694.034	947.89
694.478	1325.79
694.923	1531.99
695.367	2022.79
695.812	1047.79
696.256	438.49
696.701	322.59
697.145	294.39
697.59	283.69
698.034	278.99
698.478	293.99
698.922	287.49
699.367	282.59
699.811	294.39
700.255	304.89
700.699	336.09
701.143	370.59
701.588	406.59
702.032	451.49
702.476	443.29
702.92	422.79
703.364	420.89
703.808	535.49
704.252	875.79
704.696	1250.89
705.14	1468.89
705.584	1895.09
706.027	925.09
706.471	452.19
706.915	340.89
707.359	302.19
707.803	279.99
708.246	268.19
708.69	266.59
709.134	262.79
709.577	271.19
710.021	276.39
710.465	268.89
710.908	257.79
711.352	256.49
711.795	263.89
712.239	299.99
712.682	332.39
713.126	358.59
713.569	407.19
714.012	328.69
714.456	287.49
714.899	259.79
715.342	239.59
715.786	224.09
716.229	218.39
716.672	224.29
717.115	215.69
717.558	215.79
718.002	212.69
718.445	230.59
718.888	249.49
719.331	252.79
719.774	267.39
720.217	265.69
720.66	252.19
721.103	223.39
721.546	215.29
721.989	211.39
722.432	198.69
722.874	203.19
723.317	195.19
723.76	204.69
724.203	218.09
724.645	272.19
725.088	379.09
725.531	491.09
725.974	573.19
726.416	476.49
726.859	270.59
727.301	208.39
727.744	204.39
728.187	208.69
728.629	205.69
729.071	211.89
729.514	225.29
729.956	239.19
730.399	244.99
730.841	245.99
731.283	232.69
731.726	228.49
732.168	221.79
732.61	218.79
733.053	247.69
733.495	267.29
733.937	299.09
734.379	338.49
734.821	374.59
735.263	460.79
735.705	696.89
736.148	1326.79
736.59	2209.29
737.032	2689.39
737.474	2188.79
737.916	697.49
738.357	365.09
738.799	281.19
739.241	255.69
739.683	243.29
740.125	246.29
740.567	254.59
741.008	271.59
741.45	274.29
741.892	274.39
742.334	296.39
742.775	305.69
743.217	291.69
743.658	237.69
744.1	225.59
744.542	218.59
744.983	271.79
745.425	302.29
745.866	305.79
746.307	244.49
746.749	239.99
747.19	281.69
747.632	383.99
748.073	721.19
748.514	1554.19
748.956	2463.99
749.397	3087.29
749.838	2558.89
750.279	2610.29
750.72	1310.79
751.162	474.49
751.603	269.59
752.044	219.29
752.485	190.89
752.926	192.19
753.367	177.49
753.808	165.79
754.249	159.29
754.69	156.29
755.131	156.09
755.572	154.09
756.013	159.09
756.453	160.09
756.894	164.09
757.335	166.69
757.776	163.39
758.216	162.49
758.657	166.49
759.098	165.79
759.538	192.09
759.979	220.69
760.42	307.19
760.86	588.99
761.301	1507.29
761.741	3748.09
762.182	5727.39
762.622	4004.39
763.063	1146.39
763.503	465.79
763.943	295.19
764.384	294.59
764.824	350.89
765.264	386.49
765.705	269.49
766.145	181.79
766.585	156.99
767.025	156.79
767.465	159.99
767.906	206.09
768.346	279.69
768.786	303.89
769.226	219.39
769.666	270.39
770.106	505.99
770.546	1293.79
770.986	2317.99
771.426	2090.59
771.866	680.89
772.306	279.89
772.745	190.99
773.185	143.89
773.625	148.99
774.065	143.79
774.505	165.69
774.944	264.59
775.384	578.19
775.824	1080.09
776.263	1075.89
776.703	447.19
777.142	192.79
777.582	143.39
778.021	120.59
778.461	116.39
778.9	121.49
779.34	118.69
779.779	106.89
780.219	91.69
780.658	87.89
781.097	95.09
781.537	104.49
781.976	91.39
782.415	85.59
782.855	88.69
783.294	85.59
783.733	89.29
784.172	97.99
784.611	92.49
785.05	98.89
785.489	92.19
785.928	100.49
786.367	109.19
786.806	98.79
787.245	112.49
787.684	120.69
788.123	127.59
788.562	119.39
789.001	102.79
789.44	104.59
789.879	107.99
790.317	106.19
790.756	113.09
791.195	111.09
791.634	128.39
792.072	177.19
792.511	301.59
792.95	846.09
793.388	1858.89
793.827	1714.69
794.265	591.79
794.704	235.79
795.142	160.39
795.581	130.29
796.019	123.09
796.458	107.39
796.896	103.79
797.334	110.49
797.773	130.59
798.211	182.29
798.649	365.19
799.087	864.49
799.526	1361.89
799.964	1725.49
800.402	1784.69
800.84	661.79
801.278	257.49
801.716	153.69
802.154	135.09
802.592	128.69
803.03	123.79
803.468	113.29
803.906	126.89
804.344	127.89
804.782	120.69
805.22	115.09
805.658	106.39
806.096	124.99
806.533	130.39
806.971	150.09
807.409	181.99
807.847	264.89
808.284	545.99
808.722	1554.69
809.16	2888.29
809.597	2643.49
810.035	4669.69
810.472	5204.39
810.91	1842.19
811.347	682.59
811.785	350.39
812.222	218.89
812.66	174.09
813.097	142.99
813.535	123.69
813.972	113.69
814.409	105.29
814.846	98.09
815.284	88.49
815.721	84.19
816.158	89.59
816.595	106.79
817.032	156.49
817.47	175.39
817.907	133.89
818.344	133.49
818.781	103.49
819.218	78.99
819.655	100.99
820.092	169.29
820.529	188.99
820.966	154.19
821.403	111.39
821.839	93.19
822.276	88.79
822.713	108.39
823.15	112.49
823.587	103.09
824.023	127.89
824.46	242.59
824.897	750.49
825.333	1202.39
825.77	508.29
826.206	203.69
826.643	115.19
827.08	83.89
827.516	69.99
827.953	69.09
828.389	71.99
828.825	56.69
829.262	54.09
829.698	44.89
830.135	58.39
830.571	53.79
831.007	59.09
831.443	58.89
831.88	52.49
832.316	53.39
832.752	49.59
833.188	60.49
833.624	56.09
834.06	59.59
834.497	59.29
834.933	60.69
835.369	65.49
835.805	54.49
836.241	63.19
836.677	68.39
837.112	76.69
837.548	84.69
837.984	109.69
838.42	172.49
838.856	411.29
839.292	1304.29
839.727	2033.99
840.163	931.49
840.599	778.79
841.034	1728.19
841.47	1886.29
841.906	680.29
842.341	290.29
842.777	195.69
843.212	272.59
843.648	278.59
844.083	137.99
844.519	77.99
844.954	66.99
845.39	47.19
845.825	46.79
846.261	47.99
846.696	47.09
847.131	44.89
847.566	53.29
848.002	47.99
848.437	48.19
848.872	53.19
849.307	51.99
849.742	68.29
850.177	145.79
850.613	475.19
851.048	768.19
851.483	327.29
851.918	129.99
852.353	71.89
852.788	56.89
853.223	48.29
853.657	48.49
854.092	49.19
854.527	37.89
854.962	32.79
855.397	38.49
855.832	40.69
856.266	40.89
856.701	39.69
857.136	31.99
857.57	28.39
858.005	41.79
858.44	50.19
858.874	39.79
859.309	43.99
859.743	30.79
860.178	38.19
860.612	29.69
861.047	44.69
861.481	58.09
861.915	63.89
862.35	44.99
862.784	29.49
863.218	35.59
863.653	33.29
864.087	38.89
864.521	45.59
864.955	69.19
865.39	127.49
865.824	151.79
866.258	98.19
866.692	145.89
867.126	152.69
867.56	91.09
867.994	48.69
868.428	33.79
868.862	39.09
869.296	50.99
869.73	48.99
870.164	44.69
870.598	44.49
871.031	31.29
871.465	24.59
871.899	25.29
872.333	12.79
872.766	21.39
873.2	17.59
873.634	21.19
874.067	23.49
874.501	21.09
874.935	25.09
875.368	19.79
875.802	27.59
876.235	14.59
876.669	21.99
877.102	16.59
877.535	24.99
877.969	18.89
878.402	20.49
878.836	8.99
879.269	23.69
879.702	21.59
880.135	22.19
880.569	19.19
881.002	16.39
881.435	19.49
881.868	10.79
882.301	21.69
882.734	13.89
883.167	20.59
883.601	9.39
884.034	17.69
884.467	7.79
884.899	15.29
885.332	16.49
885.765	12.29
886.198	20.99
886.631	17.69
887.064	15.19
887.497	21.09
887.929	24.79
888.362	15.49
888.795	7.79
889.228	18.69
889.66	16.99
890.093	15.59
890.526	16.89
890.958	17.19
891.391	15.89
891.823	20.79
892.256	17.99
892.688	14.39
893.121	13.79
893.553	14.99
893.985	20.59
894.418	19.09
894.85	14.59
895.282	11.39
895.715	14.69
896.147	12.19
896.579	7.79
897.011	10.59
897.444	10.19
897.876	14.19
898.308	18.09
898.74	12.79
899.172	10.69
899.604	24.69
900.036	18.19
900.468	11.09
900.9	9.89
901.332	15.59
901.764	10.79
902.196	18.99
902.628	12.59
903.06	12.19
903.491	25.99
903.923	11.99
904.355	17.99
904.787	20.49
905.218	18.89
905.65	14.39
906.082	11.29
906.513	5.99
906.945	9.59
907.376	13.29
907.808	19.09
908.239	16.79
908.671	8.09
909.102	15.39
909.534	18.99
909.965	39.49
910.397	76.09
910.828	263.49
911.259	421.59
911.691	190.69
912.122	98.49
912.553	42.49
912.984	24.29
913.415	27.49
913.847	19.69
914.278	9.99
914.709	13.89
915.14	20.19
915.571	16.69
916.002	13.89
916.433	12.29
916.864	12.39
917.295	7.29
917.726	15.39
918.157	11.89
918.587	21.59
919.018	19.09
919.449	17.89
919.88	24.99
920.311	22.89
920.741	36.89
921.172	139.29
921.603	131.29
922.033	56.69
922.464	37.29
922.895	23.69
923.325	18.49
923.756	10.49
924.186	12.59
924.617	22.19
925.047	30.29
925.478	44.69
925.908	35.99
926.338	18.19
926.769	23.19
927.199	13.39
927.629	13.19
928.06	14.89
928.49	14.89
928.92	7.39
929.35	7.49
929.78	12.79
930.21	7.69
930.641	8.09
931.071	10.19
931.501	1.99
931.931	8.39
932.361	7.29
932.791	-0.31
933.221	6.79
933.651	8.49
934.08	10.19
934.51	24.49
934.94	11.19
935.37	7.29
935.8	8.49
936.229	13.39
936.659	9.89
937.089	0.09
937.519	11.29
937.948	19.79
938.378	12.09
938.807	5.99
939.237	4.89
939.666	7.79
940.096	-6.81
940.525	-0.31
940.955	1.29
941.384	-0.71
941.814	-4.11
942.243	-4.81
942.672	-0.11
943.102	-2.41
943.531	-3.71
943.96	7.59
944.39	0.39
944.819	-1.81
945.248	-6.11
945.677	0.39
946.106	3.49
946.535	6.29
946.964	-1.21
947.393	-0.11
947.822	1.29
948.251	-1.61
948.68	2.59
949.109	1.89
949.538	8.69
949.967	1.49
950.396	2.19
950.825	-4.61
951.254	2.19
951.682	-5.01
952.111	3.29
952.54	0.39
952.969	-4.21
953.397	-6.01
953.826	1.69
954.254	-5.31
954.683	1.79
955.112	-9.81
955.54	-1.71
955.969	-2.41
956.397	5.89
956.826	-7.81
957.254	-2.31
957.682	10.39
958.111	0.79
958.539	0.79
958.967	-0.41
959.396	0.39
959.824	-0.71
960.252	2.29
960.68	-8.71
961.109	-4.91
961.537	-7.21
961.965	-5.31
962.393	2.69
962.821	0.29
963.249	-1.21
963.677	-2.71
964.105	2.79
964.533	37.29
964.961	40.19
965.389	13.19
965.817	6.29
966.245	3.79
966.672	-0.51
967.1	-8.81
967.528	1.89
967.956	-0.11
968.383	-0.21
968.811	0.59
969.239	-6.11
969.666	-2.71
970.094	3.09
970.522	4.29
970.949	-3.31
971.377	-4.31
971.804	-1.21
972.232	-0.61
972.659	-0.01
973.087	-0.41
973.514	-5.91
973.941	0.59
974.369	4.79
974.796	2.79
975.223	-2.51
975.651	-1.11
976.078	4.69
976.505	0.89
976.932	0.79
977.359	14.49
977.786	11.69
978.214	-4.81
978.641	2.59
979.068	-9.11
979.495	0.49
979.922	-4.91
980.349	-5.01
980.776	0.49
981.202	-3.71
981.629	6.79
982.056	1.29
982.483	-6.61
982.91	-2.81
983.337	-6.21
983.763	2.89
984.19	-4.31
984.617	-3.61
985.043	-6.31
985.47	1.09
985.897	-3.71
986.323	-9.81
986.75	7.19
987.176	2.39
987.603	-5.91
988.029	3.19
988.456	-2.51
988.882	-2.01
989.308	-8.71
989.735	-7.01
990.161	-0.41
990.587	-4.51
991.014	2.59
991.44	0.29
991.866	-3.71
992.292	-0.91
992.719	-3.61
993.145	3.69
993.571	-7.81
993.997	-1.91
994.423	-0.21
994.849	-4.81
995.275	0.39
995.701	1.49
996.127	-0.81
996.553	-2.21
996.979	-7.31
997.405	-3.11
997.83	-8.01
998.256	-4.11
998.682	-6.11
999.108	-8.91
999.534	-3.91
999.959	-5.51
1000.385	-3.51
1000.811	-7.11
1001.236	-7.01
1001.662	-4.11
1002.087	-10.91
1002.513	-1.51
1002.938	-4.81
1003.364	-4.41
1003.789	5.89
1004.215	3.29
1004.64	-5.01
1005.066	4.99
1005.491	-4.01
1005.916	-4.91
1006.342	-4.91
1006.767	-5.61
1007.192	8.89
1007.617	-2.31
1008.042	-2.11
1008.468	-4.81
1008.893	-2.01
1009.318	-2.81
1009.743	-1.71
1010.168	4.09
1010.593	2.89
1011.018	-4.31
1011.443	-6.41
1011.868	2.09
1012.293	0.99
1012.718	-3.91
1013.143	-1.11
1013.567	-5.71
1013.992	-6.31
1014.417	-13.51
1014.842	1.79
1015.267	-7.91
1015.691	-7.01
1016.116	5.89
1016.541	-1.41
1016.965	3.79
1017.39	4.89
1017.814	2.79
1018.239	-4.01
1018.663	-8.31
1019.088	-11.41
1019.512	-5.11
1019.937	-3.01
1020.361	-1.71
1020.785	-11.01
1021.21	-1.01
1021.634	-0.11
1022.058	0.39
1022.483	0.89
1022.907	-4.41
1023.331	-6.71
1023.755	-9.01
1024.179	0.49
1024.604	-10.71
1025.028	-6.51
1025.452	-4.71
1025.876	-0.81
1026.3	4.09
1026.724	-11.61
1027.148	1.19
1027.572	-2.61
1027.996	-1.91
1028.42	-2.71
1028.843	-4.21
1029.267	-5.41
1029.691	-3.81
1030.115	-5.31
1030.539	-7.51
1030.962	-2.51
1031.386	-7.01
1031.81	1.79
1032.233	0.19
1032.657	-3.71
1033.08	-0.31
1033.504	0.49
1033.927	-2.51
1034.351	-2.31
1034.774	-5.41
1035.198	-2.61
1035.621	-7.01
1036.045	-4.11
1036.468	-2.71
1036.891	-11.01
1037.315	-9.01
1037.738	-9.31
1038.161	-0.71
1038.584	-8.31
1039.008	-8.21
1039.431	1.89
1039.854	-1.61
1040.277	-6.31
1040.7	-11.91
1041.123	0.19
1041.546	-5.21
1041.969	-10.21
1042.392	-3.51
1042.815	-0.51
1043.238	0.69
1043.661	2.29
1044.084	-2.01
1044.507	-9.01
1044.93	-9.91
1045.352	-1.91
1045.775	-4.41
1046.198	-5.21
1046.621	3.79
1047.043	3.09
1047.466	9.59
1047.889	-3.21
1048.311	-2.21
1048.734	3.29
1049.156	-8.71
1049.579	-7.01
1050.001	-2.31
1050.424	2.09
1050.846	2.49
1051.269	-0.01
1051.691	-3.01
1052.113	-5.61
1052.536	-3.81
1052.958	1.19
1053.38	-9.21
1053.802	-10.11
1054.225	2.09
1054.647	-8.11
1055.069	-7.91
1055.491	3.09
1055.913	-6.71
1056.335	2.29
1056.757	-3.51
1057.179	-7.41
1057.601	-8.21
1058.023	-7.21
1058.445	-3.91
1058.867	-2.81
1059.289	2.09
1059.711	-5.61
1060.133	-5.31
1060.555	-1.31
1060.976	-7.21
1061.398	-7.41
1061.82	-4.81
1062.241	-9.01
1062.663	-8.21
1063.085	-10.31
1063.506	2.19
1063.928	-0.01
1064.35	-2.61
1064.771	-8.21
1065.193	-8.11
1065.614	-13.51
1066.035	1.39
1066.457	-1.11
1066.878	5.09
1067.3	-3.21
1067.721	-7.21
1068.142	-3.41
1068.564	-1.81
1068.985	-3.81
1069.406	-8.41
1069.827	-8.11
1070.248	-7.31
1070.67	-6.91
1071.091	-5.41
1071.512	-2.71
1071.933	-4.91
1072.354	-15.01
1072.775	-7.41
1073.196	-3.01
1073.617	-4.81
1074.038	-5.01
1074.459	-4.41
1074.88	-12.01
1075.3	0.59
1075.721	-9.41
1076.142	-3.91
1076.563	1.69
1076.983	-12.41
1077.404	-7.41
1077.825	-7.11
1078.246	-9.51
1078.666	-12.41
1079.087	-7.41
1079.507	-7.51
1079.928	-1.91
1080.348	-1.61
1080.769	-1.91
1081.189	1.79
1081.61	3.49
1082.03	-8.51
1082.451	0.59
1082.871	-1.11
1083.291	-6.81
1083.711	-4.31
1084.132	-7.61
1084.552	-4.21
1084.972	0.09
1085.392	-11.11
1085.813	-7.51
1086.233	-7.11
1086.653	-7.51
1087.073	-5.81
1087.493	-6.81
1087.913	-6.61
1088.333	-1.91
1088.753	0.99
1089.173	-1.81
1089.593	-7.51
1090.013	6.49
1090.433	1.29
1090.852	-2.01
1091.272	-0.81
1091.692	-7.11
1092.112	1.19
1092.531	-9.81
1092.951	-13.51
1093.371	0.19
1093.79	-4.41
1094.21	-4.51
1094.63	-5.91
1095.049	-8.01
1095.469	-5.61
1095.888	-3.71
1096.308	3.59
1096.727	2.39
1097.146	-2.31
1097.566	-4.71
1097.985	-8.31
1098.405	-2.81
1098.824	-4.01
1099.243	-7.41
1099.662	-8.31
1100.082	-4.31
1100.501	-1.51
1100.92	-3.31
1101.339	-0.61
1101.758	-8.01
