Data from 20171114-ORNL-Ar_H_NY_Subt18_08-08-50-626.txt Node
Date: Tue Nov 14 08:08:50 EST 2017
User: Ender
Spectrometer: HR+D1039
Trigger mode: 0
Integration Time (sec): 2.730000E-2
Scans to average: 10
Electric dark correction enabled: true
Nonlinearity correction enabled: false
Boxcar width: 0
XAxis mode: Wavelengths
Number of Pixels in Spectrum: 2048
>>>>>Begin Spectral Data<<<<<
187.836	-1.58
188.309	-1.58
188.782	-1.58
189.255	-3.88
189.728	1.42
190.201	7.02
190.674	4.12
191.147	1.62
191.619	-5.38
192.092	1.12
192.565	4.52
193.038	-4.78
193.511	-2.38
193.984	1.02
194.456	-9.38
194.929	4.02
195.402	0.42
195.874	2.02
196.347	0.62
196.82	-3.38
197.292	9.12
197.765	-1.38
198.237	-2.48
198.71	2.22
199.182	0.92
199.655	0.82
200.127	4.52
200.6	2.82
201.072	-3.78
201.544	-3.48
202.017	1.52
202.489	6.32
202.961	0.62
203.433	-1.68
203.906	-10.08
204.378	-5.28
204.85	-4.18
205.322	-9.28
205.794	-2.08
206.266	-5.38
206.739	-3.38
207.211	-0.78
207.683	-4.98
208.155	-7.08
208.627	-5.48
209.099	-3.38
209.57	-5.98
210.042	-2.78
210.514	-3.88
210.986	-1.48
211.458	-9.58
211.93	-0.88
212.402	-0.48
212.873	-0.88
213.345	-6.08
213.817	-11.38
214.288	-4.78
214.76	-15.68
215.232	-6.48
215.703	-4.68
216.175	-1.48
216.646	-7.08
217.118	0.82
217.589	-4.28
218.061	-1.98
218.532	-8.58
219.004	-3.18
219.475	-6.18
219.946	-2.68
220.418	2.92
220.889	-0.38
221.36	0.62
221.832	-6.08
222.303	-1.98
222.774	4.42
223.245	-12.38
223.717	-4.58
224.188	-6.88
224.659	-3.78
225.13	-2.98
225.601	0.72
226.072	-2.08
226.543	-1.98
227.014	-8.18
227.485	-6.38
227.956	-8.08
228.427	-2.08
228.898	-3.38
229.369	-1.58
229.839	-1.68
230.31	-8.28
230.781	-0.48
231.252	-3.98
231.722	-6.08
232.193	-3.38
232.664	0.32
233.135	2.62
233.605	-4.28
234.076	-6.48
234.546	0.82
235.017	-2.38
235.487	-2.88
235.958	-4.88
236.428	-5.78
236.899	2.82
237.369	-2.88
237.84	-10.08
238.31	5.52
238.78	-1.58
239.251	-5.88
239.721	3.32
240.191	-0.58
240.662	-3.58
241.132	-3.98
241.602	-2.38
242.072	-6.38
242.542	3.32
243.013	-1.18
243.483	2.42
243.953	-3.28
244.423	-1.18
244.893	-1.78
245.363	3.32
245.833	-1.48
246.303	-8.18
246.773	4.92
247.243	-1.58
247.712	3.42
248.182	7.42
248.652	-0.48
249.122	-8.18
249.592	-2.68
250.061	2.42
250.531	11.42
251.001	-2.08
251.471	11.22
251.94	14.32
252.41	1.82
252.879	-6.68
253.349	7.22
253.818	0.42
254.288	3.22
254.757	-3.38
255.227	-1.98
255.696	-2.38
256.166	0.02
256.635	-4.18
257.105	2.32
257.574	-1.08
258.043	-4.68
258.513	-0.38
258.982	-0.68
259.451	-6.78
259.92	-1.18
260.389	0.52
260.859	3.12
261.328	0.12
261.797	7.42
262.266	-2.98
262.735	3.22
263.204	-3.18
263.673	-1.78
264.142	2.62
264.611	-7.68
265.08	-0.28
265.549	-1.28
266.018	4.42
266.487	0.22
266.955	-4.68
267.424	-2.78
267.893	4.62
268.362	-6.28
268.83	4.72
269.299	8.52
269.768	-0.38
270.236	6.12
270.705	-0.38
271.174	-1.28
271.642	4.42
272.111	0.62
272.579	3.72
273.048	4.32
273.516	0.12
273.985	3.32
274.453	8.12
274.922	8.02
275.39	8.02
275.858	-2.38
276.327	7.92
276.795	11.32
277.263	8.22
277.731	12.22
278.2	11.62
278.668	10.92
279.136	9.52
279.604	3.92
280.072	0.12
280.54	6.82
281.008	5.22
281.477	12.22
281.945	5.02
282.413	7.42
282.881	6.82
283.348	6.42
283.816	13.12
284.284	2.62
284.752	19.22
285.22	14.52
285.688	12.72
286.156	5.32
286.623	12.82
287.091	11.52
287.559	15.62
288.026	5.32
288.494	6.32
288.962	1.62
289.429	6.52
289.897	17.52
290.364	11.02
290.832	13.22
291.3	6.32
291.767	9.12
292.234	16.62
292.702	9.62
293.169	10.92
293.637	15.92
294.104	15.12
294.571	3.32
295.039	4.82
295.506	8.12
295.973	12.02
296.44	12.92
296.908	10.72
297.375	8.52
297.842	13.62
298.309	9.72
298.776	5.02
299.243	12.42
299.71	8.02
300.177	19.92
300.644	19.62
301.111	9.72
301.578	13.22
302.045	8.02
302.512	20.22
302.979	18.82
303.446	16.62
303.913	12.72
304.379	18.52
304.846	24.32
305.313	12.62
305.78	14.72
306.246	14.22
306.713	21.02
307.18	15.52
307.646	24.22
308.113	15.62
308.579	19.62
309.046	17.62
309.512	18.72
309.979	16.92
310.445	19.82
310.912	23.12
311.378	32.72
311.845	20.62
312.311	21.12
312.777	28.92
313.244	24.52
313.71	22.62
314.176	20.22
314.642	19.52
315.109	26.62
315.575	30.42
316.041	28.12
316.507	25.72
316.973	28.02
317.439	27.02
317.905	21.52
318.371	27.02
318.837	18.12
319.303	21.12
319.769	20.32
320.235	21.22
320.701	28.52
321.167	31.02
321.633	22.12
322.099	29.32
322.564	38.12
323.03	29.32
323.496	31.82
323.962	29.32
324.427	25.62
324.893	34.92
325.359	33.62
325.824	29.02
326.29	31.32
326.755	33.92
327.221	35.12
327.686	30.62
328.152	37.12
328.617	29.72
329.083	34.22
329.548	40.72
330.014	43.52
330.479	33.12
330.944	35.42
331.41	38.42
331.875	27.62
332.34	27.62
332.805	32.82
333.271	33.12
333.736	31.42
334.201	33.12
334.666	40.12
335.131	42.02
335.596	41.22
336.061	42.52
336.526	34.82
336.991	43.42
337.456	50.72
337.921	39.12
338.386	33.92
338.851	36.22
339.316	41.82
339.781	39.82
340.246	48.12
340.711	38.22
341.175	48.92
341.64	38.62
342.105	43.42
342.569	48.52
343.034	41.12
343.499	47.02
343.963	40.02
344.428	52.82
344.893	48.32
345.357	56.72
345.822	49.42
346.286	54.12
346.751	59.82
347.215	56.12
347.679	63.92
348.144	79.42
348.608	69.32
349.073	55.02
349.537	61.52
350.001	68.42
350.465	77.12
350.93	71.52
351.394	67.52
351.858	57.62
352.322	71.02
352.786	68.42
353.25	81.52
353.715	91.12
354.179	81.42
354.643	98.32
355.107	103.22
355.571	79.22
356.035	79.42
356.498	88.42
356.962	99.82
357.426	103.92
357.89	88.12
358.354	78.02
358.818	76.02
359.281	64.72
359.745	65.42
360.209	65.92
360.673	68.32
361.136	71.32
361.6	74.02
362.064	71.62
362.527	71.32
362.991	84.02
363.454	71.72
363.918	65.82
364.381	73.02
364.845	73.02
365.308	76.32
365.772	72.82
366.235	75.92
366.698	67.32
367.162	77.22
367.625	72.72
368.088	78.92
368.552	76.12
369.015	79.82
369.478	83.92
369.941	81.42
370.404	79.22
370.867	85.62
371.331	92.82
371.794	97.02
372.257	81.62
372.72	96.72
373.183	90.82
373.646	83.82
374.109	85.32
374.572	82.12
375.035	90.82
375.497	97.62
375.96	93.62
376.423	90.02
376.886	97.32
377.349	103.42
377.811	92.12
378.274	94.72
378.737	90.72
379.199	95.12
379.662	102.22
380.125	100.92
380.587	101.72
381.05	95.92
381.512	99.82
381.975	116.22
382.437	111.92
382.9	105.52
383.362	108.12
383.825	110.22
384.287	117.92
384.75	112.22
385.212	117.42
385.674	121.82
386.136	118.92
386.599	107.02
387.061	114.72
387.523	111.92
387.985	115.32
388.447	124.72
388.91	115.32
389.372	123.72
389.834	121.82
390.296	116.92
390.758	123.32
391.22	129.22
391.682	143.52
392.144	162.22
392.606	142.12
393.068	131.82
393.529	139.52
393.991	128.92
394.453	126.92
394.915	131.72
395.377	133.12
395.838	132.32
396.3	126.82
396.762	133.42
397.224	132.02
397.685	126.62
398.147	120.82
398.608	122.62
399.07	122.52
399.531	128.92
399.993	142.12
400.454	146.82
400.916	134.62
401.377	130.22
401.839	147.72
402.3	142.32
402.762	157.72
403.223	168.72
403.684	163.02
404.145	151.62
404.607	153.12
405.068	154.22
405.529	160.82
405.99	176.02
406.451	164.62
406.913	164.92
407.374	157.22
407.835	155.82
408.296	154.82
408.757	164.72
409.218	176.32
409.679	168.62
410.14	166.52
410.601	168.62
411.062	173.92
411.522	173.22
411.983	178.52
412.444	166.82
412.905	178.82
413.366	171.62
413.826	189.82
414.287	209.62
414.748	259.92
415.208	241.32
415.669	206.92
416.13	197.32
416.59	198.92
417.051	218.22
417.511	212.12
417.972	242.62
418.432	243.82
418.893	292.12
419.353	244.33
419.814	193.02
420.274	181.32
420.734	173.42
421.195	196.02
421.655	185.62
422.115	189.62
422.576	187.12
423.036	194.92
423.496	210.72
423.956	205.52
424.416	232.42
424.876	260.62
425.336	259.62
425.797	256.62
426.257	246.92
426.717	236.12
427.177	229.32
427.637	221.72
428.097	225.62
428.556	238.32
429.016	259.92
429.476	257.72
429.936	258.42
430.396	268.12
430.856	276.02
431.315	296.42
431.775	331.82
432.235	355.62
432.694	335.52
433.154	341.52
433.614	373.62
434.073	321.42
434.533	273.12
434.993	258.62
435.452	273.32
435.912	275.52
436.371	274.42
436.83	271.83
437.29	259.22
437.749	240.92
438.209	240.02
438.668	271.32
439.127	275.73
439.587	252.33
440.046	251.82
440.505	251.22
440.964	268.22
441.424	310.02
441.883	308.52
442.342	261.02
442.801	226.92
443.26	220.52
443.719	224.82
444.178	225.52
444.637	211.72
445.096	224.22
445.555	222.92
446.014	224.32
446.473	229.52
446.932	236.62
447.391	231.62
447.849	231.62
448.308	223.23
448.767	223.72
449.226	242.82
449.685	239.42
450.143	249.92
450.602	238.22
451.061	228.62
451.519	229.72
451.978	227.92
452.436	234.23
452.895	233.92
453.353	253.82
453.812	239.22
454.27	238.82
454.729	238.22
455.187	243.92
455.646	247.32
456.104	238.32
456.562	264.22
457.021	270.72
457.479	258.72
457.937	269.62
458.395	264.12
458.854	255.42
459.312	255.92
459.77	274.82
460.228	257.32
460.686	239.22
461.144	250.32
461.602	250.02
462.06	241.82
462.518	251.22
462.976	250.92
463.434	254.62
463.892	267.52
464.35	280.32
464.808	285.23
465.266	266.32
465.724	278.92
466.181	277.92
466.639	274.22
467.097	285.62
467.555	303.73
468.012	297.12
468.47	309.52
468.928	332.32
469.385	341.83
469.843	347.82
470.3	350.33
470.758	362.52
471.215	373.42
471.673	402.92
472.13	407.32
472.588	417.42
473.045	365.42
473.503	378.02
473.96	400.22
474.417	403.92
474.875	433.22
475.332	470.42
475.789	465.32
476.246	469.22
476.704	483.02
477.161	501.62
477.618	521.22
478.075	548.62
478.532	604.23
478.989	669.82
479.446	787.62
479.903	752.12
480.36	772.42
480.817	814.22
481.274	905.52
481.731	997.22
482.188	1075.22
482.645	1189.32
483.102	1273.82
483.558	1388.62
484.015	1448.43
484.472	1419.53
484.929	1378.42
485.385	1332.72
485.842	1286.82
486.299	1250.33
486.755	1214.52
487.212	1031.82
487.668	885.42
488.125	814.22
488.582	750.42
489.038	725.72
489.494	689.02
489.951	670.12
490.407	647.12
490.864	631.02
491.32	630.23
491.776	627.02
492.233	637.12
492.689	616.73
493.145	609.32
493.602	604.32
494.058	613.72
494.514	603.62
494.97	639.62
495.426	642.52
495.882	615.73
496.338	612.23
496.794	619.02
497.251	623.32
497.707	632.42
498.163	619.82
498.618	639.82
499.074	634.23
499.53	663.62
499.986	669.42
500.442	643.83
500.898	615.92
501.354	622.52
501.809	624.72
502.265	627.32
502.721	628.42
503.177	644.52
503.632	642.02
504.088	646.42
504.543	672.62
504.999	687.92
505.455	663.02
505.91	640.32
506.366	641.82
506.821	632.02
507.277	628.12
507.732	633.22
508.187	636.72
508.643	640.23
509.098	647.32
509.553	657.62
510.009	672.32
510.464	682.52
510.919	694.02
511.375	705.52
511.83	720.62
512.285	728.02
512.74	764.92
513.195	779.02
513.65	771.62
514.105	763.42
514.56	762.42
515.015	794.83
515.47	805.12
515.925	777.12
516.38	783.62
516.835	794.12
517.29	768.02
517.745	758.33
518.2	768.12
518.655	754.52
519.109	751.92
519.564	745.82
520.019	738.62
520.474	728.02
520.928	726.32
521.383	718.62
521.838	718.42
522.292	728.32
522.747	719.23
523.201	712.82
523.656	707.12
524.11	706.33
524.565	699.02
525.019	702.02
525.474	705.42
525.928	710.62
526.382	704.72
526.837	717.62
527.291	711.62
527.745	706.32
528.2	709.82
528.654	707.02
529.108	699.32
529.562	693.42
530.016	695.22
530.47	695.92
530.925	694.12
531.379	685.52
531.833	707.52
532.287	695.52
532.741	701.02
533.195	710.42
533.649	721.92
534.103	721.52
534.556	704.62
535.01	709.12
535.464	704.42
535.918	728.33
536.372	722.72
536.826	704.52
537.279	703.52
537.733	717.52
538.187	723.82
538.64	722.82
539.094	731.92
539.548	736.52
540.001	739.32
540.455	740.42
540.908	740.92
541.362	747.62
541.815	748.12
542.269	762.42
542.722	758.92
543.175	783.12
543.629	770.82
544.082	788.42
544.536	809.12
544.989	798.83
545.442	811.42
545.895	803.92
546.349	797.83
546.802	802.62
547.255	813.92
547.708	818.52
548.161	818.82
548.614	828.12
549.067	826.82
549.52	831.32
549.973	818.02
550.426	824.02
550.879	803.42
551.332	819.12
551.785	819.02
552.238	833.22
552.691	831.33
553.144	843.92
553.596	863.33
554.049	873.22
554.502	903.32
554.955	908.62
555.407	921.22
555.86	910.62
556.313	905.82
556.765	901.72
557.218	897.72
557.67	895.52
558.123	886.42
558.576	888.22
559.028	891.12
559.48	882.52
559.933	885.23
560.385	850.52
560.838	829.32
561.29	807.42
561.742	794.72
562.195	775.73
562.647	794.02
563.099	782.52
563.551	778.92
564.004	801.62
564.456	788.62
564.908	770.82
565.36	758.32
565.812	739.42
566.264	737.02
566.716	736.12
567.168	715.92
567.62	720.62
568.072	707.92
568.524	704.92
568.976	698.92
569.428	683.82
569.88	683.62
570.332	689.92
570.784	711.12
571.235	700.82
571.687	706.23
572.139	713.12
572.59	722.42
573.042	722.52
573.494	723.72
573.945	719.32
574.397	696.32
574.849	697.42
575.3	706.42
575.752	697.92
576.203	689.42
576.655	699.02
577.106	683.73
577.557	677.62
578.009	674.92
578.46	683.62
578.912	664.72
579.363	675.92
579.814	687.32
580.265	677.72
580.717	687.32
581.168	685.42
581.619	691.72
582.07	693.62
582.521	687.52
582.972	684.02
583.423	689.22
583.875	684.73
584.326	694.02
584.777	722.62
585.227	740.92
585.678	775.02
586.129	801.12
586.58	829.42
587.031	855.52
587.482	887.42
587.933	943.82
588.384	892.52
588.834	818.82
589.285	798.72
589.736	790.02
590.186	785.02
590.637	780.92
591.088	769.02
591.538	750.92
591.989	748.12
592.439	735.62
592.89	732.02
593.34	715.52
593.791	711.32
594.241	703.02
594.692	714.02
595.142	707.32
595.593	706.23
596.043	716.32
596.493	725.92
596.943	718.12
597.394	738.62
597.844	734.02
598.294	748.83
598.744	779.12
599.195	802.73
599.645	845.92
600.095	880.92
600.545	939.32
600.995	990.82
601.445	1048.72
601.895	1106.22
602.345	1158.32
602.795	1137.32
603.245	1090.72
603.695	1034.62
604.145	979.42
604.594	937.83
605.044	880.92
605.494	819.82
605.944	769.72
606.393	757.82
606.843	741.02
607.293	750.22
607.743	751.02
608.192	760.62
608.642	770.02
609.091	772.22
609.541	778.62
609.99	778.92
610.44	787.22
610.889	734.42
611.339	714.42
611.788	703.83
612.238	705.12
612.687	712.92
613.136	715.42
613.586	718.92
614.035	716.92
614.484	741.02
614.933	733.42
615.383	722.02
615.832	727.33
616.281	726.52
616.73	690.62
617.179	669.02
617.628	657.22
618.077	655.92
618.526	642.62
618.975	636.42
619.424	626.52
619.873	627.33
620.322	628.22
620.771	620.52
621.22	614.82
621.669	601.92
622.118	597.62
622.567	592.72
623.015	587.32
623.464	585.72
623.913	576.22
624.361	567.32
624.81	562.42
625.259	571.02
625.707	566.33
626.156	569.32
626.604	579.62
627.053	577.42
627.501	595.02
627.95	577.52
628.398	598.72
628.847	580.72
629.295	578.52
629.744	576.72
630.192	579.52
630.64	572.32
631.089	559.62
631.537	562.52
631.985	557.12
632.433	553.42
632.881	541.33
633.33	558.52
633.778	554.42
634.226	548.52
634.674	557.52
635.122	555.12
635.57	577.62
636.018	589.82
636.466	581.42
636.914	570.52
637.362	585.52
637.81	592.22
638.258	590.72
638.705	598.72
639.153	631.82
639.601	635.32
640.049	658.42
640.497	693.42
640.944	706.32
641.392	661.62
641.84	628.22
642.287	583.92
642.735	585.92
643.182	578.42
643.63	569.92
644.078	571.52
644.525	587.62
644.973	595.32
645.42	603.12
645.867	624.02
646.315	646.12
646.762	658.33
647.21	701.62
647.657	714.52
648.104	756.32
648.551	773.52
648.999	842.73
649.446	907.73
649.893	988.92
650.34	1127.52
650.787	1344.62
651.234	1661.22
651.682	2162.62
652.129	2932.92
652.576	4176.73
653.023	6085.93
653.47	8211.32
653.917	10139.02
654.363	11600.53
654.81	12703.52
655.257	12043.83
655.704	7959.63
656.151	4803.92
656.598	3156.12
657.044	2266.32
657.491	1774.22
657.938	1429.22
658.385	1213.33
658.831	1055.22
659.278	942.22
659.724	835.42
660.171	773.82
660.618	718.12
661.064	692.92
661.511	667.73
661.957	651.72
662.404	648.12
662.85	663.12
663.296	635.22
663.743	567.62
664.189	553.12
664.635	544.92
665.082	538.82
665.528	535.62
665.974	530.12
666.42	519.82
666.867	524.62
667.313	494.73
667.759	480.62
668.205	464.22
668.651	462.52
669.097	460.12
669.543	459.72
669.989	458.32
670.435	461.02
670.881	461.42
671.327	473.52
671.773	483.92
672.219	508.92
672.665	568.02
673.11	602.92
673.556	649.32
674.002	690.62
674.448	680.42
674.893	567.73
675.339	500.62
675.785	457.23
676.23	440.92
676.676	414.42
677.122	400.22
677.567	393.72
678.013	382.32
678.458	377.42
678.904	381.12
679.349	367.12
679.794	369.12
680.24	369.32
680.685	370.02
681.131	348.22
681.576	355.12
682.021	369.12
682.466	361.42
682.912	359.12
683.357	361.82
683.802	404.92
684.247	425.82
684.692	472.62
685.137	512.92
685.583	556.92
686.028	580.82
686.473	540.92
686.918	461.12
687.363	440.82
687.807	408.72
688.252	384.82
688.697	369.22
689.142	351.72
689.587	341.92
690.032	333.42
690.477	357.62
690.921	369.62
691.366	400.42
691.811	409.22
692.255	455.92
692.7	481.12
693.145	542.42
693.589	752.32
694.034	1219.62
694.478	1621.33
694.923	1783.22
695.367	2338.72
695.812	1240.32
696.256	518.52
696.701	392.82
697.145	354.73
697.59	340.22
698.034	328.02
698.478	334.12
698.922	332.33
699.367	336.73
699.811	351.22
700.255	364.02
700.699	406.73
701.143	442.83
701.588	498.22
702.032	537.73
702.476	535.33
702.92	513.02
703.364	523.12
703.808	696.12
704.252	1123.03
704.696	1541.33
705.14	1727.42
705.584	2186.93
706.027	1111.12
706.471	546.92
706.915	412.52
707.359	364.02
707.803	336.12
708.246	324.02
708.69	325.52
709.134	327.62
709.577	325.32
710.021	332.92
710.465	318.12
710.908	306.52
711.352	313.52
711.795	333.32
712.239	374.32
712.682	402.62
713.126	430.22
713.569	465.32
714.012	368.82
714.456	324.42
714.899	306.92
715.342	285.62
715.786	275.82
716.229	272.12
716.672	266.12
717.115	264.42
717.558	266.22
718.002	257.92
718.445	278.82
718.888	301.52
719.331	311.72
719.774	322.92
720.217	313.32
720.66	295.12
721.103	280.42
721.546	262.83
721.989	255.62
722.432	240.42
722.874	247.22
723.317	246.32
723.76	242.12
724.203	271.42
724.645	337.42
725.088	473.02
725.531	599.72
725.974	660.82
726.416	573.62
726.859	313.62
727.301	259.42
727.744	243.42
728.187	241.12
728.629	247.92
729.071	254.82
729.514	274.92
729.956	290.42
730.399	305.82
730.841	301.62
731.283	289.62
731.726	271.62
732.168	285.32
732.61	282.62
733.053	300.22
733.495	341.92
733.937	370.22
734.379	426.62
734.821	462.42
735.263	581.22
735.705	902.52
736.148	1718.32
736.59	2754.22
737.032	3153.02
737.474	2568.93
737.916	855.73
738.357	448.02
738.799	342.62
739.241	310.02
739.683	291.02
740.125	307.52
740.567	307.02
741.008	329.82
741.45	339.82
741.892	330.23
742.334	369.62
742.775	378.02
743.217	361.52
743.658	279.52
744.1	267.42
744.542	271.02
744.983	335.52
745.425	369.02
745.866	365.42
746.307	292.92
746.749	288.52
747.19	347.42
747.632	490.92
748.073	976.72
748.514	2027.12
748.956	2996.92
749.397	3775.42
749.838	3133.93
750.279	3051.82
750.72	1564.62
751.162	581.42
751.603	337.82
752.044	268.32
752.485	223.42
752.926	217.62
753.367	216.52
753.808	207.82
754.249	198.02
754.69	199.22
755.131	199.82
755.572	192.72
756.013	191.22
756.453	193.42
756.894	198.22
757.335	200.62
757.776	209.22
758.216	203.12
758.657	203.33
759.098	217.12
759.538	240.52
759.979	295.92
760.42	405.12
760.86	784.62
761.301	2035.62
761.741	4775.93
762.182	6618.92
762.622	4664.43
763.063	1389.72
763.503	566.52
763.943	343.42
764.384	300.02
764.824	280.52
765.264	267.72
765.705	223.72
766.145	200.72
766.585	181.52
767.025	181.32
767.465	171.12
767.906	198.02
768.346	213.32
768.786	231.92
769.226	233.82
769.666	334.12
770.106	679.42
770.546	1696.53
770.986	2748.93
771.426	2441.93
771.866	829.02
772.306	348.92
772.745	214.12
773.185	178.72
773.625	170.42
774.065	159.82
774.505	168.42
774.944	237.52
775.384	411.22
775.824	668.72
776.263	635.42
776.703	307.52
777.142	178.02
777.582	141.42
778.021	135.52
778.461	132.62
778.9	133.92
779.34	130.52
779.779	121.22
780.219	113.82
780.658	116.62
781.097	113.52
781.537	115.82
781.976	114.82
782.415	113.12
782.855	111.42
783.294	105.92
783.733	111.02
784.172	109.52
784.611	113.52
785.05	110.52
785.489	111.82
785.928	123.32
786.367	122.12
786.806	126.22
787.245	133.52
787.684	146.22
788.123	150.52
788.562	137.52
789.001	127.12
789.44	128.32
789.879	117.12
790.317	120.32
790.756	135.72
791.195	136.92
791.634	153.72
792.072	220.12
792.511	400.42
792.95	1106.52
793.388	2223.42
793.827	1955.32
794.265	705.12
794.704	296.02
795.142	190.02
795.581	161.02
796.019	143.72
796.458	141.82
796.896	127.32
797.334	137.42
797.773	170.12
798.211	236.22
798.649	489.42
799.087	1095.33
799.526	1702.82
799.964	2137.32
800.402	2075.22
800.84	795.12
801.278	325.12
801.716	199.12
802.154	160.82
802.592	157.72
803.03	142.22
803.468	145.82
803.906	147.42
804.344	163.22
804.782	148.62
805.22	138.92
805.658	132.42
806.096	155.12
806.533	164.32
806.971	191.12
807.409	230.82
807.847	342.72
808.284	736.62
808.722	2034.02
809.16	3443.52
809.597	3390.82
810.035	5755.52
810.472	5884.43
810.91	2175.82
811.347	855.02
811.785	417.22
812.222	273.12
812.66	208.42
813.097	179.72
813.535	154.22
813.972	138.82
814.409	125.22
814.846	112.82
815.284	117.82
815.721	104.32
816.158	112.12
816.595	119.92
817.032	165.02
817.47	186.82
817.907	129.92
818.344	110.52
818.781	103.02
819.218	103.72
819.655	128.12
820.092	192.02
820.529	221.32
820.966	174.92
821.403	131.72
821.839	111.82
822.276	107.12
822.713	128.82
823.15	141.72
823.587	118.02
824.023	158.82
824.46	335.33
824.897	972.12
825.333	1404.03
825.77	601.62
826.206	241.92
826.643	141.82
827.08	106.52
827.516	87.02
827.953	86.82
828.389	86.72
828.825	77.82
829.262	72.62
829.698	66.92
830.135	65.32
830.571	67.82
831.007	69.92
831.443	68.52
831.88	72.42
832.316	61.72
832.752	62.92
833.188	69.52
833.624	64.52
834.06	69.62
834.497	74.72
834.933	79.62
835.369	77.72
835.805	82.02
836.241	85.22
836.677	84.22
837.112	92.82
837.548	108.42
837.984	144.42
838.42	217.72
838.856	545.32
839.292	1643.72
839.727	2374.12
840.163	1130.02
840.599	1021.42
841.034	2165.12
841.47	2168.12
841.906	809.22
842.341	349.62
842.777	210.72
843.212	221.62
843.648	202.92
844.083	126.72
844.519	92.02
844.954	70.32
845.39	64.02
845.825	52.82
846.261	53.62
846.696	54.22
847.131	60.22
847.566	61.22
848.002	54.32
848.437	54.02
848.872	59.92
849.307	63.92
849.742	90.82
850.177	203.42
850.613	602.02
851.048	912.42
851.483	394.82
851.918	158.62
852.353	97.22
852.788	64.52
853.223	49.72
853.657	56.92
854.092	52.12
854.527	40.32
854.962	43.42
855.397	51.22
855.832	47.62
856.266	50.52
856.701	40.72
857.136	45.22
857.57	44.12
858.005	58.52
858.44	63.02
858.874	44.62
859.309	56.02
859.743	46.82
860.178	47.52
860.612	49.22
861.047	55.12
861.481	74.42
861.915	75.82
862.35	50.52
862.784	32.22
863.218	43.62
863.653	34.72
864.087	54.62
864.521	55.02
864.955	74.02
865.39	163.42
865.824	176.22
866.258	127.32
866.692	175.42
867.126	188.82
867.56	110.32
867.994	60.22
868.428	44.52
868.862	52.22
869.296	60.02
869.73	62.12
870.164	59.02
870.598	51.22
871.031	41.32
871.465	34.52
871.899	30.62
872.333	27.42
872.766	29.32
873.2	26.72
873.634	33.12
874.067	29.52
874.501	24.92
874.935	42.52
875.368	29.32
875.802	31.02
876.235	26.92
876.669	28.12
877.102	25.62
877.535	29.82
877.969	26.82
878.402	20.32
878.836	21.62
879.269	16.62
879.702	34.52
880.135	24.32
880.569	27.32
881.002	26.92
881.435	22.22
881.868	9.42
882.301	24.82
882.734	18.22
883.167	25.42
883.601	19.62
884.034	26.12
884.467	16.42
884.899	18.92
885.332	22.82
885.765	18.62
886.198	15.22
886.631	17.62
887.064	21.82
887.497	24.02
887.929	26.72
888.362	16.52
888.795	16.22
889.228	25.12
889.66	22.32
890.093	16.92
890.526	23.72
890.958	17.62
891.391	18.82
891.823	22.22
892.256	19.92
892.688	11.72
893.121	18.62
893.553	21.12
893.985	25.52
894.418	25.72
894.85	17.02
895.282	22.22
895.715	13.12
896.147	20.02
896.579	23.62
897.011	17.72
897.444	22.12
897.876	11.02
898.308	18.12
898.74	17.02
899.172	17.02
899.604	22.22
900.036	23.72
900.468	20.22
900.9	9.52
901.332	15.92
901.764	12.12
902.196	18.92
902.628	22.32
903.06	20.12
903.491	31.82
903.923	27.82
904.355	20.02
904.787	23.62
905.218	24.32
905.65	20.02
906.082	15.72
906.513	12.92
906.945	12.22
907.376	9.42
907.808	17.32
908.239	19.12
908.671	16.32
909.102	27.62
909.534	28.52
909.965	53.42
910.397	99.42
910.828	341.02
911.259	485.22
911.691	228.62
912.122	114.02
912.553	52.32
912.984	36.02
913.415	27.72
913.847	29.72
914.278	18.82
914.709	20.32
915.14	15.42
915.571	23.52
916.002	15.62
916.433	18.82
916.864	14.82
917.295	16.22
917.726	19.82
918.157	16.72
918.587	32.42
919.018	24.22
919.449	25.92
919.88	27.12
920.311	37.32
920.741	53.72
921.172	177.32
921.603	157.82
922.033	73.62
922.464	48.02
922.895	20.02
923.325	24.22
923.756	11.82
924.186	13.32
924.617	22.82
925.047	20.82
925.478	30.22
925.908	27.92
926.338	21.12
926.769	10.52
927.199	19.02
927.629	6.62
928.06	16.52
928.49	14.82
928.92	14.02
929.35	4.72
929.78	14.32
930.21	7.72
930.641	7.92
931.071	16.82
931.501	7.42
931.931	11.62
932.361	7.82
932.791	2.52
933.221	7.32
933.651	12.72
934.08	23.12
934.51	29.02
934.94	14.22
935.37	11.32
935.8	11.12
936.229	9.22
936.659	15.12
937.089	6.42
937.519	12.62
937.948	25.22
938.378	20.32
938.807	6.72
939.237	1.62
939.666	9.82
940.096	0.52
940.525	9.52
940.955	6.42
941.384	-1.08
941.814	-0.88
942.243	-1.68
942.672	3.02
943.102	-2.88
943.531	4.42
943.96	9.72
944.39	6.62
944.819	0.22
945.248	4.82
945.677	9.22
946.106	2.92
946.535	7.72
946.964	-2.88
947.393	3.92
947.822	5.42
948.251	0.12
948.68	8.12
949.109	10.52
949.538	6.02
949.967	1.12
950.396	2.82
950.825	-5.18
951.254	3.82
951.682	-4.78
952.111	5.42
952.54	8.32
952.969	-7.58
953.397	-3.88
953.826	4.82
954.254	-7.28
954.683	1.12
955.112	-2.28
955.54	-2.98
955.969	4.02
956.397	5.22
956.826	-3.98
957.254	2.92
957.682	5.22
958.111	10.12
958.539	-3.18
958.967	6.82
959.396	-2.18
959.824	4.62
960.252	2.92
960.68	-5.28
961.109	-5.68
961.537	-5.78
961.965	5.12
962.393	5.62
962.821	-0.58
963.249	0.12
963.677	5.62
964.105	5.82
964.533	45.02
964.961	39.72
965.389	18.12
965.817	13.72
966.245	-1.88
966.672	-2.28
967.1	-9.28
967.528	-2.38
967.956	-12.08
968.383	-0.78
968.811	-3.38
969.239	-0.38
969.666	-4.88
970.094	-3.38
970.522	-3.98
970.949	3.52
971.377	0.02
971.804	-2.78
972.232	-3.48
972.659	-3.68
973.087	-5.08
973.514	-3.98
973.941	2.02
974.369	8.32
974.796	3.12
975.223	0.32
975.651	-3.38
976.078	7.62
976.505	5.32
976.932	3.62
977.359	25.12
977.786	14.22
978.214	5.82
978.641	-4.28
979.068	-6.88
979.495	-6.98
979.922	3.82
980.349	-0.68
980.776	3.72
981.202	0.02
981.629	7.82
982.056	6.92
982.483	-0.28
982.91	5.62
983.337	-5.48
983.763	4.82
984.19	-0.98
984.617	-4.38
985.043	-2.58
985.47	1.92
985.897	-0.08
986.323	-4.88
986.75	8.72
987.176	0.02
987.603	-3.88
988.029	1.22
988.456	-5.88
988.882	4.72
989.308	-9.18
989.735	-1.58
990.161	-0.78
990.587	-6.98
991.014	2.42
991.44	9.62
991.866	0.12
992.292	-5.78
992.719	2.42
993.145	3.02
993.571	-9.68
993.997	-3.68
994.423	1.22
994.849	-7.18
995.275	-0.58
995.701	9.52
996.127	3.72
996.553	8.12
996.979	-8.08
997.405	3.72
997.83	-1.28
998.256	-0.38
998.682	-5.88
999.108	-5.98
999.534	1.72
999.959	1.72
1000.385	1.72
1000.811	-0.38
1001.236	-6.78
1001.662	-4.28
1002.087	-4.58
1002.513	-0.38
1002.938	1.12
1003.364	-0.88
1003.789	-3.38
1004.215	2.32
1004.64	-3.18
1005.066	5.42
1005.491	-0.38
1005.916	-2.58
1006.342	0.52
1006.767	-2.98
1007.192	6.02
1007.617	-5.88
1008.042	0.62
1008.468	-5.78
1008.893	-2.28
1009.318	-1.98
1009.743	-0.38
1010.168	8.22
1010.593	2.82
1011.018	-5.88
1011.443	-1.98
1011.868	3.52
1012.293	-6.58
1012.718	0.02
1013.143	-0.48
1013.567	2.02
1013.992	-5.78
1014.417	-8.28
1014.842	9.82
1015.267	-3.58
1015.691	-4.48
1016.116	2.22
1016.541	-0.18
1016.965	1.22
1017.39	3.72
1017.814	0.62
1018.239	1.02
1018.663	-9.88
1019.088	-13.38
1019.512	-1.28
1019.937	0.92
1020.361	1.22
1020.785	-6.58
1021.21	2.22
1021.634	-1.38
1022.058	5.72
1022.483	10.42
1022.907	-2.68
1023.331	-1.58
1023.755	-0.18
1024.179	0.82
1024.604	-4.68
1025.028	-3.48
1025.452	-7.08
1025.876	-2.28
1026.3	7.02
1026.724	-6.58
1027.148	-6.08
1027.572	-6.08
1027.996	1.62
1028.42	-6.68
1028.843	-1.08
1029.267	-3.88
1029.691	-1.18
1030.115	-1.98
1030.539	-4.98
1030.962	-8.88
1031.386	-12.28
1031.81	-2.08
1032.233	-2.68
1032.657	-2.18
1033.08	2.02
1033.504	0.12
1033.927	-5.18
1034.351	-0.68
1034.774	-0.28
1035.198	-0.38
1035.621	-5.78
1036.045	-5.58
1036.468	0.72
1036.891	-7.08
1037.315	-6.98
1037.738	-6.78
1038.161	-4.48
1038.584	-2.48
1039.008	-2.28
1039.431	-2.48
1039.854	-7.68
1040.277	-8.48
1040.7	-9.18
1041.123	2.12
1041.546	-10.98
1041.969	-8.58
1042.392	-0.88
1042.815	-1.18
1043.238	4.92
1043.661	6.22
1044.084	-4.58
1044.507	2.42
1044.93	-6.88
1045.352	-0.68
1045.775	-1.08
1046.198	-4.38
1046.621	-7.08
1047.043	-1.68
1047.466	6.12
1047.889	-0.58
1048.311	-6.28
1048.734	0.92
1049.156	-3.68
1049.579	1.42
1050.001	-0.28
1050.424	-1.98
1050.846	-2.78
1051.269	-6.38
1051.691	-7.88
1052.113	-6.58
1052.536	3.72
1052.958	-1.78
1053.38	-2.98
1053.802	-9.48
1054.225	-6.58
1054.647	-8.48
1055.069	-4.58
1055.491	3.42
1055.913	-6.48
1056.335	1.92
1056.757	-2.68
1057.179	-4.08
1057.601	-4.78
1058.023	-0.78
1058.445	-7.78
1058.867	-4.78
1059.289	2.32
1059.711	-4.58
1060.133	-2.18
1060.555	-2.78
1060.976	-5.88
1061.398	-5.58
1061.82	-4.58
1062.241	-7.58
1062.663	-4.08
1063.085	-1.58
1063.506	-4.58
1063.928	-2.98
1064.35	-2.18
1064.771	-2.18
1065.193	-0.28
1065.614	-7.28
1066.035	-0.18
1066.457	-1.78
1066.878	-4.18
1067.3	-5.58
1067.721	-0.18
1068.142	-6.98
1068.564	-5.28
1068.985	-4.78
1069.406	0.52
1069.827	-3.38
1070.248	-2.88
1070.67	-10.58
1071.091	-8.48
1071.512	-1.68
1071.933	-5.48
1072.354	-7.68
1072.775	-3.18
1073.196	-5.08
1073.617	-3.98
1074.038	-6.78
1074.459	0.72
1074.88	-7.38
1075.3	4.82
1075.721	-5.48
1076.142	4.12
1076.563	-0.08
1076.983	-10.88
1077.404	-6.98
1077.825	-10.18
1078.246	-2.78
1078.666	-12.98
1079.087	2.62
1079.507	-3.48
1079.928	-0.18
1080.348	0.72
1080.769	-2.48
1081.189	-3.78
1081.61	-7.98
1082.03	-8.18
1082.451	-8.98
1082.871	0.62
1083.291	-3.88
1083.711	-7.68
1084.132	-5.58
1084.552	-4.88
1084.972	2.32
1085.392	-8.18
1085.813	-5.18
1086.233	-10.78
1086.653	0.52
1087.073	-1.48
1087.493	-9.88
1087.913	-2.98
1088.333	-8.78
1088.753	-6.58
1089.173	-0.98
1089.593	-2.88
1090.013	0.02
1090.433	-0.28
1090.852	-3.68
1091.272	-1.68
1091.692	-6.88
1092.112	-2.88
1092.531	-5.38
1092.951	-9.48
1093.371	2.52
1093.79	3.12
1094.21	-5.58
1094.63	-7.98
1095.049	-2.08
1095.469	-7.88
1095.888	-4.48
1096.308	1.42
1096.727	2.52
1097.146	-7.28
1097.566	-4.68
1097.985	-1.38
1098.405	-5.48
1098.824	-2.08
1099.243	-7.28
1099.662	-11.78
1100.082	-4.48
1100.501	1.92
1100.92	-9.08
1101.339	-2.88
1101.758	-7.18
