Data from 20171114-ORNL-Ar_H_NY_Subt18_08-09-19-592.txt Node
Date: Tue Nov 14 08:09:19 EST 2017
User: Ender
Spectrometer: HR+D1039
Trigger mode: 0
Integration Time (sec): 2.730000E-2
Scans to average: 10
Electric dark correction enabled: true
Nonlinearity correction enabled: false
Boxcar width: 0
XAxis mode: Wavelengths
Number of Pixels in Spectrum: 2048
>>>>>Begin Spectral Data<<<<<
187.836	1.66
188.309	1.66
188.782	1.66
189.255	-0.34
189.728	-1.74
190.201	1.76
190.674	0.06
191.147	10.26
191.619	-5.94
192.092	0.86
192.565	3.16
193.038	-1.64
193.511	1.26
193.984	-4.34
194.456	-5.54
194.929	1.86
195.402	-3.84
195.874	2.46
196.347	-0.14
196.82	-6.74
197.292	0.76
197.765	-0.54
198.237	-9.44
198.71	-3.14
199.182	2.16
199.655	-1.14
200.127	2.96
200.6	-5.04
201.072	-3.54
201.544	-4.04
202.017	-0.34
202.489	4.36
202.961	-2.24
203.433	-4.44
203.906	-3.84
204.378	-3.14
204.85	0.86
205.322	-9.14
205.794	-5.04
206.266	-6.84
206.739	-9.94
207.211	-7.04
207.683	-6.34
208.155	-5.64
208.627	-7.04
209.099	-3.14
209.57	-11.84
210.042	-4.24
210.514	-4.34
210.986	-3.64
211.458	-11.34
211.93	-1.24
212.402	0.96
212.873	-7.44
213.345	-11.24
213.817	-9.14
214.288	-4.64
214.76	-10.24
215.232	-3.94
215.703	-9.24
216.175	-8.04
216.646	-3.84
217.118	-9.84
217.589	-5.34
218.061	-1.34
218.532	-9.74
219.004	-4.04
219.475	-3.54
219.946	-5.54
220.418	-7.94
220.889	9.86
221.36	-2.74
221.832	-3.94
222.303	-4.44
222.774	4.56
223.245	-7.34
223.717	-7.64
224.188	-5.04
224.659	-8.94
225.13	1.16
225.601	2.76
226.072	2.36
226.543	-2.44
227.014	-4.44
227.485	-2.84
227.956	-5.54
228.427	-1.34
228.898	-0.24
229.369	4.96
229.839	-1.84
230.31	-5.74
230.781	4.46
231.252	-7.94
231.722	-7.54
232.193	-4.74
232.664	-0.94
233.135	-4.44
233.605	-3.34
234.076	-14.24
234.546	-1.74
235.017	-2.24
235.487	-3.24
235.958	-4.84
236.428	-1.74
236.899	-6.24
237.369	-0.04
237.84	-7.04
238.31	-0.24
238.78	-7.44
239.251	-7.04
239.721	-7.54
240.191	-9.04
240.662	-9.34
241.132	-2.44
241.602	-8.94
242.072	1.46
242.542	0.46
243.013	-2.84
243.483	1.46
243.953	-3.34
244.423	-8.14
244.893	-0.84
245.363	-4.54
245.833	-5.84
246.303	-9.74
246.773	1.16
247.243	-5.74
247.712	-7.54
248.182	-2.24
248.652	-3.34
249.122	-10.94
249.592	-2.04
250.061	-1.64
250.531	0.56
251.001	-3.04
251.471	3.26
251.94	1.76
252.41	-3.84
252.879	-7.44
253.349	6.06
253.818	5.86
254.288	0.06
254.757	-4.04
255.227	-5.24
255.696	-4.24
256.166	4.76
256.635	1.26
257.105	2.86
257.574	0.46
258.043	-1.34
258.513	-3.34
258.982	-2.84
259.451	-9.14
259.92	1.16
260.389	-3.54
260.859	8.76
261.328	-2.24
261.797	-1.94
262.266	-2.44
262.735	3.16
263.204	-0.84
263.673	-4.84
264.142	2.16
264.611	-8.44
265.08	-1.24
265.549	-1.84
266.018	5.36
266.487	-4.44
266.955	-4.34
267.424	-5.14
267.893	3.66
268.362	0.46
268.83	-0.54
269.299	4.96
269.768	-0.54
270.236	1.56
270.705	-5.84
271.174	-5.44
271.642	-5.94
272.111	-5.44
272.579	1.36
273.048	-4.64
273.516	-0.54
273.985	1.96
274.453	4.56
274.922	7.56
275.39	1.86
275.858	-8.34
276.327	4.86
276.795	10.86
277.263	-3.44
277.731	7.26
278.2	4.96
278.668	4.36
279.136	9.36
279.604	0.86
280.072	5.96
280.54	3.66
281.008	6.66
281.477	5.56
281.945	7.56
282.413	7.36
282.881	12.16
283.348	-0.64
283.816	2.96
284.284	8.06
284.752	12.06
285.22	7.76
285.688	5.66
286.156	2.16
286.623	8.66
287.091	3.46
287.559	6.86
288.026	8.86
288.494	5.86
288.962	-1.54
289.429	0.46
289.897	14.46
290.364	6.06
290.832	8.36
291.3	2.36
291.767	7.46
292.234	12.56
292.702	7.06
293.169	11.86
293.637	14.76
294.104	9.86
294.571	0.16
295.039	4.86
295.506	6.36
295.973	6.56
296.44	11.26
296.908	2.96
297.375	7.76
297.842	9.16
298.309	9.76
298.776	4.56
299.243	13.36
299.71	2.96
300.177	12.96
300.644	11.46
301.111	10.76
301.578	12.26
302.045	8.66
302.512	17.46
302.979	18.66
303.446	13.36
303.913	6.06
304.379	9.16
304.846	13.76
305.313	11.86
305.78	11.06
306.246	18.36
306.713	20.06
307.18	16.26
307.646	14.86
308.113	16.26
308.579	14.76
309.046	14.96
309.512	18.06
309.979	12.86
310.445	24.16
310.912	21.46
311.378	23.26
311.845	18.26
312.311	24.26
312.777	26.66
313.244	14.36
313.71	28.96
314.176	17.06
314.642	22.56
315.109	21.66
315.575	22.96
316.041	29.66
316.507	20.06
316.973	20.06
317.439	20.36
317.905	23.46
318.371	27.86
318.837	17.86
319.303	19.66
319.769	18.86
320.235	25.26
320.701	21.06
321.167	24.66
321.633	25.06
322.099	29.16
322.564	30.86
323.03	30.26
323.496	23.26
323.962	30.86
324.427	21.26
324.893	28.26
325.359	26.46
325.824	26.66
326.29	20.96
326.755	30.06
327.221	32.36
327.686	33.56
328.152	30.56
328.617	34.86
329.083	38.06
329.548	41.26
330.014	38.76
330.479	30.36
330.944	34.66
331.41	32.06
331.875	31.96
332.34	33.56
332.805	32.26
333.271	38.36
333.736	29.16
334.201	40.86
334.666	36.36
335.131	45.96
335.596	37.86
336.061	38.26
336.526	30.16
336.991	33.56
337.456	42.86
337.921	38.86
338.386	37.36
338.851	34.66
339.316	38.66
339.781	32.76
340.246	43.46
340.711	39.96
341.175	34.66
341.64	31.86
342.105	40.66
342.569	38.16
343.034	45.86
343.499	45.46
343.963	37.36
344.428	54.26
344.893	49.16
345.357	48.86
345.822	49.26
346.286	52.16
346.751	54.46
347.215	52.16
347.679	57.96
348.144	70.56
348.608	59.06
349.073	54.96
349.537	58.86
350.001	58.46
350.465	64.16
350.93	62.86
351.394	60.06
351.858	55.96
352.322	70.46
352.786	67.36
353.25	77.56
353.715	80.96
354.179	80.86
354.643	83.06
355.107	87.86
355.571	77.96
356.035	76.46
356.498	83.66
356.962	88.36
357.426	97.86
357.89	89.36
358.354	73.16
358.818	69.96
359.281	63.26
359.745	66.36
360.209	61.26
360.673	54.26
361.136	68.36
361.6	69.56
362.064	60.46
362.527	74.46
362.991	77.36
363.454	58.36
363.918	54.76
364.381	62.56
364.845	66.76
365.308	77.16
365.772	74.96
366.235	71.26
366.698	67.06
367.162	68.36
367.625	74.46
368.088	74.56
368.552	73.66
369.015	68.76
369.478	83.46
369.941	90.26
370.404	73.96
370.867	86.96
371.331	81.46
371.794	86.76
372.257	84.26
372.72	85.36
373.183	83.36
373.646	80.16
374.109	82.86
374.572	85.06
375.035	85.66
375.497	84.86
375.96	85.36
376.423	95.36
376.886	95.96
377.349	95.86
377.811	87.06
378.274	93.66
378.737	83.56
379.199	96.06
379.662	87.56
380.125	97.56
380.587	87.96
381.05	92.76
381.512	97.16
381.975	111.76
382.437	103.76
382.9	100.76
383.362	109.16
383.825	107.96
384.287	114.06
384.75	111.16
385.212	111.86
385.674	121.76
386.136	124.06
386.599	106.56
387.061	104.26
387.523	105.06
387.985	109.76
388.447	125.56
388.91	112.56
389.372	111.66
389.834	118.86
390.296	118.66
390.758	120.06
391.22	114.76
391.682	132.76
392.144	129.06
392.606	123.96
393.068	123.96
393.529	144.66
393.991	128.66
394.453	116.86
394.915	121.16
395.377	121.86
395.838	121.76
396.3	125.46
396.762	129.76
397.224	124.86
397.685	123.76
398.147	122.46
398.608	116.56
399.07	123.06
399.531	121.06
399.993	135.46
400.454	148.16
400.916	135.56
401.377	133.66
401.839	134.76
402.3	140.46
402.762	153.36
403.223	163.36
403.684	152.36
404.145	145.66
404.607	149.46
405.068	151.26
405.529	159.96
405.99	162.86
406.451	167.06
406.913	163.06
407.374	149.36
407.835	150.06
408.296	156.76
408.757	158.76
409.218	176.06
409.679	169.56
410.14	155.76
410.601	160.86
411.062	172.56
411.522	168.76
411.983	168.06
412.444	157.86
412.905	176.06
413.366	176.86
413.826	179.06
414.287	210.96
414.748	263.86
415.208	237.46
415.669	211.46
416.13	204.76
416.59	201.56
417.051	212.86
417.511	215.16
417.972	237.36
418.432	239.86
418.893	275.16
419.353	242.26
419.814	194.16
420.274	180.96
420.734	172.36
421.195	183.16
421.655	175.16
422.115	181.56
422.576	191.66
423.036	192.36
423.496	204.16
423.956	206.26
424.416	224.36
424.876	254.86
425.336	255.56
425.797	254.76
426.257	241.26
426.717	229.36
427.177	224.66
427.637	217.76
428.097	221.96
428.556	239.26
429.016	259.76
429.476	258.06
429.936	256.76
430.396	258.96
430.856	276.76
431.315	296.26
431.775	322.76
432.235	360.86
432.694	328.56
433.154	337.46
433.614	361.56
434.073	322.66
434.533	272.66
434.993	258.76
435.452	261.36
435.912	276.66
436.371	268.06
436.83	268.56
437.29	250.56
437.749	235.56
438.209	240.56
438.668	261.46
439.127	268.46
439.587	248.16
440.046	236.36
440.505	252.86
440.964	265.16
441.424	302.46
441.883	296.26
442.342	250.86
442.801	221.06
443.26	216.16
443.719	225.06
444.178	212.06
444.637	204.36
445.096	215.66
445.555	215.86
446.014	221.66
446.473	223.96
446.932	228.56
447.391	224.96
447.849	224.46
448.308	219.46
448.767	224.46
449.226	229.76
449.685	243.06
450.143	247.76
450.602	233.96
451.061	232.96
451.519	230.06
451.978	226.86
452.436	233.36
452.895	238.56
453.353	251.56
453.812	243.56
454.27	242.66
454.729	238.56
455.187	239.76
455.646	249.06
456.104	245.56
456.562	256.06
457.021	268.16
457.479	260.46
457.937	263.26
458.395	258.96
458.854	256.96
459.312	251.46
459.77	271.16
460.228	262.06
460.686	241.06
461.144	247.26
461.602	243.06
462.06	244.56
462.518	257.46
462.976	254.46
463.434	262.46
463.892	267.46
464.35	276.16
464.808	287.86
465.266	266.56
465.724	266.66
466.181	276.66
466.639	280.76
467.097	295.96
467.555	304.16
468.012	301.36
468.47	301.96
468.928	324.36
469.385	338.76
469.843	345.56
470.3	345.96
470.758	355.96
471.215	374.06
471.673	393.46
472.13	401.16
472.588	418.46
473.045	370.86
473.503	378.06
473.96	394.06
474.417	403.06
474.875	430.76
475.332	471.66
475.789	462.06
476.246	467.06
476.704	488.56
477.161	504.16
477.618	516.26
478.075	543.56
478.532	601.96
478.989	668.06
479.446	777.06
479.903	741.66
480.36	768.36
480.817	811.36
481.274	902.06
481.731	995.96
482.188	1061.26
482.645	1176.16
483.102	1263.96
483.558	1392.56
484.015	1422.96
484.472	1403.26
484.929	1356.76
485.385	1317.66
485.842	1284.56
486.299	1231.96
486.755	1186.56
487.212	1027.96
487.668	879.56
488.125	807.06
488.582	753.56
489.038	720.86
489.494	687.46
489.951	671.46
490.407	657.66
490.864	631.76
491.32	625.46
491.776	632.66
492.233	631.66
492.689	598.86
493.145	604.66
493.602	594.76
494.058	617.56
494.514	612.16
494.97	628.16
495.426	631.46
495.882	611.26
496.338	610.56
496.794	618.06
497.251	610.76
497.707	623.96
498.163	629.26
498.618	628.46
499.074	629.66
499.53	656.56
499.986	656.96
500.442	643.66
500.898	616.36
501.354	615.46
501.809	620.26
502.265	623.56
502.721	627.06
503.177	636.06
503.632	638.46
504.088	639.86
504.543	670.26
504.999	686.66
505.455	656.46
505.91	634.86
506.366	639.86
506.821	636.86
507.277	631.86
507.732	637.96
508.187	635.66
508.643	636.36
509.098	643.46
509.553	666.16
510.009	675.76
510.464	673.76
510.919	689.86
511.375	702.16
511.83	715.26
512.285	718.96
512.74	752.66
513.195	778.36
513.65	769.66
514.105	770.96
514.56	767.36
515.015	789.96
515.47	794.06
515.925	775.96
516.38	789.96
516.835	802.06
517.29	788.26
517.745	787.66
518.2	761.16
518.655	761.56
519.109	748.66
519.564	745.46
520.019	734.06
520.474	721.56
520.928	726.96
521.383	726.86
521.838	710.36
522.292	707.16
522.747	712.86
523.201	707.56
523.656	706.36
524.11	698.26
524.565	696.56
525.019	696.46
525.474	697.56
525.928	703.66
526.382	706.46
526.837	692.36
527.291	710.96
527.745	691.96
528.2	708.46
528.654	702.16
529.108	699.56
529.562	684.36
530.016	692.76
530.47	692.66
530.925	695.86
531.379	696.96
531.833	707.06
532.287	703.16
532.741	704.56
533.195	704.26
533.649	711.26
534.103	718.06
534.556	709.36
535.01	707.86
535.464	708.06
535.918	723.06
536.372	720.46
536.826	715.36
537.279	700.26
537.733	713.46
538.187	726.76
538.64	715.16
539.094	736.36
539.548	740.96
540.001	733.26
540.455	726.26
540.908	739.96
541.362	745.86
541.815	754.66
542.269	769.86
542.722	766.36
543.175	777.56
543.629	783.06
544.082	794.16
544.536	791.76
544.989	800.16
545.442	806.66
545.895	807.56
546.349	795.36
546.802	800.86
547.255	809.76
547.708	819.56
548.161	817.36
548.614	832.96
549.067	837.46
549.52	825.16
549.973	812.26
550.426	817.86
550.879	813.16
551.332	814.56
551.785	808.96
552.238	822.76
552.691	831.66
553.144	851.56
553.596	861.36
554.049	873.66
554.502	900.66
554.955	915.06
555.407	921.66
555.86	910.46
556.313	898.96
556.765	901.56
557.218	895.76
557.67	905.96
558.123	894.36
558.576	888.96
559.028	901.56
559.48	885.16
559.933	884.86
560.385	852.66
560.838	837.66
561.29	800.36
561.742	801.66
562.195	789.86
562.647	796.86
563.099	792.16
563.551	787.76
564.004	798.96
564.456	785.36
564.908	777.76
565.36	756.46
565.812	737.76
566.264	736.26
566.716	734.16
567.168	722.96
567.62	725.66
568.072	707.76
568.524	710.56
568.976	702.56
569.428	692.46
569.88	694.76
570.332	697.66
570.784	702.86
571.235	693.96
571.687	701.36
572.139	709.66
572.59	729.46
573.042	724.56
573.494	719.16
573.945	721.86
574.397	701.26
574.849	703.46
575.3	706.46
575.752	690.46
576.203	699.96
576.655	698.06
577.106	679.36
577.557	685.36
578.009	682.76
578.46	682.36
578.912	680.46
579.363	677.96
579.814	682.86
580.265	677.86
580.717	692.26
581.168	676.36
581.619	691.66
582.07	693.06
582.521	686.36
582.972	679.46
583.423	694.86
583.875	687.66
584.326	704.46
584.777	709.46
585.227	728.96
585.678	736.26
586.129	754.96
586.58	777.06
587.031	785.86
587.482	816.06
587.933	840.46
588.384	813.36
588.834	798.96
589.285	783.56
589.736	796.56
590.186	790.46
590.637	773.96
591.088	770.26
591.538	745.66
591.989	752.56
592.439	740.16
592.89	734.46
593.34	720.56
593.791	722.86
594.241	711.76
594.692	709.66
595.142	711.66
595.593	711.86
596.043	704.86
596.493	727.16
596.943	724.76
597.394	729.36
597.844	730.56
598.294	755.56
598.744	773.76
599.195	801.06
599.645	843.36
600.095	878.76
600.545	952.16
600.995	991.06
601.445	1048.56
601.895	1121.16
602.345	1151.96
602.795	1144.16
603.245	1099.46
603.695	1040.16
604.145	988.26
604.594	943.56
605.044	879.36
605.494	835.06
605.944	772.36
606.393	756.86
606.843	752.26
607.293	758.36
607.743	746.96
608.192	749.56
608.642	762.96
609.091	766.06
609.541	783.86
609.99	781.96
610.44	769.46
610.889	736.46
611.339	713.56
611.788	695.26
612.238	708.86
612.687	724.16
613.136	715.26
613.586	719.56
614.035	716.26
614.484	726.66
614.933	726.16
615.383	720.26
615.832	718.16
616.281	718.56
616.73	691.96
617.179	670.36
617.628	658.96
618.077	643.86
618.526	633.06
618.975	629.76
619.424	618.06
619.873	621.06
620.322	633.96
620.771	615.26
621.22	623.56
621.669	607.16
622.118	597.26
622.567	597.36
623.015	585.96
623.464	572.66
623.913	563.66
624.361	568.46
624.81	561.06
625.259	574.26
625.707	567.96
626.156	577.66
626.604	570.76
627.053	578.06
627.501	569.36
627.95	582.36
628.398	598.06
628.847	582.86
629.295	595.16
629.744	589.46
630.192	592.26
630.64	565.46
631.089	563.26
631.537	551.36
631.985	544.76
632.433	542.96
632.881	535.96
633.33	534.66
633.778	526.86
634.226	541.36
634.674	543.06
635.122	549.36
635.57	561.46
636.018	574.16
636.466	578.86
636.914	579.76
637.362	577.26
637.81	592.56
638.258	593.26
638.705	605.76
639.153	622.56
639.601	635.86
640.049	653.06
640.497	698.96
640.944	712.06
641.392	674.16
641.84	627.06
642.287	601.86
642.735	577.26
643.182	582.26
643.63	581.56
644.078	579.36
644.525	585.46
644.973	593.86
645.42	602.96
645.867	624.16
646.315	646.76
646.762	665.26
647.21	690.76
647.657	708.26
648.104	752.26
648.551	769.76
648.999	836.36
649.446	889.16
649.893	992.16
650.34	1134.96
650.787	1337.36
651.234	1665.06
651.682	2143.86
652.129	2918.76
652.576	4160.06
653.023	6052.76
653.47	8118.46
653.917	10010.16
654.363	11466.66
654.81	12594.86
655.257	11906.16
655.704	7898.76
656.151	4732.56
656.598	3136.56
657.044	2256.96
657.491	1757.86
657.938	1412.96
658.385	1185.86
658.831	1044.76
659.278	938.36
659.724	845.76
660.171	775.56
660.618	721.56
661.064	689.46
661.511	668.26
661.957	658.66
662.404	647.26
662.85	645.06
663.296	630.36
663.743	565.66
664.189	552.26
664.635	550.56
665.082	541.36
665.528	531.66
665.974	528.06
666.42	521.76
666.867	516.06
667.313	488.16
667.759	470.66
668.205	452.46
668.651	466.86
669.097	465.76
669.543	451.66
669.989	463.36
670.435	468.06
670.881	461.16
671.327	464.26
671.773	487.26
672.219	507.96
672.665	569.06
673.11	607.96
673.556	654.66
674.002	695.16
674.448	682.16
674.893	568.86
675.339	496.36
675.785	457.26
676.23	428.96
676.676	411.26
677.122	395.76
677.567	389.66
678.013	386.56
678.458	376.76
678.904	380.56
679.349	372.56
679.794	366.56
680.24	371.66
680.685	361.56
681.131	363.96
681.576	359.86
682.021	371.86
682.466	359.46
682.912	361.16
683.357	366.76
683.802	406.46
684.247	435.76
684.692	478.46
685.137	518.46
685.583	554.86
686.028	586.96
686.473	539.36
686.918	461.86
687.363	441.66
687.807	412.86
688.252	389.16
688.697	363.26
689.142	348.16
689.587	343.56
690.032	342.16
690.477	357.76
690.921	369.56
691.366	409.46
691.811	418.96
692.255	457.76
692.7	479.76
693.145	540.46
693.589	767.16
694.034	1226.46
694.478	1653.26
694.923	1818.56
695.367	2358.86
695.812	1246.56
696.256	521.66
696.701	390.26
697.145	357.56
697.59	343.76
698.034	329.36
698.478	335.86
698.922	326.76
699.367	331.36
699.811	345.56
700.255	371.66
700.699	405.36
701.143	441.26
701.588	497.16
702.032	543.36
702.476	531.86
702.92	519.26
703.364	519.76
703.808	689.76
704.252	1128.46
704.696	1559.36
705.14	1755.26
705.584	2205.36
706.027	1120.26
706.471	550.26
706.915	417.16
707.359	361.86
707.803	335.96
708.246	320.56
708.69	321.16
709.134	331.36
709.577	322.56
710.021	330.06
710.465	319.16
710.908	315.66
711.352	308.86
711.795	321.86
712.239	367.66
712.682	413.46
713.126	434.96
713.569	469.66
714.012	373.56
714.456	314.96
714.899	306.96
715.342	283.96
715.786	271.26
716.229	273.06
716.672	265.46
717.115	258.16
717.558	262.36
718.002	266.56
718.445	278.36
718.888	300.36
719.331	304.16
719.774	320.26
720.217	315.96
720.66	298.26
721.103	278.76
721.546	268.46
721.989	262.76
722.432	236.96
722.874	247.36
723.317	245.06
723.76	248.46
724.203	263.06
724.645	340.06
725.088	478.36
725.531	602.76
725.974	669.86
726.416	574.66
726.859	323.96
727.301	256.36
727.744	250.36
728.187	245.56
728.629	253.26
729.071	258.06
729.514	266.86
729.956	288.76
730.399	297.76
730.841	302.16
731.283	287.86
731.726	280.36
732.168	271.06
732.61	278.76
733.053	299.56
733.495	326.06
733.937	369.96
734.379	423.16
734.821	470.66
735.263	588.46
735.705	930.96
736.148	1746.36
736.59	2775.26
737.032	3196.86
737.474	2613.06
737.916	860.16
738.357	458.66
738.799	347.76
739.241	313.06
739.683	298.96
740.125	315.56
740.567	314.66
741.008	328.46
741.45	338.76
741.892	341.76
742.334	369.46
742.775	380.66
743.217	361.16
743.658	287.86
744.1	272.16
744.542	281.96
744.983	337.26
745.425	360.46
745.866	355.26
746.307	296.16
746.749	300.16
747.19	357.96
747.632	507.86
748.073	1003.76
748.514	2074.06
748.956	3048.06
749.397	3840.66
749.838	3167.96
750.279	3090.56
750.72	1585.26
751.162	589.26
751.603	341.66
752.044	272.76
752.485	229.96
752.926	225.86
753.367	215.76
753.808	202.86
754.249	193.96
754.69	192.76
755.131	191.66
755.572	188.46
756.013	192.06
756.453	185.96
756.894	198.66
757.335	195.76
757.776	201.26
758.216	202.56
758.657	203.46
759.098	210.26
759.538	239.46
759.979	284.86
760.42	416.86
760.86	804.86
761.301	2087.16
761.741	4863.86
762.182	6689.56
762.622	4725.36
763.063	1411.06
763.503	579.16
763.943	341.56
764.384	276.56
764.824	250.06
765.264	235.86
765.705	217.86
766.145	192.06
766.585	182.26
767.025	177.36
767.465	173.66
767.906	188.16
768.346	201.16
768.786	203.96
769.226	226.56
769.666	339.06
770.106	702.76
770.546	1737.76
770.986	2779.66
771.426	2453.76
771.866	842.26
772.306	346.86
772.745	215.96
773.185	179.46
773.625	174.76
774.065	158.16
774.505	168.06
774.944	221.66
775.384	378.06
775.824	605.56
776.263	566.26
776.703	290.96
777.142	166.56
777.582	135.26
778.021	129.56
778.461	136.46
778.9	127.06
779.34	129.46
779.779	117.46
780.219	115.56
780.658	108.96
781.097	113.96
781.537	116.56
781.976	109.46
782.415	110.96
782.855	104.66
783.294	108.96
783.733	106.26
784.172	117.86
784.611	106.36
785.05	115.06
785.489	116.76
785.928	120.56
786.367	124.56
786.806	126.26
787.245	130.66
787.684	140.46
788.123	154.76
788.562	141.76
789.001	134.16
789.44	130.06
789.879	127.66
790.317	126.66
790.756	136.86
791.195	137.96
791.634	149.56
792.072	223.06
792.511	406.86
792.95	1139.26
793.388	2232.36
793.827	1952.26
794.265	711.26
794.704	302.56
795.142	193.06
795.581	156.46
796.019	150.06
796.458	140.46
796.896	131.16
797.334	134.96
797.773	163.96
798.211	242.86
798.649	497.26
799.087	1119.46
799.526	1722.46
799.964	2175.16
800.402	2091.96
800.84	806.56
801.278	328.86
801.716	200.96
802.154	160.46
802.592	156.26
803.03	149.66
803.468	143.56
803.906	147.16
804.344	158.66
804.782	150.16
805.22	141.56
805.658	135.96
806.096	153.86
806.533	165.26
806.971	191.76
807.409	234.86
807.847	352.36
808.284	760.46
808.722	2075.56
809.16	3476.86
809.597	3476.36
810.035	5864.66
810.472	5969.36
810.91	2216.06
811.347	857.76
811.785	437.96
812.222	276.46
812.66	210.76
813.097	167.16
813.535	142.76
813.972	140.06
814.409	126.86
814.846	116.96
815.284	112.16
815.721	107.96
816.158	110.66
816.595	121.66
817.032	158.26
817.47	188.66
817.907	134.36
818.344	102.96
818.781	102.16
819.218	103.26
819.655	132.16
820.092	202.06
820.529	216.86
820.966	181.96
821.403	127.66
821.839	103.56
822.276	102.96
822.713	137.36
823.15	143.96
823.587	122.46
824.023	161.36
824.46	340.66
824.897	980.26
825.333	1418.26
825.77	624.46
826.206	243.86
826.643	150.06
827.08	106.96
827.516	86.96
827.953	85.66
828.389	89.26
828.825	78.46
829.262	72.46
829.698	62.96
830.135	71.16
830.571	68.16
831.007	63.26
831.443	65.46
831.88	64.36
832.316	67.86
832.752	65.26
833.188	72.26
833.624	68.96
834.06	72.66
834.497	70.36
834.933	80.76
835.369	82.76
835.805	71.36
836.241	77.36
836.677	86.96
837.112	96.46
837.548	113.36
837.984	149.06
838.42	225.06
838.856	566.26
839.292	1667.16
839.727	2416.96
840.163	1139.16
840.599	1038.66
841.034	2203.56
841.47	2187.36
841.906	824.36
842.341	362.36
842.777	212.56
843.212	210.76
843.648	191.06
844.083	117.16
844.519	83.46
844.954	76.66
845.39	62.26
845.825	59.26
846.261	62.46
846.696	56.96
847.131	55.86
847.566	57.46
848.002	59.16
848.437	57.56
848.872	59.86
849.307	71.36
849.742	93.36
850.177	205.16
850.613	607.56
851.048	914.56
851.483	401.76
851.918	170.46
852.353	92.36
852.788	58.66
853.223	52.06
853.657	57.76
854.092	53.76
854.527	48.16
854.962	44.56
855.397	44.16
855.832	51.26
856.266	36.16
856.701	38.36
857.136	35.46
857.57	43.36
858.005	51.76
858.44	61.26
858.874	52.66
859.309	52.56
859.743	41.06
860.178	48.66
860.612	44.16
861.047	56.16
861.481	80.06
861.915	75.96
862.35	53.06
862.784	34.36
863.218	39.46
863.653	36.86
864.087	45.36
864.521	58.26
864.955	72.76
865.39	167.16
865.824	183.66
866.258	126.96
866.692	180.76
867.126	190.96
867.56	114.16
867.994	60.76
868.428	44.96
868.862	48.96
869.296	63.96
869.73	59.36
870.164	56.06
870.598	52.86
871.031	39.16
871.465	33.26
871.899	30.56
872.333	27.86
872.766	30.46
873.2	26.46
873.634	32.66
874.067	27.46
874.501	27.86
874.935	35.06
875.368	28.26
875.802	27.66
876.235	31.76
876.669	25.36
877.102	30.96
877.535	34.96
877.969	25.26
878.402	26.86
878.836	20.86
879.269	25.06
879.702	25.76
880.135	21.96
880.569	19.36
881.002	23.16
881.435	25.46
881.868	18.66
882.301	23.76
882.734	19.06
883.167	23.16
883.601	14.16
884.034	19.96
884.467	15.46
884.899	21.96
885.332	23.86
885.765	11.76
886.198	21.86
886.631	18.76
887.064	20.46
887.497	21.96
887.929	26.06
888.362	19.86
888.795	11.86
889.228	19.16
889.66	20.66
890.093	21.86
890.526	19.66
890.958	18.36
891.391	17.36
891.823	26.36
892.256	17.26
892.688	12.96
893.121	20.46
893.553	12.26
893.985	21.96
894.418	18.76
894.85	11.56
895.282	18.16
895.715	19.86
896.147	23.56
896.579	20.06
897.011	11.56
897.444	22.46
897.876	18.96
898.308	16.36
898.74	17.66
899.172	16.76
899.604	30.66
900.036	23.46
900.468	16.46
900.9	16.76
901.332	21.76
901.764	15.66
902.196	21.46
902.628	21.66
903.06	20.36
903.491	33.16
903.923	24.16
904.355	18.76
904.787	29.86
905.218	27.66
905.65	28.26
906.082	18.56
906.513	14.96
906.945	17.16
907.376	10.86
907.808	22.46
908.239	23.86
908.671	22.26
909.102	18.36
909.534	26.56
909.965	46.46
910.397	98.56
910.828	335.26
911.259	498.36
911.691	228.36
912.122	114.36
912.553	53.46
912.984	33.36
913.415	23.86
913.847	22.86
914.278	12.46
914.709	14.06
915.14	21.86
915.571	16.76
916.002	15.76
916.433	25.46
916.864	20.06
917.295	18.96
917.726	18.66
918.157	18.56
918.587	30.56
919.018	24.86
919.449	24.16
919.88	25.26
920.311	37.36
920.741	57.06
921.172	186.86
921.603	158.26
922.033	75.96
922.464	48.16
922.895	28.86
923.325	24.56
923.756	8.56
924.186	11.96
924.617	16.56
925.047	23.26
925.478	29.96
925.908	20.86
926.338	18.56
926.769	11.26
927.199	16.16
927.629	8.76
928.06	16.36
928.49	12.66
928.92	13.76
929.35	9.46
929.78	15.96
930.21	4.86
930.641	6.66
931.071	7.66
931.501	4.26
931.931	10.06
932.361	10.66
932.791	3.26
933.221	11.06
933.651	9.36
934.08	19.16
934.51	36.66
934.94	13.26
935.37	16.26
935.8	14.66
936.229	7.56
936.659	11.36
937.089	5.56
937.519	19.36
937.948	20.26
938.378	19.46
938.807	5.26
939.237	3.96
939.666	4.46
940.096	-3.14
940.525	3.56
940.955	9.36
941.384	3.36
941.814	-2.44
942.243	4.86
942.672	5.96
943.102	-0.34
943.531	0.76
943.96	4.46
944.39	2.46
944.819	1.56
945.248	1.86
945.677	1.46
946.106	11.26
946.535	-0.34
946.964	-1.34
947.393	1.76
947.822	4.16
948.251	-11.44
948.68	6.66
949.109	5.56
949.538	8.26
949.967	2.26
950.396	2.66
950.825	4.26
951.254	1.66
951.682	-8.64
952.111	4.76
952.54	6.96
952.969	-3.14
953.397	-3.34
953.826	-0.44
954.254	-9.84
954.683	1.66
955.112	-4.94
955.54	-1.44
955.969	2.86
956.397	1.56
956.826	-2.14
957.254	7.96
957.682	3.76
958.111	6.46
958.539	2.06
958.967	-3.14
959.396	-6.74
959.824	-3.14
960.252	1.56
960.68	-2.74
961.109	1.16
961.537	-5.04
961.965	0.46
962.393	-1.04
962.821	-6.94
963.249	1.56
963.677	4.96
964.105	8.36
964.533	47.26
964.961	44.36
965.389	21.66
965.817	7.76
966.245	0.16
966.672	-5.64
967.1	-4.54
967.528	4.76
967.956	-3.84
968.383	3.46
968.811	2.06
969.239	0.86
969.666	-1.84
970.094	0.56
970.522	5.86
970.949	-2.94
971.377	-5.24
971.804	-0.34
972.232	-1.44
972.659	-3.14
973.087	-5.74
973.514	-4.94
973.941	-1.34
974.369	5.76
974.796	-4.94
975.223	0.46
975.651	-2.84
976.078	4.96
976.505	-3.44
976.932	7.86
977.359	20.16
977.786	14.26
978.214	5.86
978.641	-1.14
979.068	-4.94
979.495	-5.64
979.922	-1.94
980.349	-1.14
980.776	6.26
981.202	2.96
981.629	0.36
982.056	1.66
982.483	-3.44
982.91	-0.94
983.337	-6.44
983.763	4.76
984.19	-0.24
984.617	-4.24
985.043	-3.64
985.47	-5.44
985.897	-2.64
986.323	-6.74
986.75	9.06
987.176	3.56
987.603	-1.44
988.029	2.56
988.456	-0.34
988.882	4.86
989.308	-4.84
989.735	-4.24
990.161	2.36
990.587	-6.84
991.014	-0.44
991.44	3.86
991.866	-5.34
992.292	-2.84
992.719	-6.04
993.145	2.26
993.571	-10.04
993.997	-1.64
994.423	0.26
994.849	-5.94
995.275	-2.14
995.701	1.86
996.127	-0.54
996.553	0.16
996.979	-1.24
997.405	-1.64
997.83	-0.34
998.256	-3.04
998.682	-5.24
999.108	-8.64
999.534	3.96
999.959	3.46
1000.385	-3.74
1000.811	3.56
1001.236	-7.64
1001.662	-8.54
1002.087	-7.94
1002.513	5.86
1002.938	-0.94
1003.364	0.36
1003.789	0.16
1004.215	3.06
1004.64	1.56
1005.066	5.76
1005.491	2.16
1005.916	-2.84
1006.342	-5.54
1006.767	-6.54
1007.192	0.86
1007.617	-1.24
1008.042	-4.64
1008.468	-9.04
1008.893	0.06
1009.318	-0.64
1009.743	2.86
1010.168	5.56
1010.593	1.06
1011.018	-8.04
1011.443	-1.94
1011.868	1.86
1012.293	0.36
1012.718	-4.04
1013.143	4.66
1013.567	5.36
1013.992	-4.14
1014.417	-12.94
1014.842	-1.74
1015.267	-9.54
1015.691	-5.04
1016.116	4.46
1016.541	0.96
1016.965	4.46
1017.39	0.06
1017.814	-1.94
1018.239	2.86
1018.663	-5.74
1019.088	-4.34
1019.512	-5.44
1019.937	2.46
1020.361	-9.34
1020.785	-9.54
1021.21	0.26
1021.634	-7.74
1022.058	0.36
1022.483	3.16
1022.907	-4.14
1023.331	-5.14
1023.755	-2.64
1024.179	1.76
1024.604	-10.44
1025.028	-11.44
1025.452	-7.34
1025.876	-4.74
1026.3	-3.74
1026.724	-8.04
1027.148	-10.14
1027.572	-10.44
1027.996	-0.34
1028.42	0.56
1028.843	-6.64
1029.267	-1.94
1029.691	-1.64
1030.115	-8.44
1030.539	-6.14
1030.962	0.76
1031.386	-8.64
1031.81	2.46
1032.233	-2.14
1032.657	-1.94
1033.08	3.36
1033.504	1.16
1033.927	-1.04
1034.351	0.56
1034.774	-3.64
1035.198	1.16
1035.621	-7.94
1036.045	-5.54
1036.468	4.26
1036.891	-11.64
1037.315	-10.44
1037.738	-8.64
1038.161	0.26
1038.584	-6.44
1039.008	-9.74
1039.431	-10.74
1039.854	-0.34
1040.277	-6.94
1040.7	-13.94
1041.123	-2.04
1041.546	-12.64
1041.969	-0.74
1042.392	-8.44
1042.815	-0.24
1043.238	2.76
1043.661	-1.14
1044.084	-11.14
1044.507	-1.54
1044.93	-6.54
1045.352	-6.14
1045.775	-1.84
1046.198	3.56
1046.621	-3.34
1047.043	0.46
1047.466	5.66
1047.889	-7.64
1048.311	-5.24
1048.734	-3.14
1049.156	0.36
1049.579	-2.84
1050.001	-4.34
1050.424	1.66
1050.846	-8.04
1051.269	-3.74
1051.691	-7.94
1052.113	-6.84
1052.536	1.36
1052.958	-9.54
1053.38	-6.04
1053.802	-14.14
1054.225	-2.34
1054.647	-9.74
1055.069	-0.64
1055.491	7.46
1055.913	-7.24
1056.335	1.96
1056.757	-2.94
1057.179	-6.14
1057.601	-6.94
1058.023	-9.94
1058.445	-4.94
1058.867	-3.94
1059.289	2.56
1059.711	-7.64
1060.133	-6.84
1060.555	-4.14
1060.976	-7.34
1061.398	-6.74
1061.82	-6.94
1062.241	-6.04
1062.663	-6.44
1063.085	-6.64
1063.506	-1.64
1063.928	0.96
1064.35	-6.04
1064.771	-11.44
1065.193	-4.64
1065.614	-8.24
1066.035	0.46
1066.457	-3.74
1066.878	1.96
1067.3	-3.24
1067.721	-5.14
1068.142	-5.54
1068.564	-2.74
1068.985	-4.84
1069.406	-8.14
1069.827	-2.34
1070.248	-2.94
1070.67	-2.64
1071.091	-7.24
1071.512	-10.64
1071.933	-9.74
1072.354	-6.74
1072.775	-6.94
1073.196	-6.34
1073.617	-2.74
1074.038	-7.44
1074.459	-1.64
1074.88	-5.14
1075.3	-3.34
1075.721	-6.74
1076.142	6.86
1076.563	0.46
1076.983	-9.74
1077.404	-5.54
1077.825	-9.14
1078.246	-13.84
1078.666	-11.94
1079.087	-7.24
1079.507	-3.94
1079.928	-5.44
1080.348	-3.54
1080.769	-9.54
1081.189	-2.54
1081.61	-1.04
1082.03	-1.64
1082.451	-4.14
1082.871	-7.54
1083.291	-7.54
1083.711	-11.94
1084.132	-8.74
1084.552	-5.24
1084.972	-3.74
1085.392	-14.34
1085.813	-13.64
1086.233	-5.14
1086.653	-5.94
1087.073	-4.74
1087.493	-5.74
1087.913	-6.14
1088.333	-8.74
1088.753	-4.84
1089.173	-1.44
1089.593	-5.44
1090.013	0.76
1090.433	-0.84
1090.852	-3.44
1091.272	-3.14
1091.692	-1.54
1092.112	-9.64
1092.531	-8.74
1092.951	-14.94
1093.371	-6.64
1093.79	1.66
1094.21	-1.74
1094.63	-4.84
1095.049	-2.04
1095.469	-3.74
1095.888	-0.94
1096.308	0.56
1096.727	4.06
1097.146	-8.24
1097.566	1.76
1097.985	-3.24
1098.405	-1.84
1098.824	-10.44
1099.243	-1.94
1099.662	-13.64
1100.082	-7.64
1100.501	2.66
1100.92	-9.54
1101.339	-3.94
1101.758	-3.44
