Data from 20171114-ORNL-Ar_H_NY_Subt18_08-04-47-649.txt Node
Date: Tue Nov 14 08:04:47 EST 2017
User: Ender
Spectrometer: HR+D1039
Trigger mode: 0
Integration Time (sec): 2.730000E-2
Scans to average: 10
Electric dark correction enabled: true
Nonlinearity correction enabled: false
Boxcar width: 0
XAxis mode: Wavelengths
Number of Pixels in Spectrum: 2048
>>>>>Begin Spectral Data<<<<<
187.836	-1.73
188.309	-1.73
188.782	-1.73
189.255	-1.73
189.728	-3.83
190.201	8.87
190.674	1.47
191.147	6.27
191.619	-6.23
192.092	0.17
192.565	4.97
193.038	2.07
193.511	-4.33
193.984	0.17
194.456	0.47
194.929	0.97
195.402	-6.63
195.874	-0.93
196.347	-1.83
196.82	-4.23
197.292	10.07
197.765	-6.63
198.237	-9.03
198.71	-1.03
199.182	-2.63
199.655	6.17
200.127	1.27
200.6	-3.33
201.072	-6.53
201.544	-2.83
202.017	-1.23
202.489	-1.73
202.961	-4.83
203.433	-3.63
203.906	-4.33
204.378	-3.03
204.85	-4.83
205.322	-8.23
205.794	0.27
206.266	-7.23
206.739	-6.13
207.211	3.07
207.683	-6.73
208.155	-6.63
208.627	-4.13
209.099	-1.73
209.57	-4.03
210.042	-8.53
210.514	-1.23
210.986	-2.23
211.458	-4.33
211.93	0.97
212.402	-4.33
212.873	-2.73
213.345	-8.33
213.817	-11.73
214.288	-5.63
214.76	-10.03
215.232	-0.53
215.703	-4.93
216.175	-9.63
216.646	-4.53
217.118	-2.33
217.589	4.57
218.061	-3.13
218.532	1.27
219.004	-3.83
219.475	-4.33
219.946	-2.23
220.418	-0.13
220.889	2.07
221.36	-0.33
221.832	-0.83
222.303	-2.03
222.774	2.77
223.245	-7.53
223.717	-6.83
224.188	-4.53
224.659	-9.13
225.13	-8.93
225.601	-1.93
226.072	5.77
226.543	-1.43
227.014	4.37
227.485	-5.83
227.956	-4.33
228.427	-3.83
228.898	-1.13
229.369	-0.23
229.839	3.47
230.31	-8.83
230.781	4.57
231.252	-2.43
231.722	-2.43
232.193	-1.73
232.664	-3.23
233.135	3.27
233.605	2.37
234.076	-3.33
234.546	3.67
235.017	1.97
235.487	5.57
235.958	-1.73
236.428	-3.23
236.899	8.87
237.369	4.87
237.84	-1.93
238.31	7.27
238.78	1.07
239.251	2.17
239.721	2.87
240.191	-7.13
240.662	1.27
241.132	-3.33
241.602	-8.73
242.072	0.17
242.542	9.07
243.013	3.27
243.483	-0.43
243.953	3.27
244.423	8.27
244.893	1.77
245.363	0.07
245.833	9.77
246.303	-0.73
246.773	15.37
247.243	1.37
247.712	2.87
248.182	12.87
248.652	4.17
249.122	-4.53
249.592	9.97
250.061	25.97
250.531	32.87
251.001	15.87
251.471	24.27
251.94	18.97
252.41	11.97
252.879	-2.43
253.349	13.87
253.818	12.57
254.288	10.47
254.757	7.07
255.227	1.57
255.696	3.67
256.166	7.07
256.635	12.77
257.105	7.77
257.574	9.97
258.043	13.37
258.513	11.27
258.982	18.77
259.451	13.67
259.92	12.07
260.389	10.37
260.859	20.17
261.328	16.77
261.797	23.07
262.266	14.87
262.735	12.97
263.204	1.87
263.673	-0.43
264.142	11.57
264.611	3.07
265.08	6.67
265.549	3.77
266.018	7.97
266.487	-0.53
266.955	-0.93
267.424	-2.93
267.893	10.37
268.362	4.87
268.83	2.87
269.299	14.67
269.768	8.17
270.236	10.07
270.705	2.27
271.174	3.47
271.642	2.97
272.111	14.87
272.579	21.67
273.048	26.97
273.516	29.67
273.985	31.67
274.453	24.57
274.922	22.47
275.39	13.67
275.858	2.87
276.327	17.77
276.795	25.17
277.263	7.77
277.731	26.07
278.2	48.77
278.668	60.87
279.136	53.87
279.604	23.17
280.072	14.67
280.54	19.07
281.008	7.67
281.477	18.67
281.945	13.67
282.413	15.57
282.881	14.77
283.348	11.77
283.816	18.77
284.284	15.47
284.752	26.87
285.22	12.17
285.688	21.37
286.156	19.57
286.623	45.27
287.091	56.37
287.559	31.47
288.026	20.17
288.494	18.17
288.962	11.07
289.429	10.87
289.897	18.37
290.364	13.87
290.832	20.37
291.3	22.27
291.767	19.17
292.234	18.27
292.702	14.77
293.169	17.47
293.637	24.17
294.104	21.87
294.571	13.97
295.039	17.97
295.506	16.47
295.973	19.07
296.44	16.67
296.908	17.97
297.375	23.97
297.842	21.47
298.309	21.77
298.776	16.97
299.243	23.87
299.71	18.47
300.177	21.27
300.644	22.57
301.111	22.37
301.578	27.57
302.045	16.07
302.512	24.57
302.979	23.57
303.446	27.47
303.913	25.17
304.379	18.97
304.846	26.57
305.313	20.67
305.78	27.47
306.246	27.87
306.713	31.57
307.18	25.67
307.646	29.17
308.113	30.47
308.579	30.37
309.046	35.47
309.512	28.67
309.979	19.37
310.445	31.47
310.912	29.27
311.378	34.37
311.845	29.77
312.311	33.37
312.777	37.17
313.244	35.47
313.71	37.87
314.176	32.97
314.642	35.87
315.109	38.07
315.575	34.67
316.041	37.07
316.507	36.07
316.973	40.57
317.439	35.07
317.905	39.47
318.371	41.47
318.837	33.37
319.303	41.77
319.769	36.17
320.235	36.97
320.701	39.07
321.167	37.27
321.633	38.67
322.099	43.07
322.564	45.97
323.03	45.07
323.496	37.07
323.962	37.97
324.427	41.27
324.893	46.27
325.359	44.87
325.824	36.67
326.29	38.27
326.755	39.27
327.221	41.77
327.686	45.37
328.152	47.57
328.617	45.77
329.083	47.67
329.548	51.67
330.014	52.97
330.479	38.07
330.944	40.97
331.41	46.47
331.875	48.57
332.34	46.07
332.805	44.57
333.271	46.37
333.736	47.47
334.201	58.87
334.666	55.27
335.131	55.27
335.596	54.57
336.061	51.27
336.526	48.27
336.991	44.87
337.456	54.77
337.921	50.57
338.386	46.17
338.851	47.67
339.316	47.27
339.781	47.57
340.246	50.27
340.711	51.17
341.175	48.77
341.64	48.07
342.105	56.07
342.569	65.17
343.034	58.07
343.499	51.67
343.963	52.47
344.428	64.07
344.893	62.67
345.357	66.67
345.822	56.17
346.286	63.57
346.751	72.87
347.215	68.77
347.679	73.87
348.144	95.27
348.608	83.47
349.073	76.97
349.537	83.97
350.001	80.17
350.465	93.97
350.93	82.27
351.394	78.27
351.858	68.17
352.322	90.67
352.786	87.47
353.25	98.77
353.715	106.77
354.179	99.07
354.643	124.87
355.107	127.77
355.571	109.27
356.035	105.27
356.498	117.77
356.962	124.57
357.426	121.17
357.89	119.17
358.354	88.37
358.818	87.27
359.281	84.37
359.745	78.47
360.209	81.37
360.673	73.87
361.136	78.57
361.6	87.17
362.064	82.87
362.527	85.37
362.991	88.97
363.454	78.47
363.918	85.47
364.381	77.77
364.845	83.97
365.308	87.97
365.772	86.57
366.235	90.27
366.698	82.37
367.162	89.47
367.625	86.77
368.088	88.87
368.552	85.27
369.015	86.07
369.478	92.57
369.941	96.07
370.404	92.17
370.867	102.47
371.331	106.07
371.794	109.67
372.257	103.87
372.72	113.97
373.183	108.87
373.646	100.77
374.109	100.87
374.572	106.57
375.035	104.67
375.497	112.37
375.96	98.87
376.423	102.27
376.886	109.77
377.349	106.87
377.811	101.07
378.274	111.47
378.737	110.77
379.199	109.37
379.662	108.67
380.125	119.67
380.587	118.97
381.05	115.67
381.512	118.77
381.975	132.37
382.437	128.97
382.9	127.27
383.362	123.07
383.825	139.17
384.287	142.87
384.75	134.47
385.212	138.77
385.674	142.67
386.136	133.87
386.599	124.57
387.061	128.67
387.523	125.67
387.985	130.47
388.447	136.77
388.91	138.77
389.372	152.07
389.834	149.77
390.296	143.77
390.758	148.47
391.22	172.27
391.682	197.77
392.144	277.27
392.606	222.57
393.068	156.07
393.529	163.07
393.991	140.27
394.453	141.87
394.915	159.57
395.377	183.37
395.838	200.87
396.3	151.57
396.762	128.27
397.224	131.97
397.685	120.57
398.147	129.67
398.608	124.47
399.07	125.67
399.531	126.07
399.993	140.07
400.454	151.47
400.916	140.07
401.377	141.77
401.839	153.77
402.3	150.17
402.762	156.97
403.223	172.57
403.684	163.07
404.145	155.27
404.607	154.87
405.068	157.27
405.529	165.27
405.99	180.17
406.451	169.27
406.913	157.87
407.374	159.27
407.835	152.07
408.296	161.07
408.757	163.47
409.218	172.07
409.679	174.47
410.14	171.47
410.601	176.17
411.062	172.67
411.522	182.67
411.983	182.07
412.444	169.07
412.905	173.67
413.366	177.37
413.826	182.47
414.287	206.27
414.748	255.57
415.208	233.67
415.669	206.27
416.13	192.57
416.59	192.37
417.051	202.67
417.511	213.77
417.972	225.37
418.432	236.27
418.893	277.47
419.353	244.47
419.814	190.67
420.274	179.07
420.734	174.67
421.195	190.87
421.655	194.07
422.115	185.97
422.576	181.27
423.036	187.97
423.496	199.27
423.956	209.47
424.416	221.07
424.876	258.47
425.336	250.47
425.797	257.17
426.257	244.07
426.717	225.67
427.177	228.57
427.637	213.37
428.097	222.67
428.556	234.67
429.016	261.57
429.476	245.17
429.936	255.77
430.396	268.07
430.856	282.47
431.315	305.67
431.775	336.37
432.235	365.57
432.694	330.77
433.154	349.97
433.614	363.37
434.073	312.57
434.533	273.67
434.993	255.17
435.452	268.27
435.912	286.67
436.371	274.87
436.83	272.67
437.29	256.97
437.749	235.97
438.209	233.67
438.668	258.27
439.127	268.27
439.587	254.87
440.046	241.07
440.505	246.27
440.964	263.27
441.424	304.77
441.883	295.87
442.342	246.87
442.801	212.07
443.26	210.67
443.719	212.07
444.178	210.77
444.637	199.87
445.096	207.67
445.555	217.77
446.014	207.37
446.473	214.17
446.932	218.07
447.391	214.97
447.849	212.37
448.308	210.77
448.767	213.37
449.226	222.27
449.685	228.97
450.143	239.77
450.602	230.27
451.061	222.47
451.519	226.97
451.978	227.87
452.436	222.37
452.895	228.17
453.353	236.77
453.812	229.27
454.27	233.37
454.729	228.37
455.187	224.17
455.646	234.87
456.104	237.37
456.562	246.37
457.021	257.87
457.479	244.37
457.937	260.27
458.395	246.47
458.854	247.37
459.312	245.97
459.77	263.47
460.228	244.57
460.686	230.87
461.144	235.17
461.602	239.07
462.06	236.27
462.518	245.07
462.976	243.77
463.434	245.67
463.892	249.47
464.35	269.87
464.808	278.17
465.266	258.27
465.724	257.27
466.181	262.47
466.639	254.07
467.097	275.67
467.555	277.87
468.012	296.47
468.47	296.47
468.928	312.07
469.385	328.97
469.843	338.17
470.3	338.37
470.758	344.57
471.215	363.67
471.673	381.27
472.13	385.07
472.588	401.57
473.045	355.47
473.503	357.57
473.96	378.67
474.417	382.47
474.875	412.47
475.332	448.57
475.789	439.37
476.246	444.17
476.704	473.97
477.161	479.47
477.618	507.37
478.075	537.37
478.532	578.77
478.989	664.07
479.446	751.27
479.903	726.57
480.36	778.97
480.817	828.07
481.274	936.87
481.731	1033.07
482.188	1117.97
482.645	1246.47
483.102	1351.87
483.558	1479.77
484.015	1526.57
484.472	1511.47
484.929	1470.67
485.385	1413.27
485.842	1373.47
486.299	1305.17
486.755	1237.57
487.212	1038.97
487.668	890.57
488.125	821.87
488.582	753.77
489.038	711.67
489.494	686.57
489.951	662.87
490.407	641.57
490.864	627.07
491.32	614.57
491.776	616.57
492.233	619.17
492.689	583.37
493.145	574.17
493.602	568.77
494.058	586.97
494.514	583.97
494.97	604.37
495.426	625.87
495.882	598.17
496.338	586.07
496.794	605.47
497.251	600.37
497.707	607.67
498.163	608.57
498.618	622.97
499.074	618.47
499.53	646.77
499.986	651.27
500.442	620.07
500.898	599.07
501.354	595.67
501.809	604.17
502.265	622.27
502.721	627.47
503.177	641.97
503.632	638.47
504.088	647.97
504.543	676.67
504.999	670.17
505.455	629.47
505.91	607.67
506.366	602.87
506.821	601.37
507.277	606.67
507.732	603.67
508.187	589.77
508.643	599.57
509.098	607.07
509.553	624.77
510.009	628.87
510.464	638.47
510.919	658.97
511.375	665.77
511.83	671.07
512.285	695.07
512.74	722.77
513.195	748.67
513.65	734.77
514.105	742.87
514.56	739.77
515.015	748.67
515.47	779.67
515.925	754.97
516.38	754.67
516.835	746.37
517.29	747.27
517.745	743.67
518.2	716.37
518.655	715.17
519.109	707.77
519.564	709.87
520.019	706.57
520.474	690.97
520.928	690.67
521.383	687.47
521.838	687.87
522.292	675.67
522.747	680.87
523.201	672.07
523.656	664.57
524.11	655.17
524.565	664.07
525.019	646.87
525.474	665.67
525.928	668.17
526.382	671.97
526.837	673.07
527.291	666.37
527.745	659.87
528.2	670.77
528.654	654.37
529.108	661.77
529.562	661.47
530.016	660.17
530.47	658.37
530.925	659.47
531.379	665.27
531.833	674.77
532.287	659.37
532.741	670.47
533.195	669.07
533.649	672.77
534.103	683.77
534.556	679.87
535.01	677.87
535.464	665.97
535.918	681.07
536.372	679.07
536.826	687.07
537.279	665.37
537.733	676.77
538.187	678.87
538.64	679.57
539.094	693.37
539.548	689.97
540.001	680.17
540.455	691.97
540.908	686.37
541.362	701.17
541.815	709.37
542.269	723.57
542.722	722.67
543.175	728.77
543.629	726.57
544.082	743.77
544.536	744.57
544.989	739.77
545.442	755.57
545.895	740.67
546.349	747.17
546.802	751.07
547.255	740.07
547.708	762.17
548.161	764.67
548.614	780.27
549.067	784.97
549.52	769.37
549.973	775.57
550.426	761.87
550.879	752.87
551.332	755.97
551.785	757.07
552.238	753.67
552.691	774.87
553.144	782.57
553.596	797.67
554.049	814.17
554.502	831.97
554.955	855.47
555.407	853.37
555.86	853.47
556.313	833.57
556.765	826.27
557.218	831.37
557.67	829.47
558.123	824.37
558.576	827.37
559.028	824.77
559.48	833.87
559.933	824.37
560.385	787.17
560.838	768.37
561.29	737.87
561.742	742.37
562.195	706.97
562.647	708.27
563.099	732.77
563.551	719.07
564.004	737.17
564.456	721.77
564.908	720.17
565.36	692.97
565.812	687.27
566.264	676.57
566.716	676.17
567.168	670.57
567.62	675.07
568.072	651.07
568.524	649.07
568.976	645.27
569.428	625.07
569.88	632.97
570.332	633.47
570.784	638.07
571.235	636.47
571.687	649.47
572.139	645.07
572.59	666.47
573.042	662.97
573.494	663.47
573.945	671.77
574.397	631.07
574.849	633.67
575.3	640.47
575.752	634.67
576.203	641.07
576.655	632.87
577.106	615.27
577.557	618.57
578.009	618.07
578.46	616.67
578.912	613.37
579.363	614.27
579.814	620.27
580.265	619.07
580.717	623.77
581.168	627.27
581.619	622.67
582.07	636.87
582.521	625.17
582.972	618.17
583.423	625.37
583.875	632.87
584.326	650.27
584.777	689.97
585.227	752.97
585.678	843.07
586.129	922.37
586.58	983.17
587.031	1057.57
587.482	1215.87
587.933	1369.87
588.384	1201.77
588.834	895.47
589.285	745.77
589.736	721.47
590.186	708.67
590.637	707.67
591.088	687.77
591.538	677.37
591.989	670.67
592.439	670.57
592.89	660.57
593.34	660.57
593.791	653.57
594.241	651.17
594.692	654.27
595.142	639.07
595.593	640.57
596.043	649.97
596.493	654.97
596.943	656.17
597.394	662.47
597.844	644.97
598.294	662.57
598.744	681.37
599.195	713.97
599.645	750.97
600.095	776.67
600.545	829.67
600.995	883.47
601.445	940.17
601.895	986.17
602.345	1042.17
602.795	1015.57
603.245	974.87
603.695	918.47
604.145	871.67
604.594	836.27
605.044	786.07
605.494	723.07
605.944	688.37
606.393	681.37
606.843	666.47
607.293	662.37
607.743	665.47
608.192	678.07
608.642	691.17
609.091	697.47
609.541	692.47
609.99	695.87
610.44	694.87
610.889	645.57
611.339	643.07
611.788	617.17
612.238	625.37
612.687	650.77
613.136	649.57
613.586	670.17
614.035	659.47
614.484	683.67
614.933	681.47
615.383	672.37
615.832	676.37
616.281	658.77
616.73	620.87
617.179	601.37
617.628	593.07
618.077	569.27
618.526	562.47
618.975	555.17
619.424	557.77
619.873	545.47
620.322	553.47
620.771	551.37
621.22	547.97
621.669	533.07
622.118	523.37
622.567	517.97
623.015	519.67
623.464	513.37
623.913	504.97
624.361	495.87
624.81	502.07
625.259	499.07
625.707	502.07
626.156	499.57
626.604	504.37
627.053	503.37
627.501	517.97
627.95	511.37
628.398	528.57
628.847	511.17
629.295	508.87
629.744	506.27
630.192	512.47
630.64	512.27
631.089	506.17
631.537	514.77
631.985	519.67
632.433	527.37
632.881	530.87
633.33	576.37
633.778	561.27
634.226	511.57
634.674	503.87
635.122	520.47
635.57	538.07
636.018	549.37
636.466	512.67
636.914	491.67
637.362	512.27
637.81	517.77
638.258	518.77
638.705	513.97
639.153	541.17
639.601	542.57
640.049	570.57
640.497	602.17
640.944	620.67
641.392	572.67
641.84	542.47
642.287	521.37
642.735	500.57
643.182	508.77
643.63	518.07
644.078	512.97
644.525	528.17
644.973	530.47
645.42	541.07
645.867	552.07
646.315	568.57
646.762	589.57
647.21	626.27
647.657	637.57
648.104	673.07
648.551	693.17
648.999	745.77
649.446	811.37
649.893	886.77
650.34	1020.57
650.787	1223.77
651.234	1510.57
651.682	1958.27
652.129	2689.37
652.576	3855.77
653.023	5714.67
653.47	7870.17
653.917	9950.77
654.363	11606.97
654.81	13026.17
655.257	12371.17
655.704	7996.67
656.151	4714.37
656.598	3062.57
657.044	2168.17
657.491	1658.57
657.938	1323.47
658.385	1107.67
658.831	966.77
659.278	857.87
659.724	763.07
660.171	703.37
660.618	635.37
661.064	605.27
661.511	590.67
661.957	573.37
662.404	563.47
662.85	577.47
663.296	537.77
663.743	495.07
664.189	472.47
664.635	476.47
665.082	465.57
665.528	471.57
665.974	459.47
666.42	450.17
666.867	445.27
667.313	427.57
667.759	422.77
668.205	429.07
668.651	432.47
669.097	421.17
669.543	437.07
669.989	412.77
670.435	393.97
670.881	391.67
671.327	404.47
671.773	422.97
672.219	425.67
672.665	474.37
673.11	501.07
673.556	552.77
674.002	586.37
674.448	575.17
674.893	480.07
675.339	421.97
675.785	381.87
676.23	367.27
676.676	348.17
677.122	328.17
677.567	320.07
678.013	320.57
678.458	317.17
678.904	318.97
679.349	308.17
679.794	304.37
680.24	307.27
680.685	302.67
681.131	299.97
681.576	315.17
682.021	310.27
682.466	308.57
682.912	300.27
683.357	304.37
683.802	330.57
684.247	359.97
684.692	400.57
685.137	425.47
685.583	467.87
686.028	490.67
686.473	457.27
686.918	395.67
687.363	369.87
687.807	345.77
688.252	327.57
688.697	315.77
689.142	293.47
689.587	292.47
690.032	275.57
690.477	304.17
690.921	309.37
691.366	334.77
691.811	354.37
692.255	381.67
692.7	407.77
693.145	443.27
693.589	594.37
694.034	961.97
694.478	1334.47
694.923	1531.67
695.367	2016.37
695.812	1056.87
696.256	436.87
696.701	316.77
697.145	297.77
697.59	287.17
698.034	273.17
698.478	282.27
698.922	282.97
699.367	278.07
699.811	290.27
700.255	303.17
700.699	333.77
701.143	373.07
701.588	411.57
702.032	450.77
702.476	448.97
702.92	426.37
703.364	420.97
703.808	542.17
704.252	885.77
704.696	1256.47
705.14	1472.27
705.584	1892.97
706.027	940.77
706.471	462.67
706.915	344.27
707.359	305.87
707.803	278.47
708.246	269.97
708.69	267.57
709.134	275.97
709.577	268.87
710.021	274.87
710.465	267.87
710.908	254.87
711.352	259.27
711.795	270.57
712.239	292.07
712.682	329.97
713.126	358.17
713.569	414.17
714.012	327.27
714.456	279.97
714.899	260.87
715.342	237.27
715.786	223.07
716.229	222.37
716.672	227.77
717.115	213.77
717.558	216.07
718.002	210.67
718.445	230.37
718.888	245.17
719.331	251.07
719.774	266.67
720.217	260.07
720.66	239.87
721.103	237.17
721.546	224.27
721.989	217.77
722.432	201.87
722.874	204.77
723.317	201.07
723.76	200.57
724.203	217.27
724.645	271.27
725.088	373.67
725.531	489.27
725.974	567.67
726.416	483.97
726.859	265.27
727.301	213.17
727.744	214.47
728.187	206.17
728.629	205.87
729.071	217.57
729.514	219.67
729.956	227.37
730.399	235.17
730.841	253.67
731.283	232.57
731.726	230.97
732.168	219.67
732.61	236.17
733.053	241.57
733.495	272.47
733.937	308.77
734.379	346.67
734.821	376.87
735.263	458.97
735.705	705.37
736.148	1330.87
736.59	2216.37
737.032	2717.97
737.474	2204.17
737.916	698.67
738.357	363.47
738.799	281.27
739.241	259.67
739.683	239.57
740.125	252.57
740.567	256.37
741.008	272.57
741.45	267.47
741.892	268.87
742.334	304.27
742.775	309.27
743.217	302.97
743.658	233.97
744.1	219.87
744.542	217.47
744.983	271.17
745.425	304.77
745.866	300.27
746.307	248.87
746.749	245.67
747.19	277.97
747.632	381.47
748.073	733.07
748.514	1564.37
748.956	2490.17
749.397	3087.67
749.838	2568.27
750.279	2617.87
750.72	1317.87
751.162	464.37
751.603	284.67
752.044	224.47
752.485	181.47
752.926	180.77
753.367	174.17
753.808	162.37
754.249	169.27
754.69	156.17
755.131	161.87
755.572	152.87
756.013	156.17
756.453	158.37
756.894	158.27
757.335	161.67
757.776	170.27
758.216	169.47
758.657	167.07
759.098	174.67
759.538	193.47
759.979	228.37
760.42	318.67
760.86	590.17
761.301	1501.97
761.741	3764.87
762.182	5730.57
762.622	4039.27
763.063	1148.87
763.503	472.87
763.943	298.07
764.384	296.07
764.824	343.47
765.264	373.17
765.705	265.27
766.145	185.87
766.585	158.67
767.025	159.47
767.465	154.37
767.906	203.17
768.346	272.67
768.786	295.07
769.226	223.37
769.666	271.27
770.106	512.57
770.546	1308.07
770.986	2325.97
771.426	2110.77
771.866	694.67
772.306	284.27
772.745	179.07
773.185	150.87
773.625	152.97
774.065	141.57
774.505	164.77
774.944	255.87
775.384	559.27
775.824	1073.17
776.263	1050.87
776.703	444.37
777.142	191.37
777.582	135.77
778.021	116.27
778.461	118.57
778.9	119.87
779.34	120.37
779.779	101.47
780.219	94.07
780.658	96.27
781.097	95.87
781.537	98.27
781.976	96.17
782.415	88.47
782.855	84.57
783.294	91.47
783.733	86.57
784.172	93.37
784.611	91.17
785.05	94.57
785.489	102.27
785.928	98.17
786.367	108.27
786.806	103.77
787.245	116.57
787.684	116.87
788.123	131.37
788.562	111.17
789.001	105.37
789.44	106.97
789.879	100.37
790.317	106.27
790.756	111.77
791.195	105.67
791.634	116.57
792.072	164.27
792.511	299.57
792.95	836.07
793.388	1865.87
793.827	1744.47
794.265	582.47
794.704	240.07
795.142	169.67
795.581	127.17
796.019	113.97
796.458	108.27
796.896	104.97
797.334	112.17
797.773	130.97
798.211	182.07
798.649	363.27
799.087	871.37
799.526	1375.87
799.964	1732.87
800.402	1795.67
800.84	663.27
801.278	263.37
801.716	155.67
802.154	133.27
802.592	130.37
803.03	117.67
803.468	115.27
803.906	123.27
804.344	127.47
804.782	122.77
805.22	113.87
805.658	106.57
806.096	125.67
806.533	130.27
806.971	150.47
807.409	183.87
807.847	263.57
808.284	553.57
808.722	1566.77
809.16	2881.67
809.597	2661.97
810.035	4703.57
810.472	5221.77
810.91	1844.67
811.347	703.57
811.785	348.67
812.222	220.77
812.66	169.57
813.097	145.67
813.535	117.07
813.972	113.27
814.409	102.17
814.846	95.97
815.284	98.27
815.721	87.77
816.158	94.17
816.595	102.47
817.032	156.07
817.47	172.37
817.907	133.87
818.344	123.27
818.781	99.57
819.218	82.87
819.655	109.07
820.092	161.17
820.529	190.47
820.966	161.57
821.403	122.27
821.839	96.27
822.276	81.27
822.713	106.27
823.15	122.37
823.587	103.47
824.023	123.37
824.46	244.47
824.897	760.67
825.333	1200.07
825.77	516.67
826.206	203.57
826.643	114.37
827.08	83.17
827.516	69.57
827.953	64.97
828.389	67.07
828.825	58.87
829.262	58.17
829.698	54.17
830.135	52.97
830.571	58.07
831.007	53.97
831.443	56.97
831.88	49.77
832.316	56.37
832.752	63.07
833.188	52.17
833.624	53.87
834.06	57.47
834.497	57.77
834.933	56.47
835.369	69.17
835.805	52.87
836.241	65.97
836.677	61.57
837.112	75.97
837.548	92.57
837.984	116.37
838.42	173.17
838.856	413.77
839.292	1303.87
839.727	2056.17
840.163	942.27
840.599	779.17
841.034	1743.67
841.47	1917.87
841.906	691.67
842.341	287.57
842.777	195.87
843.212	270.87
843.648	274.07
844.083	130.27
844.519	82.47
844.954	63.37
845.39	42.07
845.825	44.67
846.261	45.07
846.696	47.67
847.131	44.27
847.566	48.97
848.002	41.57
848.437	51.07
848.872	59.47
849.307	51.97
849.742	71.97
850.177	154.37
850.613	472.67
851.048	782.77
851.483	334.07
851.918	134.67
852.353	70.87
852.788	50.77
853.223	46.37
853.657	46.87
854.092	44.57
854.527	29.77
854.962	35.17
855.397	36.07
855.832	44.57
856.266	34.17
856.701	32.97
857.136	29.57
857.57	33.37
858.005	41.07
858.44	47.57
858.874	38.27
859.309	43.77
859.743	31.97
860.178	36.77
860.612	30.07
861.047	48.57
861.481	60.87
861.915	59.97
862.35	46.07
862.784	29.57
863.218	32.97
863.653	28.77
864.087	36.67
864.521	45.77
864.955	57.07
865.39	132.67
865.824	151.77
866.258	96.07
866.692	148.67
867.126	151.87
867.56	96.57
867.994	45.87
868.428	31.77
868.862	41.37
869.296	45.67
869.73	47.67
870.164	46.97
870.598	45.37
871.031	27.17
871.465	26.27
871.899	31.67
872.333	19.27
872.766	22.97
873.2	21.37
873.634	25.07
874.067	19.77
874.501	20.57
874.935	27.07
875.368	28.07
875.802	24.47
876.235	22.07
876.669	23.07
877.102	16.47
877.535	22.07
877.969	16.37
878.402	24.37
878.836	17.37
879.269	20.87
879.702	15.17
880.135	18.27
880.569	22.77
881.002	22.17
881.435	13.87
881.868	15.07
882.301	16.57
882.734	11.27
883.167	21.17
883.601	10.27
884.034	20.17
884.467	11.47
884.899	19.07
885.332	19.47
885.765	14.77
886.198	13.07
886.631	16.67
887.064	17.27
887.497	17.07
887.929	22.37
888.362	6.97
888.795	9.57
889.228	14.87
889.66	17.17
890.093	20.57
890.526	14.07
890.958	16.17
891.391	15.87
891.823	17.27
892.256	13.97
892.688	8.87
893.121	13.17
893.553	13.37
893.985	22.47
894.418	18.97
894.85	14.97
895.282	7.67
895.715	13.37
896.147	16.37
896.579	13.27
897.011	12.97
897.444	18.87
897.876	15.67
898.308	15.47
898.74	17.07
899.172	15.27
899.604	20.97
900.036	18.17
900.468	14.87
900.9	12.87
901.332	14.87
901.764	4.17
902.196	13.67
902.628	17.17
903.06	15.97
903.491	26.17
903.923	13.07
904.355	14.67
904.787	18.37
905.218	17.37
905.65	20.47
906.082	9.07
906.513	9.77
906.945	9.27
907.376	7.37
907.808	16.97
908.239	22.97
908.671	13.67
909.102	15.77
909.534	21.67
909.965	42.87
910.397	79.37
910.828	269.47
911.259	431.67
911.691	191.67
912.122	88.87
912.553	41.37
912.984	26.07
913.415	25.47
913.847	21.27
914.278	11.57
914.709	15.87
915.14	15.37
915.571	17.57
916.002	9.97
916.433	20.47
916.864	20.57
917.295	13.77
917.726	23.17
918.157	17.17
918.587	27.67
919.018	16.37
919.449	16.87
919.88	25.57
920.311	25.37
920.741	37.67
921.172	145.37
921.603	136.17
922.033	58.77
922.464	37.97
922.895	20.77
923.325	19.97
923.756	14.17
924.186	14.07
924.617	23.17
925.047	39.17
925.478	47.27
925.908	38.57
926.338	21.27
926.769	13.37
927.199	16.47
927.629	11.07
928.06	12.67
928.49	11.77
928.92	11.37
929.35	10.07
929.78	11.57
930.21	10.17
930.641	9.67
931.071	1.97
931.501	4.77
931.931	8.37
932.361	7.27
932.791	5.87
933.221	6.17
933.651	-0.13
934.08	21.87
934.51	28.17
934.94	9.27
935.37	9.47
935.8	6.27
936.229	1.87
936.659	11.07
937.089	3.67
937.519	8.27
937.948	24.87
938.378	14.87
938.807	2.07
939.237	5.97
939.666	4.87
940.096	-2.73
940.525	1.07
940.955	3.67
941.384	1.77
941.814	-9.93
942.243	-1.33
942.672	0.97
943.102	2.87
943.531	0.67
943.96	2.87
944.39	-2.33
944.819	4.97
945.248	2.97
945.677	9.17
946.106	4.67
946.535	6.47
946.964	-2.33
947.393	1.17
947.822	2.57
948.251	-6.93
948.68	5.47
949.109	5.77
949.538	7.57
949.967	1.77
950.396	-1.33
950.825	-1.83
951.254	-4.93
951.682	-8.13
952.111	0.87
952.54	8.77
952.969	-5.23
953.397	-4.23
953.826	-0.93
954.254	-6.23
954.683	-1.83
955.112	-9.63
955.54	-1.53
955.969	-2.03
956.397	0.47
956.826	-0.13
957.254	4.27
957.682	9.07
958.111	3.87
958.539	4.77
958.967	2.97
959.396	-2.33
959.824	5.67
960.252	4.67
960.68	-11.73
961.109	-5.03
961.537	-8.13
961.965	1.07
962.393	1.17
962.821	-0.73
963.249	5.57
963.677	7.07
964.105	1.07
964.533	32.97
964.961	41.07
965.389	15.07
965.817	8.27
966.245	5.77
966.672	5.47
967.1	-3.83
967.528	0.57
967.956	-1.33
968.383	-5.73
968.811	-4.93
969.239	4.07
969.666	1.67
970.094	5.47
970.522	-0.73
970.949	-2.83
971.377	-11.33
971.804	-6.83
972.232	-6.13
972.659	5.47
973.087	-2.23
973.514	-2.23
973.941	-6.93
974.369	1.97
974.796	3.17
975.223	-2.03
975.651	-1.43
976.078	-0.93
976.505	-0.93
976.932	6.17
977.359	8.17
977.786	9.67
978.214	2.77
978.641	-7.63
979.068	-5.73
979.495	-1.03
979.922	-4.13
980.349	0.47
980.776	4.27
981.202	1.67
981.629	2.27
982.056	7.87
982.483	-8.03
982.91	-0.73
983.337	-5.43
983.763	4.67
984.19	-3.13
984.617	-3.43
985.043	-3.13
985.47	1.57
985.897	0.57
986.323	-1.73
986.75	-0.43
987.176	4.57
987.603	1.67
988.029	-2.33
988.456	-4.23
988.882	1.67
989.308	-5.23
989.735	1.37
990.161	6.77
990.587	-3.53
991.014	-1.63
991.44	8.57
991.866	-5.13
992.292	-6.83
992.719	-4.33
993.145	4.37
993.571	-3.33
993.997	1.07
994.423	2.97
994.849	-1.83
995.275	-2.03
995.701	7.57
996.127	-1.23
996.553	-3.73
996.979	-5.03
997.405	-2.03
997.83	-8.53
998.256	-6.13
998.682	-8.43
999.108	-7.73
999.534	2.67
999.959	-2.33
1000.385	1.17
1000.811	-1.33
1001.236	-3.43
1001.662	-10.63
1002.087	-8.93
1002.513	-1.83
1002.938	2.07
1003.364	-0.73
1003.789	-2.13
1004.215	2.37
1004.64	-5.23
1005.066	3.37
1005.491	0.77
1005.916	-5.13
1006.342	-5.33
1006.767	-11.23
1007.192	0.47
1007.617	-7.83
1008.042	-0.13
1008.468	-6.13
1008.893	-4.93
1009.318	-7.13
1009.743	-3.13
1010.168	3.17
1010.593	1.57
1011.018	-8.23
1011.443	-6.53
1011.868	2.37
1012.293	0.07
1012.718	-8.43
1013.143	-2.53
1013.567	3.37
1013.992	-4.83
1014.417	-11.63
1014.842	0.07
1015.267	-6.33
1015.691	-4.03
1016.116	2.17
1016.541	-3.33
1016.965	-0.33
1017.39	1.17
1017.814	0.27
1018.239	-8.03
1018.663	-10.33
1019.088	-8.73
1019.512	-6.93
1019.937	-4.03
1020.361	-5.33
1020.785	-9.63
1021.21	0.27
1021.634	-7.13
1022.058	-3.13
1022.483	2.77
1022.907	-3.73
1023.331	-5.53
1023.755	-5.93
1024.179	0.27
1024.604	-6.63
1025.028	-7.13
1025.452	-5.63
1025.876	-3.93
1026.3	3.07
1026.724	-13.73
1027.148	-4.33
1027.572	-13.83
1027.996	-5.73
1028.42	-1.83
1028.843	-3.33
1029.267	-1.73
1029.691	-1.23
1030.115	-4.03
1030.539	-11.43
1030.962	-8.03
1031.386	-10.13
1031.81	2.37
1032.233	4.47
1032.657	-0.53
1033.08	-1.83
1033.504	-4.53
1033.927	-5.03
1034.351	1.07
1034.774	-4.43
1035.198	-1.73
1035.621	-7.73
1036.045	-11.13
1036.468	1.97
1036.891	-6.73
1037.315	-9.53
1037.738	-9.53
1038.161	-3.43
1038.584	-5.93
1039.008	-5.83
1039.431	-3.83
1039.854	-4.03
1040.277	-3.23
1040.7	-10.33
1041.123	0.37
1041.546	-7.83
1041.969	-6.43
1042.392	-5.53
1042.815	2.57
1043.238	-0.23
1043.661	3.87
1044.084	-3.33
1044.507	0.97
1044.93	0.37
1045.352	-5.63
1045.775	-6.73
1046.198	-5.53
1046.621	2.17
1047.043	-0.83
1047.466	4.97
1047.889	0.47
1048.311	-4.53
1048.734	-12.43
1049.156	-5.33
1049.579	0.07
1050.001	-1.63
1050.424	2.47
1050.846	-5.83
1051.269	-2.43
1051.691	-5.83
1052.113	-6.63
1052.536	0.97
1052.958	1.07
1053.38	-5.23
1053.802	-11.23
1054.225	-1.23
1054.647	-8.43
1055.069	-1.43
1055.491	-0.63
1055.913	-9.33
1056.335	0.07
1056.757	-8.43
1057.179	-10.93
1057.601	-7.13
1058.023	-3.03
1058.445	-8.73
1058.867	-7.63
1059.289	-5.93
1059.711	-8.63
1060.133	-2.63
1060.555	-5.33
1060.976	-6.33
1061.398	-3.43
1061.82	-4.83
1062.241	-4.23
1062.663	-11.93
1063.085	-8.23
1063.506	-1.03
1063.928	-0.93
1064.35	-0.63
1064.771	-9.63
1065.193	-6.73
1065.614	-8.53
1066.035	-7.43
1066.457	-0.73
1066.878	-3.23
1067.3	-7.83
1067.721	0.67
1068.142	-7.53
1068.564	-5.33
1068.985	-0.83
1069.406	-9.43
1069.827	-6.03
1070.248	1.17
1070.67	-7.73
1071.091	-8.83
1071.512	-6.03
1071.933	-6.83
1072.354	-11.43
1072.775	-9.93
1073.196	-9.23
1073.617	-8.13
1074.038	-8.83
1074.459	-6.13
1074.88	-9.43
1075.3	2.47
1075.721	-9.73
1076.142	1.07
1076.563	-5.33
1076.983	-13.03
1077.404	-5.73
1077.825	-6.33
1078.246	-6.83
1078.666	-7.93
1079.087	-1.23
1079.507	-12.83
1079.928	-0.43
1080.348	2.27
1080.769	-4.93
1081.189	1.27
1081.61	2.17
1082.03	-5.03
1082.451	-7.83
1082.871	-3.63
1083.291	-1.73
1083.711	-4.03
1084.132	-2.43
1084.552	-2.23
1084.972	-4.43
1085.392	-9.23
1085.813	-5.73
1086.233	-8.23
1086.653	-9.33
1087.073	-4.43
1087.493	-4.93
1087.913	-3.43
1088.333	-6.83
1088.753	-5.23
1089.173	-5.33
1089.593	-6.43
1090.013	-3.03
1090.433	-2.43
1090.852	-1.53
1091.272	-2.23
1091.692	-5.23
1092.112	-5.73
1092.531	-1.83
1092.951	-13.53
1093.371	-6.63
1093.79	-2.33
1094.21	-4.63
1094.63	-8.93
1095.049	-9.03
1095.469	-3.23
1095.888	-0.03
1096.308	-0.13
1096.727	0.97
1097.146	0.67
1097.566	-0.33
1097.985	-1.53
1098.405	0.37
1098.824	-5.83
1099.243	-10.73
1099.662	-1.53
1100.082	-8.53
1100.501	-4.03
1100.92	-4.63
1101.339	-5.43
1101.758	-4.33
