Data from 20171114-ORNL-Ar_H_NY_Subt18_08-08-45-985.txt Node
Date: Tue Nov 14 08:08:45 EST 2017
User: Ender
Spectrometer: HR+D1039
Trigger mode: 0
Integration Time (sec): 2.730000E-2
Scans to average: 10
Electric dark correction enabled: true
Nonlinearity correction enabled: false
Boxcar width: 0
XAxis mode: Wavelengths
Number of Pixels in Spectrum: 2048
>>>>>Begin Spectral Data<<<<<
187.836	-0.34
188.309	-0.34
188.782	-0.34
189.255	4.56
189.728	2.06
190.201	8.36
190.674	1.36
191.147	1.86
191.619	-13.94
192.092	1.66
192.565	-1.04
193.038	0.46
193.511	2.86
193.984	-1.64
194.456	3.46
194.929	-2.84
195.402	-2.84
195.874	-4.04
196.347	0.96
196.82	-10.34
197.292	3.66
197.765	1.56
198.237	-2.64
198.71	-3.54
199.182	-2.64
199.655	6.06
200.127	0.56
200.6	1.36
201.072	-4.24
201.544	-4.04
202.017	-3.14
202.489	1.76
202.961	-1.24
203.433	-5.04
203.906	0.76
204.378	-10.14
204.85	-11.54
205.322	-7.84
205.794	-2.84
206.266	-5.34
206.739	-6.34
207.211	-1.74
207.683	-8.44
208.155	-7.04
208.627	-9.44
209.099	-6.14
209.57	-11.14
210.042	-1.94
210.514	-5.04
210.986	-6.44
211.458	-12.04
211.93	-9.44
212.402	-1.04
212.873	-9.04
213.345	-11.74
213.817	-13.14
214.288	1.06
214.76	-15.94
215.232	-9.44
215.703	-2.94
216.175	-7.74
216.646	-7.14
217.118	-9.24
217.589	0.66
218.061	-8.34
218.532	-1.04
219.004	-4.34
219.475	-7.94
219.946	1.76
220.418	-7.54
220.889	-0.04
221.36	1.96
221.832	-1.54
222.303	-13.44
222.774	-2.44
223.245	-3.14
223.717	-5.44
224.188	-3.44
224.659	-8.04
225.13	-5.74
225.601	-0.94
226.072	5.16
226.543	-0.14
227.014	6.86
227.485	-3.54
227.956	-6.94
228.427	-4.84
228.898	-1.74
229.369	3.06
229.839	-9.84
230.31	-3.24
230.781	-3.34
231.252	-10.54
231.722	-9.44
232.193	-2.14
232.664	-4.14
233.135	-3.14
233.605	-5.04
234.076	-13.54
234.546	-2.44
235.017	-0.04
235.487	2.06
235.958	-1.14
236.428	-11.44
236.899	-5.34
237.369	-3.54
237.84	-6.64
238.31	1.96
238.78	-0.64
239.251	-8.34
239.721	-3.14
240.191	-2.94
240.662	-2.74
241.132	-2.84
241.602	-7.64
242.072	-0.44
242.542	4.66
243.013	-5.04
243.483	-3.74
243.953	6.86
244.423	0.36
244.893	-4.04
245.363	2.16
245.833	2.96
246.303	-7.74
246.773	0.96
247.243	3.66
247.712	-3.34
248.182	8.36
248.652	-2.84
249.122	-3.64
249.592	-1.74
250.061	4.16
250.531	15.66
251.001	-1.14
251.471	13.06
251.94	6.16
252.41	-0.24
252.879	-4.14
253.349	9.36
253.818	1.46
254.288	1.86
254.757	0.36
255.227	-5.94
255.696	1.86
256.166	-2.54
256.635	0.86
257.105	4.16
257.574	0.16
258.043	2.36
258.513	-0.74
258.982	3.86
259.451	0.66
259.92	0.36
260.389	5.16
260.859	10.46
261.328	3.26
261.797	7.36
262.266	-1.64
262.735	5.46
263.204	4.46
263.673	-2.04
264.142	3.06
264.611	-5.24
265.08	-5.74
265.549	-4.64
266.018	6.56
266.487	-1.64
266.955	-5.44
267.424	-2.94
267.893	0.66
268.362	0.86
268.83	2.16
269.299	7.56
269.768	0.76
270.236	4.26
270.705	4.56
271.174	2.66
271.642	9.16
272.111	0.06
272.579	7.86
273.048	8.16
273.516	10.76
273.985	6.96
274.453	13.26
274.922	9.46
275.39	4.56
275.858	1.06
276.327	3.06
276.795	8.86
277.263	8.16
277.731	15.76
278.2	19.46
278.668	19.86
279.136	17.06
279.604	7.66
280.072	3.86
280.54	4.26
281.008	2.96
281.477	12.26
281.945	6.96
282.413	7.86
282.881	15.16
283.348	-3.94
283.816	6.66
284.284	16.16
284.752	16.66
285.22	7.86
285.688	7.66
286.156	11.76
286.623	21.06
287.091	20.16
287.559	12.96
288.026	7.46
288.494	11.26
288.962	-2.74
289.429	5.76
289.897	11.16
290.364	10.36
290.832	10.06
291.3	8.06
291.767	9.36
292.234	16.66
292.702	6.56
293.169	10.56
293.637	16.96
294.104	10.56
294.571	4.16
295.039	6.36
295.506	18.36
295.973	16.06
296.44	8.66
296.908	9.46
297.375	8.86
297.842	16.26
298.309	13.86
298.776	7.16
299.243	13.46
299.71	7.16
300.177	14.26
300.644	14.76
301.111	15.16
301.578	22.86
302.045	13.16
302.512	12.96
302.979	16.86
303.446	13.96
303.913	10.86
304.379	18.56
304.846	24.16
305.313	16.06
305.78	15.36
306.246	22.16
306.713	17.96
307.18	22.16
307.646	15.36
308.113	16.46
308.579	13.96
309.046	15.46
309.512	21.06
309.979	7.56
310.445	17.16
310.912	22.86
311.378	26.36
311.845	23.46
312.311	26.66
312.777	20.06
313.244	22.66
313.71	31.96
314.176	19.26
314.642	20.76
315.109	23.96
315.575	24.66
316.041	29.66
316.507	30.96
316.973	25.96
317.439	31.86
317.905	25.66
318.371	30.26
318.837	24.96
319.303	25.76
319.769	21.36
320.235	21.36
320.701	31.76
321.167	30.66
321.633	27.46
322.099	36.36
322.564	32.46
323.03	27.66
323.496	27.66
323.962	33.56
324.427	25.46
324.893	36.86
325.359	25.06
325.824	27.96
326.29	25.96
326.755	33.86
327.221	31.76
327.686	32.06
328.152	39.96
328.617	32.86
329.083	34.76
329.548	46.96
330.014	42.76
330.479	35.56
330.944	40.76
331.41	36.26
331.875	35.66
332.34	35.66
332.805	38.96
333.271	37.96
333.736	34.46
334.201	40.26
334.666	36.96
335.131	47.46
335.596	40.76
336.061	32.56
336.526	28.76
336.991	39.96
337.456	54.56
337.921	38.46
338.386	38.36
338.851	38.76
339.316	42.36
339.781	42.36
340.246	50.76
340.711	37.36
341.175	48.26
341.64	45.16
342.105	41.86
342.569	44.06
343.034	46.76
343.499	47.66
343.963	47.96
344.428	47.66
344.893	52.56
345.357	55.46
345.822	52.16
346.286	55.46
346.751	62.96
347.215	54.36
347.679	64.66
348.144	78.46
348.608	70.06
349.073	62.36
349.537	60.56
350.001	67.46
350.465	69.96
350.93	65.96
351.394	69.16
351.858	62.66
352.322	73.06
352.786	65.06
353.25	85.46
353.715	88.26
354.179	82.66
354.643	106.66
355.107	100.96
355.571	85.36
356.035	91.06
356.498	98.66
356.962	103.16
357.426	106.66
357.89	94.06
358.354	78.56
358.818	75.26
359.281	70.26
359.745	70.46
360.209	64.36
360.673	68.36
361.136	73.76
361.6	74.86
362.064	69.86
362.527	75.26
362.991	83.96
363.454	78.86
363.918	69.96
364.381	67.76
364.845	66.76
365.308	75.46
365.772	76.76
366.235	80.66
366.698	77.56
367.162	73.86
367.625	76.06
368.088	77.16
368.552	81.66
369.015	77.86
369.478	89.36
369.941	91.96
370.404	81.56
370.867	92.96
371.331	91.86
371.794	96.96
372.257	92.56
372.72	102.86
373.183	91.66
373.646	87.26
374.109	89.66
374.572	94.66
375.035	98.06
375.497	88.76
375.96	102.46
376.423	94.46
376.886	105.86
377.349	99.26
377.811	95.56
378.274	102.36
378.737	99.76
379.199	99.66
379.662	98.26
380.125	104.16
380.587	97.66
381.05	105.36
381.512	102.66
381.975	118.26
382.437	118.96
382.9	114.46
383.362	115.86
383.825	121.76
384.287	121.86
384.75	113.26
385.212	120.86
385.674	122.16
386.136	127.66
386.599	115.36
387.061	112.26
387.523	116.96
387.985	121.36
388.447	134.06
388.91	127.86
389.372	133.16
389.834	130.36
390.296	130.56
390.758	128.76
391.22	144.26
391.682	167.66
392.144	196.86
392.606	172.56
393.068	144.86
393.529	151.66
393.991	135.46
394.453	129.56
394.915	141.86
395.377	151.06
395.838	163.56
396.3	134.76
396.762	136.56
397.224	133.86
397.685	125.66
398.147	120.46
398.608	126.66
399.07	127.86
399.531	132.76
399.993	143.06
400.454	148.56
400.916	143.66
401.377	136.36
401.839	144.16
402.3	149.06
402.762	164.96
403.223	174.96
403.684	160.36
404.145	157.06
404.607	156.06
405.068	161.16
405.529	159.46
405.99	179.96
406.451	171.86
406.913	177.06
407.374	161.16
407.835	158.56
408.296	162.86
408.757	166.06
409.218	182.36
409.679	173.46
410.14	168.46
410.601	174.46
411.062	179.16
411.522	180.66
411.983	180.16
412.444	173.26
412.905	181.86
413.366	179.76
413.826	185.66
414.287	215.46
414.748	259.06
415.208	245.66
415.669	213.36
416.13	204.86
416.59	200.76
417.051	218.86
417.511	221.46
417.972	240.46
418.432	255.66
418.893	285.46
419.353	252.26
419.814	199.26
420.274	182.06
420.734	180.76
421.195	192.36
421.655	184.36
422.115	194.66
422.576	196.86
423.036	202.76
423.496	206.56
423.956	213.26
424.416	232.56
424.876	267.16
425.336	263.16
425.797	257.46
426.257	253.16
426.717	238.66
427.177	234.76
427.637	221.56
428.097	235.16
428.556	243.76
429.016	264.66
429.476	258.96
429.936	266.06
430.396	273.26
430.856	288.96
431.315	312.86
431.775	344.76
432.235	374.36
432.694	338.46
433.154	357.56
433.614	386.96
434.073	328.96
434.533	277.66
434.993	266.36
435.452	275.76
435.912	288.36
436.371	276.46
436.83	271.36
437.29	268.96
437.749	237.86
438.209	245.46
438.668	266.06
439.127	283.26
439.587	254.86
440.046	241.96
440.505	257.56
440.964	269.76
441.424	312.46
441.883	298.16
442.342	263.96
442.801	228.66
443.26	216.26
443.719	222.56
444.178	220.76
444.637	206.36
445.096	223.26
445.555	231.26
446.014	225.06
446.473	229.36
446.932	237.26
447.391	239.36
447.849	231.56
448.308	225.66
448.767	223.96
449.226	234.16
449.685	241.96
450.143	254.86
450.602	239.26
451.061	231.76
451.519	234.06
451.978	238.26
452.436	239.06
452.895	240.36
453.353	251.26
453.812	247.96
454.27	243.46
454.729	247.76
455.187	245.16
455.646	249.26
456.104	253.36
456.562	261.26
457.021	271.36
457.479	260.66
457.937	281.56
458.395	267.66
458.854	253.26
459.312	255.66
459.77	280.86
460.228	255.46
460.686	250.16
461.144	247.16
461.602	256.86
462.06	247.86
462.518	258.46
462.976	265.16
463.434	263.16
463.892	269.56
464.35	282.16
464.808	298.26
465.266	270.16
465.724	279.96
466.181	271.16
466.639	271.36
467.097	293.96
467.555	299.06
468.012	304.56
468.47	310.06
468.928	334.26
469.385	344.46
469.843	358.36
470.3	352.36
470.758	369.16
471.215	390.96
471.673	415.46
472.13	406.36
472.588	420.26
473.045	381.66
473.503	390.16
473.96	404.16
474.417	409.26
474.875	438.86
475.332	479.06
475.789	468.96
476.246	481.86
476.704	485.56
477.161	512.76
477.618	524.96
478.075	568.76
478.532	618.26
478.989	687.06
479.446	794.26
479.903	761.76
480.36	795.46
480.817	851.56
481.274	937.46
481.731	1032.16
482.188	1104.16
482.645	1229.56
483.102	1322.36
483.558	1443.26
484.015	1498.76
484.472	1459.26
484.929	1432.66
485.385	1383.16
485.842	1339.36
486.299	1302.36
486.755	1253.56
487.212	1060.96
487.668	907.56
488.125	838.86
488.582	774.76
489.038	738.86
489.494	704.76
489.951	686.76
490.407	656.36
490.864	643.96
491.32	641.26
491.776	648.46
492.233	650.36
492.689	625.66
493.145	611.16
493.602	607.36
494.058	618.86
494.514	615.56
494.97	642.76
495.426	654.66
495.882	626.26
496.338	619.56
496.794	625.26
497.251	620.26
497.707	642.06
498.163	633.36
498.618	645.56
499.074	646.46
499.53	675.96
499.986	674.56
500.442	651.56
500.898	632.66
501.354	626.46
501.809	635.56
502.265	646.56
502.721	651.76
503.177	660.76
503.632	650.16
504.088	659.76
504.543	692.96
504.999	709.16
505.455	660.26
505.91	642.16
506.366	634.56
506.821	640.46
507.277	642.56
507.732	640.76
508.187	641.66
508.643	646.86
509.098	651.06
509.553	668.86
510.009	675.56
510.464	686.56
510.919	711.86
511.375	714.16
511.83	722.26
512.285	734.76
512.74	760.16
513.195	790.36
513.65	778.26
514.105	767.46
514.56	772.36
515.015	801.16
515.47	819.56
515.925	796.16
516.38	793.46
516.835	799.76
517.29	786.26
517.745	787.06
518.2	778.16
518.655	764.96
519.109	755.76
519.564	749.06
520.019	739.86
520.474	739.26
520.928	740.06
521.383	729.16
521.838	722.76
522.292	725.86
522.747	716.16
523.201	729.56
523.656	716.56
524.11	718.86
524.565	708.46
525.019	704.96
525.474	718.46
525.928	701.06
526.382	708.46
526.837	706.76
527.291	719.86
527.745	709.66
528.2	710.06
528.654	702.76
529.108	697.86
529.562	703.76
530.016	704.76
530.47	700.06
530.925	700.06
531.379	702.36
531.833	714.16
532.287	714.56
532.741	712.56
533.195	711.26
533.649	720.36
534.103	726.86
534.556	719.86
535.01	714.26
535.464	714.06
535.918	720.86
536.372	732.86
536.826	731.16
537.279	719.46
537.733	717.06
538.187	724.56
538.64	734.16
539.094	739.96
539.548	736.56
540.001	738.36
540.455	746.26
540.908	748.16
541.362	752.66
541.815	765.96
542.269	779.16
542.722	784.06
543.175	782.16
543.629	778.16
544.082	803.56
544.536	808.76
544.989	807.56
545.442	805.06
545.895	810.36
546.349	809.66
546.802	808.66
547.255	807.06
547.708	822.76
548.161	830.76
548.614	848.86
549.067	843.66
549.52	834.46
549.973	837.16
550.426	822.86
550.879	818.06
551.332	822.26
551.785	830.46
552.238	828.46
552.691	846.96
553.144	849.76
553.596	863.66
554.049	887.46
554.502	919.36
554.955	928.06
555.407	925.06
555.86	918.16
556.313	910.06
556.765	903.96
557.218	902.76
557.67	899.56
558.123	889.46
558.576	895.76
559.028	892.76
559.48	900.66
559.933	893.86
560.385	858.86
560.838	835.96
561.29	806.66
561.742	798.26
562.195	782.76
562.647	790.86
563.099	789.26
563.551	800.96
564.004	804.66
564.456	781.76
564.908	782.46
565.36	762.56
565.812	752.76
566.264	737.36
566.716	736.76
567.168	726.66
567.62	739.26
568.072	712.36
568.524	708.36
568.976	708.36
569.428	691.16
569.88	694.36
570.332	705.46
570.784	704.86
571.235	707.76
571.687	711.16
572.139	716.06
572.59	729.96
573.042	731.26
573.494	729.76
573.945	720.26
574.397	705.76
574.849	712.66
575.3	711.06
575.752	706.26
576.203	689.36
576.655	699.66
577.106	685.36
577.557	688.36
578.009	680.46
578.46	685.16
578.912	680.86
579.363	683.16
579.814	685.56
580.265	679.06
580.717	675.76
581.168	693.06
581.619	692.36
582.07	702.76
582.521	693.46
582.972	690.56
583.423	699.26
583.875	692.66
584.326	713.76
584.777	739.86
585.227	787.36
585.678	820.96
586.129	853.26
586.58	895.16
587.031	945.46
587.482	1014.56
587.933	1109.56
588.384	1013.06
588.834	875.96
589.285	813.36
589.736	792.66
590.186	793.46
590.637	784.66
591.088	762.46
591.538	755.96
591.989	744.76
592.439	755.36
592.89	739.06
593.34	724.96
593.791	720.86
594.241	730.06
594.692	721.76
595.142	720.66
595.593	719.56
596.043	726.16
596.493	731.96
596.943	718.36
597.394	760.46
597.844	735.76
598.294	755.26
598.744	780.56
599.195	809.26
599.645	846.66
600.095	891.26
600.545	958.56
600.995	994.76
601.445	1056.86
601.895	1116.86
602.345	1169.36
602.795	1145.76
603.245	1096.56
603.695	1048.06
604.145	994.56
604.594	946.66
605.044	899.26
605.494	833.86
605.944	781.86
606.393	762.36
606.843	751.56
607.293	751.16
607.743	757.36
608.192	770.16
608.642	783.56
609.091	777.46
609.541	796.06
609.99	780.46
610.44	779.26
610.889	736.36
611.339	722.76
611.788	715.56
612.238	722.66
612.687	730.76
613.136	723.76
613.586	742.26
614.035	723.46
614.484	755.96
614.933	744.96
615.383	743.16
615.832	730.26
616.281	724.96
616.73	694.26
617.179	682.96
617.628	661.16
618.077	643.96
618.526	636.86
618.975	628.66
619.424	623.76
619.873	626.96
620.322	631.26
620.771	621.96
621.22	618.96
621.669	617.26
622.118	602.26
622.567	599.26
623.015	587.16
623.464	587.86
623.913	578.66
624.361	578.16
624.81	574.06
625.259	577.96
625.707	565.16
626.156	576.36
626.604	584.06
627.053	580.16
627.501	586.36
627.95	584.36
628.398	600.16
628.847	576.16
629.295	592.06
629.744	595.36
630.192	578.76
630.64	589.46
631.089	569.76
631.537	572.66
631.985	569.56
632.433	581.26
632.881	577.06
633.33	586.56
633.778	582.96
634.226	559.06
634.674	575.06
635.122	574.76
635.57	587.36
636.018	599.76
636.466	594.46
636.914	572.86
637.362	589.86
637.81	593.86
638.258	597.36
638.705	596.16
639.153	634.16
639.601	638.56
640.049	669.66
640.497	697.46
640.944	715.36
641.392	661.26
641.84	632.86
642.287	601.96
642.735	578.86
643.182	588.36
643.63	584.46
644.078	580.56
644.525	597.96
644.973	606.06
645.42	614.26
645.867	645.06
646.315	656.86
646.762	686.46
647.21	699.86
647.657	730.86
648.104	763.66
648.551	783.26
648.999	849.46
649.446	923.06
649.893	1019.26
650.34	1156.36
650.787	1385.56
651.234	1711.66
651.682	2246.16
652.129	3052.86
652.576	4346.76
653.023	6330.76
653.47	8583.46
653.917	10576.86
654.363	12103.36
654.81	13263.06
655.257	12602.86
655.704	8334.16
656.151	4993.56
656.598	3292.86
657.044	2340.86
657.491	1814.66
657.938	1450.86
658.385	1227.66
658.831	1074.26
659.278	955.26
659.724	859.16
660.171	799.36
660.618	733.06
661.064	698.26
661.511	677.46
661.957	671.96
662.404	651.06
662.85	667.96
663.296	644.26
663.743	573.46
664.189	551.46
664.635	546.36
665.082	549.46
665.528	542.26
665.974	541.06
666.42	527.46
666.867	526.46
667.313	506.76
667.759	494.16
668.205	473.36
668.651	479.56
669.097	470.56
669.543	472.76
669.989	471.26
670.435	456.46
670.881	462.66
671.327	468.76
671.773	486.66
672.219	509.86
672.665	577.16
673.11	613.76
673.556	647.86
674.002	701.46
674.448	680.36
674.893	565.66
675.339	491.16
675.785	453.46
676.23	434.46
676.676	412.26
677.122	390.66
677.567	385.96
678.013	384.26
678.458	373.26
678.904	380.56
679.349	368.56
679.794	373.86
680.24	363.46
680.685	362.36
681.131	354.96
681.576	371.06
682.021	373.56
682.466	356.46
682.912	365.06
683.357	368.16
683.802	402.56
684.247	428.06
684.692	472.66
685.137	517.16
685.583	570.86
686.028	591.26
686.473	542.06
686.918	476.26
687.363	439.06
687.807	414.06
688.252	385.26
688.697	373.56
689.142	356.26
689.587	348.36
690.032	339.16
690.477	355.26
690.921	367.16
691.366	399.96
691.811	429.76
692.255	449.56
692.7	480.86
693.145	535.06
693.589	755.36
694.034	1225.06
694.478	1628.16
694.923	1804.36
695.367	2346.76
695.812	1255.76
696.256	529.56
696.701	390.16
697.145	356.66
697.59	341.76
698.034	336.76
698.478	347.06
698.922	341.66
699.367	344.16
699.811	358.66
700.255	370.76
700.699	405.16
701.143	447.86
701.588	500.66
702.032	528.16
702.476	536.36
702.92	520.46
703.364	527.36
703.808	698.06
704.252	1115.46
704.696	1558.76
705.14	1733.66
705.584	2202.26
706.027	1119.56
706.471	537.56
706.915	411.56
707.359	367.16
707.803	337.16
708.246	322.26
708.69	331.76
709.134	319.66
709.577	322.06
710.021	336.26
710.465	317.36
710.908	314.96
711.352	314.26
711.795	328.56
712.239	363.96
712.682	411.56
713.126	430.66
713.569	475.76
714.012	379.66
714.456	326.26
714.899	308.46
715.342	288.46
715.786	272.56
716.229	272.36
716.672	265.56
717.115	261.46
717.558	257.76
718.002	256.76
718.445	275.06
718.888	302.96
719.331	309.66
719.774	319.26
720.217	317.26
720.66	293.36
721.103	274.36
721.546	270.06
721.989	266.66
722.432	247.96
722.874	250.96
723.317	243.86
723.76	247.96
724.203	271.96
724.645	341.86
725.088	476.26
725.531	608.46
725.974	660.26
726.416	567.66
726.859	320.46
727.301	263.46
727.744	252.86
728.187	240.46
728.629	254.76
729.071	254.66
729.514	273.56
729.956	286.16
730.399	291.56
730.841	307.36
731.283	281.06
731.726	283.66
732.168	278.96
732.61	293.16
733.053	310.26
733.495	337.86
733.937	369.06
734.379	429.26
734.821	461.16
735.263	582.16
735.705	916.86
736.148	1745.16
736.59	2765.76
737.032	3164.86
737.474	2583.66
737.916	856.86
738.357	454.96
738.799	345.36
739.241	306.66
739.683	305.56
740.125	306.06
740.567	321.36
741.008	330.36
741.45	337.86
741.892	335.46
742.334	373.26
742.775	378.46
743.217	360.66
743.658	288.96
744.1	265.26
744.542	285.16
744.983	339.56
745.425	375.06
745.866	357.56
746.307	290.66
746.749	295.06
747.19	355.56
747.632	488.96
748.073	977.06
748.514	2033.66
748.956	3015.26
749.397	3826.46
749.838	3150.06
750.279	3073.36
750.72	1571.66
751.162	577.26
751.603	334.56
752.044	262.06
752.485	233.06
752.926	223.76
753.367	213.96
753.808	201.46
754.249	200.16
754.69	200.46
755.131	193.46
755.572	196.16
756.013	184.96
756.453	198.86
756.894	195.96
757.335	201.16
757.776	200.66
758.216	204.46
758.657	210.16
759.098	211.86
759.538	235.86
759.979	284.06
760.42	409.06
760.86	779.36
761.301	2033.36
761.741	4824.36
762.182	6685.76
762.622	4702.96
763.063	1374.76
763.503	567.36
763.943	351.56
764.384	311.46
764.824	322.26
765.264	317.76
765.705	254.76
766.145	194.96
766.585	183.86
767.025	180.46
767.465	180.36
767.906	215.46
768.346	247.56
768.786	264.76
769.226	246.56
769.666	333.16
770.106	682.96
770.546	1701.46
770.986	2792.26
771.426	2445.86
771.866	837.16
772.306	358.16
772.745	214.56
773.185	183.76
773.625	172.26
774.065	161.86
774.505	183.76
774.944	254.46
775.384	491.16
775.824	801.96
776.263	772.06
776.703	364.46
777.142	185.26
777.582	149.46
778.021	136.66
778.461	138.36
778.9	134.46
779.34	140.96
779.779	117.56
780.219	120.16
780.658	114.56
781.097	116.56
781.537	112.96
781.976	115.36
782.415	108.76
782.855	107.36
783.294	110.26
783.733	110.26
784.172	117.76
784.611	111.26
785.05	112.06
785.489	114.16
785.928	125.46
786.367	126.86
786.806	131.96
787.245	132.46
787.684	144.26
788.123	151.06
788.562	142.66
789.001	135.16
789.44	131.06
789.879	126.56
790.317	122.56
790.756	129.96
791.195	131.76
791.634	148.36
792.072	221.16
792.511	406.86
792.95	1113.76
793.388	2237.66
793.827	1973.86
794.265	700.66
794.704	297.76
795.142	189.16
795.581	164.36
796.019	144.36
796.458	137.66
796.896	129.26
797.334	135.66
797.773	175.26
798.211	237.16
798.649	491.46
799.087	1098.76
799.526	1696.96
799.964	2165.96
800.402	2079.46
800.84	798.36
801.278	314.06
801.716	198.06
802.154	158.26
802.592	158.36
803.03	149.46
803.468	147.06
803.906	156.46
804.344	163.06
804.782	147.56
805.22	145.76
805.658	138.16
806.096	158.96
806.533	172.66
806.971	189.96
807.409	236.56
807.847	348.36
808.284	738.66
808.722	2041.36
809.16	3451.16
809.597	3414.66
810.035	5765.86
810.472	5953.36
810.91	2193.86
811.347	845.46
811.785	431.46
812.222	265.86
812.66	206.56
813.097	168.46
813.535	147.86
813.972	135.56
814.409	130.86
814.846	112.66
815.284	120.86
815.721	107.76
816.158	111.46
816.595	121.96
817.032	163.96
817.47	191.56
817.907	144.76
818.344	117.46
818.781	113.86
819.218	104.66
819.655	133.56
820.092	195.36
820.529	224.06
820.966	182.16
821.403	134.36
821.839	108.76
822.276	101.96
822.713	127.56
823.15	134.36
823.587	131.06
824.023	161.26
824.46	337.96
824.897	971.96
825.333	1397.36
825.77	610.76
826.206	244.66
826.643	140.86
827.08	110.76
827.516	92.36
827.953	78.46
828.389	78.86
828.825	72.86
829.262	70.66
829.698	61.16
830.135	65.66
830.571	61.36
831.007	64.96
831.443	69.76
831.88	67.46
832.316	68.46
832.752	68.16
833.188	73.46
833.624	59.16
834.06	71.06
834.497	76.56
834.933	70.36
835.369	77.26
835.805	77.26
836.241	77.56
836.677	88.36
837.112	98.16
837.548	104.46
837.984	137.76
838.42	218.36
838.856	552.16
839.292	1635.76
839.727	2381.16
840.163	1135.46
840.599	1007.36
841.034	2186.86
841.47	2175.26
841.906	819.66
842.341	355.46
842.777	220.86
843.212	251.16
843.648	231.66
844.083	133.16
844.519	90.36
844.954	78.16
845.39	53.46
845.825	61.16
846.261	59.16
846.696	62.36
847.131	59.66
847.566	54.46
848.002	57.06
848.437	56.96
848.872	59.46
849.307	61.96
849.742	91.66
850.177	202.76
850.613	602.96
851.048	906.36
851.483	396.66
851.918	165.06
852.353	87.06
852.788	60.46
853.223	52.16
853.657	56.56
854.092	48.76
854.527	38.96
854.962	40.76
855.397	44.16
855.832	55.76
856.266	46.06
856.701	45.16
857.136	34.36
857.57	42.26
858.005	49.56
858.44	65.36
858.874	44.76
859.309	54.26
859.743	44.26
860.178	43.36
860.612	44.96
861.047	53.36
861.481	66.56
861.915	71.16
862.35	51.46
862.784	39.06
863.218	42.76
863.653	30.76
864.087	46.96
864.521	53.76
864.955	73.06
865.39	171.36
865.824	177.76
866.258	127.26
866.692	174.46
867.126	178.36
867.56	111.96
867.994	54.06
868.428	37.76
868.862	42.76
869.296	60.86
869.73	60.96
870.164	59.36
870.598	51.06
871.031	42.66
871.465	34.76
871.899	28.86
872.333	24.46
872.766	29.06
873.2	30.86
873.634	27.06
874.067	27.76
874.501	29.16
874.935	35.66
875.368	36.66
875.802	31.66
876.235	26.16
876.669	18.36
877.102	22.06
877.535	30.86
877.969	25.66
878.402	25.16
878.836	21.16
879.269	27.86
879.702	26.56
880.135	31.06
880.569	20.76
881.002	27.96
881.435	20.56
881.868	24.56
882.301	18.26
882.734	17.06
883.167	19.96
883.601	16.06
884.034	25.16
884.467	11.26
884.899	20.56
885.332	18.36
885.765	20.66
886.198	17.46
886.631	16.06
887.064	21.66
887.497	19.96
887.929	32.66
888.362	15.76
888.795	17.66
889.228	19.76
889.66	21.06
890.093	15.86
890.526	21.06
890.958	17.76
891.391	18.86
891.823	27.16
892.256	17.36
892.688	11.26
893.121	18.96
893.553	20.16
893.985	25.46
894.418	24.76
894.85	15.66
895.282	17.56
895.715	15.36
896.147	16.06
896.579	15.56
897.011	19.56
897.444	21.26
897.876	17.36
898.308	22.66
898.74	15.96
899.172	16.36
899.604	23.56
900.036	20.46
900.468	22.16
900.9	13.26
901.332	19.56
901.764	20.06
902.196	18.86
902.628	19.16
903.06	21.26
903.491	24.06
903.923	20.56
904.355	21.96
904.787	27.86
905.218	21.66
905.65	18.56
906.082	12.86
906.513	13.46
906.945	18.56
907.376	17.26
907.808	14.36
908.239	23.96
908.671	15.66
909.102	25.36
909.534	27.76
909.965	51.46
910.397	99.16
910.828	326.06
911.259	496.86
911.691	227.46
912.122	114.16
912.553	53.46
912.984	33.56
913.415	25.26
913.847	32.16
914.278	20.96
914.709	17.66
915.14	16.86
915.571	15.96
916.002	15.26
916.433	22.76
916.864	23.96
917.295	11.56
917.726	20.96
918.157	14.06
918.587	32.76
919.018	23.96
919.449	20.86
919.88	21.66
920.311	27.36
920.741	53.86
921.172	171.56
921.603	160.26
922.033	76.06
922.464	42.26
922.895	23.86
923.325	24.36
923.756	9.46
924.186	16.66
924.617	24.36
925.047	24.06
925.478	36.66
925.908	30.06
926.338	20.36
926.769	13.96
927.199	17.16
927.629	5.56
928.06	13.36
928.49	11.36
928.92	14.06
929.35	9.86
929.78	8.26
930.21	13.46
930.641	8.56
931.071	13.76
931.501	7.56
931.931	6.36
932.361	11.26
932.791	4.26
933.221	9.96
933.651	2.96
934.08	20.56
934.51	34.06
934.94	9.06
935.37	8.36
935.8	7.46
936.229	8.96
936.659	4.96
937.089	0.16
937.519	15.46
937.948	19.26
938.378	22.96
938.807	4.06
939.237	3.86
939.666	-0.14
940.096	-7.14
940.525	2.96
940.955	4.46
941.384	-1.24
941.814	3.56
942.243	-1.14
942.672	-2.24
943.102	1.96
943.531	3.76
943.96	9.86
944.39	2.86
944.819	0.06
945.248	4.06
945.677	4.46
946.106	3.06
946.535	4.76
946.964	1.66
947.393	4.46
947.822	8.76
948.251	-7.84
948.68	4.46
949.109	5.16
949.538	4.76
949.967	6.06
950.396	2.06
950.825	0.26
951.254	-1.24
951.682	-7.34
952.111	5.86
952.54	7.56
952.969	2.96
953.397	-3.14
953.826	1.06
954.254	-8.34
954.683	0.26
955.112	1.26
955.54	4.56
955.969	1.16
956.397	4.26
956.826	-4.04
957.254	5.66
957.682	2.86
958.111	4.76
958.539	-4.74
958.967	3.16
959.396	-0.84
959.824	3.06
960.252	3.06
960.68	-4.14
961.109	0.76
961.537	-6.54
961.965	0.56
962.393	2.06
962.821	2.96
963.249	9.16
963.677	-0.54
964.105	5.46
964.533	40.76
964.961	42.16
965.389	21.96
965.817	17.86
966.245	2.56
966.672	4.46
967.1	-4.74
967.528	-6.74
967.956	-1.14
968.383	1.96
968.811	-5.34
969.239	-3.94
969.666	-8.74
970.094	0.96
970.522	1.36
970.949	-4.74
971.377	-6.64
971.804	-3.54
972.232	-0.44
972.659	3.16
973.087	-3.74
973.514	-3.14
973.941	-5.54
974.369	1.16
974.796	5.06
975.223	8.16
975.651	0.46
976.078	1.46
976.505	3.16
976.932	1.76
977.359	17.26
977.786	13.96
978.214	-3.64
978.641	-1.64
979.068	-13.14
979.495	-5.54
979.922	-6.44
980.349	2.16
980.776	6.26
981.202	-0.54
981.629	3.06
982.056	-2.94
982.483	2.46
982.91	6.36
983.337	-4.14
983.763	-1.44
984.19	-5.24
984.617	-5.84
985.043	-4.14
985.47	0.96
985.897	-1.04
986.323	-2.04
986.75	1.66
987.176	-2.54
987.603	-4.04
988.029	0.86
988.456	-7.24
988.882	7.66
989.308	-0.34
989.735	-0.24
990.161	2.16
990.587	-5.74
991.014	9.56
991.44	4.56
991.866	4.26
992.292	-3.84
992.719	-0.74
993.145	-0.24
993.571	-4.44
993.997	-5.04
994.423	-6.04
994.849	-6.24
995.275	-2.14
995.701	-1.24
996.127	-9.04
996.553	4.66
996.979	3.06
997.405	-2.14
997.83	-0.04
998.256	-3.34
998.682	0.66
999.108	-14.04
999.534	-4.74
999.959	-4.44
1000.385	-0.94
1000.811	0.16
1001.236	-9.64
1001.662	-8.04
1002.087	-14.94
1002.513	1.86
1002.938	-1.54
1003.364	-4.24
1003.789	-0.94
1004.215	3.06
1004.64	0.16
1005.066	2.06
1005.491	-0.04
1005.916	-2.74
1006.342	-1.04
1006.767	-7.24
1007.192	9.06
1007.617	-7.34
1008.042	-3.64
1008.468	-9.44
1008.893	-3.64
1009.318	-5.94
1009.743	-1.74
1010.168	7.66
1010.593	-2.94
1011.018	-4.54
1011.443	-0.24
1011.868	4.06
1012.293	-4.04
1012.718	-12.44
1013.143	0.56
1013.567	0.46
1013.992	-2.14
1014.417	-12.14
1014.842	-2.94
1015.267	-3.84
1015.691	-0.14
1016.116	4.26
1016.541	-2.64
1016.965	3.76
1017.39	-2.54
1017.814	0.86
1018.239	-5.84
1018.663	-4.94
1019.088	-11.24
1019.512	-3.04
1019.937	-3.54
1020.361	-8.34
1020.785	-8.24
1021.21	-4.14
1021.634	-0.54
1022.058	-3.84
1022.483	4.76
1022.907	-10.94
1023.331	1.46
1023.755	-2.84
1024.179	-2.74
1024.604	-8.04
1025.028	-8.54
1025.452	-3.04
1025.876	-4.44
1026.3	3.56
1026.724	-11.14
1027.148	-5.14
1027.572	-16.44
1027.996	-6.04
1028.42	0.76
1028.843	-7.04
1029.267	-2.84
1029.691	-9.74
1030.115	-4.54
1030.539	-2.24
1030.962	-2.24
1031.386	-12.94
1031.81	2.26
1032.233	1.46
1032.657	3.86
1033.08	-0.24
1033.504	-14.04
1033.927	-6.34
1034.351	-3.54
1034.774	-3.04
1035.198	-7.94
1035.621	-7.54
1036.045	-1.54
1036.468	-1.14
1036.891	-10.94
1037.315	-7.44
1037.738	-6.74
1038.161	-4.34
1038.584	-6.24
1039.008	-5.44
1039.431	-5.04
1039.854	-3.94
1040.277	-6.54
1040.7	-9.24
1041.123	-0.84
1041.546	-9.64
1041.969	-5.44
1042.392	-2.34
1042.815	-4.34
1043.238	0.66
1043.661	1.66
1044.084	-13.44
1044.507	-6.94
1044.93	-12.24
1045.352	-10.34
1045.775	-2.94
1046.198	0.46
1046.621	-1.94
1047.043	0.66
1047.466	2.56
1047.889	-2.34
1048.311	-3.54
1048.734	-8.74
1049.156	-4.14
1049.579	-5.64
1050.001	-1.54
1050.424	-0.34
1050.846	-0.14
1051.269	-0.34
1051.691	-10.94
1052.113	-5.84
1052.536	-6.44
1052.958	-2.74
1053.38	-8.24
1053.802	-7.04
1054.225	-4.14
1054.647	-9.44
1055.069	-5.04
1055.491	1.36
1055.913	-10.44
1056.335	0.26
1056.757	-5.24
1057.179	-9.94
1057.601	-8.04
1058.023	-3.14
1058.445	-3.84
1058.867	-3.64
1059.289	-9.14
1059.711	-10.64
1060.133	-5.34
1060.555	-3.64
1060.976	-5.14
1061.398	-3.04
1061.82	-7.44
1062.241	-7.24
1062.663	-4.24
1063.085	-8.24
1063.506	-4.54
1063.928	-10.34
1064.35	-2.84
1064.771	-16.14
1065.193	-1.74
1065.614	-8.44
1066.035	-1.24
1066.457	-4.14
1066.878	1.16
1067.3	-4.14
1067.721	-6.04
1068.142	0.66
1068.564	-2.94
1068.985	-2.74
1069.406	-5.84
1069.827	-4.14
1070.248	-2.14
1070.67	-6.64
1071.091	-5.84
1071.512	-3.34
1071.933	-5.44
1072.354	-7.04
1072.775	-2.74
1073.196	-12.14
1073.617	-0.84
1074.038	-7.94
1074.459	-6.04
1074.88	-11.44
1075.3	-0.94
1075.721	-4.54
1076.142	6.36
1076.563	-1.24
1076.983	-14.94
1077.404	-7.74
1077.825	-12.24
1078.246	-6.04
1078.666	-7.04
1079.087	-8.74
1079.507	-5.24
1079.928	-5.14
1080.348	-3.44
1080.769	-10.74
1081.189	-0.14
1081.61	-2.64
1082.03	-8.14
1082.451	-7.54
1082.871	-3.94
1083.291	-6.24
1083.711	-8.64
1084.132	-2.64
1084.552	-4.84
1084.972	4.16
1085.392	-6.74
1085.813	-8.64
1086.233	-9.54
1086.653	-1.74
1087.073	0.26
1087.493	-8.94
1087.913	-5.34
1088.333	-3.34
1088.753	4.26
1089.173	0.26
1089.593	-0.44
1090.013	-1.04
1090.433	1.86
1090.852	1.36
1091.272	-2.44
1091.692	-7.04
1092.112	-3.34
1092.531	-7.74
1092.951	-17.84
1093.371	-2.24
1093.79	6.36
1094.21	-8.54
1094.63	-5.84
1095.049	-12.54
1095.469	-3.64
1095.888	-8.24
1096.308	2.86
1096.727	1.06
1097.146	-9.74
1097.566	-1.24
1097.985	-4.84
1098.405	2.76
1098.824	-5.44
1099.243	-10.34
1099.662	-9.64
1100.082	-1.74
1100.501	-3.54
1100.92	-9.24
1101.339	-6.64
1101.758	-8.74
