Data from 20171114-ORNL-Ar_H_NY_Subt18_08-07-18-332.txt Node
Date: Tue Nov 14 08:07:18 EST 2017
User: Ender
Spectrometer: HR+D1039
Trigger mode: 0
Integration Time (sec): 2.730000E-2
Scans to average: 10
Electric dark correction enabled: true
Nonlinearity correction enabled: false
Boxcar width: 0
XAxis mode: Wavelengths
Number of Pixels in Spectrum: 2048
>>>>>Begin Spectral Data<<<<<
187.836	-0.39
188.309	-0.39
188.782	-0.39
189.255	3.51
189.728	-1.89
190.201	5.71
190.674	2.41
191.147	4.61
191.619	-4.29
192.092	0.11
192.565	3.51
193.038	-5.99
193.511	-1.19
193.984	-0.89
194.456	-2.19
194.929	-2.09
195.402	-1.09
195.874	0.11
196.347	-7.99
196.82	-8.69
197.292	4.81
197.765	-8.09
198.237	-5.09
198.71	1.21
199.182	-5.79
199.655	-3.09
200.127	-1.79
200.6	0.81
201.072	-2.79
201.544	-5.79
202.017	-1.39
202.489	3.31
202.961	0.41
203.433	-7.09
203.906	-4.49
204.378	-7.19
204.85	-4.59
205.322	-11.99
205.794	-4.49
206.266	-5.89
206.739	-2.99
207.211	1.71
207.683	-12.49
208.155	-7.99
208.627	-7.39
209.099	-2.49
209.57	-15.39
210.042	-6.59
210.514	-5.89
210.986	-6.69
211.458	-8.99
211.93	-1.29
212.402	1.71
212.873	-9.49
213.345	-12.89
213.817	-10.09
214.288	-3.39
214.76	-7.99
215.232	-5.89
215.703	-7.69
216.175	-7.79
216.646	0.81
217.118	-8.69
217.589	-8.59
218.061	-6.69
218.532	-5.59
219.004	1.51
219.475	-6.39
219.946	-2.89
220.418	-2.69
220.889	-3.69
221.36	-1.59
221.832	-7.69
222.303	-12.19
222.774	-1.69
223.245	-7.19
223.717	-10.69
224.188	-6.69
224.659	-5.59
225.13	-3.39
225.601	-11.19
226.072	3.11
226.543	-1.79
227.014	-4.09
227.485	-1.59
227.956	-5.29
228.427	-1.79
228.898	-1.09
229.369	1.31
229.839	-6.19
230.31	-5.59
230.781	-2.49
231.252	-5.79
231.722	-13.29
232.193	-10.39
232.664	-2.59
233.135	2.91
233.605	-5.59
234.076	-10.79
234.546	-1.69
235.017	0.51
235.487	0.41
235.958	-3.09
236.428	-7.09
236.899	-1.89
237.369	-5.19
237.84	-10.09
238.31	-6.39
238.78	2.41
239.251	-3.79
239.721	-2.89
240.191	-1.79
240.662	-6.29
241.132	-6.49
241.602	-9.69
242.072	-2.49
242.542	5.31
243.013	-8.79
243.483	-1.89
243.953	-3.39
244.423	-1.89
244.893	-8.69
245.363	-2.69
245.833	-5.19
246.303	-7.49
246.773	-2.99
247.243	-3.09
247.712	-2.49
248.182	3.21
248.652	-1.79
249.122	-13.89
249.592	-4.89
250.061	-4.39
250.531	4.91
251.001	-5.39
251.471	0.41
251.94	1.21
252.41	-1.79
252.879	-13.69
253.349	6.61
253.818	1.31
254.288	-6.29
254.757	-2.49
255.227	-5.89
255.696	-2.89
256.166	1.31
256.635	2.41
257.105	-0.29
257.574	-4.59
258.043	-1.39
258.513	-1.89
258.982	7.41
259.451	-12.59
259.92	-7.79
260.389	-3.09
260.859	2.71
261.328	3.41
261.797	-7.19
262.266	-5.99
262.735	7.11
263.204	-1.19
263.673	-5.79
264.142	1.11
264.611	-10.79
265.08	-4.89
265.549	-2.99
266.018	0.11
266.487	-4.99
266.955	-7.19
267.424	-3.89
267.893	1.11
268.362	-6.29
268.83	-0.09
269.299	9.11
269.768	-2.19
270.236	-2.99
270.705	-0.99
271.174	-7.99
271.642	4.41
272.111	2.61
272.579	2.91
273.048	-1.99
273.516	1.21
273.985	6.01
274.453	2.61
274.922	8.81
275.39	4.61
275.858	-11.39
276.327	2.21
276.795	7.81
277.263	-3.19
277.731	6.81
278.2	4.91
278.668	0.91
279.136	2.91
279.604	0.61
280.072	7.51
280.54	1.81
281.008	5.61
281.477	4.01
281.945	5.61
282.413	11.91
282.881	6.81
283.348	1.91
283.816	7.31
284.284	6.61
284.752	13.21
285.22	5.31
285.688	4.61
286.156	6.91
286.623	11.51
287.091	4.01
287.559	0.41
288.026	6.61
288.494	10.51
288.962	-3.39
289.429	-2.09
289.897	9.61
290.364	8.91
290.832	8.01
291.3	4.51
291.767	9.81
292.234	12.11
292.702	5.61
293.169	5.71
293.637	16.71
294.104	17.71
294.571	4.41
295.039	0.51
295.506	10.01
295.973	6.01
296.44	13.41
296.908	9.01
297.375	14.51
297.842	11.81
298.309	11.71
298.776	6.01
299.243	10.01
299.71	9.31
300.177	14.01
300.644	13.81
301.111	7.41
301.578	12.81
302.045	12.91
302.512	13.11
302.979	20.01
303.446	8.41
303.913	8.71
304.379	8.51
304.846	18.21
305.313	15.61
305.78	11.51
306.246	17.81
306.713	17.61
307.18	13.71
307.646	18.01
308.113	15.81
308.579	13.11
309.046	14.41
309.512	13.81
309.979	9.41
310.445	15.41
310.912	20.71
311.378	22.51
311.845	17.91
312.311	18.71
312.777	25.11
313.244	20.21
313.71	23.31
314.176	20.11
314.642	16.71
315.109	15.41
315.575	23.81
316.041	25.01
316.507	16.01
316.973	23.71
317.439	20.71
317.905	21.11
318.371	22.21
318.837	19.61
319.303	22.21
319.769	23.41
320.235	20.61
320.701	23.41
321.167	26.81
321.633	18.21
322.099	26.81
322.564	29.91
323.03	28.71
323.496	24.91
323.962	26.71
324.427	20.91
324.893	33.91
325.359	27.11
325.824	24.61
326.29	25.41
326.755	23.01
327.221	27.01
327.686	33.81
328.152	38.41
328.617	32.21
329.083	33.21
329.548	41.01
330.014	34.01
330.479	30.91
330.944	26.41
331.41	31.11
331.875	32.21
332.34	26.11
332.805	32.71
333.271	33.31
333.736	22.11
334.201	44.31
334.666	39.71
335.131	40.91
335.596	38.01
336.061	37.51
336.526	33.31
336.991	33.51
337.456	48.21
337.921	35.41
338.386	37.01
338.851	35.81
339.316	39.71
339.781	40.51
340.246	41.71
340.711	32.61
341.175	38.21
341.64	36.61
342.105	43.51
342.569	43.11
343.034	45.91
343.499	48.01
343.963	49.81
344.428	56.01
344.893	51.81
345.357	49.81
345.822	51.61
346.286	55.51
346.751	57.01
347.215	54.41
347.679	52.51
348.144	73.31
348.608	64.71
349.073	61.31
349.537	57.41
350.001	58.01
350.465	74.71
350.93	73.61
351.394	75.51
351.858	57.81
352.322	72.91
352.786	64.11
353.25	71.41
353.715	79.81
354.179	83.81
354.643	96.91
355.107	95.31
355.571	80.01
356.035	79.51
356.498	95.31
356.962	91.31
357.426	101.01
357.89	92.91
358.354	80.61
358.818	69.11
359.281	64.71
359.745	62.21
360.209	68.01
360.673	66.91
361.136	65.61
361.6	70.21
362.064	68.11
362.527	72.51
362.991	82.31
363.454	64.71
363.918	62.11
364.381	63.41
364.845	70.81
365.308	68.61
365.772	74.21
366.235	76.11
366.698	71.51
367.162	73.31
367.625	68.91
368.088	79.71
368.552	73.51
369.015	77.51
369.478	86.71
369.941	84.11
370.404	79.41
370.867	85.61
371.331	87.21
371.794	89.01
372.257	79.81
372.72	92.11
373.183	89.71
373.646	81.01
374.109	82.31
374.572	88.51
375.035	82.01
375.497	82.21
375.96	89.41
376.423	95.91
376.886	94.81
377.349	91.71
377.811	92.91
378.274	91.91
378.737	89.81
379.199	95.81
379.662	92.91
380.125	106.81
380.587	87.01
381.05	89.71
381.512	98.81
381.975	104.01
382.437	110.81
382.9	104.51
383.362	116.71
383.825	114.81
384.287	114.31
384.75	103.71
385.212	114.51
385.674	121.61
386.136	122.21
386.599	108.41
387.061	106.61
387.523	103.71
387.985	113.51
388.447	114.21
388.91	113.31
389.372	110.81
389.834	116.31
390.296	117.01
390.758	120.21
391.22	118.91
391.682	131.91
392.144	133.41
392.606	135.11
393.068	135.01
393.529	145.71
393.991	129.01
394.453	120.01
394.915	124.71
395.377	119.61
395.838	126.21
396.3	126.11
396.762	133.81
397.224	125.41
397.685	116.61
398.147	125.31
398.608	125.71
399.07	123.71
399.531	130.81
399.993	132.61
400.454	148.71
400.916	142.01
401.377	135.91
401.839	145.31
402.3	147.01
402.762	162.21
403.223	173.11
403.684	154.41
404.145	152.81
404.607	157.01
405.068	160.61
405.529	151.01
405.99	174.11
406.451	158.01
406.913	163.01
407.374	158.01
407.835	155.91
408.296	158.51
408.757	156.41
409.218	175.91
409.679	170.71
410.14	164.81
410.601	161.91
411.062	169.11
411.522	172.31
411.983	172.21
412.444	169.31
412.905	172.81
413.366	176.31
413.826	195.91
414.287	214.21
414.748	259.71
415.208	247.21
415.669	206.41
416.13	204.41
416.59	200.41
417.051	216.71
417.511	217.71
417.972	237.11
418.432	237.41
418.893	284.31
419.353	245.61
419.814	195.21
420.274	179.91
420.734	177.71
421.195	188.51
421.655	192.11
422.115	193.11
422.576	192.61
423.036	199.01
423.496	209.01
423.956	211.21
424.416	234.01
424.876	264.71
425.336	260.31
425.797	257.61
426.257	251.61
426.717	238.51
427.177	225.91
427.637	223.11
428.097	229.71
428.556	235.11
429.016	265.61
429.476	258.61
429.936	257.21
430.396	263.81
430.856	273.51
431.315	299.51
431.775	334.31
432.235	371.91
432.694	338.61
433.154	345.31
433.614	364.61
434.073	321.61
434.533	270.71
434.993	261.61
435.452	273.21
435.912	281.11
436.371	273.81
436.83	269.31
437.29	259.81
437.749	242.11
438.209	244.81
438.668	265.81
439.127	277.41
439.587	258.91
440.046	246.51
440.505	248.31
440.964	274.61
441.424	313.51
441.883	307.81
442.342	257.61
442.801	226.51
443.26	220.71
443.719	220.11
444.178	225.01
444.637	211.31
445.096	222.11
445.555	225.51
446.014	227.21
446.473	234.11
446.932	233.21
447.391	232.51
447.849	237.91
448.308	222.21
448.767	224.71
449.226	248.61
449.685	232.11
450.143	250.21
450.602	246.01
451.061	234.31
451.519	232.61
451.978	229.21
452.436	233.91
452.895	241.61
453.353	252.61
453.812	244.21
454.27	245.11
454.729	247.01
455.187	239.31
455.646	248.51
456.104	248.21
456.562	267.01
457.021	273.51
457.479	260.31
457.937	278.61
458.395	264.71
458.854	255.61
459.312	263.91
459.77	278.91
460.228	265.11
460.686	258.71
461.144	252.61
461.602	252.71
462.06	256.81
462.518	258.71
462.976	259.91
463.434	262.51
463.892	267.11
464.35	280.01
464.808	296.01
465.266	274.91
465.724	273.81
466.181	281.21
466.639	281.01
467.097	303.91
467.555	299.31
468.012	302.21
468.47	313.01
468.928	324.01
469.385	350.31
469.843	353.51
470.3	353.11
470.758	369.51
471.215	397.61
471.673	410.41
472.13	415.51
472.588	424.41
473.045	376.01
473.503	392.51
473.96	404.51
474.417	406.21
474.875	442.41
475.332	472.01
475.789	468.61
476.246	475.91
476.704	489.51
477.161	503.31
477.618	516.51
478.075	552.31
478.532	614.61
478.989	687.91
479.446	786.31
479.903	758.01
480.36	789.91
480.817	836.81
481.274	937.11
481.731	1014.51
482.188	1092.71
482.645	1207.01
483.102	1304.31
483.558	1416.81
484.015	1460.41
484.472	1436.31
484.929	1395.41
485.385	1351.11
485.842	1329.41
486.299	1287.31
486.755	1228.31
487.212	1048.11
487.668	908.11
488.125	827.91
488.582	771.11
489.038	736.81
489.494	714.41
489.951	681.41
490.407	677.71
490.864	657.31
491.32	649.41
491.776	646.61
492.233	659.11
492.689	623.91
493.145	617.21
493.602	607.81
494.058	625.71
494.514	630.21
494.97	645.11
495.426	655.41
495.882	634.61
496.338	623.71
496.794	621.31
497.251	620.01
497.707	639.21
498.163	638.01
498.618	652.01
499.074	653.21
499.53	681.21
499.986	670.91
500.442	653.01
500.898	633.21
501.354	632.71
501.809	645.81
502.265	645.01
502.721	638.61
503.177	652.51
503.632	650.71
504.088	651.21
504.543	678.71
504.999	703.41
505.455	672.61
505.91	657.41
506.366	654.31
506.821	649.91
507.277	648.41
507.732	649.61
508.187	646.71
508.643	661.81
509.098	666.11
509.553	681.81
510.009	683.71
510.464	692.51
510.919	701.81
511.375	715.81
511.83	726.61
512.285	736.21
512.74	778.61
513.195	802.61
513.65	797.71
514.105	785.81
514.56	780.01
515.015	806.31
515.47	810.71
515.925	786.01
516.38	796.51
516.835	809.31
517.29	800.11
517.745	806.21
518.2	791.91
518.655	770.51
519.109	764.21
519.564	761.81
520.019	759.31
520.474	737.91
520.928	747.41
521.383	730.91
521.838	735.31
522.292	733.31
522.747	726.81
523.201	720.31
523.656	717.21
524.11	707.91
524.565	714.41
525.019	714.31
525.474	721.71
525.928	724.41
526.382	707.81
526.837	708.51
527.291	717.51
527.745	715.01
528.2	716.21
528.654	712.71
529.108	704.01
529.562	709.91
530.016	709.81
530.47	712.31
530.925	696.61
531.379	715.21
531.833	721.21
532.287	721.01
532.741	723.31
533.195	725.51
533.649	732.21
534.103	741.71
534.556	728.21
535.01	730.61
535.464	712.31
535.918	738.91
536.372	732.21
536.826	727.31
537.279	728.01
537.733	728.31
538.187	727.51
538.64	724.51
539.094	745.51
539.548	754.11
540.001	747.91
540.455	735.71
540.908	752.61
541.362	762.51
541.815	767.11
542.269	782.01
542.722	775.51
543.175	801.91
543.629	789.31
544.082	804.81
544.536	804.31
544.989	807.61
545.442	820.91
545.895	814.61
546.349	821.11
546.802	818.81
547.255	821.11
547.708	832.41
548.161	841.11
548.614	847.31
549.067	854.21
549.52	838.51
549.973	831.41
550.426	825.41
550.879	823.91
551.332	826.11
551.785	823.41
552.238	828.11
552.691	847.51
553.144	860.81
553.596	877.11
554.049	893.81
554.502	919.71
554.955	941.41
555.407	935.21
555.86	923.41
556.313	920.71
556.765	905.51
557.218	908.41
557.67	906.11
558.123	901.91
558.576	894.11
559.028	907.41
559.48	914.91
559.933	905.71
560.385	864.91
560.838	847.81
561.29	814.81
561.742	810.91
562.195	791.61
562.647	790.81
563.099	803.41
563.551	794.51
564.004	810.31
564.456	793.51
564.908	793.41
565.36	759.91
565.812	748.31
566.264	741.81
566.716	743.61
567.168	727.61
567.62	733.41
568.072	722.61
568.524	722.41
568.976	706.11
569.428	699.71
569.88	694.51
570.332	696.11
570.784	702.61
571.235	709.01
571.687	714.61
572.139	733.31
572.59	746.51
573.042	727.91
573.494	726.31
573.945	723.41
574.397	700.21
574.849	712.31
575.3	713.01
575.752	702.51
576.203	693.61
576.655	707.11
577.106	687.71
577.557	691.61
578.009	693.51
578.46	679.31
578.912	684.11
579.363	672.21
579.814	681.21
580.265	689.01
580.717	689.71
581.168	684.81
581.619	692.71
582.07	695.71
582.521	688.31
582.972	688.91
583.423	692.21
583.875	691.61
584.326	702.91
584.777	714.31
585.227	728.11
585.678	743.31
586.129	742.81
586.58	761.01
587.031	777.51
587.482	808.71
587.933	813.41
588.384	799.11
588.834	795.91
589.285	790.01
589.736	797.61
590.186	787.31
590.637	783.51
591.088	766.41
591.538	759.31
591.989	740.51
592.439	748.81
592.89	734.21
593.34	716.31
593.791	730.61
594.241	714.11
594.692	709.11
595.142	712.21
595.593	711.31
596.043	726.21
596.493	720.31
596.943	728.61
597.394	737.31
597.844	737.81
598.294	753.61
598.744	775.31
599.195	797.61
599.645	844.31
600.095	883.01
600.545	936.51
600.995	987.81
601.445	1043.61
601.895	1118.01
602.345	1165.51
602.795	1141.41
603.245	1094.91
603.695	1054.41
604.145	989.41
604.594	937.41
605.044	878.01
605.494	820.61
605.944	781.51
606.393	770.41
606.843	750.21
607.293	750.51
607.743	740.51
608.192	755.11
608.642	762.21
609.091	769.71
609.541	778.61
609.99	780.61
610.44	771.61
610.889	727.81
611.339	715.81
611.788	693.11
612.238	707.11
612.687	716.41
613.136	701.91
613.586	717.91
614.035	707.31
614.484	723.11
614.933	711.01
615.383	729.91
615.832	713.51
616.281	711.11
616.73	683.51
617.179	672.51
617.628	665.61
618.077	643.31
618.526	634.51
618.975	632.01
619.424	634.91
619.873	618.91
620.322	626.11
620.771	614.21
621.22	612.51
621.669	608.71
622.118	595.61
622.567	592.21
623.015	577.21
623.464	573.91
623.913	565.71
624.361	568.81
624.81	550.31
625.259	558.41
625.707	557.91
626.156	565.11
626.604	572.41
627.053	572.91
627.501	572.21
627.95	580.01
628.398	585.21
628.847	573.01
629.295	579.51
629.744	590.41
630.192	578.91
630.64	570.71
631.089	557.41
631.537	538.41
631.985	533.61
632.433	544.61
632.881	527.41
633.33	536.41
633.778	528.51
634.226	528.21
634.674	540.51
635.122	548.61
635.57	562.71
636.018	566.11
636.466	574.21
636.914	565.71
637.362	581.61
637.81	587.91
638.258	591.51
638.705	591.81
639.153	625.11
639.601	628.81
640.049	652.01
640.497	683.21
640.944	704.41
641.392	655.31
641.84	613.11
642.287	594.61
642.735	567.71
643.182	567.11
643.63	572.81
644.078	561.51
644.525	572.71
644.973	586.01
645.42	591.21
645.867	610.11
646.315	635.21
646.762	667.91
647.21	683.21
647.657	704.41
648.104	742.61
648.551	758.91
648.999	818.11
649.446	883.11
649.893	968.01
650.34	1112.11
650.787	1323.51
651.234	1619.51
651.682	2091.91
652.129	2812.51
652.576	4001.51
653.023	5852.71
653.47	7909.81
653.917	9869.31
654.363	11343.41
654.81	12512.41
655.257	11842.71
655.704	7848.71
656.151	4752.51
656.598	3090.61
657.044	2221.51
657.491	1736.81
657.938	1395.71
658.385	1174.41
658.831	1032.11
659.278	934.81
659.724	831.71
660.171	770.81
660.618	704.41
661.064	669.31
661.511	654.41
661.957	639.81
662.404	634.91
662.85	648.71
663.296	622.31
663.743	558.11
664.189	528.11
664.635	539.91
665.082	532.61
665.528	531.51
665.974	517.31
666.42	514.21
666.867	506.51
667.313	490.91
667.759	468.71
668.205	455.61
668.651	459.81
669.097	442.31
669.543	436.61
669.989	440.41
670.435	446.31
670.881	458.01
671.327	450.11
671.773	475.31
672.219	494.71
672.665	561.31
673.11	592.71
673.556	641.21
674.002	677.61
674.448	669.71
674.893	558.21
675.339	488.61
675.785	452.81
676.23	429.21
676.676	405.91
677.122	395.91
677.567	384.01
678.013	374.21
678.458	371.41
678.904	361.81
679.349	361.81
679.794	364.71
680.24	357.01
680.685	357.61
681.131	357.31
681.576	364.61
682.021	360.31
682.466	358.81
682.912	359.91
683.357	369.01
683.802	397.61
684.247	417.51
684.692	469.41
685.137	499.21
685.583	548.41
686.028	573.61
686.473	536.31
686.918	460.21
687.363	421.11
687.807	406.01
688.252	374.11
688.697	364.11
689.142	341.81
689.587	333.91
690.032	330.81
690.477	350.61
690.921	357.91
691.366	391.91
691.811	410.81
692.255	435.61
692.7	473.81
693.145	520.51
693.589	717.71
694.034	1176.61
694.478	1588.01
694.923	1791.51
695.367	2327.51
695.812	1242.91
696.256	512.31
696.701	380.71
697.145	348.41
697.59	334.01
698.034	327.41
698.478	333.11
698.922	327.21
699.367	324.21
699.811	340.61
700.255	362.01
700.699	387.11
701.143	428.31
701.588	476.51
702.032	531.01
702.476	523.61
702.92	504.31
703.364	505.71
703.808	664.61
704.252	1074.21
704.696	1507.01
705.14	1725.81
705.584	2189.71
706.027	1094.91
706.471	532.61
706.915	393.41
707.359	358.71
707.803	335.31
708.246	319.81
708.69	317.11
709.134	325.21
709.577	324.41
710.021	322.51
710.465	307.71
710.908	300.01
711.352	306.51
711.795	316.61
712.239	362.61
712.682	391.11
713.126	418.11
713.569	467.91
714.012	362.41
714.456	307.31
714.899	290.81
715.342	278.11
715.786	260.41
716.229	262.11
716.672	261.01
717.115	255.21
717.558	261.81
718.002	251.91
718.445	264.81
718.888	291.41
719.331	299.81
719.774	308.41
720.217	312.21
720.66	286.91
721.103	277.51
721.546	265.31
721.989	253.41
722.432	238.31
722.874	238.81
723.317	234.41
723.76	239.61
724.203	258.91
724.645	324.31
725.088	456.91
725.531	585.61
725.974	656.91
726.416	562.51
726.859	309.51
727.301	249.71
727.744	235.81
728.187	239.01
728.629	244.61
729.071	246.71
729.514	260.31
729.956	279.81
730.399	286.91
730.841	296.41
731.283	270.41
731.726	270.81
732.168	272.11
732.61	269.01
733.053	301.11
733.495	322.11
733.937	360.61
734.379	411.11
734.821	449.91
735.263	563.61
735.705	869.51
736.148	1646.31
736.59	2683.01
737.032	3163.61
737.474	2567.21
737.916	839.11
738.357	439.41
738.799	336.51
739.241	311.81
739.683	285.51
740.125	293.11
740.567	303.11
741.008	329.81
741.45	328.41
741.892	320.81
742.334	357.81
742.775	369.21
743.217	358.11
743.658	281.71
744.1	262.91
744.542	277.51
744.983	314.71
745.425	361.01
745.866	363.71
746.307	290.91
746.749	279.41
747.19	335.11
747.632	475.01
748.073	932.41
748.514	1941.71
748.956	2946.71
749.397	3726.81
749.838	3094.81
750.279	3059.11
750.72	1551.21
751.162	578.11
751.603	333.51
752.044	254.61
752.485	226.11
752.926	217.31
753.367	211.51
753.808	196.71
754.249	200.91
754.69	189.81
755.131	185.81
755.572	188.81
756.013	186.31
756.453	191.71
756.894	191.61
757.335	193.81
757.776	203.41
758.216	199.01
758.657	202.81
759.098	209.01
759.538	233.61
759.979	284.01
760.42	390.71
760.86	736.91
761.301	1943.31
761.741	4657.11
762.182	6673.71
762.622	4672.21
763.063	1371.71
763.503	550.31
763.943	338.51
764.384	268.41
764.824	238.71
765.264	218.81
765.705	195.81
766.145	184.01
766.585	175.71
767.025	174.41
767.465	168.51
767.906	173.11
768.346	189.11
768.786	192.41
769.226	209.11
769.666	319.51
770.106	648.91
770.546	1619.31
770.986	2733.11
771.426	2446.71
771.866	809.91
772.306	333.61
772.745	207.31
773.185	172.61
773.625	164.31
774.065	149.01
774.505	162.21
774.944	201.01
775.384	363.11
775.824	572.81
776.263	560.61
776.703	280.71
777.142	155.31
777.582	133.21
778.021	123.81
778.461	126.11
778.9	121.11
779.34	118.21
779.779	113.41
780.219	109.21
780.658	109.91
781.097	110.81
781.537	106.81
781.976	107.01
782.415	107.01
782.855	107.41
783.294	102.41
783.733	97.81
784.172	108.41
784.611	108.41
785.05	105.41
785.489	111.51
785.928	118.81
786.367	121.81
786.806	115.21
787.245	126.01
787.684	134.71
788.123	147.01
788.562	135.81
789.001	124.21
789.44	126.01
789.879	120.01
790.317	121.81
790.756	128.81
791.195	136.21
791.634	145.31
792.072	211.41
792.511	375.71
792.95	1054.91
793.388	2205.01
793.827	1971.01
794.265	688.51
794.704	286.01
795.142	188.41
795.581	161.11
796.019	143.51
796.458	137.01
796.896	125.91
797.334	141.11
797.773	159.11
798.211	225.41
798.649	461.01
799.087	1068.81
799.526	1655.01
799.964	2097.51
800.402	2069.51
800.84	783.61
801.278	314.41
801.716	186.01
802.154	155.51
802.592	152.31
803.03	139.91
803.468	145.41
803.906	142.01
804.344	153.11
804.782	141.31
805.22	137.31
805.658	127.61
806.096	152.51
806.533	157.71
806.971	181.21
807.409	230.41
807.847	328.81
808.284	704.21
808.722	1961.51
809.16	3444.51
809.597	3288.31
810.035	5672.21
810.472	5984.81
810.91	2169.41
811.347	832.41
811.785	419.61
812.222	272.71
812.66	197.81
813.097	164.11
813.535	146.21
813.972	132.31
814.409	123.41
814.846	108.91
815.284	104.91
815.721	91.21
816.158	110.01
816.595	115.41
817.032	156.01
817.47	186.51
817.907	124.11
818.344	99.51
818.781	95.01
819.218	96.31
819.655	125.91
820.092	192.21
820.529	216.51
820.966	173.31
821.403	129.01
821.839	100.21
822.276	102.21
822.713	115.31
823.15	130.91
823.587	116.91
824.023	157.71
824.46	315.21
824.897	940.41
825.333	1384.91
825.77	607.11
826.206	238.51
826.643	138.01
827.08	102.71
827.516	84.11
827.953	83.11
828.389	82.91
828.825	75.11
829.262	70.31
829.698	61.91
830.135	61.21
830.571	63.81
831.007	60.91
831.443	57.51
831.88	64.71
832.316	59.81
832.752	64.51
833.188	63.81
833.624	59.71
834.06	68.21
834.497	71.21
834.933	72.31
835.369	72.91
835.805	73.41
836.241	73.11
836.677	84.11
837.112	89.01
837.548	106.11
837.984	138.01
838.42	203.51
838.856	524.41
839.292	1600.01
839.727	2371.51
840.163	1112.41
840.599	987.31
841.034	2126.81
841.47	2200.31
841.906	808.51
842.341	336.21
842.777	202.51
843.212	205.61
843.648	181.41
844.083	112.21
844.519	87.41
844.954	69.71
845.39	58.91
845.825	60.11
846.261	58.31
846.696	58.11
847.131	51.61
847.566	60.71
848.002	52.71
848.437	53.31
848.872	55.21
849.307	56.91
849.742	90.21
850.177	183.91
850.613	592.21
851.048	909.71
851.483	387.01
851.918	164.11
852.353	91.11
852.788	50.81
853.223	48.01
853.657	54.51
854.092	48.41
854.527	43.31
854.962	45.01
855.397	49.31
855.832	52.21
856.266	41.81
856.701	34.11
857.136	39.11
857.57	39.71
858.005	48.71
858.44	57.51
858.874	46.31
859.309	54.61
859.743	39.01
860.178	43.11
860.612	42.41
861.047	53.21
861.481	69.11
861.915	75.91
862.35	52.41
862.784	36.21
863.218	38.51
863.653	35.01
864.087	48.51
864.521	50.51
864.955	74.61
865.39	160.71
865.824	182.21
866.258	119.01
866.692	169.61
867.126	184.71
867.56	110.91
867.994	56.21
868.428	33.51
868.862	45.61
869.296	54.01
869.73	54.91
870.164	54.31
870.598	52.01
871.031	37.21
871.465	32.21
871.899	33.11
872.333	25.31
872.766	23.21
873.2	15.01
873.634	30.91
874.067	23.61
874.501	25.61
874.935	30.61
875.368	23.71
875.802	29.21
876.235	21.41
876.669	26.81
877.102	18.11
877.535	30.51
877.969	23.61
878.402	27.11
878.836	20.51
879.269	21.51
879.702	21.41
880.135	19.91
880.569	23.21
881.002	29.51
881.435	18.11
881.868	12.71
882.301	25.61
882.734	16.61
883.167	24.31
883.601	21.01
884.034	22.31
884.467	13.61
884.899	18.91
885.332	18.71
885.765	12.01
886.198	10.81
886.631	14.71
887.064	21.41
887.497	18.31
887.929	20.41
888.362	14.71
888.795	9.21
889.228	19.11
889.66	17.71
890.093	12.91
890.526	17.71
890.958	17.11
891.391	21.61
891.823	17.91
892.256	14.81
892.688	6.01
893.121	18.41
893.553	15.21
893.985	27.11
894.418	18.71
894.85	11.31
895.282	13.31
895.715	18.61
896.147	15.31
896.579	11.51
897.011	11.61
897.444	16.51
897.876	14.01
898.308	19.41
898.74	17.41
899.172	17.61
899.604	19.51
900.036	15.21
900.468	13.71
900.9	13.81
901.332	14.11
901.764	17.51
902.196	18.11
902.628	15.01
903.06	16.91
903.491	28.41
903.923	26.11
904.355	19.71
904.787	21.31
905.218	17.61
905.65	17.11
906.082	12.81
906.513	8.31
906.945	11.81
907.376	10.41
907.808	18.91
908.239	15.31
908.671	13.51
909.102	21.71
909.534	26.41
909.965	47.31
910.397	89.61
910.828	327.31
911.259	491.41
911.691	226.71
912.122	115.51
912.553	53.51
912.984	33.91
913.415	26.11
913.847	20.81
914.278	14.51
914.709	12.31
915.14	19.61
915.571	11.21
916.002	6.71
916.433	20.31
916.864	17.81
917.295	13.91
917.726	25.01
918.157	14.61
918.587	23.11
919.018	22.71
919.449	25.91
919.88	27.81
920.311	32.01
920.741	45.31
921.172	170.71
921.603	151.71
922.033	70.51
922.464	51.01
922.895	21.01
923.325	18.61
923.756	11.91
924.186	18.31
924.617	15.21
925.047	16.91
925.478	22.11
925.908	18.21
926.338	12.61
926.769	12.11
927.199	20.31
927.629	7.81
928.06	13.71
928.49	14.61
928.92	15.11
929.35	9.11
929.78	5.71
930.21	0.41
930.641	4.91
931.071	7.21
931.501	0.81
931.931	8.11
932.361	8.21
932.791	4.11
933.221	5.21
933.651	6.51
934.08	10.91
934.51	27.41
934.94	9.51
935.37	7.61
935.8	8.81
936.229	2.41
936.659	9.81
937.089	-3.79
937.519	11.91
937.948	20.41
938.378	14.11
938.807	2.61
939.237	2.21
939.666	10.91
940.096	-9.89
940.525	1.41
940.955	-0.29
941.384	1.61
941.814	-0.89
942.243	-2.89
942.672	-1.59
943.102	-1.99
943.531	2.11
943.96	3.91
944.39	3.51
944.819	-3.79
945.248	1.51
945.677	2.81
946.106	5.51
946.535	6.71
946.964	-1.69
947.393	1.51
947.822	1.81
948.251	-6.89
948.68	-0.99
949.109	9.41
949.538	6.21
949.967	-1.19
950.396	-0.39
950.825	-1.19
951.254	-1.69
951.682	-8.99
952.111	9.31
952.54	3.51
952.969	-4.19
953.397	-2.59
953.826	3.11
954.254	-5.89
954.683	-0.19
955.112	0.91
955.54	-2.99
955.969	1.51
956.397	-5.79
956.826	1.81
957.254	7.01
957.682	-2.19
958.111	-1.69
958.539	-3.99
958.967	2.31
959.396	-3.69
959.824	4.21
960.252	-6.99
960.68	-7.39
961.109	-1.49
961.537	0.41
961.965	2.41
962.393	2.81
962.821	-5.99
963.249	-0.49
963.677	1.71
964.105	10.01
964.533	46.21
964.961	36.71
965.389	20.81
965.817	5.61
966.245	-0.79
966.672	-2.49
967.1	-9.99
967.528	-2.89
967.956	-4.79
968.383	-0.19
968.811	-7.09
969.239	-2.09
969.666	-10.99
970.094	0.71
970.522	0.51
970.949	-8.99
971.377	-3.89
971.804	-5.19
972.232	-0.59
972.659	-5.69
973.087	-4.89
973.514	-4.99
973.941	0.31
974.369	9.21
974.796	1.91
975.223	-0.39
975.651	1.61
976.078	1.91
976.505	-1.49
976.932	4.61
977.359	14.21
977.786	13.01
978.214	-2.69
978.641	-7.39
979.068	0.01
979.495	-6.59
979.922	0.11
980.349	-5.99
980.776	3.71
981.202	-2.19
981.629	3.41
982.056	4.41
982.483	0.91
982.91	5.21
983.337	-6.89
983.763	3.31
984.19	-3.79
984.617	-1.99
985.043	-9.19
985.47	-1.89
985.897	-2.49
986.323	-10.99
986.75	1.01
987.176	-4.89
987.603	1.81
988.029	2.91
988.456	-4.09
988.882	7.81
989.308	-8.29
989.735	-5.69
990.161	2.31
990.587	-0.49
991.014	1.41
991.44	4.11
991.866	-0.29
992.292	-3.39
992.719	3.51
993.145	2.21
993.571	-2.89
993.997	-5.19
994.423	-1.49
994.849	-13.49
995.275	-0.29
995.701	-1.69
996.127	-3.49
996.553	-0.99
996.979	-2.89
997.405	2.71
997.83	-1.99
998.256	-5.29
998.682	-0.09
999.108	-7.79
999.534	-4.89
999.959	-2.59
1000.385	-6.29
1000.811	-4.89
1001.236	-8.59
1001.662	-12.79
1002.087	-6.19
1002.513	-4.79
1002.938	1.21
1003.364	-6.19
1003.789	-2.09
1004.215	-3.29
1004.64	-1.59
1005.066	4.71
1005.491	-0.09
1005.916	-7.19
1006.342	-9.69
1006.767	-12.29
1007.192	4.71
1007.617	-1.49
1008.042	-6.49
1008.468	-8.19
1008.893	-4.79
1009.318	-4.59
1009.743	-8.29
1010.168	2.11
1010.593	-6.99
1011.018	-10.99
1011.443	-1.39
1011.868	-2.39
1012.293	-4.79
1012.718	-5.19
1013.143	0.41
1013.567	-1.79
1013.992	-4.59
1014.417	-13.09
1014.842	-2.09
1015.267	-7.59
1015.691	-9.79
1016.116	-0.49
1016.541	-2.69
1016.965	2.41
1017.39	4.21
1017.814	-2.89
1018.239	-8.69
1018.663	-6.89
1019.088	-13.69
1019.512	-2.19
1019.937	-1.49
1020.361	-3.89
1020.785	-7.29
1021.21	0.41
1021.634	-6.79
1022.058	-2.49
1022.483	0.81
1022.907	-4.89
1023.331	-5.49
1023.755	-0.89
1024.179	0.21
1024.604	-9.49
1025.028	-6.89
1025.452	0.91
1025.876	1.11
1026.3	2.61
1026.724	-10.89
1027.148	-0.59
1027.572	-10.09
1027.996	-5.49
1028.42	1.71
1028.843	-3.19
1029.267	-6.59
1029.691	-2.49
1030.115	-9.39
1030.539	-7.19
1030.962	-4.59
1031.386	-6.19
1031.81	-1.19
1032.233	-4.79
1032.657	-4.39
1033.08	-6.09
1033.504	-7.19
1033.927	-11.39
1034.351	-2.49
1034.774	-11.29
1035.198	1.91
1035.621	-9.89
1036.045	-7.69
1036.468	-2.39
1036.891	-9.79
1037.315	-9.39
1037.738	-9.89
1038.161	3.11
1038.584	-7.29
1039.008	-4.69
1039.431	-0.79
1039.854	-3.99
1040.277	-11.59
1040.7	-10.59
1041.123	-0.89
1041.546	-12.39
1041.969	-9.99
1042.392	-7.39
1042.815	4.51
1043.238	-1.79
1043.661	-0.09
1044.084	-6.99
1044.507	-3.49
1044.93	-9.19
1045.352	-4.99
1045.775	1.01
1046.198	-4.09
1046.621	-1.49
1047.043	-0.39
1047.466	9.61
1047.889	0.31
1048.311	-10.49
1048.734	-4.79
1049.156	-5.69
1049.579	-2.79
1050.001	-9.49
1050.424	-7.29
1050.846	-4.59
1051.269	-6.29
1051.691	-6.39
1052.113	-9.59
1052.536	-5.49
1052.958	-3.29
1053.38	-2.39
1053.802	-13.19
1054.225	-0.79
1054.647	-15.59
1055.069	-6.19
1055.491	-1.89
1055.913	-6.29
1056.335	-4.99
1056.757	-4.39
1057.179	-13.19
1057.601	-8.09
1058.023	-2.09
1058.445	-5.69
1058.867	-3.19
1059.289	-5.79
1059.711	-5.99
1060.133	-4.59
1060.555	-9.29
1060.976	-8.39
1061.398	-5.09
1061.82	-10.39
1062.241	-8.59
1062.663	-6.09
1063.085	-7.29
1063.506	0.11
1063.928	-6.19
1064.35	-2.99
1064.771	-11.19
1065.193	-5.09
1065.614	-11.29
1066.035	-0.99
1066.457	-7.79
1066.878	-4.09
1067.3	-9.69
1067.721	-4.19
1068.142	-5.79
1068.564	-5.99
1068.985	-5.89
1069.406	-10.49
1069.827	-12.59
1070.248	-0.69
1070.67	-6.59
1071.091	-3.19
1071.512	-8.59
1071.933	-8.99
1072.354	-4.29
1072.775	-10.79
1073.196	-11.29
1073.617	-8.19
1074.038	-9.89
1074.459	-12.79
1074.88	-7.89
1075.3	1.01
1075.721	-2.59
1076.142	0.61
1076.563	3.01
1076.983	-6.89
1077.404	-11.99
1077.825	-10.29
1078.246	-2.59
1078.666	-11.89
1079.087	-8.49
1079.507	-6.19
1079.928	0.81
1080.348	1.01
1080.769	-8.29
1081.189	-3.29
1081.61	-2.59
1082.03	-8.39
1082.451	-10.19
1082.871	-11.69
1083.291	-12.19
1083.711	-11.49
1084.132	-4.79
1084.552	-4.49
1084.972	0.01
1085.392	-11.89
1085.813	-12.19
1086.233	-14.99
1086.653	-10.39
1087.073	-3.59
1087.493	-5.09
1087.913	-5.29
1088.333	-4.89
1088.753	-7.19
1089.173	0.21
1089.593	-7.09
1090.013	-3.59
1090.433	-6.89
1090.852	-7.09
1091.272	-6.49
1091.692	-7.99
1092.112	-4.39
1092.531	-14.99
1092.951	-15.69
1093.371	-2.59
1093.79	-2.89
1094.21	-8.79
1094.63	-6.59
1095.049	-8.09
1095.469	-4.89
1095.888	-6.79
1096.308	1.41
1096.727	2.21
1097.146	-10.89
1097.566	0.21
1097.985	-9.29
1098.405	-3.19
1098.824	-9.19
1099.243	-7.89
1099.662	-15.09
1100.082	-7.99
1100.501	-5.59
1100.92	-6.69
1101.339	-6.29
1101.758	-12.29
