Data from 20171114-ORNL-Ar_H_NY_Subt18_08-06-32-473.txt Node
Date: Tue Nov 14 08:06:32 EST 2017
User: Ender
Spectrometer: HR+D1039
Trigger mode: 0
Integration Time (sec): 2.730000E-2
Scans to average: 10
Electric dark correction enabled: true
Nonlinearity correction enabled: false
Boxcar width: 0
XAxis mode: Wavelengths
Number of Pixels in Spectrum: 2048
>>>>>Begin Spectral Data<<<<<
187.836	-8.13
188.309	-8.13
188.782	-8.13
189.255	3.17
189.728	-2.63
190.201	3.07
190.674	0.07
191.147	4.17
191.619	-7.03
192.092	3.17
192.565	13.97
193.038	0.37
193.511	2.07
193.984	-0.23
194.456	-7.13
194.929	-6.23
195.402	-0.43
195.874	1.77
196.347	1.37
196.82	-8.23
197.292	5.97
197.765	-3.03
198.237	-6.83
198.71	-1.53
199.182	-3.33
199.655	-1.13
200.127	-2.93
200.6	-6.43
201.072	-0.93
201.544	-2.53
202.017	-3.93
202.489	3.37
202.961	-0.23
203.433	-2.13
203.906	1.07
204.378	-6.63
204.85	-3.03
205.322	-9.93
205.794	-8.03
206.266	-3.13
206.739	-12.83
207.211	-2.33
207.683	-8.73
208.155	-6.53
208.627	-0.93
209.099	-5.43
209.57	-8.93
210.042	-7.03
210.514	-2.93
210.986	1.77
211.458	-7.83
211.93	-7.03
212.402	2.57
212.873	-5.73
213.345	-9.23
213.817	-13.53
214.288	-8.03
214.76	-7.03
215.232	-0.13
215.703	0.77
216.175	-5.13
216.646	-4.33
217.118	-5.33
217.589	-2.33
218.061	-1.03
218.532	-0.73
219.004	-3.53
219.475	-4.53
219.946	-3.63
220.418	0.07
220.889	-0.93
221.36	0.47
221.832	-4.53
222.303	-10.73
222.774	3.17
223.245	-8.53
223.717	-6.03
224.188	-1.83
224.659	-8.83
225.13	-10.43
225.601	0.37
226.072	-4.43
226.543	0.77
227.014	-0.23
227.485	1.67
227.956	-8.53
228.427	-4.13
228.898	1.97
229.369	5.77
229.839	-3.53
230.31	-9.13
230.781	0.47
231.252	-4.83
231.722	-4.23
232.193	-4.33
232.664	2.77
233.135	5.27
233.605	3.17
234.076	-5.43
234.546	0.67
235.017	1.07
235.487	0.57
235.958	0.37
236.428	-3.63
236.899	4.87
237.369	2.07
237.84	-1.33
238.31	4.17
238.78	1.07
239.251	-2.73
239.721	6.47
240.191	3.27
240.662	-1.33
241.132	1.17
241.602	-3.33
242.072	1.47
242.542	8.17
243.013	0.67
243.483	4.87
243.953	-0.63
244.423	1.37
244.893	-1.93
245.363	1.27
245.833	4.37
246.303	-1.83
246.773	5.17
247.243	5.27
247.712	3.47
248.182	9.67
248.652	4.27
249.122	-3.13
249.592	11.87
250.061	20.77
250.531	29.37
251.001	12.17
251.471	18.37
251.94	16.77
252.41	8.27
252.879	3.57
253.349	12.37
253.818	13.57
254.288	8.07
254.757	1.97
255.227	4.17
255.696	-0.93
256.166	3.07
256.635	1.07
257.105	5.17
257.574	4.87
258.043	10.57
258.513	12.27
258.982	14.37
259.451	7.17
259.92	9.97
260.389	8.47
260.859	14.07
261.328	5.27
261.797	18.97
262.266	9.57
262.735	10.47
263.204	4.87
263.673	2.47
264.142	10.77
264.611	-3.93
265.08	4.47
265.549	2.47
266.018	7.07
266.487	-0.43
266.955	1.97
267.424	-2.53
267.893	7.17
268.362	2.37
268.83	1.37
269.299	9.57
269.768	5.47
270.236	9.67
270.705	4.97
271.174	2.37
271.642	14.57
272.111	9.37
272.579	16.07
273.048	23.07
273.516	26.07
273.985	27.17
274.453	33.57
274.922	20.37
275.39	5.67
275.858	7.37
276.327	12.97
276.795	22.27
277.263	10.67
277.731	31.67
278.2	51.17
278.668	59.77
279.136	48.37
279.604	21.17
280.072	22.37
280.54	17.77
281.008	5.17
281.477	13.67
281.945	12.07
282.413	11.27
282.881	18.97
283.348	3.57
283.816	10.27
284.284	16.67
284.752	21.87
285.22	15.37
285.688	19.37
286.156	20.67
286.623	49.47
287.091	52.17
287.559	25.37
288.026	22.87
288.494	12.47
288.962	4.87
289.429	14.17
289.897	22.57
290.364	17.57
290.832	16.97
291.3	16.27
291.767	22.27
292.234	18.57
292.702	10.67
293.169	20.77
293.637	18.47
294.104	17.97
294.571	11.47
295.039	15.77
295.506	19.87
295.973	16.37
296.44	12.87
296.908	12.47
297.375	24.77
297.842	23.47
298.309	18.27
298.776	13.27
299.243	21.57
299.71	11.97
300.177	24.97
300.644	23.17
301.111	20.27
301.578	27.17
302.045	21.57
302.512	20.37
302.979	22.57
303.446	24.27
303.913	17.97
304.379	27.17
304.846	28.27
305.313	20.77
305.78	22.87
306.246	16.77
306.713	31.77
307.18	27.67
307.646	30.07
308.113	27.77
308.579	23.47
309.046	28.37
309.512	31.37
309.979	18.17
310.445	30.37
310.912	28.87
311.378	25.77
311.845	37.87
312.311	30.77
312.777	33.37
313.244	33.77
313.71	39.37
314.176	31.27
314.642	36.37
315.109	34.57
315.575	39.87
316.041	41.87
316.507	31.77
316.973	38.67
317.439	32.17
317.905	34.37
318.371	37.17
318.837	30.37
319.303	37.37
319.769	32.47
320.235	34.97
320.701	40.57
321.167	42.37
321.633	39.57
322.099	44.87
322.564	41.07
323.03	46.47
323.496	42.87
323.962	43.67
324.427	41.17
324.893	44.27
325.359	42.77
325.824	38.77
326.29	37.47
326.755	42.37
327.221	36.67
327.686	36.87
328.152	44.37
328.617	43.57
329.083	47.97
329.548	49.57
330.014	48.07
330.479	46.37
330.944	41.57
331.41	45.27
331.875	48.87
332.34	41.57
332.805	46.47
333.271	49.37
333.736	42.67
334.201	59.07
334.666	62.07
335.131	54.87
335.596	54.27
336.061	48.97
336.526	44.27
336.991	55.97
337.456	60.67
337.921	49.37
338.386	43.17
338.851	38.77
339.316	45.27
339.781	41.17
340.246	48.97
340.711	48.67
341.175	56.27
341.64	48.57
342.105	52.77
342.569	61.07
343.034	59.17
343.499	61.87
343.963	50.67
344.428	62.57
344.893	64.07
345.357	63.17
345.822	61.97
346.286	71.37
346.751	77.47
347.215	67.47
347.679	81.47
348.144	98.97
348.608	84.27
349.073	71.17
349.537	74.77
350.001	84.57
350.465	91.77
350.93	79.37
351.394	87.97
351.858	69.87
352.322	91.07
352.786	82.87
353.25	102.67
353.715	114.67
354.179	100.37
354.643	122.27
355.107	128.67
355.571	111.37
356.035	105.37
356.498	117.37
356.962	129.47
357.426	133.27
357.89	120.87
358.354	96.37
358.818	81.07
359.281	87.37
359.745	78.87
360.209	78.27
360.673	77.27
361.136	85.87
361.6	92.27
362.064	89.57
362.527	92.37
362.991	92.17
363.454	80.87
363.918	77.77
364.381	84.97
364.845	88.57
365.308	88.47
365.772	86.57
366.235	83.27
366.698	92.17
367.162	97.77
367.625	92.07
368.088	98.97
368.552	92.47
369.015	90.07
369.478	93.27
369.941	109.27
370.404	96.37
370.867	106.27
371.331	110.47
371.794	117.57
372.257	116.17
372.72	127.57
373.183	114.77
373.646	112.97
374.109	106.97
374.572	109.27
375.035	111.87
375.497	112.17
375.96	109.77
376.423	105.47
376.886	124.77
377.349	116.07
377.811	115.27
378.274	110.97
378.737	112.97
379.199	119.27
379.662	116.07
380.125	124.77
380.587	122.97
381.05	129.07
381.512	131.97
381.975	136.17
382.437	135.37
382.9	135.27
383.362	144.37
383.825	151.97
384.287	157.67
384.75	146.77
385.212	144.47
385.674	143.37
386.136	141.37
386.599	125.97
387.061	131.77
387.523	137.07
387.985	143.97
388.447	144.57
388.91	151.17
389.372	163.27
389.834	161.27
390.296	156.77
390.758	161.37
391.22	175.07
391.682	222.97
392.144	313.67
392.606	236.17
393.068	173.57
393.529	176.57
393.991	164.87
394.453	158.97
394.915	168.77
395.377	205.27
395.838	228.17
396.3	165.17
396.762	152.87
397.224	144.37
397.685	138.07
398.147	138.77
398.608	131.37
399.07	141.97
399.531	149.67
399.993	149.97
400.454	158.37
400.916	155.37
401.377	150.47
401.839	162.27
402.3	158.97
402.762	179.17
403.223	190.47
403.684	179.17
404.145	166.47
404.607	169.57
405.068	169.97
405.529	180.77
405.99	197.47
406.451	181.17
406.913	181.77
407.374	177.67
407.835	164.87
408.296	178.27
408.757	179.17
409.218	191.37
409.679	185.67
410.14	183.57
410.601	186.37
411.062	192.27
411.522	203.07
411.983	196.47
412.444	184.37
412.905	185.87
413.366	190.07
413.826	199.17
414.287	228.27
414.748	277.37
415.208	261.27
415.669	224.47
416.13	218.37
416.59	208.57
417.051	223.27
417.511	231.67
417.972	246.47
418.432	265.07
418.893	305.47
419.353	259.97
419.814	206.47
420.274	196.47
420.734	189.27
421.195	207.87
421.655	204.27
422.115	202.87
422.576	205.37
423.036	204.97
423.496	218.27
423.956	224.47
424.416	243.47
424.876	276.17
425.336	269.37
425.797	271.87
426.257	260.47
426.717	248.87
427.177	242.27
427.637	230.47
428.097	241.87
428.556	264.47
429.016	276.17
429.476	281.37
429.936	286.27
430.396	290.07
430.856	311.47
431.315	331.67
431.775	355.57
432.235	400.97
432.694	366.77
433.154	380.87
433.614	413.47
434.073	354.87
434.533	297.87
434.993	285.57
435.452	300.37
435.912	310.87
436.371	308.67
436.83	298.97
437.29	274.37
437.749	259.57
438.209	256.77
438.668	289.57
439.127	299.17
439.587	278.97
440.046	259.17
440.505	269.07
440.964	291.97
441.424	339.47
441.883	323.77
442.342	275.27
442.801	239.67
443.26	230.77
443.719	235.07
444.178	228.47
444.637	216.97
445.096	229.77
445.555	234.77
446.014	233.27
446.473	239.67
446.932	243.87
447.391	235.77
447.849	235.57
448.308	230.07
448.767	235.97
449.226	244.97
449.685	249.77
450.143	262.57
450.602	244.87
451.061	239.87
451.519	241.67
451.978	244.37
452.436	246.37
452.895	261.27
453.353	259.47
453.812	245.47
454.27	246.57
454.729	248.97
455.187	254.77
455.646	253.67
456.104	263.07
456.562	269.57
457.021	278.77
457.479	278.57
457.937	286.47
458.395	276.47
458.854	255.17
459.312	270.27
459.77	287.07
460.228	263.77
460.686	249.47
461.144	272.67
461.602	255.87
462.06	258.07
462.518	266.97
462.976	271.97
463.434	273.37
463.892	274.67
464.35	281.97
464.808	296.67
465.266	266.17
465.724	279.27
466.181	275.17
466.639	279.07
467.097	303.27
467.555	314.97
468.012	320.87
468.47	323.87
468.928	348.57
469.385	357.27
469.843	363.67
470.3	361.37
470.758	381.57
471.215	402.77
471.673	419.47
472.13	431.47
472.588	436.07
473.045	391.47
473.503	398.37
473.96	415.77
474.417	422.17
474.875	452.57
475.332	499.07
475.789	479.47
476.246	494.37
476.704	511.17
477.161	538.57
477.618	548.77
478.075	583.17
478.532	645.77
478.989	719.87
479.446	837.77
479.903	802.87
480.36	834.57
480.817	899.87
481.274	1002.67
481.731	1126.07
482.188	1210.47
482.645	1341.47
483.102	1462.07
483.558	1594.67
484.015	1662.57
484.472	1635.77
484.929	1584.07
485.385	1520.67
485.842	1489.17
486.299	1415.37
486.755	1354.77
487.212	1141.57
487.668	959.17
488.125	898.27
488.582	809.97
489.038	770.17
489.494	730.87
489.951	707.47
490.407	696.17
490.864	668.37
491.32	675.47
491.776	675.37
492.233	676.37
492.689	639.17
493.145	637.37
493.602	625.97
494.058	644.27
494.514	637.97
494.97	668.27
495.426	674.17
495.882	637.87
496.338	632.47
496.794	649.47
497.251	639.17
497.707	667.07
498.163	672.17
498.618	662.87
499.074	677.97
499.53	704.47
499.986	697.07
500.442	679.07
500.898	661.37
501.354	641.27
501.809	668.47
502.265	674.57
502.721	683.47
503.177	712.97
503.632	689.37
504.088	703.47
504.543	735.97
504.999	737.57
505.455	682.37
505.91	658.37
506.366	657.07
506.821	653.37
507.277	648.97
507.732	654.37
508.187	650.77
508.643	652.57
509.098	663.87
509.553	681.87
510.009	690.47
510.464	692.77
510.919	717.97
511.375	723.47
511.83	732.67
512.285	755.07
512.74	791.77
513.195	813.77
513.65	801.07
514.105	800.67
514.56	808.37
515.015	823.57
515.47	840.17
515.925	821.17
516.38	813.67
516.835	833.87
517.29	824.57
517.745	801.57
518.2	792.47
518.655	780.57
519.109	769.97
519.564	767.27
520.019	758.27
520.474	745.27
520.928	751.97
521.383	751.07
521.838	743.77
522.292	745.67
522.747	738.17
523.201	737.07
523.656	723.27
524.11	724.17
524.565	716.17
525.019	720.67
525.474	725.77
525.928	723.17
526.382	726.67
526.837	727.87
527.291	725.07
527.745	726.97
528.2	728.47
528.654	718.07
529.108	708.97
529.562	716.57
530.016	716.17
530.47	715.77
530.925	718.17
531.379	717.77
531.833	718.27
532.287	731.27
532.741	732.27
533.195	729.37
533.649	742.47
534.103	752.47
534.556	727.77
535.01	752.57
535.464	728.67
535.918	740.97
536.372	741.17
536.826	741.17
537.279	736.07
537.733	745.87
538.187	744.27
538.64	738.77
539.094	745.97
539.548	756.57
540.001	755.07
540.455	753.67
540.908	770.97
541.362	778.07
541.815	784.97
542.269	787.57
542.722	782.67
543.175	801.97
543.629	802.17
544.082	819.37
544.536	809.47
544.989	814.57
545.442	822.97
545.895	814.07
546.349	809.07
546.802	827.77
547.255	833.17
547.708	832.47
548.161	847.37
548.614	859.87
549.067	852.87
549.52	851.77
549.973	848.57
550.426	840.37
550.879	825.27
551.332	828.87
551.785	836.77
552.238	827.67
552.691	838.47
553.144	861.37
553.596	876.37
554.049	896.17
554.502	925.67
554.955	958.67
555.407	942.07
555.86	939.37
556.313	920.17
556.765	911.27
557.218	915.37
557.67	925.77
558.123	906.07
558.576	908.17
559.028	914.27
559.48	915.67
559.933	907.17
560.385	871.87
560.838	840.07
561.29	820.77
561.742	809.87
562.195	802.87
562.647	794.67
563.099	809.37
563.551	805.07
564.004	814.07
564.456	805.57
564.908	791.97
565.36	786.97
565.812	769.07
566.264	748.37
566.716	751.27
567.168	735.07
567.62	746.97
568.072	733.47
568.524	719.67
568.976	719.27
569.428	704.47
569.88	701.97
570.332	703.77
570.784	713.57
571.235	702.97
571.687	719.57
572.139	735.67
572.59	740.07
573.042	733.37
573.494	737.37
573.945	729.67
574.397	710.77
574.849	720.97
575.3	719.37
575.752	709.07
576.203	700.47
576.655	710.87
577.106	688.67
577.557	695.47
578.009	696.67
578.46	693.67
578.912	685.37
579.363	681.07
579.814	688.17
580.265	683.67
580.717	697.37
581.168	693.27
581.619	696.77
582.07	702.77
582.521	692.37
582.972	704.07
583.423	708.77
583.875	714.87
584.326	723.27
584.777	767.87
585.227	848.77
585.678	936.27
586.129	1026.37
586.58	1107.07
587.031	1194.37
587.482	1344.57
587.933	1522.17
588.384	1329.07
588.834	1006.37
589.285	836.97
589.736	809.97
590.186	800.57
590.637	803.77
591.088	769.87
591.538	756.67
591.989	757.17
592.439	752.97
592.89	747.67
593.34	737.87
593.791	739.67
594.241	731.67
594.692	727.77
595.142	732.47
595.593	724.07
596.043	734.17
596.493	740.57
596.943	744.77
597.394	751.27
597.844	740.37
598.294	758.97
598.744	785.87
599.195	800.27
599.645	843.87
600.095	882.37
600.545	940.87
600.995	1007.27
601.445	1059.37
601.895	1118.57
602.345	1179.77
602.795	1147.37
603.245	1100.17
603.695	1045.37
604.145	994.67
604.594	941.97
605.044	889.77
605.494	820.27
605.944	774.67
606.393	765.57
606.843	752.57
607.293	755.27
607.743	756.07
608.192	779.17
608.642	786.37
609.091	798.67
609.541	793.37
609.99	800.17
610.44	792.37
610.889	748.47
611.339	722.27
611.788	712.77
612.238	732.47
612.687	742.17
613.136	741.47
613.586	759.77
614.035	755.37
614.484	781.07
614.933	781.77
615.383	770.27
615.832	765.87
616.281	739.17
616.73	706.67
617.179	688.37
617.628	674.57
618.077	651.87
618.526	648.37
618.975	639.47
619.424	635.47
619.873	630.97
620.322	642.37
620.771	631.87
621.22	626.37
621.669	612.77
622.118	604.07
622.567	603.07
623.015	589.27
623.464	596.57
623.913	574.77
624.361	573.27
624.81	572.67
625.259	569.97
625.707	572.17
626.156	568.87
626.604	586.87
627.053	585.57
627.501	580.67
627.95	577.27
628.398	598.37
628.847	592.97
629.295	590.27
629.744	590.97
630.192	598.17
630.64	592.27
631.089	584.37
631.537	592.17
631.985	601.57
632.433	619.37
632.881	638.77
633.33	687.17
633.778	664.87
634.226	591.77
634.674	597.97
635.122	596.37
635.57	611.07
636.018	648.47
636.466	598.97
636.914	571.47
637.362	583.07
637.81	599.57
638.258	596.97
638.705	586.87
639.153	630.27
639.601	636.47
640.049	664.07
640.497	686.17
640.944	704.87
641.392	661.67
641.84	623.97
642.287	596.27
642.735	589.57
643.182	590.27
643.63	592.07
644.078	591.27
644.525	605.37
644.973	614.97
645.42	623.97
645.867	644.57
646.315	648.37
646.762	691.37
647.21	713.27
647.657	732.67
648.104	766.37
648.551	788.17
648.999	862.27
649.446	941.37
649.893	1033.77
650.34	1195.87
650.787	1430.07
651.234	1782.97
651.682	2306.97
652.129	3167.27
652.576	4565.27
653.023	6739.17
653.47	9199.37
653.917	11496.77
654.363	13256.17
654.81	14632.37
655.257	13916.07
655.704	9140.47
656.151	5369.57
656.598	3510.27
657.044	2475.57
657.491	1894.27
657.938	1524.77
658.385	1271.17
658.831	1108.47
659.278	996.67
659.724	882.87
660.171	805.07
660.618	739.47
661.064	707.07
661.511	684.77
661.957	664.77
662.404	664.57
662.85	664.67
663.296	637.17
663.743	579.07
664.189	559.47
664.635	548.67
665.082	541.17
665.528	538.67
665.974	536.77
666.42	524.67
666.867	516.37
667.313	504.77
667.759	493.97
668.205	489.57
668.651	496.27
669.097	499.37
669.543	521.87
669.989	484.67
670.435	471.17
670.881	456.27
671.327	460.87
671.773	484.77
672.219	501.47
672.665	565.37
673.11	597.67
673.556	634.87
674.002	678.47
674.448	674.07
674.893	559.87
675.339	482.07
675.785	447.47
676.23	426.57
676.676	411.67
677.122	395.87
677.567	377.27
678.013	379.37
678.458	368.67
678.904	370.97
679.349	361.47
679.794	356.07
680.24	350.27
680.685	360.17
681.131	363.67
681.576	359.47
682.021	362.27
682.466	358.27
682.912	356.07
683.357	370.47
683.802	390.97
684.247	425.37
684.692	464.27
685.137	507.07
685.583	551.47
686.028	567.47
686.473	526.67
686.918	453.27
687.363	423.97
687.807	402.37
688.252	373.37
688.697	359.27
689.142	356.97
689.587	336.67
690.032	336.67
690.477	354.67
690.921	353.67
691.366	391.57
691.811	414.47
692.255	439.87
692.7	470.47
693.145	513.77
693.589	713.57
694.034	1145.77
694.478	1576.87
694.923	1777.97
695.367	2323.47
695.812	1221.57
696.256	511.57
696.701	372.97
697.145	355.87
697.59	341.67
698.034	330.87
698.478	338.07
698.922	336.37
699.367	340.87
699.811	351.17
700.255	364.47
700.699	387.37
701.143	442.97
701.588	492.27
702.032	532.27
702.476	530.37
702.92	495.97
703.364	497.37
703.808	649.87
704.252	1054.17
704.696	1484.77
705.14	1697.07
705.584	2185.37
706.027	1090.87
706.471	527.97
706.915	406.37
707.359	366.47
707.803	327.97
708.246	319.27
708.69	315.57
709.134	322.87
709.577	319.17
710.021	328.37
710.465	307.47
710.908	304.17
711.352	302.87
711.795	321.27
712.239	354.07
712.682	393.77
713.126	428.97
713.569	473.87
714.012	370.97
714.456	335.37
714.899	309.87
715.342	283.07
715.786	272.47
716.229	262.17
716.672	259.37
717.115	261.17
717.558	258.87
718.002	263.37
718.445	275.47
718.888	289.17
719.331	302.27
719.774	317.67
720.217	310.77
720.66	287.67
721.103	272.77
721.546	256.97
721.989	254.37
722.432	233.97
722.874	239.77
723.317	241.97
723.76	242.17
724.203	265.57
724.645	323.87
725.088	456.37
725.531	587.07
725.974	655.47
726.416	556.57
726.859	314.27
727.301	252.77
727.744	240.17
728.187	235.17
728.629	244.27
729.071	248.17
729.514	268.57
729.956	284.77
730.399	291.47
730.841	297.87
731.283	278.67
731.726	273.57
732.168	265.57
732.61	273.87
733.053	291.87
733.495	317.67
733.937	356.47
734.379	408.57
734.821	444.97
735.263	545.17
735.705	848.67
736.148	1610.77
736.59	2638.37
737.032	3118.37
737.474	2525.47
737.916	826.97
738.357	438.47
738.799	334.27
739.241	310.47
739.683	288.27
740.125	295.37
740.567	305.67
741.008	328.87
741.45	325.97
741.892	327.57
742.334	360.87
742.775	363.17
743.217	341.37
743.658	267.37
744.1	261.87
744.542	265.77
744.983	313.47
745.425	351.47
745.866	342.37
746.307	288.57
746.749	286.77
747.19	328.57
747.632	472.07
748.073	894.97
748.514	1897.57
748.956	2917.97
749.397	3628.27
749.838	3031.77
750.279	3018.17
750.72	1521.67
751.162	559.97
751.603	328.97
752.044	260.77
752.485	227.97
752.926	214.27
753.367	204.17
753.808	197.17
754.249	193.87
754.69	192.87
755.131	180.47
755.572	179.57
756.013	184.37
756.453	182.37
756.894	196.17
757.335	196.37
757.776	201.87
758.216	199.37
758.657	202.87
759.098	205.67
759.538	229.57
759.979	276.17
760.42	368.27
760.86	711.27
761.301	1855.07
761.741	4503.97
762.182	6544.97
762.622	4597.77
763.063	1317.37
763.503	544.47
763.943	354.67
764.384	354.97
764.824	408.57
765.264	444.87
765.705	310.97
766.145	213.97
766.585	189.97
767.025	187.47
767.465	183.07
767.906	248.57
768.346	324.87
768.786	347.67
769.226	268.87
769.666	330.57
770.106	632.97
770.546	1577.97
770.986	2704.37
771.426	2405.17
771.866	798.27
772.306	338.17
772.745	218.87
773.185	179.07
773.625	170.77
774.065	172.67
774.505	198.27
774.944	301.87
775.384	671.37
775.824	1205.07
776.263	1169.47
776.703	500.27
777.142	228.27
777.582	161.77
778.021	141.27
778.461	142.47
778.9	141.87
779.34	133.17
779.779	124.27
780.219	117.17
780.658	115.77
781.097	119.27
781.537	116.37
781.976	107.97
782.415	109.17
782.855	106.77
783.294	109.07
783.733	112.87
784.172	110.87
784.611	106.07
785.05	114.47
785.489	115.27
785.928	113.97
786.367	125.67
786.806	124.27
787.245	128.47
787.684	137.87
788.123	153.27
788.562	139.27
789.001	132.17
789.44	122.97
789.879	114.77
790.317	123.87
790.756	130.77
791.195	125.57
791.634	152.47
792.072	209.97
792.511	376.87
792.95	1031.37
793.388	2168.97
793.827	1959.17
794.265	690.97
794.704	284.87
795.142	185.57
795.581	156.57
796.019	142.77
796.458	136.17
796.896	131.37
797.334	135.07
797.773	158.07
798.211	229.07
798.649	441.97
799.087	1031.77
799.526	1621.87
799.964	2047.67
800.402	2038.87
800.84	764.37
801.278	306.17
801.716	190.77
802.154	155.77
802.592	149.37
803.03	143.57
803.468	150.07
803.906	150.57
804.344	155.77
804.782	142.77
805.22	136.57
805.658	125.47
806.096	153.07
806.533	158.37
806.971	177.47
807.409	226.07
807.847	315.07
808.284	675.87
808.722	1887.27
809.16	3356.97
809.597	3156.07
810.035	5496.27
810.472	5862.87
810.91	2102.17
811.347	803.67
811.785	411.87
812.222	262.57
812.66	207.97
813.097	167.07
813.535	148.57
813.972	132.57
814.409	125.37
814.846	116.07
815.284	112.37
815.721	106.47
816.158	115.97
816.595	120.37
817.032	177.67
817.47	198.87
817.907	175.97
818.344	159.97
818.781	124.17
819.218	102.77
819.655	122.07
820.092	186.07
820.529	217.97
820.966	175.17
821.403	132.07
821.839	103.67
822.276	104.17
822.713	128.97
823.15	137.27
823.587	121.47
824.023	146.47
824.46	309.27
824.897	912.87
825.333	1386.47
825.77	593.17
826.206	230.87
826.643	139.57
827.08	101.27
827.516	83.77
827.953	80.77
828.389	85.17
828.825	68.07
829.262	71.17
829.698	58.87
830.135	65.37
830.571	60.07
831.007	63.97
831.443	62.07
831.88	68.07
832.316	65.27
832.752	66.37
833.188	63.67
833.624	58.97
834.06	72.87
834.497	68.07
834.933	76.87
835.369	76.07
835.805	66.97
836.241	77.87
836.677	79.07
837.112	94.97
837.548	103.37
837.984	130.17
838.42	206.87
838.856	500.67
839.292	1541.87
839.727	2342.37
840.163	1072.47
840.599	937.17
841.034	2045.87
841.47	2143.67
841.906	783.07
842.341	338.67
842.777	231.67
843.212	323.67
843.648	309.87
844.083	147.07
844.519	95.37
844.954	79.07
845.39	63.97
845.825	58.27
846.261	59.47
846.696	59.27
847.131	58.27
847.566	60.67
848.002	58.87
848.437	60.87
848.872	65.37
849.307	65.97
849.742	88.27
850.177	184.97
850.613	563.77
851.048	888.77
851.483	382.67
851.918	156.07
852.353	88.47
852.788	62.97
853.223	63.67
853.657	52.77
854.092	48.67
854.527	42.17
854.962	49.17
855.397	47.37
855.832	50.47
856.266	40.87
856.701	43.07
857.136	36.57
857.57	41.47
858.005	54.07
858.44	60.17
858.874	47.17
859.309	54.57
859.743	37.67
860.178	48.37
860.612	46.37
861.047	52.67
861.481	70.07
861.915	68.47
862.35	48.07
862.784	34.27
863.218	34.67
863.653	39.17
864.087	45.27
864.521	54.17
864.955	75.27
865.39	158.57
865.824	176.57
866.258	114.17
866.692	158.27
867.126	179.07
867.56	109.77
867.994	56.27
868.428	34.77
868.862	51.97
869.296	48.57
869.73	60.87
870.164	52.97
870.598	50.87
871.031	34.87
871.465	31.67
871.899	32.47
872.333	21.37
872.766	22.97
873.2	21.27
873.634	26.67
874.067	30.77
874.501	25.27
874.935	32.97
875.368	30.57
875.802	31.37
876.235	28.57
876.669	32.67
877.102	20.67
877.535	27.07
877.969	21.17
878.402	29.07
878.836	17.77
879.269	20.77
879.702	21.77
880.135	17.57
880.569	24.47
881.002	32.07
881.435	27.57
881.868	16.77
882.301	24.57
882.734	21.07
883.167	23.97
883.601	24.97
884.034	24.87
884.467	9.97
884.899	16.97
885.332	15.97
885.765	15.97
886.198	16.97
886.631	22.07
887.064	18.17
887.497	17.67
887.929	23.87
888.362	12.37
888.795	14.07
889.228	22.97
889.66	16.27
890.093	16.87
890.526	20.77
890.958	18.87
891.391	17.77
891.823	20.47
892.256	10.07
892.688	9.37
893.121	15.37
893.553	17.37
893.985	18.87
894.418	23.47
894.85	15.07
895.282	15.37
895.715	19.37
896.147	16.17
896.579	18.07
897.011	17.07
897.444	21.47
897.876	9.47
898.308	16.47
898.74	6.87
899.172	12.87
899.604	18.57
900.036	20.77
900.468	11.67
900.9	19.67
901.332	21.97
901.764	22.97
902.196	20.57
902.628	21.17
903.06	11.57
903.491	35.27
903.923	20.57
904.355	18.37
904.787	23.77
905.218	28.07
905.65	21.77
906.082	18.17
906.513	13.77
906.945	14.47
907.376	14.27
907.808	16.47
908.239	24.87
908.671	24.27
909.102	23.57
909.534	23.77
909.965	43.67
910.397	99.07
910.828	321.87
911.259	480.67
911.691	216.37
912.122	116.37
912.553	61.67
912.984	38.27
913.415	31.07
913.847	24.27
914.278	16.97
914.709	14.77
915.14	14.77
915.571	19.87
916.002	14.17
916.433	21.37
916.864	18.17
917.295	16.47
917.726	17.67
918.157	19.87
918.587	27.17
919.018	25.67
919.449	22.57
919.88	26.57
920.311	26.47
920.741	54.67
921.172	171.97
921.603	150.07
922.033	74.57
922.464	46.97
922.895	23.77
923.325	15.67
923.756	15.97
924.186	21.07
924.617	25.37
925.047	42.27
925.478	52.97
925.908	38.97
926.338	23.77
926.769	19.97
927.199	21.67
927.629	9.67
928.06	17.57
928.49	14.57
928.92	13.47
929.35	14.97
929.78	15.07
930.21	6.77
930.641	12.87
931.071	12.47
931.501	9.17
931.931	7.67
932.361	9.07
932.791	4.27
933.221	2.87
933.651	5.87
934.08	14.97
934.51	29.67
934.94	10.87
935.37	8.87
935.8	6.67
936.229	7.97
936.659	4.07
937.089	5.67
937.519	14.17
937.948	23.47
938.378	10.77
938.807	3.77
939.237	8.37
939.666	10.07
940.096	-2.73
940.525	-3.93
940.955	5.67
941.384	1.67
941.814	-7.93
942.243	-0.43
942.672	3.47
943.102	3.37
943.531	-6.43
943.96	4.17
944.39	3.67
944.819	-0.63
945.248	1.77
945.677	-1.43
946.106	3.17
946.535	8.77
946.964	2.27
947.393	2.17
947.822	9.67
948.251	-3.83
948.68	1.17
949.109	5.67
949.538	6.17
949.967	0.87
950.396	2.87
950.825	-1.33
951.254	-2.73
951.682	-8.03
952.111	7.37
952.54	5.27
952.969	-2.23
953.397	-4.83
953.826	-2.53
954.254	-10.43
954.683	1.97
955.112	-2.53
955.54	5.37
955.969	2.47
956.397	4.47
956.826	-5.23
957.254	6.37
957.682	2.07
958.111	2.57
958.539	1.97
958.967	0.57
959.396	2.07
959.824	0.67
960.252	3.07
960.68	-9.23
961.109	-5.43
961.537	-6.83
961.965	-1.13
962.393	1.17
962.821	-4.63
963.249	1.67
963.677	6.27
964.105	5.77
964.533	46.27
964.961	44.37
965.389	29.27
965.817	13.37
966.245	-0.43
966.672	-0.83
967.1	-8.73
967.528	5.27
967.956	-2.43
968.383	3.07
968.811	-3.73
969.239	4.47
969.666	-10.03
970.094	-0.13
970.522	1.27
970.949	-2.63
971.377	-2.33
971.804	6.57
972.232	0.37
972.659	1.37
973.087	-5.03
973.514	1.37
973.941	-1.13
974.369	1.37
974.796	3.17
975.223	-0.83
975.651	-6.53
976.078	3.67
976.505	0.67
976.932	-1.03
977.359	14.07
977.786	13.47
978.214	2.07
978.641	-5.83
979.068	-4.43
979.495	0.57
979.922	1.97
980.349	-5.83
980.776	-0.03
981.202	-3.13
981.629	6.87
982.056	5.47
982.483	-0.53
982.91	5.97
983.337	-5.23
983.763	-0.83
984.19	-1.13
984.617	-1.73
985.043	-8.03
985.47	-3.33
985.897	-9.63
986.323	-8.13
986.75	-1.23
987.176	2.07
987.603	1.07
988.029	1.47
988.456	-4.33
988.882	1.77
989.308	-7.03
989.735	-9.73
990.161	2.57
990.587	-0.43
991.014	-0.63
991.44	1.67
991.866	-3.03
992.292	-5.63
992.719	-3.73
993.145	5.57
993.571	-5.43
993.997	-4.93
994.423	-6.63
994.849	-4.23
995.275	3.47
995.701	6.07
996.127	-2.93
996.553	4.97
996.979	-0.53
997.405	-3.13
997.83	-5.53
998.256	-6.43
998.682	-3.33
999.108	-8.33
999.534	-0.33
999.959	-3.13
1000.385	-2.63
1000.811	-1.03
1001.236	-8.63
1001.662	-12.83
1002.087	-8.33
1002.513	2.87
1002.938	2.67
1003.364	-1.13
1003.789	0.37
1004.215	0.17
1004.64	-0.73
1005.066	7.27
1005.491	1.27
1005.916	-0.23
1006.342	-0.53
1006.767	-2.93
1007.192	0.27
1007.617	-5.33
1008.042	-3.23
1008.468	-4.53
1008.893	-4.23
1009.318	0.07
1009.743	-6.73
1010.168	-1.43
1010.593	3.57
1011.018	-8.53
1011.443	-1.03
1011.868	0.97
1012.293	-7.03
1012.718	-2.43
1013.143	-0.83
1013.567	-1.43
1013.992	-1.23
1014.417	-14.83
1014.842	1.57
1015.267	0.97
1015.691	-5.93
1016.116	4.87
1016.541	-2.83
1016.965	0.97
1017.39	2.87
1017.814	3.57
1018.239	4.77
1018.663	-5.13
1019.088	-2.33
1019.512	-5.73
1019.937	-1.43
1020.361	-4.53
1020.785	-9.53
1021.21	-5.73
1021.634	-3.83
1022.058	4.27
1022.483	8.57
1022.907	-5.63
1023.331	-3.13
1023.755	-7.83
1024.179	-0.13
1024.604	-9.43
1025.028	-4.03
1025.452	-3.53
1025.876	2.27
1026.3	2.17
1026.724	-15.33
1027.148	-0.33
1027.572	-7.63
1027.996	-3.53
1028.42	-1.33
1028.843	-5.23
1029.267	-4.53
1029.691	-6.23
1030.115	-4.63
1030.539	-5.53
1030.962	-5.23
1031.386	-14.43
1031.81	-6.03
1032.233	3.27
1032.657	-1.43
1033.08	-6.53
1033.504	0.07
1033.927	-1.13
1034.351	1.07
1034.774	-3.83
1035.198	-5.63
1035.621	-16.63
1036.045	-7.33
1036.468	-1.43
1036.891	-10.93
1037.315	-9.73
1037.738	-8.73
1038.161	2.67
1038.584	-10.63
1039.008	-6.23
1039.431	-9.63
1039.854	-2.63
1040.277	-6.33
1040.7	-15.23
1041.123	-4.23
1041.546	-4.53
1041.969	-2.93
1042.392	-5.63
1042.815	-4.93
1043.238	1.47
1043.661	1.37
1044.084	-8.53
1044.507	0.07
1044.93	-5.63
1045.352	-9.93
1045.775	-0.63
1046.198	2.17
1046.621	-1.83
1047.043	1.87
1047.466	6.07
1047.889	-5.53
1048.311	-6.53
1048.734	-9.13
1049.156	-7.93
1049.579	-1.63
1050.001	-3.13
1050.424	-2.63
1050.846	-4.83
1051.269	-6.23
1051.691	-10.93
1052.113	-3.73
1052.536	0.87
1052.958	-7.73
1053.38	-0.93
1053.802	-9.93
1054.225	-2.03
1054.647	-5.43
1055.069	-8.33
1055.491	-1.63
1055.913	-13.63
1056.335	-1.53
1056.757	-7.33
1057.179	-10.13
1057.601	-6.93
1058.023	-4.43
1058.445	0.37
1058.867	-1.23
1059.289	-5.43
1059.711	-2.13
1060.133	-3.03
1060.555	-10.23
1060.976	-7.13
1061.398	-4.33
1061.82	-10.83
1062.241	-3.03
1062.663	-6.73
1063.085	-6.23
1063.506	2.07
1063.928	-2.33
1064.35	-0.93
1064.771	-8.03
1065.193	3.97
1065.614	-8.53
1066.035	0.07
1066.457	-0.73
1066.878	2.57
1067.3	-4.63
1067.721	-2.53
1068.142	-5.93
1068.564	1.27
1068.985	-3.93
1069.406	-8.53
1069.827	-5.33
1070.248	-7.73
1070.67	-4.63
1071.091	-3.53
1071.512	-2.53
1071.933	-3.23
1072.354	-2.83
1072.775	-2.63
1073.196	-11.73
1073.617	2.07
1074.038	-3.83
1074.459	-1.93
1074.88	-5.53
1075.3	-1.33
1075.721	-4.83
1076.142	2.57
1076.563	-2.43
1076.983	-13.93
1077.404	-5.93
1077.825	-14.23
1078.246	-8.13
1078.666	-8.03
1079.087	1.17
1079.507	-3.03
1079.928	2.87
1080.348	-1.53
1080.769	-3.23
1081.189	0.27
1081.61	-4.53
1082.03	-4.73
1082.451	-5.13
1082.871	-2.53
1083.291	-6.73
1083.711	-8.73
1084.132	-5.23
1084.552	-4.33
1084.972	1.27
1085.392	-13.43
1085.813	-14.03
1086.233	-3.53
1086.653	-8.23
1087.073	-1.73
1087.493	-1.53
1087.913	-10.93
1088.333	-4.23
1088.753	-2.63
1089.173	0.37
1089.593	-4.43
1090.013	-3.33
1090.433	-1.53
1090.852	-5.13
1091.272	-2.93
1091.692	-4.63
1092.112	-6.33
1092.531	-4.23
1092.951	-11.63
1093.371	-2.33
1093.79	-1.23
1094.21	-3.03
1094.63	1.47
1095.049	-11.53
1095.469	-0.83
1095.888	-8.23
1096.308	-0.63
1096.727	1.27
1097.146	-7.93
1097.566	-2.13
1097.985	-3.93
1098.405	-0.83
1098.824	-5.23
1099.243	-5.93
1099.662	-10.33
1100.082	-3.63
1100.501	1.77
1100.92	-2.73
1101.339	-3.13
1101.758	-3.73
