Data from 20171114-ORNL-Ar_H_NY_Subt18_08-08-27-395.txt Node
Date: Tue Nov 14 08:08:27 EST 2017
User: Ender
Spectrometer: HR+D1039
Trigger mode: 0
Integration Time (sec): 2.730000E-2
Scans to average: 10
Electric dark correction enabled: true
Nonlinearity correction enabled: false
Boxcar width: 0
XAxis mode: Wavelengths
Number of Pixels in Spectrum: 2048
>>>>>Begin Spectral Data<<<<<
187.836	-1.49
188.309	-1.49
188.782	-1.49
189.255	-0.19
189.728	-3.09
190.201	5.81
190.674	-0.49
191.147	4.11
191.619	-9.09
192.092	-2.99
192.565	4.51
193.038	2.91
193.511	0.71
193.984	2.31
194.456	-2.19
194.929	-2.39
195.402	-1.09
195.874	2.71
196.347	-0.79
196.82	-1.59
197.292	1.11
197.765	-2.19
198.237	-4.89
198.71	1.51
199.182	0.61
199.655	2.71
200.127	0.31
200.6	-0.39
201.072	1.51
201.544	-7.09
202.017	3.91
202.489	8.21
202.961	-4.69
203.433	-4.09
203.906	-7.99
204.378	-8.79
204.85	-0.39
205.322	-10.69
205.794	-0.99
206.266	-1.19
206.739	-3.99
207.211	4.41
207.683	-4.39
208.155	-8.29
208.627	-5.39
209.099	-0.69
209.57	-10.59
210.042	-1.69
210.514	-7.39
210.986	0.31
211.458	-11.59
211.93	0.31
212.402	1.31
212.873	-8.79
213.345	-12.49
213.817	-7.19
214.288	-0.69
214.76	-9.99
215.232	-3.49
215.703	-4.59
216.175	-1.19
216.646	-7.79
217.118	-3.99
217.589	-4.39
218.061	-0.49
218.532	-5.79
219.004	-6.39
219.475	-4.69
219.946	-2.19
220.418	-3.29
220.889	4.81
221.36	3.01
221.832	-7.79
222.303	-7.49
222.774	3.11
223.245	-6.29
223.717	-7.79
224.188	-3.19
224.659	-3.79
225.13	-2.19
225.601	-6.29
226.072	-5.39
226.543	-4.49
227.014	4.81
227.485	-3.79
227.956	-3.69
228.427	-1.29
228.898	-2.19
229.369	-0.69
229.839	-3.79
230.31	-5.09
230.781	4.21
231.252	-2.49
231.722	-6.19
232.193	-1.19
232.664	0.21
233.135	1.21
233.605	-5.29
234.076	-12.99
234.546	2.61
235.017	0.41
235.487	-6.39
235.958	-3.19
236.428	-0.79
236.899	4.91
237.369	4.61
237.84	-5.49
238.31	1.41
238.78	-0.59
239.251	-5.59
239.721	-5.19
240.191	-7.09
240.662	-4.39
241.132	-2.19
241.602	-5.89
242.072	-3.89
242.542	4.11
243.013	-5.79
243.483	0.91
243.953	-1.29
244.423	-4.39
244.893	-6.29
245.363	0.51
245.833	2.21
246.303	-4.99
246.773	8.31
247.243	3.51
247.712	-0.29
248.182	4.01
248.652	2.61
249.122	-4.59
249.592	3.21
250.061	8.01
250.531	9.81
251.001	-6.39
251.471	5.21
251.94	9.41
252.41	0.21
252.879	-2.99
253.349	7.01
253.818	5.31
254.288	1.21
254.757	4.41
255.227	-3.09
255.696	2.81
256.166	5.41
256.635	7.41
257.105	5.31
257.574	3.21
258.043	8.81
258.513	-0.09
258.982	0.31
259.451	-0.69
259.92	-1.09
260.389	1.61
260.859	11.71
261.328	1.21
261.797	3.31
262.266	0.81
262.735	6.91
263.204	4.51
263.673	0.71
264.142	7.21
264.611	-5.09
265.08	2.51
265.549	1.71
266.018	2.41
266.487	-2.09
266.955	-1.29
267.424	-0.69
267.893	2.91
268.362	5.01
268.83	7.51
269.299	14.31
269.768	7.71
270.236	3.41
270.705	2.71
271.174	5.31
271.642	12.81
272.111	11.61
272.579	6.41
273.048	2.71
273.516	7.21
273.985	11.81
274.453	8.11
274.922	10.21
275.39	6.31
275.858	1.81
276.327	6.81
276.795	14.31
277.263	1.41
277.731	17.61
278.2	17.91
278.668	14.01
279.136	13.41
279.604	12.91
280.072	13.51
280.54	10.91
281.008	6.01
281.477	12.91
281.945	16.01
282.413	12.61
282.881	11.61
283.348	3.21
283.816	13.21
284.284	12.51
284.752	21.91
285.22	13.31
285.688	15.81
286.156	8.51
286.623	21.31
287.091	16.91
287.559	16.71
288.026	15.31
288.494	16.61
288.962	2.91
289.429	4.61
289.897	12.61
290.364	16.51
290.832	16.31
291.3	17.31
291.767	19.91
292.234	20.11
292.702	12.71
293.169	14.31
293.637	19.61
294.104	15.51
294.571	8.71
295.039	6.21
295.506	10.81
295.973	14.91
296.44	17.71
296.908	14.31
297.375	18.91
297.842	16.01
298.309	19.91
298.776	12.81
299.243	25.51
299.71	14.01
300.177	22.31
300.644	25.11
301.111	25.01
301.578	20.31
302.045	19.71
302.512	26.31
302.979	24.51
303.446	26.21
303.913	17.61
304.379	16.21
304.846	22.91
305.313	24.81
305.78	20.51
306.246	24.01
306.713	20.61
307.18	26.91
307.646	23.11
308.113	21.61
308.579	22.91
309.046	25.21
309.512	27.11
309.979	18.61
310.445	28.21
310.912	27.01
311.378	29.81
311.845	27.41
312.311	38.01
312.777	40.91
313.244	28.11
313.71	32.01
314.176	25.11
314.642	25.11
315.109	30.31
315.575	31.21
316.041	35.81
316.507	31.51
316.973	35.71
317.439	36.11
317.905	34.71
318.371	35.11
318.837	31.41
319.303	30.11
319.769	36.81
320.235	36.31
320.701	35.51
321.167	39.81
321.633	32.91
322.099	33.41
322.564	45.11
323.03	41.31
323.496	36.01
323.962	46.11
324.427	37.41
324.893	50.61
325.359	40.51
325.824	39.71
326.29	32.41
326.755	39.61
327.221	39.71
327.686	41.11
328.152	48.41
328.617	39.11
329.083	51.21
329.548	49.91
330.014	50.41
330.479	41.01
330.944	41.51
331.41	42.01
331.875	43.61
332.34	41.61
332.805	46.01
333.271	46.11
333.736	42.61
334.201	50.11
334.666	50.01
335.131	50.31
335.596	53.61
336.061	51.21
336.526	39.31
336.991	49.81
337.456	56.21
337.921	49.81
338.386	50.81
338.851	53.21
339.316	53.11
339.781	52.01
340.246	52.71
340.711	50.81
341.175	49.51
341.64	53.21
342.105	56.41
342.569	58.21
343.034	57.81
343.499	57.51
343.963	51.31
344.428	67.91
344.893	64.11
345.357	58.51
345.822	64.71
346.286	67.91
346.751	72.71
347.215	72.41
347.679	77.61
348.144	100.91
348.608	86.21
349.073	71.71
349.537	71.91
350.001	86.61
350.465	90.81
350.93	80.31
351.394	83.21
351.858	75.91
352.322	97.81
352.786	90.41
353.25	106.01
353.715	116.01
354.179	103.21
354.643	118.81
355.107	132.81
355.571	99.51
356.035	96.71
356.498	120.01
356.962	118.21
357.426	130.01
357.89	118.91
358.354	88.31
358.818	83.31
359.281	77.31
359.745	77.71
360.209	78.01
360.673	81.61
361.136	83.71
361.6	90.91
362.064	86.11
362.527	88.21
362.991	95.71
363.454	80.61
363.918	81.81
364.381	77.41
364.845	89.31
365.308	92.71
365.772	90.91
366.235	91.91
366.698	84.81
367.162	87.51
367.625	84.41
368.088	85.01
368.552	91.71
369.015	97.81
369.478	99.51
369.941	99.31
370.404	89.71
370.867	106.61
371.331	107.41
371.794	117.31
372.257	96.21
372.72	112.31
373.183	108.21
373.646	96.21
374.109	100.51
374.572	99.91
375.035	103.41
375.497	113.01
375.96	108.11
376.423	105.21
376.886	121.31
377.349	117.91
377.811	98.81
378.274	103.11
378.737	106.81
379.199	113.11
379.662	108.91
380.125	113.51
380.587	113.61
381.05	108.61
381.512	125.31
381.975	125.71
382.437	121.01
382.9	122.11
383.362	125.61
383.825	134.41
384.287	128.21
384.75	123.81
385.212	127.81
385.674	129.31
386.136	138.81
386.599	127.31
387.061	128.11
387.523	125.11
387.985	136.01
388.447	139.21
388.91	123.61
389.372	135.61
389.834	140.21
390.296	131.01
390.758	141.51
391.22	149.01
391.682	159.51
392.144	178.41
392.606	159.21
393.068	149.61
393.529	159.21
393.991	143.71
394.453	138.51
394.915	142.91
395.377	141.91
395.838	152.51
396.3	150.01
396.762	143.21
397.224	139.21
397.685	139.01
398.147	144.41
398.608	134.21
399.07	134.31
399.531	143.51
399.993	151.11
400.454	157.81
400.916	160.41
401.377	152.21
401.839	161.31
402.3	161.11
402.762	176.41
403.223	181.91
403.684	185.41
404.145	169.01
404.607	166.91
405.068	166.91
405.529	167.01
405.99	194.31
406.451	191.51
406.913	178.81
407.374	176.61
407.835	169.41
408.296	175.81
408.757	180.71
409.218	191.81
409.679	188.91
410.14	182.01
410.601	190.01
411.062	191.11
411.522	189.41
411.983	191.91
412.444	179.41
412.905	189.71
413.366	205.31
413.826	207.71
414.287	225.41
414.748	287.41
415.208	265.51
415.669	229.71
416.13	222.21
416.59	219.61
417.051	230.11
417.511	236.51
417.972	254.31
418.432	266.31
418.893	304.61
419.353	266.01
419.814	217.61
420.274	200.81
420.734	199.21
421.195	208.21
421.655	215.51
422.115	213.91
422.576	206.91
423.036	217.81
423.496	222.11
423.956	230.31
424.416	251.01
424.876	284.01
425.336	277.71
425.797	279.41
426.257	263.41
426.717	252.71
427.177	248.71
427.637	237.71
428.097	241.21
428.556	259.01
429.016	281.51
429.476	277.41
429.936	290.61
430.396	291.21
430.856	296.51
431.315	322.21
431.775	357.01
432.235	397.31
432.694	366.21
433.154	381.51
433.614	414.21
434.073	355.91
434.533	299.41
434.993	278.51
435.452	291.51
435.912	309.21
436.371	298.31
436.83	297.81
437.29	279.71
437.749	262.01
438.209	265.01
438.668	288.91
439.127	303.01
439.587	276.81
440.046	267.31
440.505	286.41
440.964	294.01
441.424	343.21
441.883	344.61
442.342	281.51
442.801	243.01
443.26	245.61
443.719	241.51
444.178	245.01
444.637	234.71
445.096	239.81
445.555	243.41
446.014	244.61
446.473	248.31
446.932	261.71
447.391	251.21
447.849	248.21
448.308	242.61
448.767	241.41
449.226	254.81
449.685	254.01
450.143	271.11
450.602	258.91
451.061	245.61
451.519	251.01
451.978	255.11
452.436	251.81
452.895	264.41
453.353	280.31
453.812	256.61
454.27	250.91
454.729	254.41
455.187	257.21
455.646	260.51
456.104	266.61
456.562	284.61
457.021	289.61
457.479	282.51
457.937	293.61
458.395	290.01
458.854	272.81
459.312	273.71
459.77	289.51
460.228	273.71
460.686	267.31
461.144	273.01
461.602	257.21
462.06	263.61
462.518	276.61
462.976	274.01
463.434	278.51
463.892	283.91
464.35	291.91
464.808	314.81
465.266	287.81
465.724	289.11
466.181	297.61
466.639	291.71
467.097	313.61
467.555	319.91
468.012	331.51
468.47	333.41
468.928	353.11
469.385	369.01
469.843	372.81
470.3	377.01
470.758	385.71
471.215	414.81
471.673	436.61
472.13	434.71
472.588	445.81
473.045	401.11
473.503	404.61
473.96	419.71
474.417	430.51
474.875	461.01
475.332	509.61
475.789	491.31
476.246	496.01
476.704	512.71
477.161	541.11
477.618	562.11
478.075	589.81
478.532	655.31
478.989	726.81
479.446	850.61
479.903	798.81
480.36	834.11
480.817	875.31
481.274	969.51
481.731	1060.71
482.188	1135.71
482.645	1265.51
483.102	1357.81
483.558	1479.61
484.015	1514.81
484.472	1503.31
484.929	1460.11
485.385	1420.81
485.842	1386.11
486.299	1335.51
486.755	1298.81
487.212	1104.51
487.668	942.11
488.125	873.81
488.582	802.91
489.038	782.81
489.494	745.11
489.951	714.41
490.407	693.51
490.864	683.01
491.32	675.11
491.776	675.61
492.233	686.51
492.689	649.91
493.145	647.31
493.602	637.01
494.058	646.91
494.514	644.11
494.97	682.21
495.426	683.21
495.882	643.51
496.338	652.41
496.794	656.11
497.251	650.61
497.707	673.11
498.163	666.41
498.618	680.91
499.074	679.01
499.53	720.21
499.986	713.51
500.442	679.91
500.898	663.91
501.354	653.41
501.809	655.81
502.265	665.01
502.721	668.41
503.177	682.01
503.632	683.91
504.088	684.81
504.543	706.11
504.999	724.61
505.455	693.81
505.91	676.81
506.366	684.51
506.821	674.11
507.277	667.21
507.732	673.61
508.187	673.21
508.643	683.01
509.098	684.21
509.553	693.41
510.009	714.91
510.464	714.21
510.919	738.91
511.375	741.41
511.83	748.41
512.285	764.51
512.74	810.21
513.195	838.41
513.65	812.41
514.105	815.01
514.56	820.61
515.015	842.21
515.47	855.21
515.925	823.81
516.38	831.21
516.835	836.61
517.29	830.81
517.745	825.51
518.2	805.41
518.655	800.91
519.109	793.41
519.564	782.81
520.019	771.81
520.474	764.51
520.928	776.31
521.383	765.41
521.838	756.61
522.292	747.41
522.747	759.91
523.201	749.81
523.656	745.61
524.11	740.11
524.565	740.81
525.019	723.31
525.474	744.51
525.928	736.61
526.382	739.51
526.837	745.61
527.291	744.91
527.745	744.31
528.2	746.11
528.654	739.91
529.108	735.31
529.562	738.71
530.016	729.61
530.47	721.71
530.925	740.71
531.379	734.71
531.833	741.61
532.287	748.61
532.741	739.61
533.195	747.81
533.649	761.91
534.103	764.31
534.556	744.01
535.01	749.51
535.464	751.91
535.918	748.61
536.372	769.11
536.826	757.81
537.279	747.81
537.733	757.71
538.187	756.81
538.64	755.61
539.094	765.01
539.548	772.11
540.001	772.71
540.455	778.01
540.908	775.51
541.362	776.71
541.815	795.41
542.269	805.71
542.722	808.61
543.175	815.61
543.629	816.71
544.082	841.31
544.536	832.61
544.989	832.91
545.442	844.81
545.895	836.31
546.349	840.81
546.802	857.91
547.255	856.11
547.708	859.91
548.161	870.31
548.614	873.61
549.067	890.11
549.52	869.41
549.973	861.21
550.426	858.61
550.879	856.11
551.332	847.31
551.785	868.61
552.238	872.21
552.691	870.11
553.144	897.81
553.596	900.01
554.049	918.61
554.502	955.61
554.955	962.81
555.407	975.51
555.86	956.31
556.313	962.11
556.765	947.41
557.218	945.21
557.67	933.31
558.123	936.31
558.576	930.71
559.028	943.91
559.48	932.71
559.933	933.91
560.385	892.01
560.838	864.51
561.29	849.11
561.742	833.81
562.195	818.61
562.647	819.01
563.099	828.41
563.551	822.91
564.004	838.51
564.456	815.71
564.908	809.01
565.36	793.61
565.812	778.81
566.264	767.51
566.716	768.51
567.168	748.21
567.62	743.61
568.072	752.31
568.524	740.31
568.976	737.21
569.428	729.51
569.88	722.31
570.332	729.21
570.784	721.71
571.235	731.21
571.687	746.71
572.139	754.91
572.59	771.21
573.042	762.61
573.494	755.11
573.945	763.31
574.397	733.31
574.849	736.41
575.3	739.21
575.752	715.61
576.203	718.31
576.655	722.91
577.106	714.71
577.557	710.01
578.009	720.61
578.46	709.91
578.912	706.51
579.363	713.51
579.814	716.31
580.265	708.01
580.717	711.61
581.168	713.71
581.619	719.81
582.07	725.21
582.521	724.31
582.972	719.01
583.423	720.61
583.875	717.81
584.326	726.31
584.777	740.81
585.227	785.61
585.678	794.01
586.129	817.71
586.58	840.61
587.031	868.31
587.482	924.71
587.933	949.51
588.384	917.61
588.834	849.71
589.285	823.31
589.736	828.31
590.186	816.81
590.637	818.81
591.088	786.51
591.538	792.71
591.989	782.31
592.439	762.41
592.89	763.01
593.34	756.21
593.791	747.71
594.241	742.01
594.692	744.01
595.142	746.01
595.593	740.41
596.043	755.51
596.493	752.51
596.943	749.21
597.394	761.31
597.844	760.01
598.294	774.11
598.744	809.61
599.195	840.11
599.645	874.91
600.095	916.91
600.545	980.71
600.995	1031.01
601.445	1099.81
601.895	1156.51
602.345	1201.51
602.795	1176.81
603.245	1145.61
603.695	1076.21
604.145	1019.71
604.594	980.01
605.044	913.51
605.494	854.41
605.944	798.21
606.393	790.11
606.843	772.81
607.293	774.61
607.743	776.91
608.192	782.11
608.642	798.61
609.091	809.61
609.541	819.81
609.99	815.71
610.44	812.91
610.889	761.01
611.339	742.31
611.788	718.31
612.238	731.71
612.687	735.61
613.136	738.41
613.586	762.11
614.035	745.71
614.484	755.51
614.933	753.31
615.383	748.31
615.832	753.71
616.281	743.41
616.73	711.31
617.179	691.11
617.628	678.61
618.077	659.11
618.526	656.71
618.975	651.81
619.424	651.01
619.873	648.61
620.322	650.61
620.771	644.11
621.22	652.61
621.669	625.41
622.118	626.21
622.567	613.91
623.015	597.11
623.464	609.91
623.913	596.11
624.361	589.01
624.81	589.11
625.259	599.61
625.707	586.01
626.156	590.41
626.604	605.61
627.053	602.01
627.501	598.41
627.95	609.31
628.398	616.81
628.847	609.01
629.295	604.61
629.744	616.11
630.192	600.11
630.64	593.71
631.089	584.31
631.537	576.01
631.985	564.91
632.433	573.11
632.881	566.71
633.33	572.31
633.778	568.61
634.226	561.31
634.674	561.61
635.122	572.81
635.57	575.51
636.018	600.01
636.466	594.41
636.914	587.61
637.362	605.21
637.81	611.51
638.258	616.51
638.705	614.21
639.153	643.91
639.601	661.91
640.049	691.11
640.497	713.91
640.944	740.11
641.392	677.31
641.84	647.31
642.287	613.61
642.735	608.41
643.182	607.71
643.63	599.41
644.078	600.11
644.525	610.31
644.973	619.31
645.42	628.21
645.867	659.41
646.315	664.61
646.762	695.31
647.21	726.81
647.657	742.91
648.104	769.51
648.551	792.71
648.999	863.51
649.446	934.21
649.893	1025.31
650.34	1182.31
650.787	1407.01
651.234	1721.91
651.682	2219.21
652.129	3028.21
652.576	4306.61
653.023	6243.31
653.47	8408.01
653.917	10413.31
654.363	11905.71
654.81	13040.61
655.257	12371.21
655.704	8234.11
656.151	4953.51
656.598	3272.61
657.044	2337.71
657.491	1829.61
657.938	1478.71
658.385	1243.91
658.831	1083.21
659.278	976.61
659.724	876.81
660.171	812.51
660.618	751.61
661.064	712.11
661.511	697.41
661.957	683.31
662.404	668.21
662.85	687.41
663.296	648.61
663.743	592.41
664.189	569.01
664.635	566.81
665.082	556.61
665.528	552.91
665.974	547.11
666.42	537.71
666.867	540.81
667.313	516.01
667.759	495.71
668.205	485.31
668.651	493.01
669.097	481.31
669.543	475.21
669.989	476.61
670.435	478.61
670.881	480.71
671.327	489.41
671.773	512.91
672.219	522.91
672.665	590.41
673.11	621.91
673.556	670.21
674.002	710.11
674.448	694.71
674.893	593.61
675.339	517.01
675.785	473.11
676.23	443.61
676.676	427.51
677.122	412.61
677.567	405.81
678.013	403.11
678.458	396.91
678.904	385.81
679.349	371.71
679.794	382.31
680.24	378.51
680.685	372.21
681.131	371.91
681.576	372.21
682.021	388.91
682.466	376.11
682.912	372.91
683.357	380.81
683.802	418.51
684.247	446.91
684.692	496.11
685.137	533.81
685.583	566.41
686.028	594.11
686.473	565.81
686.918	479.31
687.363	453.71
687.807	414.21
688.252	390.71
688.697	377.11
689.142	364.91
689.587	358.21
690.032	358.31
690.477	372.41
690.921	389.91
691.366	411.91
691.811	426.71
692.255	461.21
692.7	491.91
693.145	540.61
693.589	775.01
694.034	1246.61
694.478	1666.01
694.923	1853.81
695.367	2391.41
695.812	1285.71
696.256	536.31
696.701	399.21
697.145	368.51
697.59	349.91
698.034	346.51
698.478	354.51
698.922	349.41
699.367	347.91
699.811	359.91
700.255	374.41
700.699	416.91
701.143	451.21
701.588	516.71
702.032	546.31
702.476	545.91
702.92	532.21
703.364	532.21
703.808	706.31
704.252	1147.51
704.696	1572.51
705.14	1789.71
705.584	2254.31
706.027	1141.81
706.471	567.01
706.915	428.71
707.359	376.01
707.803	349.81
708.246	336.61
708.69	341.01
709.134	336.61
709.577	328.11
710.021	347.61
710.465	338.21
710.908	324.21
711.352	325.01
711.795	341.71
712.239	386.21
712.682	412.51
713.126	446.31
713.569	485.01
714.012	384.21
714.456	330.01
714.899	314.61
715.342	298.31
715.786	280.01
716.229	277.01
716.672	275.21
717.115	273.91
717.558	279.71
718.002	270.01
718.445	286.21
718.888	304.91
719.331	311.01
719.774	337.91
720.217	329.71
720.66	311.11
721.103	284.41
721.546	271.41
721.989	264.91
722.432	249.61
722.874	252.31
723.317	246.01
723.76	253.91
724.203	269.91
724.645	347.81
725.088	481.21
725.531	608.51
725.974	691.61
726.416	593.11
726.859	332.41
727.301	262.71
727.744	253.11
728.187	253.41
728.629	261.01
729.071	260.51
729.514	286.81
729.956	293.91
730.399	304.81
730.841	307.31
731.283	298.51
731.726	287.11
732.168	282.51
732.61	289.11
733.053	309.51
733.495	341.91
733.937	384.31
734.379	435.91
734.821	470.51
735.263	587.41
735.705	929.41
736.148	1755.41
736.59	2809.81
737.032	3236.81
737.474	2640.51
737.916	875.91
738.357	464.71
738.799	355.91
739.241	314.61
739.683	308.91
740.125	319.21
740.567	316.51
741.008	344.21
741.45	348.01
741.892	351.71
742.334	380.41
742.775	391.51
743.217	369.31
743.658	303.11
744.1	277.71
744.542	288.61
744.983	350.91
745.425	380.91
745.866	379.21
746.307	298.51
746.749	304.11
747.19	352.31
747.632	506.71
748.073	987.71
748.514	2072.61
748.956	3063.91
749.397	3878.21
749.838	3209.71
750.279	3145.21
750.72	1616.91
751.162	589.51
751.603	351.91
752.044	271.61
752.485	234.81
752.926	228.61
753.367	216.01
753.808	212.51
754.249	212.41
754.69	207.31
755.131	194.31
755.572	200.51
756.013	190.11
756.453	192.71
756.894	208.21
757.335	201.31
757.776	207.81
758.216	217.41
758.657	211.51
759.098	221.51
759.538	247.31
759.979	292.51
760.42	415.81
760.86	786.01
761.301	2057.61
761.741	4846.81
762.182	6775.51
762.622	4815.01
763.063	1403.61
763.503	574.31
763.943	356.11
764.384	299.71
764.824	291.11
765.264	278.51
765.705	240.51
766.145	197.71
766.585	188.71
767.025	181.31
767.465	178.71
767.906	200.21
768.346	229.51
768.786	238.01
769.226	248.01
769.666	345.41
770.106	687.31
770.546	1710.31
770.986	2812.81
771.426	2499.21
771.866	858.81
772.306	354.81
772.745	221.21
773.185	184.31
773.625	175.01
774.065	166.91
774.505	181.01
774.944	229.11
775.384	413.21
775.824	656.51
776.263	629.81
776.703	315.41
777.142	178.91
777.582	149.71
778.021	130.61
778.461	130.21
778.9	134.81
779.34	132.81
779.779	122.51
780.219	125.91
780.658	115.11
781.097	119.21
781.537	121.51
781.976	113.61
782.415	115.71
782.855	108.91
783.294	103.11
783.733	111.01
784.172	117.81
784.611	113.01
785.05	115.41
785.489	114.31
785.928	128.01
786.367	128.61
786.806	129.91
787.245	139.41
787.684	138.31
788.123	154.21
788.562	150.21
789.001	135.11
789.44	130.81
789.879	126.81
790.317	127.21
790.756	136.51
791.195	141.61
791.634	156.11
792.072	222.71
792.511	400.81
792.95	1117.31
793.388	2254.11
793.827	2010.41
794.265	716.11
794.704	295.31
795.142	206.81
795.581	163.11
796.019	142.51
796.458	139.31
796.896	140.31
797.334	149.11
797.773	172.41
798.211	241.41
798.649	487.21
799.087	1106.91
799.526	1730.41
799.964	2178.91
800.402	2132.31
800.84	822.61
801.278	327.91
801.716	212.81
802.154	170.31
802.592	158.41
803.03	156.11
803.468	155.31
803.906	151.41
804.344	162.81
804.782	153.31
805.22	144.01
805.658	146.91
806.096	157.21
806.533	171.01
806.971	187.51
807.409	237.91
807.847	354.01
808.284	741.21
808.722	2057.51
809.16	3536.51
809.597	3447.71
810.035	5859.71
810.472	6069.21
810.91	2229.71
811.347	860.81
811.785	442.61
812.222	282.41
812.66	222.71
813.097	180.21
813.535	153.31
813.972	133.21
814.409	128.01
814.846	113.71
815.284	120.71
815.721	111.51
816.158	110.01
816.595	121.91
817.032	165.31
817.47	190.31
817.907	130.21
818.344	111.81
818.781	105.31
819.218	106.91
819.655	136.71
820.092	207.11
820.529	225.71
820.966	178.01
821.403	139.61
821.839	104.91
822.276	108.21
822.713	129.61
823.15	146.61
823.587	131.41
824.023	160.01
824.46	329.21
824.897	987.51
825.333	1428.61
825.77	624.71
826.206	253.11
826.643	152.61
827.08	110.91
827.516	96.11
827.953	85.01
828.389	86.51
828.825	75.31
829.262	76.01
829.698	72.21
830.135	68.41
830.571	69.01
831.007	74.91
831.443	68.71
831.88	71.81
832.316	66.91
832.752	61.91
833.188	69.51
833.624	73.61
834.06	71.01
834.497	75.41
834.933	74.41
835.369	81.51
835.805	73.31
836.241	81.61
836.677	91.41
837.112	102.31
837.548	108.11
837.984	147.61
838.42	225.01
838.856	556.71
839.292	1663.01
839.727	2437.31
840.163	1151.21
840.599	1024.11
841.034	2196.71
841.47	2227.21
841.906	825.41
842.341	353.01
842.777	213.11
843.212	224.61
843.648	206.01
844.083	120.81
844.519	89.01
844.954	68.71
845.39	58.91
845.825	62.01
846.261	62.51
846.696	55.21
847.131	54.81
847.566	64.71
848.002	60.71
848.437	54.41
848.872	67.41
849.307	65.61
849.742	97.71
850.177	200.61
850.613	605.11
851.048	924.41
851.483	406.61
851.918	171.31
852.353	92.31
852.788	65.21
853.223	55.31
853.657	58.01
854.092	51.01
854.527	45.81
854.962	45.21
855.397	49.51
855.832	51.61
856.266	46.21
856.701	41.31
857.136	38.01
857.57	47.61
858.005	56.31
858.44	69.01
858.874	53.81
859.309	59.31
859.743	42.71
860.178	45.61
860.612	48.71
861.047	58.51
861.481	80.31
861.915	76.11
862.35	57.71
862.784	40.51
863.218	41.81
863.653	33.91
864.087	49.61
864.521	60.51
864.955	67.21
865.39	167.61
865.824	184.51
866.258	123.61
866.692	186.91
867.126	202.31
867.56	115.71
867.994	63.01
868.428	41.11
868.862	51.81
869.296	60.01
869.73	59.21
870.164	62.61
870.598	54.11
871.031	37.91
871.465	33.51
871.899	31.21
872.333	31.61
872.766	29.41
873.2	26.61
873.634	30.71
874.067	29.51
874.501	30.61
874.935	37.01
875.368	36.11
875.802	29.61
876.235	24.91
876.669	24.81
877.102	28.61
877.535	27.31
877.969	23.91
878.402	25.41
878.836	21.81
879.269	33.41
879.702	28.71
880.135	29.71
880.569	20.91
881.002	25.81
881.435	26.91
881.868	19.11
882.301	25.21
882.734	17.71
883.167	27.81
883.601	24.01
884.034	26.91
884.467	10.81
884.899	20.01
885.332	21.21
885.765	17.51
886.198	23.51
886.631	20.41
887.064	23.01
887.497	28.91
887.929	24.01
888.362	14.31
888.795	13.11
889.228	14.11
889.66	24.01
890.093	23.41
890.526	16.81
890.958	24.81
891.391	23.01
891.823	25.31
892.256	21.11
892.688	11.61
893.121	15.31
893.553	13.91
893.985	27.01
894.418	23.61
894.85	26.01
895.282	20.91
895.715	27.31
896.147	20.21
896.579	19.11
897.011	17.91
897.444	20.81
897.876	20.01
898.308	20.71
898.74	11.81
899.172	17.11
899.604	25.31
900.036	21.41
900.468	16.41
900.9	16.01
901.332	19.31
901.764	15.41
902.196	20.01
902.628	21.41
903.06	21.71
903.491	30.91
903.923	26.11
904.355	24.91
904.787	30.31
905.218	27.31
905.65	23.61
906.082	12.71
906.513	18.21
906.945	16.11
907.376	11.31
907.808	12.81
908.239	24.21
908.671	19.81
909.102	26.71
909.534	24.71
909.965	54.01
910.397	99.01
910.828	335.31
911.259	507.61
911.691	228.81
912.122	119.51
912.553	56.61
912.984	34.21
913.415	28.71
913.847	27.61
914.278	15.81
914.709	10.41
915.14	20.11
915.571	17.51
916.002	15.31
916.433	20.71
916.864	22.21
917.295	11.11
917.726	20.31
918.157	20.81
918.587	30.31
919.018	23.51
919.449	22.51
919.88	27.71
920.311	37.91
920.741	58.21
921.172	179.91
921.603	162.91
922.033	78.91
922.464	48.61
922.895	24.61
923.325	19.01
923.756	11.01
924.186	16.51
924.617	17.21
925.047	23.11
925.478	28.41
925.908	25.81
926.338	17.71
926.769	18.01
927.199	19.01
927.629	9.81
928.06	20.11
928.49	12.21
928.92	10.41
929.35	12.51
929.78	8.51
930.21	11.11
930.641	10.91
931.071	9.71
931.501	5.11
931.931	8.51
932.361	9.81
932.791	2.51
933.221	10.81
933.651	5.31
934.08	21.91
934.51	28.31
934.94	12.81
935.37	10.31
935.8	12.71
936.229	14.21
936.659	6.21
937.089	7.51
937.519	22.51
937.948	22.31
938.378	17.71
938.807	5.61
939.237	4.61
939.666	7.31
940.096	-2.99
940.525	5.81
940.955	7.61
941.384	6.01
941.814	-5.69
942.243	4.11
942.672	4.41
943.102	-0.59
943.531	6.41
943.96	8.61
944.39	8.51
944.819	0.71
945.248	7.41
945.677	0.81
946.106	8.61
946.535	2.31
946.964	7.61
947.393	7.21
947.822	4.11
948.251	-3.09
948.68	7.01
949.109	7.71
949.538	7.41
949.967	-2.79
950.396	4.61
950.825	0.81
951.254	-4.09
951.682	-3.59
952.111	5.81
952.54	9.91
952.969	-3.69
953.397	-4.09
953.826	1.01
954.254	-3.89
954.683	-1.09
955.112	-5.19
955.54	0.81
955.969	-2.79
956.397	2.11
956.826	0.31
957.254	10.51
957.682	3.21
958.111	4.11
958.539	6.31
958.967	3.01
959.396	1.61
959.824	4.61
960.252	3.11
960.68	-1.89
961.109	-1.69
961.537	-2.79
961.965	-0.19
962.393	4.01
962.821	-10.19
963.249	-0.09
963.677	7.71
964.105	5.31
964.533	46.01
964.961	46.11
965.389	23.61
965.817	8.71
966.245	-0.49
966.672	-1.69
967.1	-3.89
967.528	2.21
967.956	-7.79
968.383	-1.79
968.811	-1.69
969.239	1.11
969.666	-2.79
970.094	4.11
970.522	4.91
970.949	-1.69
971.377	-5.69
971.804	0.01
972.232	-1.19
972.659	3.81
973.087	-2.89
973.514	-3.29
973.941	-1.79
974.369	1.01
974.796	6.51
975.223	2.31
975.651	-2.19
976.078	6.11
976.505	1.81
976.932	8.41
977.359	20.11
977.786	21.31
978.214	2.41
978.641	-1.89
979.068	-2.39
979.495	-5.69
979.922	-4.29
980.349	-4.39
980.776	9.81
981.202	1.51
981.629	0.11
982.056	5.11
982.483	7.01
982.91	3.61
983.337	-5.49
983.763	-0.29
984.19	-4.59
984.617	-8.19
985.043	-3.39
985.47	-0.29
985.897	0.21
986.323	-3.79
986.75	-0.19
987.176	2.21
987.603	5.51
988.029	1.21
988.456	5.11
988.882	0.51
989.308	-1.59
989.735	-1.69
990.161	1.51
990.587	-3.89
991.014	-2.99
991.44	7.01
991.866	3.01
992.292	-7.29
992.719	3.61
993.145	2.11
993.571	-9.19
993.997	-2.29
994.423	-3.39
994.849	-8.59
995.275	2.01
995.701	6.51
996.127	-2.89
996.553	-6.49
996.979	1.51
997.405	-2.29
997.83	-4.89
998.256	-6.19
998.682	-4.19
999.108	-7.39
999.534	0.21
999.959	0.61
1000.385	-3.79
1000.811	1.11
1001.236	-10.59
1001.662	-10.59
1002.087	-7.59
1002.513	7.31
1002.938	4.31
1003.364	-1.19
1003.789	0.71
1004.215	4.41
1004.64	3.11
1005.066	1.91
1005.491	2.91
1005.916	1.01
1006.342	-5.59
1006.767	-10.89
1007.192	7.61
1007.617	-7.49
1008.042	2.51
1008.468	-4.09
1008.893	-3.19
1009.318	2.11
1009.743	0.21
1010.168	3.31
1010.593	7.01
1011.018	-4.09
1011.443	-3.39
1011.868	1.81
1012.293	-2.19
1012.718	-1.19
1013.143	4.51
1013.567	1.41
1013.992	-6.09
1014.417	-15.29
1014.842	1.51
1015.267	-7.19
1015.691	-5.99
1016.116	9.11
1016.541	3.21
1016.965	4.11
1017.39	3.01
1017.814	2.01
1018.239	0.41
1018.663	-5.59
1019.088	-9.29
1019.512	-0.39
1019.937	0.71
1020.361	-5.29
1020.785	-3.29
1021.21	-3.09
1021.634	-4.59
1022.058	2.11
1022.483	8.01
1022.907	-4.59
1023.331	-2.09
1023.755	-3.69
1024.179	-4.69
1024.604	-7.49
1025.028	-5.79
1025.452	-8.19
1025.876	-0.79
1026.3	0.61
1026.724	-12.39
1027.148	-3.39
1027.572	-4.19
1027.996	-4.59
1028.42	4.91
1028.843	-4.09
1029.267	0.11
1029.691	-0.09
1030.115	-9.69
1030.539	-11.99
1030.962	-6.99
1031.386	-11.49
1031.81	-3.19
1032.233	-2.09
1032.657	1.61
1033.08	-1.39
1033.504	-3.89
1033.927	-3.39
1034.351	-3.29
1034.774	-1.59
1035.198	-3.29
1035.621	-1.19
1036.045	-10.79
1036.468	2.11
1036.891	-10.49
1037.315	-11.99
1037.738	-4.29
1038.161	-1.69
1038.584	-7.09
1039.008	-3.19
1039.431	-0.69
1039.854	4.31
1040.277	-3.09
1040.7	-8.99
1041.123	6.91
1041.546	-11.79
1041.969	-2.79
1042.392	-3.29
1042.815	-2.89
1043.238	-1.59
1043.661	-0.89
1044.084	-6.09
1044.507	-4.69
1044.93	-4.29
1045.352	-3.39
1045.775	1.51
1046.198	-0.59
1046.621	-1.99
1047.043	-2.39
1047.466	5.51
1047.889	-5.09
1048.311	-6.09
1048.734	-7.99
1049.156	-0.99
1049.579	-2.59
1050.001	-4.89
1050.424	-3.59
1050.846	-2.79
1051.269	0.31
1051.691	-4.89
1052.113	0.41
1052.536	3.21
1052.958	3.11
1053.38	-4.89
1053.802	-10.39
1054.225	-0.19
1054.647	-8.49
1055.069	-5.69
1055.491	6.41
1055.913	-10.79
1056.335	-0.09
1056.757	-5.59
1057.179	-6.59
1057.601	-5.19
1058.023	-2.49
1058.445	2.61
1058.867	-1.89
1059.289	-6.29
1059.711	-1.19
1060.133	-2.19
1060.555	-5.59
1060.976	-7.19
1061.398	0.31
1061.82	-10.09
1062.241	-3.69
1062.663	-7.69
1063.085	-4.69
1063.506	-2.09
1063.928	-3.59
1064.35	-3.49
1064.771	-8.99
1065.193	0.51
1065.614	-6.29
1066.035	-1.09
1066.457	-2.49
1066.878	1.41
1067.3	-6.29
1067.721	-1.59
1068.142	3.21
1068.564	-4.59
1068.985	-2.89
1069.406	-4.69
1069.827	-1.19
1070.248	-5.39
1070.67	-7.89
1071.091	-9.49
1071.512	-0.09
1071.933	-3.99
1072.354	-11.99
1072.775	-2.59
1073.196	-2.49
1073.617	-7.29
1074.038	-0.99
1074.459	-3.09
1074.88	-8.79
1075.3	7.01
1075.721	-6.09
1076.142	4.31
1076.563	-2.39
1076.983	-10.69
1077.404	-7.19
1077.825	-12.79
1078.246	-1.99
1078.666	-8.39
1079.087	-5.89
1079.507	-2.29
1079.928	4.01
1080.348	-1.59
1080.769	-7.29
1081.189	1.11
1081.61	-2.39
1082.03	-1.69
1082.451	-3.79
1082.871	-3.79
1083.291	-8.59
1083.711	-10.09
1084.132	-9.49
1084.552	-2.99
1084.972	2.81
1085.392	-11.09
1085.813	-12.69
1086.233	-8.79
1086.653	-6.29
1087.073	-1.99
1087.493	-8.39
1087.913	-2.49
1088.333	-3.59
1088.753	-3.49
1089.173	0.51
1089.593	-4.49
1090.013	-0.89
1090.433	1.61
1090.852	0.31
1091.272	-0.19
1091.692	-3.99
1092.112	-5.89
1092.531	-5.19
1092.951	-13.79
1093.371	-5.09
1093.79	3.11
1094.21	-3.09
1094.63	-4.19
1095.049	-3.19
1095.469	-3.89
1095.888	1.21
1096.308	7.91
1096.727	7.51
1097.146	-6.89
1097.566	3.51
1097.985	-9.99
1098.405	2.51
1098.824	-8.09
1099.243	-8.19
1099.662	-6.09
1100.082	-0.79
1100.501	1.11
1100.92	-5.19
1101.339	-4.49
1101.758	-8.39
