Data from 20171114-ORNL-Ar_H_NY_Subt18_08-07-21-608.txt Node
Date: Tue Nov 14 08:07:21 EST 2017
User: Ender
Spectrometer: HR+D1039
Trigger mode: 0
Integration Time (sec): 2.730000E-2
Scans to average: 10
Electric dark correction enabled: true
Nonlinearity correction enabled: false
Boxcar width: 0
XAxis mode: Wavelengths
Number of Pixels in Spectrum: 2048
>>>>>Begin Spectral Data<<<<<
187.836	-3.84
188.309	-3.84
188.782	-3.84
189.255	1.26
189.728	-1.24
190.201	2.56
190.674	4.26
191.147	3.46
191.619	-9.74
192.092	3.26
192.565	6.16
193.038	-0.94
193.511	-3.14
193.984	-2.04
194.456	-3.84
194.929	5.66
195.402	-5.24
195.874	3.46
196.347	1.46
196.82	-6.94
197.292	7.66
197.765	-2.74
198.237	-1.24
198.71	1.36
199.182	2.26
199.655	4.66
200.127	6.06
200.6	-1.34
201.072	-0.94
201.544	-4.94
202.017	-3.94
202.489	11.26
202.961	4.46
203.433	-0.04
203.906	-0.74
204.378	-7.14
204.85	-2.34
205.322	-5.84
205.794	-0.24
206.266	-1.44
206.739	-6.94
207.211	4.56
207.683	-7.64
208.155	-1.74
208.627	0.16
209.099	0.26
209.57	-6.14
210.042	1.66
210.514	-5.34
210.986	-6.04
211.458	-1.14
211.93	1.26
212.402	4.66
212.873	-0.04
213.345	-11.24
213.817	-13.44
214.288	0.36
214.76	-7.54
215.232	-0.24
215.703	2.46
216.175	-1.24
216.646	0.06
217.118	-5.94
217.589	-3.84
218.061	2.36
218.532	-2.44
219.004	-2.64
219.475	-5.24
219.946	-3.74
220.418	-6.74
220.889	6.86
221.36	6.06
221.832	-4.84
222.303	-9.24
222.774	5.76
223.245	-6.54
223.717	-2.04
224.188	-3.14
224.659	-2.64
225.13	0.46
225.601	1.16
226.072	5.96
226.543	0.46
227.014	1.66
227.485	1.06
227.956	-7.34
228.427	-0.84
228.898	-1.34
229.369	3.76
229.839	-8.34
230.31	-8.54
230.781	-1.24
231.252	-2.54
231.722	-5.14
232.193	-0.34
232.664	-0.74
233.135	4.46
233.605	-0.64
234.076	-4.74
234.546	-1.84
235.017	4.86
235.487	5.16
235.958	-2.24
236.428	-1.84
236.899	1.66
237.369	1.06
237.84	-0.74
238.31	5.46
238.78	1.56
239.251	-2.64
239.721	-4.44
240.191	2.46
240.662	-3.54
241.132	0.16
241.602	1.26
242.072	1.66
242.542	4.96
243.013	6.86
243.483	3.56
243.953	6.36
244.423	1.76
244.893	-2.44
245.363	-3.94
245.833	1.16
246.303	0.16
246.773	6.16
247.243	-1.64
247.712	2.36
248.182	8.86
248.652	8.16
249.122	-2.04
249.592	6.86
250.061	17.86
250.531	15.96
251.001	3.26
251.471	15.66
251.94	15.46
252.41	4.76
252.879	1.16
253.349	10.76
253.818	5.66
254.288	2.26
254.757	2.76
255.227	3.36
255.696	2.56
256.166	8.96
256.635	6.06
257.105	8.26
257.574	5.16
258.043	1.96
258.513	7.26
258.982	9.56
259.451	1.46
259.92	5.16
260.389	8.76
260.859	13.16
261.328	7.56
261.797	6.46
262.266	2.76
262.735	8.66
263.204	7.76
263.673	2.56
264.142	-0.34
264.611	-2.74
265.08	-0.94
265.549	-6.94
266.018	3.96
266.487	2.56
266.955	1.96
267.424	1.96
267.893	6.86
268.362	3.06
268.83	3.66
269.299	1.46
269.768	7.26
270.236	6.66
270.705	-0.04
271.174	5.26
271.642	3.06
272.111	6.96
272.579	12.76
273.048	6.26
273.516	13.46
273.985	16.46
274.453	15.76
274.922	11.36
275.39	14.06
275.858	2.06
276.327	13.66
276.795	14.86
277.263	4.96
277.731	16.76
278.2	30.96
278.668	33.56
279.136	26.26
279.604	11.16
280.072	8.56
280.54	6.96
281.008	7.86
281.477	12.16
281.945	12.06
282.413	18.36
282.881	17.86
283.348	-2.64
283.816	8.16
284.284	12.66
284.752	13.96
285.22	7.76
285.688	8.96
286.156	8.46
286.623	29.26
287.091	26.86
287.559	16.86
288.026	10.96
288.494	8.46
288.962	3.16
289.429	6.96
289.897	16.96
290.364	11.06
290.832	9.26
291.3	13.26
291.767	10.36
292.234	14.86
292.702	11.06
293.169	15.76
293.637	17.16
294.104	16.96
294.571	3.66
295.039	7.96
295.506	8.16
295.973	9.46
296.44	5.86
296.908	13.06
297.375	11.56
297.842	17.16
298.309	12.96
298.776	13.06
299.243	16.96
299.71	10.06
300.177	18.26
300.644	19.16
301.111	21.16
301.578	13.76
302.045	14.16
302.512	16.16
302.979	20.46
303.446	23.46
303.913	16.96
304.379	11.96
304.846	27.76
305.313	21.26
305.78	17.36
306.246	16.36
306.713	21.56
307.18	16.56
307.646	23.96
308.113	17.96
308.579	16.86
309.046	20.06
309.512	25.76
309.979	13.06
310.445	19.36
310.912	21.66
311.378	26.46
311.845	19.26
312.311	24.16
312.777	28.76
313.244	20.56
313.71	31.56
314.176	27.56
314.642	20.06
315.109	21.96
315.575	23.56
316.041	32.46
316.507	30.76
316.973	34.06
317.439	30.76
317.905	33.56
318.371	32.06
318.837	25.56
319.303	24.66
319.769	22.26
320.235	28.16
320.701	33.06
321.167	27.06
321.633	15.16
322.099	27.16
322.564	30.86
323.03	26.16
323.496	26.66
323.962	32.96
324.427	28.56
324.893	35.86
325.359	34.86
325.824	28.06
326.29	29.36
326.755	33.46
327.221	30.56
327.686	38.96
328.152	39.56
328.617	29.96
329.083	43.26
329.548	41.96
330.014	38.46
330.479	27.16
330.944	32.26
331.41	36.16
331.875	33.46
332.34	40.16
332.805	37.66
333.271	38.56
333.736	34.36
334.201	46.16
334.666	42.06
335.131	44.96
335.596	40.56
336.061	48.26
336.526	30.76
336.991	41.76
337.456	50.76
337.921	36.16
338.386	35.26
338.851	39.26
339.316	39.76
339.781	41.26
340.246	46.26
340.711	41.46
341.175	47.86
341.64	39.26
342.105	46.96
342.569	49.26
343.034	51.86
343.499	50.66
343.963	46.86
344.428	54.36
344.893	54.16
345.357	51.26
345.822	51.86
346.286	56.96
346.751	54.26
347.215	65.36
347.679	55.66
348.144	79.76
348.608	69.16
349.073	59.16
349.537	63.06
350.001	63.96
350.465	67.96
350.93	71.06
351.394	67.76
351.858	58.96
352.322	74.76
352.786	75.26
353.25	79.96
353.715	93.66
354.179	89.26
354.643	100.66
355.107	101.86
355.571	90.06
356.035	81.16
356.498	101.16
356.962	96.06
357.426	103.66
357.89	99.56
358.354	76.86
358.818	66.76
359.281	68.96
359.745	62.76
360.209	61.46
360.673	67.36
361.136	71.66
361.6	69.46
362.064	82.66
362.527	75.66
362.991	81.26
363.454	69.26
363.918	65.76
364.381	69.86
364.845	73.86
365.308	81.36
365.772	77.66
366.235	85.26
366.698	77.46
367.162	73.86
367.625	76.36
368.088	77.86
368.552	86.06
369.015	75.06
369.478	88.06
369.941	88.56
370.404	84.76
370.867	96.06
371.331	89.16
371.794	100.56
372.257	97.66
372.72	96.56
373.183	96.16
373.646	92.86
374.109	89.76
374.572	94.46
375.035	96.86
375.497	100.96
375.96	100.16
376.423	97.86
376.886	99.66
377.349	98.26
377.811	88.46
378.274	95.36
378.737	98.86
379.199	99.36
379.662	104.66
380.125	104.36
380.587	110.96
381.05	109.56
381.512	116.66
381.975	117.36
382.437	116.36
382.9	117.26
383.362	115.46
383.825	135.16
384.287	136.46
384.75	123.06
385.212	121.16
385.674	130.26
386.136	124.56
386.599	124.46
387.061	118.06
387.523	118.76
387.985	129.56
388.447	133.26
388.91	132.66
389.372	138.96
389.834	137.36
390.296	130.06
390.758	137.16
391.22	143.76
391.682	184.16
392.144	244.26
392.606	198.66
393.068	155.16
393.529	152.56
393.991	144.16
394.453	141.46
394.915	143.96
395.377	169.56
395.838	186.96
396.3	149.16
396.762	134.36
397.224	124.66
397.685	118.26
398.147	130.56
398.608	122.26
399.07	128.86
399.531	132.76
399.993	137.66
400.454	147.76
400.916	138.96
401.377	134.26
401.839	146.76
402.3	147.36
402.762	163.76
403.223	168.46
403.684	160.56
404.145	149.56
404.607	155.56
405.068	157.36
405.529	165.26
405.99	176.66
406.451	167.46
406.913	163.56
407.374	159.56
407.835	160.46
408.296	160.16
408.757	169.96
409.218	181.66
409.679	170.96
410.14	174.26
410.601	180.66
411.062	181.16
411.522	181.66
411.983	177.26
412.444	167.56
412.905	175.76
413.366	178.66
413.826	194.96
414.287	213.36
414.748	255.66
415.208	243.56
415.669	207.86
416.13	204.56
416.59	190.46
417.051	209.26
417.511	212.96
417.972	230.36
418.432	238.36
418.893	288.46
419.353	245.26
419.814	195.56
420.274	185.56
420.734	182.96
421.195	200.26
421.655	188.16
422.115	189.66
422.576	187.16
423.036	195.96
423.496	205.66
423.956	215.66
424.416	229.36
424.876	266.56
425.336	246.36
425.797	256.16
426.257	251.36
426.717	235.76
427.177	229.16
427.637	223.56
428.097	231.36
428.556	237.76
429.016	268.16
429.476	265.86
429.936	272.06
430.396	269.56
430.856	283.96
431.315	314.86
431.775	344.86
432.235	367.36
432.694	341.96
433.154	345.56
433.614	379.16
434.073	326.86
434.533	278.16
434.993	265.96
435.452	276.66
435.912	293.66
436.371	278.26
436.83	276.76
437.29	262.16
437.749	249.46
438.209	246.46
438.668	261.36
439.127	273.66
439.587	259.86
440.046	240.76
440.505	255.76
440.964	264.86
441.424	303.76
441.883	304.66
442.342	257.16
442.801	224.56
443.26	220.86
443.719	222.66
444.178	216.96
444.637	211.26
445.096	224.26
445.555	222.36
446.014	226.56
446.473	226.96
446.932	224.16
447.391	227.16
447.849	236.86
448.308	224.76
448.767	219.96
449.226	239.56
449.685	239.66
450.143	249.86
450.602	234.76
451.061	236.66
451.519	225.26
451.978	226.06
452.436	230.06
452.895	241.56
453.353	254.76
453.812	237.16
454.27	241.26
454.729	236.26
455.187	234.06
455.646	243.76
456.104	251.66
456.562	262.56
457.021	270.36
457.479	259.96
457.937	270.36
458.395	259.46
458.854	250.06
459.312	258.36
459.77	266.46
460.228	253.66
460.686	238.06
461.144	253.86
461.602	247.96
462.06	247.36
462.518	257.96
462.976	260.16
463.434	256.26
463.892	262.66
464.35	279.26
464.808	287.36
465.266	274.96
465.724	273.76
466.181	271.66
466.639	265.76
467.097	297.06
467.555	297.96
468.012	299.46
468.47	307.36
468.928	325.86
469.385	341.46
469.843	348.86
470.3	353.66
470.758	359.96
471.215	374.06
471.673	412.86
472.13	395.86
472.588	415.16
473.045	372.26
473.503	378.36
473.96	391.26
474.417	404.86
474.875	424.16
475.332	465.26
475.789	459.96
476.246	467.26
476.704	485.96
477.161	504.46
477.618	518.86
478.075	555.36
478.532	617.56
478.989	681.96
479.446	791.06
479.903	760.96
480.36	790.46
480.817	845.16
481.274	952.96
481.731	1045.36
482.188	1125.56
482.645	1267.36
483.102	1356.26
483.558	1489.36
484.015	1535.16
484.472	1518.16
484.929	1452.36
485.385	1412.46
485.842	1384.86
486.299	1319.06
486.755	1271.06
487.212	1073.36
487.668	900.06
488.125	831.46
488.582	760.26
489.038	743.76
489.494	707.96
489.951	681.16
490.407	662.26
490.864	649.76
491.32	644.86
491.776	636.56
492.233	633.16
492.689	612.96
493.145	598.26
493.602	605.46
494.058	608.76
494.514	612.16
494.97	632.26
495.426	644.06
495.882	615.96
496.338	606.96
496.794	613.56
497.251	607.06
497.707	620.26
498.163	628.06
498.618	632.16
499.074	641.96
499.53	665.06
499.986	661.86
500.442	644.46
500.898	629.96
501.354	623.96
501.809	624.06
502.265	636.86
502.721	649.56
503.177	656.76
503.632	658.96
504.088	668.06
504.543	694.96
504.999	700.46
505.455	650.26
505.91	624.26
506.366	640.46
506.821	628.26
507.277	624.66
507.732	627.36
508.187	616.56
508.643	639.36
509.098	637.66
509.553	658.46
510.009	658.16
510.464	674.06
510.919	691.26
511.375	700.76
511.83	702.36
512.285	717.86
512.74	753.36
513.195	787.06
513.65	765.06
514.105	762.86
514.56	766.96
515.015	787.26
515.47	799.26
515.925	784.86
516.38	775.36
516.835	785.56
517.29	787.36
517.745	774.86
518.2	765.46
518.655	756.96
519.109	751.96
519.564	735.86
520.019	723.86
520.474	731.96
520.928	728.56
521.383	722.36
521.838	710.66
522.292	711.36
522.747	716.66
523.201	711.66
523.656	700.46
524.11	693.86
524.565	692.96
525.019	686.16
525.474	694.96
525.928	698.26
526.382	696.06
526.837	692.26
527.291	699.26
527.745	689.66
528.2	700.66
528.654	689.26
529.108	691.96
529.562	685.36
530.016	692.06
530.47	686.66
530.925	685.96
531.379	692.86
531.833	708.06
532.287	702.16
532.741	704.96
533.195	704.56
533.649	705.76
534.103	718.56
534.556	704.96
535.01	716.66
535.464	699.96
535.918	709.56
536.372	713.96
536.826	718.56
537.279	701.46
537.733	720.06
538.187	712.26
538.64	717.26
539.094	713.36
539.548	720.06
540.001	723.06
540.455	727.56
540.908	732.56
541.362	735.86
541.815	738.76
542.269	750.96
542.722	756.46
543.175	769.66
543.629	769.86
544.082	783.06
544.536	790.06
544.989	795.36
545.442	794.26
545.895	798.06
546.349	797.06
546.802	796.36
547.255	797.16
547.708	805.76
548.161	810.36
548.614	831.36
549.067	823.46
549.52	817.26
549.973	808.16
550.426	800.86
550.879	784.36
551.332	798.06
551.785	804.66
552.238	804.36
552.691	809.66
553.144	837.56
553.596	840.16
554.049	868.96
554.502	886.86
554.955	909.36
555.407	907.56
555.86	895.66
556.313	884.86
556.765	874.76
557.218	870.76
557.67	882.86
558.123	880.46
558.576	865.56
559.028	876.76
559.48	879.46
559.933	872.76
560.385	835.26
560.838	807.76
561.29	777.36
561.742	791.86
562.195	764.16
562.647	754.56
563.099	762.76
563.551	774.06
564.004	777.66
564.456	779.96
564.908	769.66
565.36	750.86
565.812	732.36
566.264	720.06
566.716	716.96
567.168	707.16
567.62	723.36
568.072	696.46
568.524	695.16
568.976	685.16
569.428	677.26
569.88	674.16
570.332	684.56
570.784	686.36
571.235	684.36
571.687	697.26
572.139	707.56
572.59	712.16
573.042	703.56
573.494	718.06
573.945	695.96
574.397	681.76
574.849	683.36
575.3	681.86
575.752	682.16
576.203	687.76
576.655	684.36
577.106	671.96
577.557	667.56
578.009	668.56
578.46	668.66
578.912	659.26
579.363	663.16
579.814	664.56
580.265	653.16
580.717	668.66
581.168	655.66
581.619	670.26
582.07	681.96
582.521	669.06
582.972	662.96
583.423	668.06
583.875	678.46
584.326	695.76
584.777	734.36
585.227	791.06
585.678	864.46
586.129	938.06
586.58	990.86
587.031	1062.96
587.482	1183.96
587.933	1328.56
588.384	1171.46
588.834	922.26
589.285	791.96
589.736	779.16
590.186	766.96
590.637	772.56
591.088	746.36
591.538	738.36
591.989	730.76
592.439	718.76
592.89	715.46
593.34	696.36
593.791	704.16
594.241	697.16
594.692	706.46
595.142	701.46
595.593	697.96
596.043	702.96
596.493	704.26
596.943	706.26
597.394	716.36
597.844	715.26
598.294	729.86
598.744	753.56
599.195	762.36
599.645	812.96
600.095	856.86
600.545	912.06
600.995	966.96
601.445	1019.16
601.895	1082.06
602.345	1129.66
602.795	1103.56
603.245	1065.66
603.695	1008.16
604.145	958.06
604.594	897.96
605.044	854.16
605.494	809.46
605.944	759.86
606.393	739.86
606.843	732.66
607.293	721.16
607.743	728.66
608.192	739.26
608.642	758.96
609.091	761.56
609.541	764.16
609.99	765.46
610.44	763.76
610.889	711.96
611.339	696.76
611.788	678.06
612.238	693.16
612.687	706.46
613.136	708.96
613.586	723.06
614.035	725.96
614.484	741.46
614.933	733.86
615.383	724.26
615.832	720.36
616.281	724.16
616.73	678.86
617.179	651.26
617.628	651.06
618.077	638.26
618.526	618.96
618.975	612.96
619.424	607.86
619.873	609.36
620.322	620.76
620.771	601.36
621.22	605.16
621.669	591.56
622.118	585.16
622.567	575.86
623.015	564.36
623.464	560.26
623.913	553.16
624.361	552.26
624.81	544.36
625.259	555.56
625.707	561.76
626.156	549.56
626.604	567.26
627.053	553.96
627.501	573.36
627.95	561.96
628.398	572.16
628.847	575.96
629.295	564.96
629.744	570.46
630.192	561.36
630.64	562.86
631.089	554.06
631.537	554.16
631.985	558.96
632.433	569.26
632.881	569.46
633.33	615.36
633.778	601.26
634.226	547.66
634.674	562.16
635.122	555.46
635.57	572.56
636.018	597.36
636.466	566.46
636.914	545.66
637.362	565.46
637.81	559.56
638.258	570.16
638.705	571.76
639.153	606.46
639.601	633.16
640.049	645.56
640.497	665.56
640.944	685.76
641.392	642.66
641.84	601.96
642.287	585.56
642.735	570.86
643.182	566.16
643.63	570.46
644.078	572.96
644.525	582.16
644.973	580.66
645.42	606.66
645.867	612.86
646.315	636.56
646.762	649.76
647.21	686.06
647.657	702.66
648.104	733.06
648.551	744.86
648.999	825.76
649.446	902.46
649.893	984.86
650.34	1128.46
650.787	1348.26
651.234	1686.16
651.682	2174.86
652.129	2989.16
652.576	4296.46
653.023	6325.76
653.47	8626.96
653.917	10744.06
654.363	12407.16
654.81	13672.76
655.257	12958.66
655.704	8471.06
656.151	5027.36
656.598	3284.66
657.044	2325.56
657.491	1806.26
657.938	1452.36
658.385	1203.26
658.831	1052.46
659.278	936.46
659.724	834.16
660.171	773.56
660.618	711.86
661.064	677.76
661.511	662.66
661.957	643.16
662.404	630.66
662.85	636.86
663.296	615.36
663.743	553.66
664.189	531.96
664.635	526.76
665.082	521.26
665.528	520.16
665.974	508.86
666.42	504.06
666.867	500.86
667.313	490.76
667.759	472.36
668.205	466.76
668.651	463.36
669.097	468.16
669.543	465.26
669.989	461.26
670.435	438.86
670.881	448.06
671.327	447.96
671.773	466.96
672.219	492.66
672.665	539.96
673.11	573.46
673.556	621.36
674.002	673.46
674.448	651.96
674.893	550.76
675.339	475.76
675.785	437.76
676.23	423.76
676.676	394.56
677.122	384.76
677.567	373.36
678.013	369.46
678.458	360.46
678.904	353.76
679.349	338.66
679.794	347.86
680.24	351.26
680.685	347.36
681.131	348.96
681.576	354.06
682.021	361.16
682.466	350.56
682.912	350.36
683.357	360.16
683.802	388.36
684.247	418.16
684.692	442.46
685.137	500.76
685.583	531.46
686.028	552.76
686.473	512.26
686.918	446.76
687.363	415.46
687.807	392.46
688.252	360.76
688.697	358.86
689.142	338.66
689.587	329.36
690.032	327.46
690.477	335.46
690.921	348.46
691.366	384.86
691.811	397.96
692.255	431.06
692.7	464.36
693.145	503.96
693.589	706.36
694.034	1146.36
694.478	1531.76
694.923	1731.36
695.367	2250.86
695.812	1183.36
696.256	494.96
696.701	367.76
697.145	347.56
697.59	324.56
698.034	324.86
698.478	329.96
698.922	321.96
699.367	325.86
699.811	331.26
700.255	346.26
700.699	389.06
701.143	430.56
701.588	479.16
702.032	522.36
702.476	506.76
702.92	495.86
703.364	493.76
703.808	649.46
704.252	1047.36
704.696	1460.86
705.14	1665.46
705.584	2118.66
706.027	1071.76
706.471	518.86
706.915	396.86
707.359	349.16
707.803	309.06
708.246	307.96
708.69	303.26
709.134	311.26
709.577	309.76
710.021	311.66
710.465	309.66
710.908	295.96
711.352	302.06
711.795	314.36
712.239	356.16
712.682	382.66
713.126	417.56
713.569	455.76
714.012	367.76
714.456	316.56
714.899	292.76
715.342	276.06
715.786	268.46
716.229	256.26
716.672	256.66
717.115	244.56
717.558	255.16
718.002	254.16
718.445	257.56
718.888	289.26
719.331	291.66
719.774	303.76
720.217	297.06
720.66	282.26
721.103	266.16
721.546	258.26
721.989	257.76
722.432	233.96
722.874	234.76
723.317	222.76
723.76	234.76
724.203	258.66
724.645	318.46
725.088	440.36
725.531	564.66
725.974	643.26
726.416	538.16
726.859	308.86
727.301	243.56
727.744	242.56
728.187	227.96
728.629	237.56
729.071	243.56
729.514	256.66
729.956	280.06
730.399	276.86
730.841	297.86
731.283	276.86
731.726	265.06
732.168	263.56
732.61	267.26
733.053	286.66
733.495	307.36
733.937	354.86
734.379	403.16
734.821	443.16
735.263	557.66
735.705	846.46
736.148	1597.86
736.59	2583.56
737.032	3025.56
737.474	2473.96
737.916	807.26
738.357	435.26
738.799	330.26
739.241	291.86
739.683	285.56
740.125	297.96
740.567	297.06
741.008	315.06
741.45	312.66
741.892	313.86
742.334	352.36
742.775	359.86
743.217	349.26
743.658	273.86
744.1	248.96
744.542	255.26
744.983	313.66
745.425	336.66
745.866	340.06
746.307	284.36
746.749	285.06
747.19	326.26
747.632	459.66
748.073	894.36
748.514	1883.36
748.956	2851.46
749.397	3570.96
749.838	2955.66
750.279	2964.26
750.72	1491.26
751.162	546.46
751.603	317.56
752.044	252.46
752.485	217.96
752.926	209.86
753.367	200.26
753.808	199.36
754.249	191.86
754.69	182.96
755.131	179.96
755.572	182.76
756.013	185.66
756.453	194.86
756.894	188.26
757.335	190.96
757.776	191.66
758.216	203.76
758.657	201.16
759.098	203.86
759.538	227.36
759.979	268.76
760.42	373.96
760.86	725.16
761.301	1883.56
761.741	4491.56
762.182	6418.66
762.622	4504.16
763.063	1312.66
763.503	541.76
763.943	341.16
764.384	315.56
764.824	355.26
765.264	378.26
765.705	274.86
766.145	207.26
766.585	183.36
767.025	178.06
767.465	174.86
767.906	225.96
768.346	282.56
768.786	294.46
769.226	244.56
769.666	313.46
770.106	621.66
770.546	1583.26
770.986	2648.26
771.426	2363.76
771.866	797.76
772.306	329.46
772.745	212.76
773.185	175.96
773.625	169.96
774.065	162.06
774.505	189.36
774.944	273.06
775.384	579.46
775.824	1008.06
776.263	968.66
776.703	426.86
777.142	200.46
777.582	153.96
778.021	136.06
778.461	138.56
778.9	131.26
779.34	128.46
779.779	116.16
780.219	110.26
780.658	114.06
781.097	112.36
781.537	111.36
781.976	113.46
782.415	103.76
782.855	110.86
783.294	100.56
783.733	102.86
784.172	108.46
784.611	100.06
785.05	103.26
785.489	111.96
785.928	119.76
786.367	123.36
786.806	114.06
787.245	136.86
787.684	137.46
788.123	148.06
788.562	132.26
789.001	125.46
789.44	128.06
789.879	121.26
790.317	114.56
790.756	132.36
791.195	129.76
791.634	150.16
792.072	202.56
792.511	378.36
792.95	1020.86
793.388	2121.56
793.827	1908.66
794.265	674.46
794.704	290.26
795.142	183.26
795.581	151.56
796.019	135.86
796.458	129.76
796.896	129.66
797.334	131.16
797.773	160.86
798.211	219.66
798.649	451.06
799.087	1030.96
799.526	1604.66
799.964	2019.06
800.402	1994.56
800.84	749.56
801.278	302.86
801.716	192.26
802.154	149.46
802.592	148.56
803.03	143.96
803.468	140.96
803.906	150.86
804.344	156.56
804.782	136.66
805.22	140.06
805.658	130.96
806.096	148.86
806.533	164.56
806.971	179.56
807.409	219.96
807.847	322.86
808.284	678.86
808.722	1895.16
809.16	3307.26
809.597	3183.36
810.035	5473.56
810.472	5767.56
810.91	2093.56
811.347	791.76
811.785	404.36
812.222	262.36
812.66	202.16
813.097	164.16
813.535	148.86
813.972	136.16
814.409	125.16
814.846	111.76
815.284	111.36
815.721	105.76
816.158	103.76
816.595	118.96
817.032	166.96
817.47	188.56
817.907	149.06
818.344	123.46
818.781	107.46
819.218	108.96
819.655	124.16
820.092	186.46
820.529	213.96
820.966	172.26
821.403	128.86
821.839	102.66
822.276	99.16
822.713	125.96
823.15	134.96
823.587	114.16
824.023	149.56
824.46	308.06
824.897	912.26
825.333	1342.66
825.77	575.56
826.206	231.16
826.643	142.36
827.08	103.16
827.516	85.76
827.953	81.56
828.389	85.66
828.825	69.06
829.262	72.56
829.698	58.66
830.135	60.46
830.571	65.16
831.007	65.16
831.443	71.06
831.88	62.56
832.316	59.46
832.752	63.76
833.188	66.36
833.624	62.16
834.06	74.06
834.497	71.26
834.933	74.86
835.369	73.86
835.805	68.06
836.241	80.66
836.677	82.06
837.112	93.86
837.548	106.56
837.984	139.76
838.42	202.46
838.856	512.26
839.292	1523.06
839.727	2296.26
840.163	1074.26
840.599	942.86
841.034	2067.56
841.47	2105.76
841.906	779.36
842.341	337.66
842.777	223.46
843.212	280.36
843.648	262.76
844.083	134.46
844.519	98.26
844.954	79.36
845.39	55.06
845.825	66.56
846.261	64.76
846.696	54.76
847.131	52.96
847.566	61.16
848.002	52.96
848.437	55.86
848.872	64.86
849.307	62.46
849.742	88.76
850.177	190.36
850.613	565.76
851.048	881.16
851.483	379.66
851.918	160.26
852.353	88.36
852.788	64.16
853.223	56.66
853.657	52.66
854.092	51.86
854.527	47.96
854.962	47.26
855.397	54.16
855.832	50.66
856.266	44.36
856.701	37.86
857.136	39.86
857.57	46.36
858.005	43.26
858.44	62.96
858.874	44.56
859.309	57.26
859.743	40.96
860.178	46.06
860.612	47.16
861.047	47.96
861.481	70.06
861.915	73.86
862.35	55.86
862.784	35.16
863.218	40.96
863.653	37.46
864.087	46.56
864.521	56.86
864.955	74.76
865.39	157.66
865.824	174.36
866.258	117.56
866.692	161.16
867.126	185.96
867.56	107.86
867.994	53.56
868.428	42.06
868.862	48.56
869.296	61.96
869.73	60.66
870.164	62.06
870.598	52.56
871.031	40.96
871.465	39.16
871.899	33.86
872.333	25.96
872.766	20.76
873.2	29.26
873.634	27.96
874.067	27.26
874.501	26.36
874.935	35.66
875.368	33.56
875.802	31.56
876.235	27.36
876.669	24.36
877.102	24.56
877.535	29.36
877.969	25.36
878.402	26.76
878.836	23.56
879.269	25.46
879.702	23.46
880.135	22.56
880.569	19.06
881.002	30.46
881.435	21.56
881.868	17.16
882.301	23.66
882.734	19.36
883.167	24.06
883.601	19.46
884.034	21.26
884.467	18.96
884.899	21.16
885.332	15.96
885.765	21.06
886.198	21.06
886.631	22.66
887.064	21.06
887.497	18.86
887.929	23.36
888.362	14.16
888.795	18.26
889.228	16.96
889.66	23.96
890.093	20.66
890.526	18.16
890.958	16.76
891.391	17.06
891.823	28.36
892.256	22.36
892.688	16.96
893.121	15.06
893.553	12.76
893.985	21.86
894.418	23.86
894.85	16.46
895.282	23.26
895.715	18.66
896.147	19.96
896.579	19.16
897.011	14.96
897.444	18.06
897.876	15.56
898.308	18.66
898.74	14.56
899.172	19.96
899.604	24.16
900.036	23.16
900.468	18.06
900.9	18.76
901.332	20.96
901.764	13.86
902.196	19.36
902.628	19.16
903.06	17.46
903.491	31.16
903.923	20.26
904.355	22.86
904.787	22.56
905.218	25.06
905.65	19.36
906.082	13.06
906.513	13.56
906.945	20.66
907.376	14.96
907.808	22.06
908.239	21.66
908.671	19.26
909.102	24.26
909.534	24.76
909.965	51.86
910.397	96.76
910.828	321.46
911.259	476.96
911.691	217.56
912.122	114.36
912.553	51.86
912.984	39.46
913.415	28.26
913.847	23.06
914.278	19.36
914.709	10.46
915.14	21.06
915.571	23.56
916.002	16.26
916.433	18.86
916.864	18.66
917.295	12.96
917.726	25.46
918.157	19.16
918.587	26.36
919.018	22.06
919.449	23.96
919.88	27.86
920.311	33.86
920.741	50.36
921.172	164.36
921.603	157.46
922.033	72.56
922.464	47.26
922.895	23.46
923.325	26.36
923.756	19.26
924.186	18.06
924.617	30.86
925.047	35.36
925.478	44.06
925.908	40.56
926.338	26.66
926.769	18.56
927.199	27.76
927.629	10.66
928.06	16.46
928.49	16.66
928.92	11.56
929.35	10.86
929.78	12.46
930.21	10.26
930.641	9.46
931.071	14.66
931.501	-0.34
931.931	9.96
932.361	17.56
932.791	6.76
933.221	10.46
933.651	8.96
934.08	15.36
934.51	28.46
934.94	10.46
935.37	11.06
935.8	9.26
936.229	9.86
936.659	17.06
937.089	7.46
937.519	15.86
937.948	26.96
938.378	18.46
938.807	10.86
939.237	6.76
939.666	7.56
940.096	0.66
940.525	2.36
940.955	11.06
941.384	0.56
941.814	-3.64
942.243	0.26
942.672	4.16
943.102	4.66
943.531	1.76
943.96	8.56
944.39	6.36
944.819	3.56
945.248	5.86
945.677	9.86
946.106	6.96
946.535	5.46
946.964	4.06
947.393	6.66
947.822	-1.44
948.251	-4.24
948.68	11.06
949.109	10.26
949.538	5.46
949.967	0.66
950.396	8.36
950.825	2.46
951.254	3.96
951.682	-2.94
952.111	2.86
952.54	10.66
952.969	-0.84
953.397	-2.44
953.826	2.96
954.254	-1.64
954.683	-1.24
955.112	-1.64
955.54	4.06
955.969	4.06
956.397	11.16
956.826	-1.54
957.254	4.86
957.682	3.56
958.111	0.46
958.539	0.36
958.967	2.96
959.396	2.96
959.824	8.26
960.252	6.86
960.68	-4.44
961.109	-2.24
961.537	-4.94
961.965	3.86
962.393	3.76
962.821	-2.04
963.249	1.56
963.677	6.16
964.105	0.16
964.533	50.36
964.961	37.76
965.389	16.76
965.817	11.86
966.245	4.46
966.672	5.26
967.1	-2.14
967.528	1.36
967.956	-7.24
968.383	0.06
968.811	-1.14
969.239	-2.14
969.666	-0.74
970.094	5.26
970.522	2.66
970.949	2.36
971.377	-3.54
971.804	0.26
972.232	4.06
972.659	3.26
973.087	2.56
973.514	1.86
973.941	-4.74
974.369	9.46
974.796	-0.54
975.223	0.86
975.651	4.26
976.078	6.96
976.505	-1.84
976.932	10.06
977.359	21.36
977.786	17.26
978.214	0.26
978.641	-3.54
979.068	4.56
979.495	-6.54
979.922	4.26
980.349	2.26
980.776	3.76
981.202	5.56
981.629	6.46
982.056	7.06
982.483	-1.14
982.91	4.26
983.337	-2.94
983.763	7.06
984.19	-4.24
984.617	-7.34
985.043	3.06
985.47	2.96
985.897	2.16
986.323	-1.14
986.75	6.66
987.176	5.46
987.603	0.86
988.029	3.96
988.456	4.96
988.882	2.76
989.308	-3.44
989.735	-8.94
990.161	5.56
990.587	0.76
991.014	-2.04
991.44	9.56
991.866	2.76
992.292	-2.74
992.719	-3.64
993.145	9.46
993.571	-9.14
993.997	-1.74
994.423	1.66
994.849	-0.84
995.275	8.06
995.701	4.26
996.127	-5.14
996.553	0.56
996.979	-0.54
997.405	1.66
997.83	0.06
998.256	-4.44
998.682	1.46
999.108	-8.04
999.534	2.26
999.959	-2.04
1000.385	-6.84
1000.811	-1.94
1001.236	0.16
1001.662	-1.94
1002.087	-10.14
1002.513	3.16
1002.938	5.66
1003.364	-7.04
1003.789	-2.84
1004.215	7.06
1004.64	-1.14
1005.066	5.16
1005.491	2.36
1005.916	-2.14
1006.342	5.56
1006.767	0.06
1007.192	5.96
1007.617	2.46
1008.042	-1.14
1008.468	-0.94
1008.893	-5.24
1009.318	1.46
1009.743	-4.54
1010.168	5.56
1010.593	6.66
1011.018	-4.54
1011.443	-1.64
1011.868	2.86
1012.293	1.86
1012.718	-1.94
1013.143	-3.84
1013.567	-0.44
1013.992	3.56
1014.417	-8.44
1014.842	-1.34
1015.267	-3.34
1015.691	-4.74
1016.116	9.26
1016.541	4.36
1016.965	3.46
1017.39	7.36
1017.814	2.86
1018.239	0.06
1018.663	-2.54
1019.088	-9.94
1019.512	-2.24
1019.937	-6.34
1020.361	-2.04
1020.785	-9.84
1021.21	-0.44
1021.634	-0.94
1022.058	1.06
1022.483	5.66
1022.907	-0.34
1023.331	2.26
1023.755	-1.54
1024.179	-0.14
1024.604	-4.94
1025.028	-3.94
1025.452	-2.04
1025.876	4.26
1026.3	2.26
1026.724	-9.34
1027.148	-4.04
1027.572	-5.34
1027.996	2.16
1028.42	0.26
1028.843	0.26
1029.267	-2.54
1029.691	5.46
1030.115	1.06
1030.539	-5.94
1030.962	-4.24
1031.386	-10.94
1031.81	2.26
1032.233	5.46
1032.657	2.46
1033.08	4.76
1033.504	1.56
1033.927	1.16
1034.351	3.96
1034.774	-10.74
1035.198	-5.74
1035.621	-7.44
1036.045	-2.04
1036.468	5.86
1036.891	-1.44
1037.315	0.36
1037.738	-9.84
1038.161	6.66
1038.584	-1.64
1039.008	-7.74
1039.431	1.16
1039.854	-6.24
1040.277	-7.14
1040.7	-12.94
1041.123	-4.64
1041.546	-8.24
1041.969	-4.34
1042.392	-4.54
1042.815	-0.54
1043.238	1.96
1043.661	4.76
1044.084	-5.74
1044.507	-1.24
1044.93	-0.64
1045.352	-1.74
1045.775	-1.74
1046.198	-0.84
1046.621	-0.64
1047.043	2.06
1047.466	18.26
1047.889	1.46
1048.311	0.56
1048.734	3.36
1049.156	0.26
1049.579	4.76
1050.001	-3.34
1050.424	0.96
1050.846	2.96
1051.269	-7.64
1051.691	-9.24
1052.113	-4.34
1052.536	0.26
1052.958	-1.44
1053.38	-5.04
1053.802	-4.64
1054.225	3.86
1054.647	-4.94
1055.069	-1.54
1055.491	8.76
1055.913	-5.74
1056.335	1.86
1056.757	-3.74
1057.179	-5.34
1057.601	-10.44
1058.023	2.96
1058.445	-0.54
1058.867	-4.64
1059.289	-0.24
1059.711	-6.34
1060.133	-0.34
1060.555	-0.94
1060.976	-7.54
1061.398	1.26
1061.82	-2.94
1062.241	-0.64
1062.663	-8.04
1063.085	-0.74
1063.506	3.36
1063.928	-3.94
1064.35	3.46
1064.771	-6.24
1065.193	-0.84
1065.614	-6.64
1066.035	-1.34
1066.457	-6.94
1066.878	1.66
1067.3	-2.34
1067.721	0.06
1068.142	-10.34
1068.564	-2.84
1068.985	-2.54
1069.406	-0.04
1069.827	0.86
1070.248	-2.74
1070.67	0.56
1071.091	-7.24
1071.512	7.46
1071.933	-2.34
1072.354	-6.74
1072.775	-1.64
1073.196	-6.04
1073.617	-1.04
1074.038	-4.84
1074.459	-4.14
1074.88	-8.04
1075.3	6.46
1075.721	-9.54
1076.142	3.56
1076.563	5.36
1076.983	-6.24
1077.404	2.86
1077.825	-11.44
1078.246	-2.74
1078.666	-6.14
1079.087	-1.44
1079.507	-3.94
1079.928	1.66
1080.348	-0.64
1080.769	-1.54
1081.189	3.16
1081.61	1.76
1082.03	-0.74
1082.451	-4.64
1082.871	-1.54
1083.291	-2.84
1083.711	-4.44
1084.132	-3.24
1084.552	-4.34
1084.972	-2.14
1085.392	-8.64
1085.813	-8.54
1086.233	-9.04
1086.653	0.56
1087.073	-1.94
1087.493	-6.84
1087.913	-2.94
1088.333	-1.04
1088.753	-0.74
1089.173	4.46
1089.593	0.06
1090.013	-2.14
1090.433	6.86
1090.852	-4.54
1091.272	0.36
1091.692	0.26
1092.112	-3.74
1092.531	-12.24
1092.951	-8.54
1093.371	0.96
1093.79	6.36
1094.21	-1.74
1094.63	-1.44
1095.049	-1.64
1095.469	1.86
1095.888	-3.74
1096.308	7.96
1096.727	3.36
1097.146	0.46
1097.566	1.36
1097.985	-3.84
1098.405	6.26
1098.824	1.16
1099.243	-5.94
1099.662	-3.54
1100.082	-8.14
1100.501	1.16
1100.92	0.26
1101.339	-5.34
1101.758	-1.24
