Data from 20171114-ORNL-Ar_H_NY_Subt18_08-07-50-543.txt Node
Date: Tue Nov 14 08:07:50 EST 2017
User: Ender
Spectrometer: HR+D1039
Trigger mode: 0
Integration Time (sec): 2.730000E-2
Scans to average: 10
Electric dark correction enabled: true
Nonlinearity correction enabled: false
Boxcar width: 0
XAxis mode: Wavelengths
Number of Pixels in Spectrum: 2048
>>>>>Begin Spectral Data<<<<<
187.836	-9.83
188.309	-9.83
188.782	-9.83
189.255	-0.33
189.728	-0.52
190.201	3.08
190.674	2.98
191.147	0.07
191.619	-5.12
192.092	-2.82
192.565	6.77
193.038	-0.43
193.511	-0.83
193.984	2.77
194.456	0.68
194.929	5.58
195.402	-2.83
195.874	0.77
196.347	-0.02
196.82	-4.12
197.292	7.67
197.765	-1.02
198.237	-4.42
198.71	-0.73
199.182	-2.42
199.655	-2.73
200.127	0.67
200.6	-2.12
201.072	-4.43
201.544	-6.62
202.017	0.77
202.489	3.07
202.961	-3.82
203.433	-1.52
203.906	-10.12
204.378	-5.02
204.85	-9.33
205.322	-4.23
205.794	-0.33
206.266	-1.12
206.739	-11.83
207.211	-0.52
207.683	-9.52
208.155	-10.33
208.627	-4.73
209.099	-8.12
209.57	-10.52
210.042	-7.23
210.514	0.38
210.986	-0.12
211.458	-13.12
211.93	-6.03
212.402	-0.93
212.873	-8.83
213.345	-10.82
213.817	-10.33
214.288	-5.43
214.76	-9.12
215.232	-4.02
215.703	-4.42
216.175	2.98
216.646	-2.32
217.118	-1.33
217.589	-4.22
218.061	-3.12
218.532	-7.22
219.004	-1.12
219.475	-1.12
219.946	-5.43
220.418	-6.72
220.889	-3.12
221.36	-2.22
221.832	-7.73
222.303	-3.23
222.774	1.98
223.245	-7.22
223.717	-0.62
224.188	-6.42
224.659	-7.43
225.13	-8.42
225.601	-4.23
226.072	0.88
226.543	1.17
227.014	-2.52
227.485	-0.83
227.956	-3.42
228.427	0.27
228.898	-2.42
229.369	10.57
229.839	-8.02
230.31	-11.73
230.781	4.38
231.252	-1.33
231.722	0.38
232.193	-4.22
232.664	-3.12
233.135	4.57
233.605	-4.72
234.076	-5.53
234.546	2.17
235.017	5.48
235.487	-1.33
235.958	-3.12
236.428	-4.92
236.899	7.38
237.369	0.08
237.84	-7.42
238.31	2.48
238.78	-3.42
239.251	-3.62
239.721	6.98
240.191	0.18
240.662	-0.32
241.132	5.17
241.602	-4.83
242.072	-0.52
242.542	6.88
243.013	0.17
243.483	5.08
243.953	-5.82
244.423	-1.72
244.893	-0.93
245.363	1.88
245.833	1.67
246.303	-0.73
246.773	8.67
247.243	-0.03
247.712	-1.33
248.182	4.88
248.652	8.27
249.122	-1.43
249.592	12.27
250.061	18.27
250.531	30.48
251.001	15.78
251.471	19.67
251.94	19.77
252.41	6.08
252.879	-2.52
253.349	16.07
253.818	9.98
254.288	2.48
254.757	-0.22
255.227	-0.42
255.696	0.38
256.166	10.98
256.635	5.38
257.105	3.08
257.574	4.47
258.043	8.68
258.513	12.77
258.982	16.18
259.451	-0.12
259.92	6.88
260.389	11.68
260.859	14.58
261.328	13.58
261.797	17.38
262.266	5.88
262.735	8.28
263.204	8.67
263.673	0.67
264.142	-0.12
264.611	-4.12
265.08	-1.23
265.549	-4.32
266.018	3.08
266.487	-2.73
266.955	-2.52
267.424	1.58
267.893	5.18
268.362	0.78
268.83	7.17
269.299	8.58
269.768	3.67
270.236	4.77
270.705	1.38
271.174	6.88
271.642	3.88
272.111	11.58
272.579	15.27
273.048	21.17
273.516	29.58
273.985	28.27
274.453	19.98
274.922	17.48
275.39	11.67
275.858	0.48
276.327	10.88
276.795	11.77
277.263	11.57
277.731	24.77
278.2	49.17
278.668	45.98
279.136	42.77
279.604	21.88
280.072	11.88
280.54	7.88
281.008	8.17
281.477	13.48
281.945	8.67
282.413	15.88
282.881	8.27
283.348	5.28
283.816	8.67
284.284	17.38
284.752	16.17
285.22	11.68
285.688	14.57
286.156	15.18
286.623	46.27
287.091	42.58
287.559	25.88
288.026	13.38
288.494	14.17
288.962	6.88
289.429	16.07
289.897	20.38
290.364	16.17
290.832	13.78
291.3	7.08
291.767	20.48
292.234	17.27
292.702	13.88
293.169	18.08
293.637	17.88
294.104	19.08
294.571	3.88
295.039	6.17
295.506	14.48
295.973	13.67
296.44	12.58
296.908	12.38
297.375	17.17
297.842	20.67
298.309	17.18
298.776	10.98
299.243	18.47
299.71	9.77
300.177	21.48
300.644	17.18
301.111	18.88
301.578	18.67
302.045	11.08
302.512	21.88
302.979	18.77
303.446	20.48
303.913	17.18
304.379	15.48
304.846	23.78
305.313	19.88
305.78	17.67
306.246	22.67
306.713	28.17
307.18	21.98
307.646	26.88
308.113	24.17
308.579	21.38
309.046	19.18
309.512	26.88
309.979	15.57
310.445	21.57
310.912	25.38
311.378	31.58
311.845	27.98
312.311	23.98
312.777	27.88
313.244	29.58
313.71	31.58
314.176	25.58
314.642	30.77
315.109	28.67
315.575	33.58
316.041	40.08
316.507	29.17
316.973	30.07
317.439	26.77
317.905	32.58
318.371	30.77
318.837	25.08
319.303	27.77
319.769	28.28
320.235	31.27
320.701	29.77
321.167	32.88
321.633	33.48
322.099	38.27
322.564	40.77
323.03	38.77
323.496	33.18
323.962	40.78
324.427	31.88
324.893	37.47
325.359	38.57
325.824	30.88
326.29	30.07
326.755	32.77
327.221	34.27
327.686	33.17
328.152	38.18
328.617	38.48
329.083	38.07
329.548	47.27
330.014	43.77
330.479	35.97
330.944	30.67
331.41	36.98
331.875	44.28
332.34	34.27
332.805	43.17
333.271	39.88
333.736	39.27
334.201	45.68
334.666	44.38
335.131	49.07
335.596	50.47
336.061	47.67
336.526	40.27
336.991	42.48
337.456	47.58
337.921	39.97
338.386	39.88
338.851	38.27
339.316	42.77
339.781	41.27
340.246	45.38
340.711	43.57
341.175	47.17
341.64	37.98
342.105	41.18
342.569	48.07
343.034	55.38
343.499	50.88
343.963	56.68
344.428	61.78
344.893	61.17
345.357	56.98
345.822	55.07
346.286	59.98
346.751	66.48
347.215	61.98
347.679	71.27
348.144	85.77
348.608	71.58
349.073	63.58
349.537	70.27
350.001	71.48
350.465	83.48
350.93	73.27
351.394	78.27
351.858	61.28
352.322	77.48
352.786	80.28
353.25	89.48
353.715	100.88
354.179	89.77
354.643	115.48
355.107	117.38
355.571	99.27
356.035	88.88
356.498	113.88
356.962	120.77
357.426	125.17
357.89	112.48
358.354	84.17
358.818	73.58
359.281	74.08
359.745	72.98
360.209	73.98
360.673	68.78
361.136	73.88
361.6	83.57
362.064	83.18
362.527	81.67
362.991	86.98
363.454	73.38
363.918	74.58
364.381	73.27
364.845	74.07
365.308	79.48
365.772	81.27
366.235	79.98
366.698	86.57
367.162	82.38
367.625	79.67
368.088	83.77
368.552	82.88
369.015	82.58
369.478	97.27
369.941	91.48
370.404	88.38
370.867	103.98
371.331	100.47
371.794	103.47
372.257	109.77
372.72	110.47
373.183	102.58
373.646	100.98
374.109	97.48
374.572	101.38
375.035	105.57
375.497	108.97
375.96	102.27
376.423	92.17
376.886	102.98
377.349	104.57
377.811	98.08
378.274	101.68
378.737	108.48
379.199	102.28
379.662	104.88
380.125	110.68
380.587	113.48
381.05	118.28
381.512	126.38
381.975	123.27
382.437	129.18
382.9	126.88
383.362	129.88
383.825	139.68
384.287	137.17
384.75	133.17
385.212	130.07
385.674	136.57
386.136	135.38
386.599	122.27
387.061	122.18
387.523	120.27
387.985	136.27
388.447	137.38
388.91	137.38
389.372	153.58
389.834	150.07
390.296	147.07
390.758	152.67
391.22	158.98
391.682	213.57
392.144	299.57
392.606	217.67
393.068	160.38
393.529	160.17
393.991	146.18
394.453	140.17
394.915	146.17
395.377	182.68
395.838	206.07
396.3	148.17
396.762	141.08
397.224	134.77
397.685	121.77
398.147	123.38
398.608	122.18
399.07	127.38
399.531	130.08
399.993	141.58
400.454	146.48
400.916	138.57
401.377	137.48
401.839	145.07
402.3	143.17
402.762	156.98
403.223	175.67
403.684	165.88
404.145	155.88
404.607	156.17
405.068	158.17
405.529	162.88
405.99	181.48
406.451	171.88
406.913	163.17
407.374	155.88
407.835	153.77
408.296	167.08
408.757	159.38
409.218	181.98
409.679	175.18
410.14	169.78
410.601	170.98
411.062	180.08
411.522	192.77
411.983	186.07
412.444	167.88
412.905	177.78
413.366	173.27
413.826	193.27
414.287	212.07
414.748	251.57
415.208	237.38
415.669	205.27
416.13	195.88
416.59	188.17
417.051	206.78
417.511	205.38
417.972	231.88
418.432	247.88
418.893	283.38
419.353	243.78
419.814	197.17
420.274	180.38
420.734	172.67
421.195	188.07
421.655	192.08
422.115	190.57
422.576	187.17
423.036	192.08
423.496	204.08
423.956	211.28
424.416	225.77
424.876	260.08
425.336	253.38
425.797	254.58
426.257	248.67
426.717	230.88
427.177	230.88
427.637	215.88
428.097	235.58
428.556	242.07
429.016	268.98
429.476	261.08
429.936	265.78
430.396	280.07
430.856	287.27
431.315	313.47
431.775	341.17
432.235	366.77
432.694	348.08
433.154	363.18
433.614	385.97
434.073	337.08
434.533	277.17
434.993	267.48
435.452	278.07
435.912	290.27
436.371	279.98
436.83	275.67
437.29	263.47
437.749	249.68
438.209	242.68
438.668	266.37
439.127	274.77
439.587	262.38
440.046	244.77
440.505	247.17
440.964	276.27
441.424	318.67
441.883	300.58
442.342	251.67
442.801	215.38
443.26	212.87
443.719	216.38
444.178	213.98
444.637	206.98
445.096	212.67
445.555	212.48
446.014	216.38
446.473	217.68
446.932	233.97
447.391	218.48
447.849	225.17
448.308	211.68
448.767	218.08
449.226	224.58
449.685	228.18
450.143	243.57
450.602	229.27
451.061	218.77
451.519	228.08
451.978	229.07
452.436	223.38
452.895	229.48
453.353	251.78
453.812	244.48
454.27	236.37
454.729	230.17
455.187	241.68
455.646	236.58
456.104	245.88
456.562	257.67
457.021	257.77
457.479	259.37
457.937	268.67
458.395	253.78
458.854	246.18
459.312	252.48
459.77	264.57
460.228	251.08
460.686	239.77
461.144	250.18
461.602	238.08
462.06	244.88
462.518	247.88
462.976	252.38
463.434	251.38
463.892	251.57
464.35	267.77
464.808	276.27
465.266	258.07
465.724	260.28
466.181	258.77
466.639	260.07
467.097	281.68
467.555	289.27
468.012	296.98
468.47	299.98
468.928	316.97
469.385	340.38
469.843	336.27
470.3	332.08
470.758	350.18
471.215	376.87
471.673	398.37
472.13	395.08
472.588	413.38
473.045	363.98
473.503	370.58
473.96	386.77
474.417	401.98
474.875	429.67
475.332	471.07
475.789	456.38
476.246	463.58
476.704	479.38
477.161	498.57
477.618	506.37
478.075	548.38
478.532	609.57
478.989	680.57
479.446	797.88
479.903	768.58
480.36	787.48
480.817	845.67
481.274	951.07
481.731	1046.28
482.188	1136.18
482.645	1270.47
483.102	1376.08
483.558	1509.57
484.015	1557.88
484.472	1542.18
484.929	1495.88
485.385	1456.27
485.842	1405.67
486.299	1332.58
486.755	1285.58
487.212	1066.17
487.668	894.17
488.125	833.57
488.582	764.78
489.038	732.48
489.494	698.97
489.951	672.98
490.407	639.67
490.864	628.97
491.32	622.27
491.776	631.88
492.233	633.08
492.689	593.88
493.145	595.58
493.602	591.87
494.058	613.57
494.514	604.58
494.97	630.48
495.426	641.18
495.882	602.07
496.338	598.77
496.794	603.27
497.251	603.98
497.707	607.28
498.163	608.68
498.618	625.47
499.074	627.27
499.53	659.88
499.986	666.97
500.442	631.67
500.898	609.38
501.354	595.08
501.809	627.08
502.265	634.27
502.721	650.77
503.177	657.88
503.632	639.77
504.088	657.38
504.543	702.97
504.999	694.77
505.455	640.17
505.91	612.57
506.366	623.77
506.821	610.58
507.277	603.08
507.732	607.38
508.187	604.18
508.643	620.48
509.098	624.48
509.553	641.88
510.009	653.58
510.464	651.98
510.919	672.68
511.375	674.88
511.83	685.88
512.285	707.47
512.74	729.07
513.195	761.68
513.65	749.48
514.105	739.08
514.56	755.47
515.015	767.38
515.47	787.27
515.925	768.48
516.38	776.77
516.835	776.37
517.29	764.48
517.745	755.28
518.2	749.38
518.655	722.08
519.109	719.67
519.564	727.08
520.019	710.98
520.474	709.67
520.928	705.67
521.383	703.08
521.838	701.18
522.292	697.68
522.747	684.38
523.201	690.17
523.656	680.77
524.11	677.48
524.565	684.48
525.019	674.38
525.474	690.68
525.928	689.17
526.382	678.37
526.837	675.48
527.291	690.37
527.745	689.58
528.2	689.78
528.654	664.77
529.108	668.48
529.562	676.87
530.016	669.78
530.47	674.18
530.925	674.37
531.379	683.27
531.833	692.28
532.287	687.38
532.741	688.38
533.195	686.67
533.649	699.27
534.103	704.57
534.556	690.38
535.01	692.67
535.464	692.37
535.918	703.67
536.372	707.97
536.826	706.88
537.279	691.28
537.733	701.27
538.187	695.27
538.64	698.08
539.094	706.07
539.548	716.88
540.001	706.27
540.455	707.97
540.908	708.57
541.362	719.88
541.815	726.98
542.269	734.77
542.722	743.87
543.175	758.27
543.629	755.88
544.082	772.27
544.536	759.07
544.989	756.08
545.442	776.48
545.895	781.67
546.349	771.58
546.802	773.38
547.255	776.07
547.708	783.07
548.161	797.88
548.614	802.58
549.067	808.68
549.52	803.88
549.973	793.37
550.426	790.88
550.879	775.77
551.332	785.88
551.785	790.18
552.238	791.27
552.691	791.78
553.144	815.27
553.596	824.88
554.049	842.77
554.502	874.37
554.955	885.77
555.407	885.77
555.86	873.98
556.313	873.48
556.765	857.47
557.218	864.78
557.67	863.17
558.123	857.08
558.576	854.37
559.028	854.38
559.48	853.78
559.933	846.07
560.385	814.97
560.838	797.17
561.29	767.98
561.742	758.08
562.195	755.38
562.647	760.67
563.099	762.38
563.551	752.18
564.004	762.97
564.456	756.28
564.908	747.38
565.36	742.98
565.812	718.28
566.264	713.67
566.716	713.58
567.168	705.17
567.62	715.17
568.072	692.07
568.524	689.48
568.976	673.27
569.428	663.48
569.88	667.87
570.332	667.17
570.784	669.27
571.235	671.97
571.687	688.27
572.139	689.08
572.59	691.27
573.042	688.08
573.494	695.58
573.945	685.88
574.397	674.88
574.849	675.07
575.3	685.27
575.752	669.77
576.203	658.58
576.655	667.47
577.106	655.98
577.557	647.78
578.009	647.67
578.46	648.38
578.912	640.08
579.363	644.57
579.814	661.77
580.265	641.78
580.717	659.27
581.168	656.07
581.619	670.67
582.07	656.28
582.521	660.47
582.972	660.28
583.423	667.67
583.875	672.07
584.326	686.08
584.777	740.38
585.227	817.87
585.678	911.27
586.129	998.67
586.58	1066.98
587.031	1151.38
587.482	1305.98
587.933	1489.28
588.384	1289.88
588.834	959.27
589.285	796.08
589.736	773.87
590.186	755.77
590.637	752.37
591.088	731.08
591.538	719.38
591.989	709.77
592.439	717.28
592.89	697.67
593.34	689.68
593.791	691.97
594.241	685.78
594.692	701.07
595.142	698.88
595.593	683.07
596.043	702.67
596.493	696.68
596.943	711.08
597.394	703.48
597.844	697.77
598.294	709.67
598.744	738.87
599.195	763.57
599.645	800.18
600.095	849.58
600.545	903.47
600.995	947.17
601.445	1024.17
601.895	1067.58
602.345	1116.57
602.795	1082.88
603.245	1051.78
603.695	988.08
604.145	937.57
604.594	892.98
605.044	851.87
605.494	780.78
605.944	741.37
606.393	722.28
606.843	713.07
607.293	715.88
607.743	723.48
608.192	741.88
608.642	748.68
609.091	752.28
609.541	755.18
609.99	752.08
610.44	761.88
610.889	713.88
611.339	693.17
611.788	684.17
612.238	689.28
612.687	713.88
613.136	711.98
613.586	726.67
614.035	731.88
614.484	736.27
614.933	750.18
615.383	738.77
615.832	721.17
616.281	718.08
616.73	675.07
617.179	666.38
617.628	650.08
618.077	613.87
618.526	616.77
618.975	619.17
619.424	604.17
619.873	595.67
620.322	610.37
620.771	603.07
621.22	597.77
621.669	579.28
622.118	582.97
622.567	567.28
623.015	557.37
623.464	557.37
623.913	557.58
624.361	539.08
624.81	543.48
625.259	543.88
625.707	551.17
626.156	544.77
626.604	558.67
627.053	556.58
627.501	552.58
627.95	556.88
628.398	578.67
628.847	559.28
629.295	565.48
629.744	572.28
630.192	561.78
630.64	557.08
631.089	553.47
631.537	572.77
631.985	590.38
632.433	594.18
632.881	608.48
633.33	662.47
633.778	639.37
634.226	562.08
634.674	565.67
635.122	561.08
635.57	588.77
636.018	619.18
636.466	561.38
636.914	555.07
637.362	561.08
637.81	577.28
638.258	567.88
638.705	575.48
639.153	611.57
639.601	610.37
640.049	629.47
640.497	660.78
640.944	678.78
641.392	639.07
641.84	605.47
642.287	575.77
642.735	566.38
643.182	562.88
643.63	568.87
644.078	575.17
644.525	578.77
644.973	589.18
645.42	597.97
645.867	614.07
646.315	630.38
646.762	657.48
647.21	680.08
647.657	700.27
648.104	743.77
648.551	766.48
648.999	838.38
649.446	911.27
649.893	1002.17
650.34	1158.08
650.787	1392.17
651.234	1730.08
651.682	2263.38
652.129	3121.28
652.576	4504.27
653.023	6656.57
653.47	9119.97
653.917	11314.97
654.363	12967.27
654.81	14261.17
655.257	13601.67
655.704	8854.87
656.151	5210.07
656.598	3386.28
657.044	2401.18
657.491	1837.58
657.938	1474.28
658.385	1223.78
658.831	1075.28
659.278	962.57
659.724	847.88
660.171	783.27
660.618	717.68
661.064	684.98
661.511	659.88
661.957	647.47
662.404	631.48
662.85	636.28
663.296	610.57
663.743	555.17
664.189	537.97
664.635	527.18
665.082	512.27
665.528	522.67
665.974	515.48
666.42	493.97
666.867	500.98
667.313	480.27
667.759	478.78
668.205	472.78
668.651	487.08
669.097	488.08
669.543	498.17
669.989	471.27
670.435	445.17
670.881	440.58
671.327	450.77
671.773	460.17
672.219	486.97
672.665	528.97
673.11	581.38
673.556	625.87
674.002	657.57
674.448	639.17
674.893	537.38
675.339	468.17
675.785	429.27
676.23	409.47
676.676	386.77
677.122	370.38
677.567	361.18
678.013	364.18
678.458	348.18
678.904	352.48
679.349	340.27
679.794	340.38
680.24	339.17
680.685	347.98
681.131	340.77
681.576	340.97
682.021	354.27
682.466	345.17
682.912	339.47
683.357	356.27
683.802	373.88
684.247	405.67
684.692	445.67
685.137	488.68
685.583	518.57
686.028	548.38
686.473	501.17
686.918	445.88
687.363	413.67
687.807	379.67
688.252	361.28
688.697	347.67
689.142	326.48
689.587	324.17
690.032	318.97
690.477	333.78
690.921	344.28
691.366	389.98
691.811	396.08
692.255	425.68
692.7	457.07
693.145	499.17
693.589	696.38
694.034	1134.38
694.478	1500.27
694.923	1708.68
695.367	2201.18
695.812	1164.28
696.256	496.08
696.701	362.28
697.145	340.98
697.59	322.88
698.034	317.08
698.478	328.48
698.922	327.17
699.367	315.48
699.811	331.07
700.255	343.38
700.699	379.88
701.143	420.17
701.588	467.58
702.032	512.18
702.476	500.88
702.92	483.38
703.364	484.77
703.808	639.67
704.252	1034.07
704.696	1450.48
705.14	1639.88
705.584	2080.97
706.027	1049.67
706.471	507.88
706.915	394.47
707.359	347.07
707.803	313.27
708.246	311.98
708.69	311.17
709.134	314.48
709.577	301.68
710.021	307.28
710.465	302.67
710.908	299.77
711.352	296.98
711.795	301.17
712.239	345.07
712.682	386.08
713.126	405.58
713.569	451.18
714.012	368.57
714.456	316.88
714.899	298.57
715.342	268.17
715.786	258.18
716.229	253.58
716.672	252.77
717.115	255.48
717.558	247.38
718.002	247.78
718.445	260.07
718.888	284.28
719.331	288.38
719.774	305.57
720.217	300.77
720.66	279.78
721.103	262.38
721.546	257.08
721.989	253.17
722.432	232.98
722.874	244.67
723.317	227.88
723.76	231.98
724.203	255.38
724.645	321.38
725.088	448.17
725.531	565.97
725.974	629.77
726.416	534.67
726.859	296.67
727.301	240.18
727.744	235.08
728.187	229.28
728.629	238.88
729.071	239.57
729.514	257.57
729.956	276.78
730.399	278.27
730.841	281.97
731.283	276.88
731.726	259.08
732.168	251.48
732.61	264.47
733.053	284.17
733.495	310.58
733.937	346.08
734.379	393.58
734.821	436.27
735.263	539.17
735.705	832.27
736.148	1583.08
736.59	2550.48
737.032	2977.98
737.474	2416.57
737.916	786.88
738.357	422.18
738.799	326.87
739.241	292.18
739.683	283.08
740.125	293.07
740.567	299.68
741.008	312.67
741.45	305.98
741.892	306.98
742.334	346.67
742.775	347.77
743.217	330.97
743.658	264.28
744.1	257.08
744.542	256.18
744.983	308.68
745.425	333.67
745.866	340.57
746.307	282.68
746.749	284.68
747.19	319.08
747.632	458.28
748.073	888.58
748.514	1865.98
748.956	2814.18
749.397	3525.38
749.838	2916.18
750.279	2877.07
750.72	1464.67
751.162	530.38
751.603	312.97
752.044	248.67
752.485	212.07
752.926	202.97
753.367	199.38
753.808	199.77
754.249	191.77
754.69	188.48
755.131	174.08
755.572	181.08
756.013	174.07
756.453	177.58
756.894	183.08
757.335	189.98
757.776	193.77
758.216	187.97
758.657	197.08
759.098	204.88
759.538	220.68
759.979	267.88
760.42	380.88
760.86	719.27
761.301	1864.78
761.741	4410.88
762.182	6228.77
762.622	4376.38
763.063	1280.28
763.503	521.88
763.943	339.28
764.384	340.28
764.824	401.48
765.264	437.98
765.705	298.67
766.145	205.77
766.585	185.17
767.025	182.27
767.465	184.77
767.906	244.48
768.346	316.08
768.786	333.88
769.226	265.77
769.666	320.27
770.106	628.77
770.546	1572.68
770.986	2596.07
771.426	2299.18
771.866	770.58
772.306	322.68
772.745	204.18
773.185	167.77
773.625	166.77
774.065	160.38
774.505	203.38
774.944	316.78
775.384	698.28
775.824	1242.38
776.263	1193.88
776.703	505.38
777.142	226.27
777.582	162.67
778.021	137.27
778.461	133.98
778.9	145.08
779.34	129.28
779.779	111.48
780.219	113.68
780.658	112.48
781.097	109.58
781.537	108.77
781.976	104.88
782.415	108.47
782.855	111.17
783.294	98.48
783.733	102.17
784.172	103.77
784.611	103.57
785.05	106.17
785.489	107.48
785.928	112.27
786.367	115.88
786.806	119.27
787.245	134.27
787.684	134.07
788.123	147.27
788.562	129.77
789.001	130.68
789.44	127.48
789.879	114.48
790.317	121.38
790.756	126.88
791.195	121.88
791.634	141.48
792.072	209.28
792.511	373.28
792.95	1027.78
793.388	2106.57
793.827	1886.28
794.265	661.18
794.704	274.07
795.142	179.78
795.581	151.27
796.019	138.48
796.458	128.68
796.896	123.98
797.334	133.08
797.773	153.58
798.211	221.37
798.649	438.27
799.087	1027.78
799.526	1573.78
799.964	1997.28
800.402	1947.78
800.84	745.08
801.278	293.98
801.716	188.98
802.154	155.47
802.592	144.98
803.03	144.98
803.468	134.48
803.906	141.48
804.344	151.88
804.782	131.98
805.22	129.97
805.658	128.38
806.096	147.18
806.533	153.48
806.971	176.47
807.409	211.38
807.847	317.58
808.284	666.67
808.722	1882.37
809.16	3213.97
809.597	3107.98
810.035	5366.38
810.472	5564.88
810.91	2031.08
811.347	780.38
811.785	397.78
812.222	249.27
812.66	186.88
813.097	162.38
813.535	136.88
813.972	125.48
814.409	120.08
814.846	108.08
815.284	107.98
815.721	103.77
816.158	102.28
816.595	115.98
817.032	181.97
817.47	194.38
817.907	158.08
818.344	149.27
818.781	118.78
819.218	96.77
819.655	121.08
820.092	176.98
820.529	207.17
820.966	173.18
821.403	126.57
821.839	104.48
822.276	102.48
822.713	120.97
823.15	131.78
823.587	116.17
824.023	142.98
824.46	308.17
824.897	897.07
825.333	1315.08
825.77	559.47
826.206	226.27
826.643	135.98
827.08	104.77
827.516	84.48
827.953	69.48
828.389	79.47
828.825	63.27
829.262	68.07
829.698	57.08
830.135	62.48
830.571	58.47
831.007	59.77
831.443	62.48
831.88	62.08
832.316	67.27
832.752	64.08
833.188	60.08
833.624	63.68
834.06	67.38
834.497	69.27
834.933	67.58
835.369	73.38
835.805	63.67
836.241	74.17
836.677	76.88
837.112	91.27
837.548	101.98
837.984	135.77
838.42	201.58
838.856	500.87
839.292	1501.47
839.727	2233.68
840.163	1047.17
840.599	926.68
841.034	2022.97
841.47	2057.18
841.906	760.17
842.341	340.48
842.777	240.78
843.212	322.97
843.648	311.27
844.083	154.07
844.519	89.98
844.954	82.38
845.39	57.77
845.825	57.77
846.261	62.68
846.696	57.58
847.131	52.48
847.566	64.97
848.002	54.58
848.437	50.77
848.872	61.88
849.307	65.28
849.742	81.98
850.177	179.18
850.613	556.67
851.048	857.58
851.483	363.67
851.918	155.47
852.353	84.97
852.788	61.88
853.223	58.47
853.657	57.57
854.092	47.88
854.527	42.48
854.962	43.38
855.397	45.98
855.832	46.88
856.266	38.68
856.701	38.58
857.136	40.88
857.57	44.98
858.005	46.88
858.44	54.88
858.874	44.68
859.309	55.38
859.743	42.38
860.178	44.88
860.612	40.38
861.047	49.27
861.481	63.67
861.915	66.98
862.35	45.27
862.784	31.88
863.218	36.17
863.653	33.98
864.087	41.27
864.521	53.68
864.955	70.08
865.39	152.57
865.824	174.78
866.258	115.28
866.692	164.18
867.126	169.07
867.56	103.67
867.994	55.27
868.428	37.08
868.862	44.08
869.296	53.68
869.73	59.77
870.164	50.48
870.598	49.18
871.031	34.17
871.465	30.57
871.899	28.88
872.333	26.68
872.766	25.48
873.2	24.98
873.634	30.98
874.067	25.48
874.501	24.88
874.935	42.38
875.368	36.38
875.802	21.48
876.235	22.07
876.669	20.18
877.102	16.98
877.535	23.28
877.969	28.08
878.402	20.27
878.836	20.27
879.269	26.58
879.702	25.98
880.135	18.97
880.569	22.88
881.002	31.98
881.435	17.67
881.868	16.77
882.301	23.98
882.734	18.38
883.167	21.88
883.601	14.58
884.034	25.17
884.467	14.68
884.899	23.17
885.332	18.48
885.765	16.58
886.198	13.48
886.631	16.88
887.064	23.08
887.497	16.48
887.929	21.27
888.362	11.38
888.795	13.17
889.228	15.98
889.66	22.27
890.093	16.38
890.526	23.17
890.958	15.78
891.391	19.58
891.823	23.58
892.256	13.58
892.688	14.88
893.121	18.68
893.553	15.67
893.985	22.07
894.418	18.97
894.85	7.27
895.282	12.88
895.715	19.88
896.147	16.68
896.579	17.98
897.011	13.68
897.444	18.68
897.876	14.28
898.308	17.77
898.74	17.98
899.172	9.27
899.604	25.18
900.036	18.17
900.468	8.67
900.9	12.38
901.332	23.07
901.764	10.17
902.196	17.48
902.628	19.08
903.06	17.57
903.491	34.17
903.923	23.27
904.355	19.48
904.787	21.77
905.218	20.68
905.65	16.98
906.082	16.27
906.513	9.67
906.945	17.77
907.376	17.27
907.808	19.98
908.239	16.58
908.671	21.77
909.102	25.27
909.534	26.08
909.965	49.27
910.397	90.77
910.828	310.77
911.259	454.67
911.691	211.87
912.122	104.38
912.553	49.17
912.984	38.98
913.415	23.28
913.847	25.88
914.278	15.48
914.709	8.88
915.14	16.08
915.571	11.58
916.002	8.88
916.433	17.88
916.864	16.88
917.295	7.48
917.726	18.88
918.157	20.88
918.587	28.98
919.018	20.68
919.449	17.38
919.88	27.07
920.311	26.27
920.741	53.17
921.172	169.38
921.603	141.27
922.033	71.88
922.464	43.18
922.895	22.27
923.325	23.88
923.756	14.17
924.186	13.48
924.617	25.08
925.047	41.98
925.478	51.48
925.908	44.08
926.338	27.18
926.769	20.88
927.199	18.28
927.629	9.27
928.06	14.67
928.49	14.78
928.92	14.27
929.35	20.78
929.78	11.48
930.21	5.27
930.641	6.67
931.071	8.38
931.501	2.18
931.931	-2.52
932.361	9.18
932.791	4.67
933.221	8.98
933.651	8.98
934.08	15.57
934.51	29.88
934.94	7.77
935.37	0.98
935.8	9.88
936.229	9.07
936.659	4.88
937.089	4.27
937.519	15.27
937.948	25.38
938.378	17.68
938.807	7.17
939.237	7.38
939.666	5.68
940.096	-4.52
940.525	0.88
940.955	0.68
941.384	4.78
941.814	-1.83
942.243	-1.62
942.672	-0.23
943.102	-1.32
943.531	-3.73
943.96	6.48
944.39	2.77
944.819	0.88
945.248	2.77
945.677	3.67
946.106	10.68
946.535	6.07
946.964	9.98
947.393	-0.23
947.822	5.18
948.251	-6.12
948.68	-0.82
949.109	7.67
949.538	8.68
949.967	4.17
950.396	-4.12
950.825	-0.03
951.254	6.98
951.682	-3.43
952.111	2.27
952.54	5.18
952.969	-9.33
953.397	-4.73
953.826	1.48
954.254	-4.83
954.683	-3.23
955.112	-9.62
955.54	-5.62
955.969	0.88
956.397	-5.32
956.826	-0.92
957.254	8.08
957.682	-0.52
958.111	7.17
958.539	-5.82
958.967	0.48
959.396	0.17
959.824	-2.82
960.252	2.07
960.68	-2.53
961.109	-3.53
961.537	-3.42
961.965	-1.12
962.393	2.08
962.821	-2.52
963.249	0.07
963.677	0.58
964.105	2.98
964.533	46.18
964.961	41.88
965.389	23.58
965.817	11.07
966.245	7.67
966.672	0.38
967.1	-5.02
967.528	-0.33
967.956	1.08
968.383	-5.83
968.811	-5.02
969.239	-1.53
969.666	-9.23
970.094	2.08
970.522	1.88
970.949	-6.43
971.377	-7.42
971.804	-2.23
972.232	-4.82
972.659	3.77
973.087	-2.03
973.514	-3.23
973.941	-8.12
974.369	6.17
974.796	-1.02
975.223	0.47
975.651	2.38
976.078	1.38
976.505	-0.73
976.932	0.88
977.359	15.67
977.786	10.88
978.214	1.07
978.641	-1.23
979.068	-7.23
979.495	2.48
979.922	-2.53
980.349	-3.62
980.776	5.88
981.202	-0.23
981.629	6.48
982.056	-2.43
982.483	1.18
982.91	-2.02
983.337	-10.52
983.763	-1.53
984.19	-5.52
984.617	-1.62
985.043	-3.42
985.47	-1.02
985.897	-5.73
986.323	-11.23
986.75	2.78
987.176	1.07
987.603	-3.33
988.029	-2.03
988.456	-6.93
988.882	6.98
989.308	-3.33
989.735	-5.03
990.161	2.98
990.587	-10.83
991.014	-3.73
991.44	4.48
991.866	1.28
992.292	-8.92
992.719	-2.73
993.145	2.98
993.571	-11.62
993.997	-1.33
994.423	-1.33
994.849	-5.23
995.275	-0.82
995.701	2.77
996.127	-7.12
996.553	3.58
996.979	-5.23
997.405	-0.92
997.83	0.57
998.256	-8.12
998.682	-2.32
999.108	-14.23
999.534	-0.03
999.959	-5.02
1000.385	-6.12
1000.811	0.77
1001.236	-1.43
1001.662	-6.92
1002.087	-9.72
1002.513	-3.62
1002.938	-1.22
1003.364	-1.52
1003.789	4.27
1004.215	3.77
1004.64	-1.73
1005.066	-0.82
1005.491	1.98
1005.916	-2.73
1006.342	-2.42
1006.767	-10.62
1007.192	5.48
1007.617	-5.23
1008.042	-9.52
1008.468	-7.62
1008.893	-1.82
1009.318	-3.23
1009.743	-3.73
1010.168	8.07
1010.593	-4.12
1011.018	-11.23
1011.443	-8.62
1011.868	0.48
1012.293	-2.42
1012.718	-7.02
1013.143	-5.73
1013.567	-6.62
1013.992	-8.23
1014.417	-13.12
1014.842	1.67
1015.267	0.27
1015.691	-1.32
1016.116	6.77
1016.541	-0.23
1016.965	2.97
1017.39	-2.52
1017.814	-1.32
1018.239	3.17
1018.663	-6.23
1019.088	-14.23
1019.512	-1.52
1019.937	-4.52
1020.361	-8.02
1020.785	-9.62
1021.21	-3.73
1021.634	-3.32
1022.058	-0.43
1022.483	3.27
1022.907	-3.02
1023.331	-6.02
1023.755	-4.52
1024.179	-0.62
1024.604	-10.23
1025.028	-8.43
1025.452	-7.93
1025.876	-5.83
1026.3	9.27
1026.724	-11.52
1027.148	-6.92
1027.572	-9.62
1027.996	-1.83
1028.42	0.67
1028.843	-6.93
1029.267	-11.23
1029.691	-8.53
1030.115	-6.02
1030.539	-10.83
1030.962	-4.83
1031.386	-14.02
1031.81	-4.02
1032.233	1.77
1032.657	-5.22
1033.08	-4.02
1033.504	-0.83
1033.927	0.78
1034.351	2.28
1034.774	-4.92
1035.198	-2.83
1035.621	-5.02
1036.045	-9.23
1036.468	-4.52
1036.891	-6.43
1037.315	-9.23
1037.738	-7.82
1038.161	-7.23
1038.584	-1.83
1039.008	-2.12
1039.431	0.08
1039.854	-4.53
1040.277	-8.92
1040.7	-7.73
1041.123	-3.02
1041.546	-7.82
1041.969	-12.12
1042.392	-2.33
1042.815	0.88
1043.238	5.88
1043.661	6.88
1044.084	-15.42
1044.507	-2.42
1044.93	-11.62
1045.352	-5.33
1045.775	-1.03
1046.198	0.77
1046.621	-4.82
1047.043	2.88
1047.466	4.38
1047.889	-7.62
1048.311	-6.23
1048.734	-2.62
1049.156	-7.82
1049.579	2.88
1050.001	-0.12
1050.424	-3.53
1050.846	-1.73
1051.269	-3.62
1051.691	-13.02
1052.113	-5.23
1052.536	-1.62
1052.958	-4.83
1053.38	-5.33
1053.802	-5.83
1054.225	3.57
1054.647	-10.42
1055.069	-9.83
1055.491	2.18
1055.913	-10.62
1056.335	-7.52
1056.757	-5.12
1057.179	-11.93
1057.601	-4.12
1058.023	-1.92
1058.445	-7.62
1058.867	-5.23
1059.289	-3.43
1059.711	-10.52
1060.133	-6.62
1060.555	-9.23
1060.976	-5.02
1061.398	-7.23
1061.82	-6.62
1062.241	-4.12
1062.663	-6.52
1063.085	-8.12
1063.506	-1.22
1063.928	-5.83
1064.35	0.88
1064.771	-10.73
1065.193	-4.73
1065.614	-10.12
1066.035	0.08
1066.457	-8.52
1066.878	-3.23
1067.3	-2.73
1067.721	1.98
1068.142	-0.53
1068.564	-3.83
1068.985	-0.93
1069.406	-6.62
1069.827	-6.83
1070.248	-5.92
1070.67	-7.92
1071.091	-4.82
1071.512	-1.43
1071.933	-3.12
1072.354	-2.32
1072.775	-12.32
1073.196	-12.02
1073.617	-2.53
1074.038	-10.12
1074.459	-4.82
1074.88	-7.52
1075.3	5.58
1075.721	-6.12
1076.142	3.38
1076.563	1.47
1076.983	-13.33
1077.404	-1.82
1077.825	-14.12
1078.246	-3.52
1078.666	-9.83
1079.087	-5.22
1079.507	-8.62
1079.928	-3.53
1080.348	-2.12
1080.769	-7.12
1081.189	-0.92
1081.61	-1.12
1082.03	-9.12
1082.451	-11.42
1082.871	-2.12
1083.291	-13.43
1083.711	-6.82
1084.132	-7.82
1084.552	-6.43
1084.972	-1.52
1085.392	-13.33
1085.813	-6.42
1086.233	-10.83
1086.653	-8.32
1087.073	-7.23
1087.493	-10.23
1087.913	-6.23
1088.333	-9.23
1088.753	-7.83
1089.173	-0.62
1089.593	-2.72
1090.013	2.77
1090.433	-3.52
1090.852	-6.62
1091.272	-0.83
1091.692	-4.02
1092.112	-8.12
1092.531	-12.12
1092.951	-13.62
1093.371	-5.12
1093.79	1.08
1094.21	1.68
1094.63	-7.42
1095.049	-7.82
1095.469	2.27
1095.888	-2.93
1096.308	3.57
1096.727	-1.32
1097.146	-8.12
1097.566	-7.23
1097.985	-10.42
1098.405	-5.02
1098.824	-10.73
1099.243	-7.92
1099.662	-4.93
1100.082	-4.02
1100.501	-8.93
1100.92	-7.73
1101.339	-6.43
1101.758	-2.52
