Data from 20171114-ORNL-Ar_H_NY_Subt18_08-09-26-417.txt Node
Date: Tue Nov 14 08:09:26 EST 2017
User: Ender
Spectrometer: HR+D1039
Trigger mode: 0
Integration Time (sec): 2.730000E-2
Scans to average: 10
Electric dark correction enabled: true
Nonlinearity correction enabled: false
Boxcar width: 0
XAxis mode: Wavelengths
Number of Pixels in Spectrum: 2048
>>>>>Begin Spectral Data<<<<<
187.836	-6.64
188.309	-6.64
188.782	-6.64
189.255	-2.54
189.728	-6.94
190.201	2.26
190.674	-0.94
191.147	3.36
191.619	-6.34
192.092	1.56
192.565	4.56
193.038	3.76
193.511	4.76
193.984	4.26
194.456	0.26
194.929	-2.04
195.402	-2.64
195.874	3.26
196.347	-0.04
196.82	-1.24
197.292	9.86
197.765	4.36
198.237	-0.64
198.71	4.96
199.182	3.56
199.655	-4.04
200.127	-1.14
200.6	1.06
201.072	-0.84
201.544	-4.74
202.017	-2.34
202.489	-0.14
202.961	-0.14
203.433	-0.74
203.906	-7.94
204.378	-8.24
204.85	-7.74
205.322	-9.34
205.794	-3.44
206.266	-0.64
206.739	-9.44
207.211	-0.04
207.683	-13.44
208.155	-1.44
208.627	-3.34
209.099	-4.54
209.57	-6.14
210.042	-4.14
210.514	-6.34
210.986	-5.24
211.458	-11.54
211.93	-8.04
212.402	5.36
212.873	-7.84
213.345	-12.84
213.817	-9.54
214.288	-5.04
214.76	-12.14
215.232	-2.34
215.703	-1.84
216.175	-2.44
216.646	-4.54
217.118	-6.94
217.589	-7.14
218.061	-6.14
218.532	-4.84
219.004	-3.94
219.475	0.56
219.946	-1.44
220.418	0.66
220.889	3.56
221.36	1.86
221.832	-5.14
222.303	-6.74
222.774	1.46
223.245	-10.94
223.717	-9.84
224.188	-8.44
224.659	-11.34
225.13	-5.84
225.601	0.76
226.072	5.56
226.543	-2.04
227.014	-2.24
227.485	-1.24
227.956	-4.94
228.427	-1.34
228.898	-1.34
229.369	4.86
229.839	-7.34
230.31	-7.54
230.781	4.36
231.252	1.46
231.722	-3.44
232.193	-2.74
232.664	-5.54
233.135	-1.54
233.605	-7.94
234.076	-5.04
234.546	-2.64
235.017	3.86
235.487	3.26
235.958	-3.84
236.428	-8.64
236.899	-0.84
237.369	-2.14
237.84	-6.64
238.31	0.56
238.78	-0.84
239.251	-3.44
239.721	-8.14
240.191	-4.54
240.662	0.66
241.132	-0.44
241.602	-8.54
242.072	0.86
242.542	-0.04
243.013	-3.34
243.483	3.66
243.953	0.36
244.423	-4.54
244.893	-7.64
245.363	-2.04
245.833	-0.44
246.303	0.56
246.773	-0.84
247.243	-0.64
247.712	-0.14
248.182	3.66
248.652	7.06
249.122	-9.14
249.592	2.46
250.061	-0.64
250.531	6.66
251.001	-7.84
251.471	0.86
251.94	9.36
252.41	-0.74
252.879	-8.04
253.349	6.56
253.818	2.76
254.288	4.56
254.757	-2.04
255.227	-6.04
255.696	-0.34
256.166	-0.04
256.635	1.96
257.105	3.76
257.574	-3.54
258.043	1.66
258.513	-2.14
258.982	-1.94
259.451	-4.44
259.92	-3.04
260.389	0.76
260.859	5.26
261.328	1.66
261.797	1.06
262.266	1.96
262.735	4.66
263.204	1.96
263.673	-1.64
264.142	2.76
264.611	-5.54
265.08	-0.14
265.549	-8.34
266.018	0.36
266.487	-1.64
266.955	-3.74
267.424	-3.84
267.893	6.46
268.362	0.46
268.83	2.96
269.299	2.96
269.768	2.16
270.236	1.36
270.705	-1.34
271.174	-1.34
271.642	0.06
272.111	0.76
272.579	1.76
273.048	0.56
273.516	-1.94
273.985	2.36
274.453	4.96
274.922	9.16
275.39	2.66
275.858	2.26
276.327	2.16
276.795	10.16
277.263	-1.34
277.731	5.86
278.2	1.96
278.668	3.06
279.136	2.26
279.604	2.76
280.072	8.76
280.54	-0.04
281.008	1.16
281.477	3.96
281.945	4.96
282.413	5.56
282.881	7.06
283.348	3.76
283.816	13.16
284.284	6.26
284.752	16.06
285.22	3.86
285.688	9.86
286.156	5.16
286.623	11.06
287.091	3.36
287.559	14.26
288.026	11.46
288.494	6.16
288.962	0.76
289.429	-3.54
289.897	9.66
290.364	4.66
290.832	13.86
291.3	4.26
291.767	6.96
292.234	7.96
292.702	2.16
293.169	1.46
293.637	17.46
294.104	10.66
294.571	8.06
295.039	3.66
295.506	6.16
295.973	12.76
296.44	8.86
296.908	12.66
297.375	6.86
297.842	9.86
298.309	9.96
298.776	3.86
299.243	14.66
299.71	11.86
300.177	17.46
300.644	11.36
301.111	5.66
301.578	13.16
302.045	8.06
302.512	20.76
302.979	17.96
303.446	9.16
303.913	11.26
304.379	10.86
304.846	16.86
305.313	16.16
305.78	13.26
306.246	19.36
306.713	18.06
307.18	16.76
307.646	19.86
308.113	22.26
308.579	14.66
309.046	12.36
309.512	14.56
309.979	15.26
310.445	22.66
310.912	15.46
311.378	22.26
311.845	25.56
312.311	20.46
312.777	22.26
313.244	28.16
313.71	32.06
314.176	17.36
314.642	19.46
315.109	15.16
315.575	26.46
316.041	29.46
316.507	21.96
316.973	17.46
317.439	24.36
317.905	29.46
318.371	22.96
318.837	24.06
319.303	20.66
319.769	21.06
320.235	18.06
320.701	24.96
321.167	27.56
321.633	13.76
322.099	21.76
322.564	25.96
323.03	28.56
323.496	22.86
323.962	29.96
324.427	26.16
324.893	33.36
325.359	26.06
325.824	27.26
326.29	26.06
326.755	23.56
327.221	32.46
327.686	26.36
328.152	35.86
328.617	31.56
329.083	38.96
329.548	37.96
330.014	32.46
330.479	23.16
330.944	35.06
331.41	35.66
331.875	32.36
332.34	30.26
332.805	32.66
333.271	32.66
333.736	25.76
334.201	42.06
334.666	34.26
335.131	43.16
335.596	41.66
336.061	36.26
336.526	30.36
336.991	30.46
337.456	41.86
337.921	37.16
338.386	38.96
338.851	33.06
339.316	31.76
339.781	35.96
340.246	43.46
340.711	36.76
341.175	42.66
341.64	34.66
342.105	43.66
342.569	45.96
343.034	46.26
343.499	42.16
343.963	42.56
344.428	49.76
344.893	49.56
345.357	47.86
345.822	52.96
346.286	53.46
346.751	52.06
347.215	51.66
347.679	50.16
348.144	72.86
348.608	57.36
349.073	55.56
349.537	57.96
350.001	59.96
350.465	65.86
350.93	62.26
351.394	62.96
351.858	59.36
352.322	74.46
352.786	60.96
353.25	82.76
353.715	83.96
354.179	77.56
354.643	94.56
355.107	92.86
355.571	77.86
356.035	75.66
356.498	85.56
356.962	82.86
357.426	102.06
357.89	86.86
358.354	72.76
358.818	65.36
359.281	63.86
359.745	61.26
360.209	65.46
360.673	57.56
361.136	67.06
361.6	75.86
362.064	67.96
362.527	72.26
362.991	75.16
363.454	66.26
363.918	62.76
364.381	67.56
364.845	74.66
365.308	72.16
365.772	79.26
366.235	75.46
366.698	69.56
367.162	73.06
367.625	69.86
368.088	73.06
368.552	71.56
369.015	71.96
369.478	80.06
369.941	84.06
370.404	75.36
370.867	82.06
371.331	88.86
371.794	90.76
372.257	87.16
372.72	95.26
373.183	89.16
373.646	76.96
374.109	83.06
374.572	86.66
375.035	87.16
375.497	90.56
375.96	89.66
376.423	94.46
376.886	92.96
377.349	92.86
377.811	88.06
378.274	96.46
378.737	91.26
379.199	101.36
379.662	97.96
380.125	97.16
380.587	94.86
381.05	92.16
381.512	97.76
381.975	107.96
382.437	101.76
382.9	110.16
383.362	111.46
383.825	116.06
384.287	116.46
384.75	113.86
385.212	113.16
385.674	120.46
386.136	116.66
386.599	117.76
387.061	115.76
387.523	106.36
387.985	115.16
388.447	119.06
388.91	113.56
389.372	119.06
389.834	114.66
390.296	109.26
390.758	119.86
391.22	117.86
391.682	135.56
392.144	143.26
392.606	135.76
393.068	128.66
393.529	141.16
393.991	130.36
394.453	125.26
394.915	124.76
395.377	122.86
395.838	127.16
396.3	125.06
396.762	125.36
397.224	125.96
397.685	123.16
398.147	118.66
398.608	119.06
399.07	123.56
399.531	124.46
399.993	138.16
400.454	145.96
400.916	145.66
401.377	129.26
401.839	145.86
402.3	142.06
402.762	160.46
403.223	168.76
403.684	161.26
404.145	153.36
404.607	154.66
405.068	153.96
405.529	162.16
405.99	164.36
406.451	162.86
406.913	162.26
407.374	162.26
407.835	155.16
408.296	164.16
408.757	157.56
409.218	176.36
409.679	169.56
410.14	164.26
410.601	164.86
411.062	173.66
411.522	172.56
411.983	170.86
412.444	166.76
412.905	175.16
413.366	176.26
413.826	192.46
414.287	215.56
414.748	268.06
415.208	241.06
415.669	213.06
416.13	202.76
416.59	202.76
417.051	216.06
417.511	218.46
417.972	232.36
418.432	244.66
418.893	293.36
419.353	247.26
419.814	201.56
420.274	179.66
420.734	176.46
421.195	189.46
421.655	190.46
422.115	195.76
422.576	199.76
423.036	194.76
423.496	210.36
423.956	215.46
424.416	222.36
424.876	255.76
425.336	252.56
425.797	260.46
426.257	245.56
426.717	235.56
427.177	228.06
427.637	226.06
428.097	229.06
428.556	241.76
429.016	262.36
429.476	260.76
429.936	260.86
430.396	267.96
430.856	281.26
431.315	298.26
431.775	323.16
432.235	359.26
432.694	339.96
433.154	345.96
433.614	365.26
434.073	326.06
434.533	271.36
434.993	265.46
435.452	274.16
435.912	282.96
436.371	272.16
436.83	275.36
437.29	252.46
437.749	242.26
438.209	246.16
438.668	266.96
439.127	281.66
439.587	261.46
440.046	240.46
440.505	257.26
440.964	265.16
441.424	310.56
441.883	295.96
442.342	256.16
442.801	230.26
443.26	228.36
443.719	228.76
444.178	229.46
444.637	212.36
445.096	220.16
445.555	228.36
446.014	225.36
446.473	235.16
446.932	239.76
447.391	232.86
447.849	237.06
448.308	236.96
448.767	225.96
449.226	238.36
449.685	246.86
450.143	256.06
450.602	243.26
451.061	231.66
451.519	240.06
451.978	232.46
452.436	237.16
452.895	246.26
453.353	259.26
453.812	249.46
454.27	244.76
454.729	242.16
455.187	240.76
455.646	253.76
456.104	253.36
456.562	268.06
457.021	264.36
457.479	258.66
457.937	267.86
458.395	266.46
458.854	257.56
459.312	259.96
459.77	275.96
460.228	262.86
460.686	251.06
461.144	260.86
461.602	256.16
462.06	261.46
462.518	251.26
462.976	265.36
463.434	266.56
463.892	270.86
464.35	278.86
464.808	296.46
465.266	274.46
465.724	278.96
466.181	280.46
466.639	276.66
467.097	288.16
467.555	310.86
468.012	314.56
468.47	320.86
468.928	338.16
469.385	348.66
469.843	356.56
470.3	354.26
470.758	360.46
471.215	386.46
471.673	412.46
472.13	400.96
472.588	426.86
473.045	381.06
473.503	401.36
473.96	398.66
474.417	412.76
474.875	445.06
475.332	471.96
475.789	469.36
476.246	479.06
476.704	489.36
477.161	508.96
477.618	519.56
478.075	566.66
478.532	616.56
478.989	683.16
479.446	780.46
479.903	749.66
480.36	792.66
480.817	826.46
481.274	906.96
481.731	1008.86
482.188	1078.66
482.645	1197.06
483.102	1282.26
483.558	1407.46
484.015	1440.96
484.472	1409.36
484.929	1377.86
485.385	1333.86
485.842	1309.16
486.299	1255.46
486.755	1214.66
487.212	1044.06
487.668	902.96
488.125	828.86
488.582	764.36
489.038	743.36
489.494	702.16
489.951	689.56
490.407	664.96
490.864	649.26
491.32	639.96
491.776	639.76
492.233	646.56
492.689	618.06
493.145	605.96
493.602	603.36
494.058	616.46
494.514	618.36
494.97	644.36
495.426	645.56
495.882	623.26
496.338	612.76
496.794	616.06
497.251	625.36
497.707	630.16
498.163	641.76
498.618	638.56
499.074	643.96
499.53	682.96
499.986	670.06
500.442	653.56
500.898	629.66
501.354	623.76
501.809	629.76
502.265	626.66
502.721	646.66
503.177	653.16
503.632	655.26
504.088	661.56
504.543	673.36
504.999	702.06
505.455	662.16
505.91	650.66
506.366	655.76
506.821	644.36
507.277	641.36
507.732	644.46
508.187	648.56
508.643	656.26
509.098	655.16
509.553	676.56
510.009	685.66
510.464	699.46
510.919	707.66
511.375	713.76
511.83	730.16
512.285	746.66
512.74	778.26
513.195	788.96
513.65	775.66
514.105	781.56
514.56	786.06
515.015	797.06
515.47	807.76
515.925	791.86
516.38	799.56
516.835	811.16
517.29	802.56
517.745	792.26
518.2	780.46
518.655	763.56
519.109	754.16
519.564	760.96
520.019	745.86
520.474	741.26
520.928	747.36
521.383	734.16
521.838	720.66
522.292	727.76
522.747	732.76
523.201	725.36
523.656	719.66
524.11	716.36
524.565	713.96
525.019	703.16
525.474	716.46
525.928	717.86
526.382	711.36
526.837	715.06
527.291	716.46
527.745	705.66
528.2	715.36
528.654	709.16
529.108	700.56
529.562	704.66
530.016	706.36
530.47	703.26
530.925	708.56
531.379	708.06
531.833	715.56
532.287	707.26
532.741	718.36
533.195	716.26
533.649	728.76
534.103	731.76
534.556	723.66
535.01	720.46
535.464	721.76
535.918	731.16
536.372	736.16
536.826	732.16
537.279	721.86
537.733	727.16
538.187	726.56
538.64	734.46
539.094	735.56
539.548	746.66
540.001	739.76
540.455	743.96
540.908	750.06
541.362	757.56
541.815	773.26
542.269	788.66
542.722	770.56
543.175	787.56
543.629	792.46
544.082	805.36
544.536	811.86
544.989	812.76
545.442	820.76
545.895	807.76
546.349	817.56
546.802	813.46
547.255	818.76
547.708	833.16
548.161	840.36
548.614	840.86
549.067	854.76
549.52	841.36
549.973	841.56
550.426	830.26
550.879	816.36
551.332	826.56
551.785	830.86
552.238	830.06
552.691	851.06
553.144	861.46
553.596	871.56
554.049	891.26
554.502	918.76
554.955	939.16
555.407	929.56
555.86	929.56
556.313	921.76
556.765	906.26
557.218	912.06
557.67	899.06
558.123	893.56
558.576	897.06
559.028	909.16
559.48	902.56
559.933	909.16
560.385	861.76
560.838	837.76
561.29	811.66
561.742	815.46
562.195	792.06
562.647	791.56
563.099	805.76
563.551	810.26
564.004	804.26
564.456	802.46
564.908	786.56
565.36	768.46
565.812	751.66
566.264	742.66
566.716	735.26
567.168	726.36
567.62	735.76
568.072	724.26
568.524	722.56
568.976	712.16
569.428	705.66
569.88	704.56
570.332	717.46
570.784	705.26
571.235	712.76
571.687	718.86
572.139	734.06
572.59	735.76
573.042	740.26
573.494	737.86
573.945	728.76
574.397	708.56
574.849	712.06
575.3	713.86
575.752	699.56
576.203	702.36
576.655	697.76
577.106	694.36
577.557	686.96
578.009	691.46
578.46	696.66
578.912	681.96
579.363	684.66
579.814	692.16
580.265	691.86
580.717	693.66
581.168	685.86
581.619	704.96
582.07	697.46
582.521	711.86
582.972	691.96
583.423	701.26
583.875	696.76
584.326	704.26
584.777	715.16
585.227	743.66
585.678	744.46
586.129	764.56
586.58	790.36
587.031	804.36
587.482	843.26
587.933	864.76
588.384	849.16
588.834	813.06
589.285	793.66
589.736	801.16
590.186	807.56
590.637	797.16
591.088	764.26
591.538	761.56
591.989	754.86
592.439	758.46
592.89	749.36
593.34	730.36
593.791	732.06
594.241	716.16
594.692	732.96
595.142	720.66
595.593	718.76
596.043	729.16
596.493	741.86
596.943	733.56
597.394	747.16
597.844	742.96
598.294	764.16
598.744	783.06
599.195	812.86
599.645	856.06
600.095	891.46
600.545	956.46
600.995	1005.66
601.445	1071.36
601.895	1121.66
602.345	1177.06
602.795	1172.56
603.245	1108.16
603.695	1048.76
604.145	1001.76
604.594	942.86
605.044	901.46
605.494	827.26
605.944	790.56
606.393	780.46
606.843	764.86
607.293	760.46
607.743	747.66
608.192	759.26
608.642	778.36
609.091	786.76
609.541	791.66
609.99	790.26
610.44	786.56
610.889	742.06
611.339	723.26
611.788	705.36
612.238	716.36
612.687	728.56
613.136	724.56
613.586	739.46
614.035	732.56
614.484	733.66
614.933	733.96
615.383	732.96
615.832	726.36
616.281	724.66
616.73	696.86
617.179	679.46
617.628	673.16
618.077	649.36
618.526	646.76
618.975	639.06
619.424	635.56
619.873	635.86
620.322	654.46
620.771	632.96
621.22	620.16
621.669	613.86
622.118	616.46
622.567	592.46
623.015	593.06
623.464	589.16
623.913	585.56
624.361	565.46
624.81	570.26
625.259	578.96
625.707	571.86
626.156	581.96
626.604	595.26
627.053	589.76
627.501	597.86
627.95	600.46
628.398	595.86
628.847	600.66
629.295	602.76
629.744	595.86
630.192	595.26
630.64	586.76
631.089	569.36
631.537	563.56
631.985	546.46
632.433	556.56
632.881	548.86
633.33	551.96
633.778	556.66
634.226	554.36
634.674	561.36
635.122	556.46
635.57	570.36
636.018	585.46
636.466	588.96
636.914	573.16
637.362	589.96
637.81	604.26
638.258	608.86
638.705	612.16
639.153	640.46
639.601	640.86
640.049	672.76
640.497	700.16
640.944	715.96
641.392	676.26
641.84	635.16
642.287	602.26
642.735	585.26
643.182	592.36
643.63	583.26
644.078	582.86
644.525	592.66
644.973	601.46
645.42	608.06
645.867	633.06
646.315	660.36
646.762	673.06
647.21	704.26
647.657	725.86
648.104	769.56
648.551	782.76
648.999	834.46
649.446	914.56
649.893	1000.76
650.34	1132.56
650.787	1352.76
651.234	1680.76
651.682	2174.06
652.129	2959.96
652.576	4199.96
653.023	6118.56
653.47	8257.76
653.917	10162.46
654.363	11632.26
654.81	12716.36
655.257	12042.56
655.704	7997.46
656.151	4817.26
656.598	3143.96
657.044	2273.86
657.491	1763.86
657.938	1424.36
658.385	1221.96
658.831	1048.96
659.278	935.86
659.724	850.66
660.171	789.56
660.618	713.36
661.064	692.96
661.511	691.86
661.957	666.16
662.404	642.16
662.85	665.06
663.296	641.26
663.743	569.46
664.189	563.66
664.635	552.96
665.082	545.16
665.528	546.26
665.974	535.66
666.42	531.06
666.867	525.16
667.313	503.56
667.759	489.46
668.205	477.36
668.651	473.26
669.097	466.56
669.543	454.86
669.989	465.76
670.435	466.16
670.881	464.36
671.327	471.56
671.773	497.96
672.219	524.46
672.665	577.16
673.11	625.06
673.556	672.46
674.002	700.76
674.448	690.06
674.893	583.16
675.339	491.66
675.785	464.56
676.23	444.06
676.676	416.26
677.122	402.46
677.567	399.36
678.013	388.26
678.458	381.96
678.904	383.36
679.349	370.86
679.794	373.66
680.24	367.76
680.685	372.56
681.131	373.36
681.576	369.46
682.021	385.16
682.466	366.96
682.912	365.06
683.357	374.66
683.802	406.56
684.247	440.36
684.692	482.76
685.137	530.06
685.583	569.36
686.028	587.16
686.473	546.56
686.918	475.06
687.363	450.16
687.807	427.26
688.252	389.16
688.697	372.26
689.142	361.36
689.587	350.16
690.032	351.56
690.477	364.96
690.921	368.26
691.366	403.86
691.811	426.06
692.255	466.56
692.7	493.76
693.145	538.66
693.589	769.46
694.034	1248.26
694.478	1662.36
694.923	1829.66
695.367	2376.26
695.812	1262.76
696.256	529.56
696.701	396.56
697.145	363.76
697.59	356.96
698.034	339.96
698.478	332.66
698.922	337.06
699.367	337.36
699.811	354.86
700.255	373.76
700.699	399.56
701.143	450.46
701.588	508.16
702.032	543.26
702.476	550.56
702.92	528.16
703.364	527.96
703.808	703.06
704.252	1147.36
704.696	1570.26
705.14	1770.36
705.584	2236.06
706.027	1126.56
706.471	566.46
706.915	424.36
707.359	374.66
707.803	337.16
708.246	333.96
708.69	328.26
709.134	334.46
709.577	326.66
710.021	336.06
710.465	324.36
710.908	313.16
711.352	321.26
711.795	333.16
712.239	377.26
712.682	408.96
713.126	431.06
713.569	480.06
714.012	375.26
714.456	317.16
714.899	309.26
715.342	290.56
715.786	275.56
716.229	270.66
716.672	276.16
717.115	258.46
717.558	267.36
718.002	271.86
718.445	280.86
718.888	302.86
719.331	312.16
719.774	335.26
720.217	326.26
720.66	298.96
721.103	288.66
721.546	273.36
721.989	264.86
722.432	239.96
722.874	249.36
723.317	244.76
723.76	245.16
724.203	272.76
724.645	340.06
725.088	491.26
725.531	600.86
725.974	677.46
726.416	576.46
726.859	329.26
727.301	261.16
727.744	246.16
728.187	249.96
728.629	257.06
729.071	255.66
729.514	268.36
729.956	288.26
730.399	294.56
730.841	301.66
731.283	296.96
731.726	289.26
732.168	283.86
732.61	289.86
733.053	308.66
733.495	341.26
733.937	377.86
734.379	426.96
734.821	469.26
735.263	602.56
735.705	930.36
736.148	1780.36
736.59	2817.46
737.032	3216.26
737.474	2635.16
737.916	881.36
738.357	466.06
738.799	347.06
739.241	319.56
739.683	307.46
740.125	308.66
740.567	312.46
741.008	329.76
741.45	331.46
741.892	337.46
742.334	379.36
742.775	387.16
743.217	367.36
743.658	289.46
744.1	281.56
744.542	286.26
744.983	332.26
745.425	369.96
745.866	370.46
746.307	299.46
746.749	298.26
747.19	350.26
747.632	508.56
748.073	1004.36
748.514	2096.36
748.956	3082.76
749.397	3894.46
749.838	3218.26
750.279	3119.26
750.72	1608.46
751.162	589.46
751.603	349.16
752.044	273.26
752.485	231.86
752.926	222.26
753.367	216.26
753.808	212.66
754.249	207.26
754.69	199.56
755.131	196.26
755.572	194.36
756.013	191.06
756.453	200.26
756.894	198.26
757.335	203.96
757.776	207.76
758.216	209.36
758.657	221.06
759.098	221.36
759.538	242.26
759.979	295.06
760.42	419.26
760.86	811.76
761.301	2130.96
761.741	4934.86
762.182	6761.86
762.622	4791.16
763.063	1428.96
763.503	575.36
763.943	350.16
764.384	290.06
764.824	263.76
765.264	239.16
765.705	213.96
766.145	197.26
766.585	189.96
767.025	177.46
767.465	174.86
767.906	194.96
768.346	195.46
768.786	216.66
769.226	230.06
769.666	334.76
770.106	710.96
770.546	1764.16
770.986	2816.76
771.426	2486.46
771.866	855.56
772.306	355.86
772.745	221.76
773.185	183.96
773.625	172.66
774.065	164.16
774.505	175.16
774.944	225.86
775.384	393.86
775.824	612.46
776.263	580.16
776.703	289.86
777.142	170.76
777.582	146.76
778.021	127.06
778.461	128.46
778.9	131.86
779.34	134.06
779.779	123.16
780.219	122.46
780.658	109.86
781.097	116.86
781.537	116.76
781.976	112.36
782.415	110.86
782.855	106.76
783.294	112.36
783.733	111.46
784.172	109.26
784.611	115.76
785.05	114.96
785.489	119.46
785.928	121.26
786.367	122.86
786.806	124.06
787.245	138.16
787.684	141.26
788.123	153.76
788.562	145.06
789.001	141.26
789.44	126.66
789.879	129.76
790.317	137.66
790.756	132.06
791.195	136.76
791.634	154.16
792.072	223.36
792.511	415.56
792.95	1141.56
793.388	2272.06
793.827	1989.16
794.265	710.26
794.704	303.96
795.142	192.36
795.581	163.56
796.019	141.36
796.458	134.36
796.896	131.66
797.334	142.16
797.773	175.16
798.211	240.56
798.649	503.56
799.087	1121.76
799.526	1737.36
799.964	2172.56
800.402	2107.86
800.84	817.76
801.278	335.56
801.716	207.06
802.154	170.86
802.592	158.86
803.03	153.96
803.468	143.46
803.906	156.16
804.344	159.66
804.782	147.86
805.22	137.36
805.658	139.96
806.096	151.46
806.533	163.26
806.971	186.46
807.409	237.96
807.847	361.16
808.284	768.86
808.722	2100.66
809.16	3537.36
809.597	3525.06
810.035	5954.96
810.472	6047.56
810.91	2242.96
811.347	875.06
811.785	439.46
812.222	277.96
812.66	216.86
813.097	178.36
813.535	155.26
813.972	135.46
814.409	131.16
814.846	123.16
815.284	119.96
815.721	113.76
816.158	110.36
816.595	121.86
817.032	160.26
817.47	190.36
817.907	136.46
818.344	111.96
818.781	101.66
819.218	102.16
819.655	128.76
820.092	203.66
820.529	227.46
820.966	182.16
821.403	131.56
821.839	103.66
822.276	108.96
822.713	132.26
823.15	145.86
823.587	129.76
824.023	169.96
824.46	344.46
824.897	1001.66
825.333	1427.86
825.77	614.86
826.206	247.26
826.643	149.06
827.08	108.66
827.516	93.06
827.953	81.76
828.389	92.36
828.825	78.76
829.262	80.46
829.698	70.56
830.135	69.96
830.571	66.26
831.007	66.16
831.443	70.06
831.88	68.26
832.316	65.96
832.752	68.56
833.188	73.86
833.624	73.36
834.06	69.96
834.497	71.26
834.933	72.16
835.369	74.56
835.805	74.26
836.241	79.96
836.677	87.66
837.112	95.36
837.548	113.16
837.984	144.46
838.42	231.36
838.856	568.06
839.292	1678.46
839.727	2440.06
840.163	1161.56
840.599	1051.26
841.034	2237.86
841.47	2236.16
841.906	833.56
842.341	351.36
842.777	212.86
843.212	210.56
843.648	193.06
844.083	119.96
844.519	93.96
844.954	71.86
845.39	63.16
845.825	61.56
846.261	65.06
846.696	56.26
847.131	55.66
847.566	64.26
848.002	61.46
848.437	52.66
848.872	69.06
849.307	67.16
849.742	92.96
850.177	210.66
850.613	616.06
851.048	912.46
851.483	408.36
851.918	168.36
852.353	99.26
852.788	56.96
853.223	58.36
853.657	55.56
854.092	50.66
854.527	38.66
854.962	47.76
855.397	50.26
855.832	45.26
856.266	40.76
856.701	40.76
857.136	44.46
857.57	51.36
858.005	55.26
858.44	63.26
858.874	49.56
859.309	53.36
859.743	44.46
860.178	51.16
860.612	45.06
861.047	59.06
861.481	68.86
861.915	73.56
862.35	55.86
862.784	39.86
863.218	43.16
863.653	39.56
864.087	47.96
864.521	61.26
864.955	76.06
865.39	173.96
865.824	183.26
866.258	123.46
866.692	183.46
867.126	191.06
867.56	112.46
867.994	58.96
868.428	43.26
868.862	50.56
869.296	59.06
869.73	62.96
870.164	59.56
870.598	51.96
871.031	45.16
871.465	33.66
871.899	33.06
872.333	24.86
872.766	22.96
873.2	24.46
873.634	33.46
874.067	27.46
874.501	24.66
874.935	32.76
875.368	33.06
875.802	29.96
876.235	26.36
876.669	25.66
877.102	23.56
877.535	29.26
877.969	25.16
878.402	28.26
878.836	21.66
879.269	30.86
879.702	23.76
880.135	26.46
880.569	26.46
881.002	25.56
881.435	24.76
881.868	21.36
882.301	23.36
882.734	20.26
883.167	25.66
883.601	17.46
884.034	26.76
884.467	13.36
884.899	22.46
885.332	15.36
885.765	21.06
886.198	16.56
886.631	21.76
887.064	21.16
887.497	21.96
887.929	27.56
888.362	20.76
888.795	19.46
889.228	24.16
889.66	25.36
890.093	16.46
890.526	19.66
890.958	16.36
891.391	21.06
891.823	17.66
892.256	15.06
892.688	16.46
893.121	20.46
893.553	17.86
893.985	21.86
894.418	20.06
894.85	16.26
895.282	22.96
895.715	19.36
896.147	15.36
896.579	15.26
897.011	20.26
897.444	23.46
897.876	13.56
898.308	18.56
898.74	12.66
899.172	17.46
899.604	23.96
900.036	23.06
900.468	14.96
900.9	18.36
901.332	20.06
901.764	18.46
902.196	15.86
902.628	16.46
903.06	16.26
903.491	30.86
903.923	28.26
904.355	21.96
904.787	26.56
905.218	25.86
905.65	18.26
906.082	14.46
906.513	17.16
906.945	17.26
907.376	17.86
907.808	21.96
908.239	22.46
908.671	20.26
909.102	20.56
909.534	25.06
909.965	45.26
910.397	103.96
910.828	341.06
911.259	500.96
911.691	230.06
912.122	119.66
912.553	61.86
912.984	36.76
913.415	27.96
913.847	24.36
914.278	15.26
914.709	14.66
915.14	12.66
915.571	22.86
916.002	18.06
916.433	18.06
916.864	20.36
917.295	16.56
917.726	25.96
918.157	18.16
918.587	31.06
919.018	27.86
919.449	24.56
919.88	25.16
920.311	34.06
920.741	59.66
921.172	185.86
921.603	167.26
922.033	80.26
922.464	51.46
922.895	29.26
923.325	19.36
923.756	13.56
924.186	11.06
924.617	13.76
925.047	24.46
925.478	24.66
925.908	21.06
926.338	5.56
926.769	16.16
927.199	20.16
927.629	8.76
928.06	19.66
928.49	18.26
928.92	17.66
929.35	14.06
929.78	9.96
930.21	3.96
930.641	9.66
931.071	4.96
931.501	9.06
931.931	8.16
932.361	7.66
932.791	5.36
933.221	8.06
933.651	4.56
934.08	20.36
934.51	36.46
934.94	19.36
935.37	10.26
935.8	17.96
936.229	9.46
936.659	9.66
937.089	2.16
937.519	17.06
937.948	29.66
938.378	19.66
938.807	8.06
939.237	3.96
939.666	9.96
940.096	-1.14
940.525	3.36
940.955	0.26
941.384	0.16
941.814	-7.34
942.243	-2.24
942.672	4.66
943.102	0.86
943.531	0.56
943.96	4.96
944.39	4.46
944.819	1.56
945.248	5.96
945.677	7.16
946.106	9.26
946.535	7.56
946.964	6.36
947.393	1.46
947.822	3.76
948.251	1.86
948.68	2.56
949.109	2.66
949.538	8.46
949.967	-3.44
950.396	-0.44
950.825	-1.24
951.254	0.96
951.682	-9.04
952.111	4.96
952.54	2.86
952.969	1.76
953.397	-1.74
953.826	2.06
954.254	-3.44
954.683	3.26
955.112	-0.64
955.54	2.96
955.969	4.76
956.397	5.06
956.826	1.56
957.254	11.16
957.682	5.56
958.111	7.86
958.539	3.66
958.967	6.36
959.396	5.36
959.824	4.86
960.252	3.86
960.68	-7.14
961.109	-2.14
961.537	-7.24
961.965	-5.64
962.393	4.46
962.821	-3.54
963.249	1.06
963.677	0.96
964.105	4.86
964.533	50.76
964.961	46.96
965.389	24.66
965.817	12.16
966.245	11.26
966.672	2.06
967.1	-4.74
967.528	-0.94
967.956	1.26
968.383	2.26
968.811	4.56
969.239	-1.54
969.666	-3.74
970.094	-3.64
970.522	-1.74
970.949	3.06
971.377	2.06
971.804	-4.74
972.232	-3.34
972.659	-7.04
973.087	-2.14
973.514	-6.04
973.941	-7.64
974.369	5.36
974.796	-1.44
975.223	1.16
975.651	-2.54
976.078	4.46
976.505	0.66
976.932	2.16
977.359	16.96
977.786	16.56
978.214	-1.74
978.641	-7.04
979.068	-2.84
979.495	-4.14
979.922	0.06
980.349	-4.24
980.776	9.26
981.202	2.56
981.629	6.06
982.056	6.56
982.483	-2.04
982.91	-2.04
983.337	-4.24
983.763	7.26
984.19	-4.74
984.617	-3.94
985.043	-5.44
985.47	-1.64
985.897	-9.14
986.323	-4.44
986.75	4.16
987.176	1.76
987.603	-1.14
988.029	1.56
988.456	-0.44
988.882	8.66
989.308	-8.44
989.735	-1.54
990.161	-0.94
990.587	2.46
991.014	-2.34
991.44	2.96
991.866	-0.74
992.292	0.46
992.719	-3.94
993.145	6.16
993.571	-2.94
993.997	-2.44
994.423	2.16
994.849	-6.84
995.275	-1.94
995.701	-2.24
996.127	1.06
996.553	2.56
996.979	-1.44
997.405	0.66
997.83	-1.84
998.256	-8.04
998.682	4.76
999.108	-3.24
999.534	2.96
999.959	3.56
1000.385	-4.74
1000.811	-3.44
1001.236	-3.84
1001.662	-2.54
1002.087	-5.94
1002.513	2.16
1002.938	0.56
1003.364	-1.44
1003.789	1.16
1004.215	3.16
1004.64	-0.14
1005.066	10.56
1005.491	0.66
1005.916	-6.94
1006.342	-3.14
1006.767	-10.14
1007.192	2.26
1007.617	-4.14
1008.042	-1.84
1008.468	-5.44
1008.893	2.46
1009.318	-3.84
1009.743	-0.74
1010.168	0.96
1010.593	7.86
1011.018	-9.44
1011.443	-2.34
1011.868	3.16
1012.293	1.16
1012.718	-0.84
1013.143	-0.74
1013.567	-3.34
1013.992	-5.64
1014.417	-10.14
1014.842	-0.84
1015.267	-1.24
1015.691	-1.44
1016.116	6.76
1016.541	-0.04
1016.965	7.56
1017.39	1.16
1017.814	2.36
1018.239	-1.84
1018.663	-6.24
1019.088	0.36
1019.512	2.96
1019.937	-3.34
1020.361	0.86
1020.785	-11.84
1021.21	-1.44
1021.634	-3.84
1022.058	-1.64
1022.483	3.56
1022.907	-3.74
1023.331	-0.24
1023.755	-2.64
1024.179	-9.04
1024.604	-2.94
1025.028	-4.34
1025.452	-3.84
1025.876	0.56
1026.3	1.76
1026.724	-9.74
1027.148	-5.94
1027.572	-9.34
1027.996	-3.24
1028.42	-1.34
1028.843	-6.44
1029.267	-3.44
1029.691	0.26
1030.115	-9.54
1030.539	-5.94
1030.962	-8.44
1031.386	-9.74
1031.81	2.66
1032.233	1.36
1032.657	-1.44
1033.08	-4.54
1033.504	2.86
1033.927	-2.94
1034.351	-4.24
1034.774	-2.94
1035.198	0.06
1035.621	-6.54
1036.045	-5.34
1036.468	-0.94
1036.891	-9.04
1037.315	-6.74
1037.738	-8.14
1038.161	4.96
1038.584	-7.04
1039.008	-0.74
1039.431	-4.94
1039.854	-11.14
1040.277	-3.94
1040.7	-8.94
1041.123	-1.74
1041.546	-8.14
1041.969	-4.94
1042.392	-10.14
1042.815	-0.54
1043.238	4.26
1043.661	7.86
1044.084	-4.54
1044.507	-8.14
1044.93	-5.94
1045.352	-5.44
1045.775	3.76
1046.198	0.56
1046.621	-3.54
1047.043	-3.44
1047.466	7.16
1047.889	-1.94
1048.311	-2.24
1048.734	3.86
1049.156	-2.64
1049.579	0.26
1050.001	-6.64
1050.424	4.16
1050.846	-7.04
1051.269	-4.34
1051.691	-8.24
1052.113	-1.94
1052.536	1.86
1052.958	-0.14
1053.38	0.26
1053.802	-8.34
1054.225	3.76
1054.647	-15.24
1055.069	-7.14
1055.491	1.46
1055.913	-8.94
1056.335	8.36
1056.757	-0.64
1057.179	-9.74
1057.601	-3.14
1058.023	-4.24
1058.445	-5.74
1058.867	-7.44
1059.289	-0.44
1059.711	-7.54
1060.133	0.16
1060.555	0.66
1060.976	-6.34
1061.398	-5.14
1061.82	-9.14
1062.241	-8.24
1062.663	-8.14
1063.085	-6.24
1063.506	0.26
1063.928	-4.34
1064.35	2.06
1064.771	-11.74
1065.193	-3.94
1065.614	-0.94
1066.035	5.36
1066.457	-7.24
1066.878	2.46
1067.3	-1.44
1067.721	-2.94
1068.142	-2.24
1068.564	-5.64
1068.985	-3.94
1069.406	-3.54
1069.827	-1.54
1070.248	2.66
1070.67	-10.14
1071.091	-6.04
1071.512	-4.64
1071.933	-3.34
1072.354	-5.74
1072.775	-8.84
1073.196	-10.54
1073.617	-3.64
1074.038	-8.94
1074.459	-2.54
1074.88	-12.24
1075.3	2.36
1075.721	-6.84
1076.142	0.06
1076.563	-2.04
1076.983	-9.34
1077.404	-8.34
1077.825	-8.74
1078.246	-3.74
1078.666	-11.54
1079.087	-5.74
1079.507	-9.74
1079.928	2.56
1080.348	-3.94
1080.769	-3.14
1081.189	-1.34
1081.61	0.46
1082.03	-2.94
1082.451	-6.14
1082.871	-4.74
1083.291	-9.64
1083.711	-4.34
1084.132	-6.24
1084.552	-8.94
1084.972	0.16
1085.392	-6.64
1085.813	-12.54
1086.233	-7.54
1086.653	-3.84
1087.073	0.16
1087.493	-2.94
1087.913	-7.64
1088.333	-5.54
1088.753	-0.64
1089.173	2.26
1089.593	-5.04
1090.013	2.86
1090.433	2.76
1090.852	-5.14
1091.272	-6.64
1091.692	-3.34
1092.112	-4.44
1092.531	-12.04
1092.951	-11.54
1093.371	-2.84
1093.79	-5.24
1094.21	-5.24
1094.63	-2.34
1095.049	-4.54
1095.469	-4.84
1095.888	-5.54
1096.308	-0.54
1096.727	9.26
1097.146	-9.14
1097.566	2.26
1097.985	-2.84
1098.405	-4.84
1098.824	-5.84
1099.243	-4.14
1099.662	-3.94
1100.082	-4.04
1100.501	3.06
1100.92	-3.04
1101.339	-3.24
1101.758	1.76
