Data from 20171114-ORNL-Ar_H_NY_Subt18_08-05-02-117.txt Node
Date: Tue Nov 14 08:05:02 EST 2017
User: Ender
Spectrometer: HR+D1039
Trigger mode: 0
Integration Time (sec): 2.730000E-2
Scans to average: 10
Electric dark correction enabled: true
Nonlinearity correction enabled: false
Boxcar width: 0
XAxis mode: Wavelengths
Number of Pixels in Spectrum: 2048
>>>>>Begin Spectral Data<<<<<
187.836	-0.61
188.309	-0.61
188.782	-0.61
189.255	1.99
189.728	-3.31
190.201	6.39
190.674	-2.51
191.147	3.99
191.619	-7.61
192.092	5.69
192.565	1.89
193.038	-0.11
193.511	-1.41
193.984	2.09
194.456	-2.01
194.929	-0.61
195.402	1.49
195.874	-5.41
196.347	0.89
196.82	-4.01
197.292	10.19
197.765	2.99
198.237	-0.71
198.71	3.19
199.182	-6.91
199.655	0.39
200.127	2.89
200.6	-3.21
201.072	-4.21
201.544	-5.91
202.017	-2.41
202.489	1.79
202.961	-3.51
203.433	-4.01
203.906	-1.21
204.378	-7.21
204.85	0.39
205.322	-13.31
205.794	-4.61
206.266	-4.31
206.739	-10.11
207.211	4.49
207.683	-5.91
208.155	-3.21
208.627	-12.21
209.099	1.29
209.57	-7.61
210.042	-7.31
210.514	-7.41
210.986	-0.01
211.458	-2.41
211.93	0.79
212.402	1.59
212.873	-3.61
213.345	-5.41
213.817	-10.91
214.288	-4.81
214.76	-13.81
215.232	-2.71
215.703	-9.41
216.175	-2.41
216.646	-7.11
217.118	-2.11
217.589	-2.61
218.061	-1.61
218.532	-6.41
219.004	-5.61
219.475	1.79
219.946	-2.11
220.418	-5.91
220.889	0.89
221.36	2.69
221.832	0.09
222.303	-6.21
222.774	0.69
223.245	-6.41
223.717	-5.41
224.188	-5.01
224.659	-7.61
225.13	-9.01
225.601	-4.71
226.072	2.59
226.543	-2.91
227.014	2.79
227.485	-0.71
227.956	-5.11
228.427	1.39
228.898	-3.11
229.369	1.49
229.839	-2.71
230.31	-2.81
230.781	0.29
231.252	-1.81
231.722	-2.21
232.193	-0.21
232.664	-2.41
233.135	0.09
233.605	2.79
234.076	-8.21
234.546	5.69
235.017	5.89
235.487	-3.21
235.958	-1.21
236.428	-2.01
236.899	7.49
237.369	8.99
237.84	1.59
238.31	13.59
238.78	3.69
239.251	0.19
239.721	5.09
240.191	1.69
240.662	1.89
241.132	-2.91
241.602	-0.91
242.072	1.09
242.542	9.19
243.013	-7.91
243.483	2.79
243.953	6.99
244.423	3.59
244.893	-0.41
245.363	4.09
245.833	2.29
246.303	4.19
246.773	11.49
247.243	5.79
247.712	5.59
248.182	7.19
248.652	5.79
249.122	3.29
249.592	14.89
250.061	26.39
250.531	37.09
251.001	17.19
251.471	24.89
251.94	21.99
252.41	9.39
252.879	6.09
253.349	12.79
253.818	15.19
254.288	4.39
254.757	6.69
255.227	4.09
255.696	2.79
256.166	9.79
256.635	5.29
257.105	8.29
257.574	8.59
258.043	10.99
258.513	16.59
258.982	14.49
259.451	10.79
259.92	13.19
260.389	13.69
260.859	15.69
261.328	14.39
261.797	23.99
262.266	14.09
262.735	10.69
263.204	7.19
263.673	-1.91
264.142	6.59
264.611	-2.41
265.08	4.99
265.549	3.69
266.018	12.69
266.487	5.09
266.955	5.39
267.424	4.49
267.893	10.99
268.362	5.09
268.83	6.89
269.299	9.49
269.768	11.59
270.236	16.59
270.705	3.49
271.174	8.49
271.642	11.69
272.111	10.79
272.579	18.39
273.048	25.19
273.516	28.59
273.985	34.69
274.453	30.49
274.922	20.99
275.39	16.09
275.858	8.19
276.327	19.99
276.795	26.19
277.263	5.69
277.731	33.89
278.2	63.89
278.668	63.99
279.136	51.59
279.604	26.19
280.072	17.09
280.54	18.59
281.008	13.29
281.477	19.09
281.945	15.09
282.413	11.39
282.881	13.09
283.348	20.79
283.816	21.99
284.284	15.79
284.752	20.59
285.22	15.29
285.688	20.69
286.156	19.29
286.623	54.59
287.091	59.49
287.559	33.99
288.026	24.39
288.494	21.19
288.962	11.09
289.429	11.99
289.897	23.49
290.364	20.49
290.832	16.99
291.3	16.09
291.767	14.19
292.234	15.79
292.702	17.69
293.169	21.49
293.637	22.29
294.104	23.39
294.571	14.49
295.039	15.19
295.506	18.09
295.973	19.09
296.44	22.39
296.908	21.89
297.375	22.09
297.842	20.39
298.309	19.89
298.776	12.19
299.243	25.39
299.71	16.39
300.177	23.19
300.644	26.29
301.111	23.39
301.578	29.19
302.045	24.19
302.512	30.19
302.979	29.09
303.446	27.59
303.913	16.09
304.379	25.99
304.846	32.99
305.313	30.29
305.78	27.19
306.246	29.09
306.713	32.39
307.18	25.59
307.646	28.09
308.113	31.89
308.579	27.29
309.046	33.59
309.512	31.09
309.979	20.79
310.445	23.79
310.912	30.39
311.378	35.19
311.845	30.09
312.311	32.09
312.777	35.79
313.244	31.79
313.71	43.39
314.176	37.89
314.642	32.29
315.109	34.19
315.575	37.29
316.041	42.69
316.507	37.19
316.973	38.59
317.439	33.89
317.905	34.39
318.371	41.29
318.837	42.39
319.303	33.59
319.769	34.59
320.235	32.09
320.701	33.99
321.167	42.69
321.633	35.59
322.099	42.49
322.564	45.59
323.03	43.19
323.496	40.89
323.962	44.59
324.427	41.19
324.893	48.29
325.359	41.29
325.824	38.79
326.29	38.69
326.755	38.49
327.221	39.49
327.686	48.59
328.152	48.09
328.617	42.39
329.083	47.59
329.548	58.79
330.014	48.79
330.479	45.59
330.944	49.69
331.41	46.19
331.875	47.39
332.34	43.39
332.805	51.89
333.271	50.19
333.736	41.69
334.201	56.39
334.666	50.59
335.131	53.39
335.596	52.79
336.061	54.09
336.526	44.09
336.991	52.09
337.456	58.39
337.921	50.89
338.386	42.79
338.851	49.09
339.316	52.29
339.781	44.69
340.246	53.99
340.711	48.09
341.175	51.79
341.64	49.99
342.105	53.39
342.569	51.49
343.034	61.89
343.499	60.09
343.963	53.99
344.428	67.39
344.893	61.29
345.357	62.89
345.822	68.39
346.286	66.99
346.751	67.49
347.215	67.29
347.679	79.29
348.144	101.49
348.608	88.09
349.073	73.59
349.537	71.19
350.001	81.89
350.465	83.49
350.93	84.39
351.394	88.49
351.858	73.29
352.322	81.29
352.786	85.59
353.25	103.79
353.715	114.69
354.179	102.89
354.643	125.09
355.107	131.69
355.571	110.39
356.035	105.69
356.498	121.49
356.962	126.59
357.426	131.29
357.89	114.79
358.354	88.59
358.818	87.19
359.281	85.59
359.745	81.49
360.209	74.69
360.673	81.89
361.136	86.79
361.6	90.99
362.064	82.69
362.527	80.99
362.991	95.59
363.454	79.99
363.918	80.29
364.381	85.59
364.845	84.59
365.308	89.99
365.772	87.79
366.235	89.99
366.698	88.99
367.162	86.29
367.625	90.59
368.088	90.99
368.552	95.69
369.015	91.29
369.478	98.39
369.941	102.09
370.404	97.19
370.867	106.59
371.331	114.59
371.794	112.59
372.257	106.49
372.72	115.59
373.183	113.89
373.646	100.09
374.109	98.89
374.572	103.79
375.035	101.49
375.497	108.39
375.96	100.29
376.423	104.09
376.886	111.99
377.349	108.69
377.811	104.79
378.274	104.99
378.737	108.19
379.199	118.09
379.662	112.99
380.125	108.39
380.587	116.99
381.05	120.09
381.512	128.69
381.975	135.69
382.437	129.29
382.9	131.09
383.362	131.29
383.825	141.09
384.287	147.99
384.75	144.49
385.212	137.89
385.674	140.19
386.136	137.49
386.599	119.49
387.061	126.79
387.523	126.89
387.985	135.89
388.447	142.19
388.91	140.79
389.372	146.29
389.834	148.99
390.296	147.69
390.758	161.09
391.22	165.89
391.682	203.59
392.144	284.79
392.606	228.19
393.068	167.19
393.529	166.09
393.991	147.49
394.453	147.69
394.915	149.69
395.377	191.59
395.838	207.99
396.3	153.79
396.762	138.79
397.224	135.29
397.685	121.49
398.147	128.49
398.608	128.89
399.07	122.49
399.531	132.69
399.993	144.19
400.454	151.29
400.916	146.39
401.377	143.39
401.839	151.59
402.3	153.89
402.762	167.59
403.223	178.89
403.684	167.89
404.145	158.29
404.607	162.69
405.068	164.49
405.529	169.49
405.99	185.09
406.451	170.39
406.913	165.09
407.374	160.59
407.835	152.99
408.296	165.89
408.757	163.49
409.218	181.19
409.679	171.99
410.14	178.49
410.601	167.09
411.062	178.89
411.522	188.49
411.983	184.59
412.444	169.89
412.905	170.09
413.366	174.49
413.826	192.49
414.287	212.99
414.748	257.09
415.208	243.39
415.669	211.49
416.13	196.49
416.59	189.19
417.051	207.69
417.511	207.09
417.972	231.19
418.432	229.39
418.893	279.59
419.353	231.59
419.814	196.99
420.274	182.59
420.734	178.29
421.195	193.69
421.655	191.79
422.115	181.59
422.576	189.09
423.036	193.19
423.496	199.29
423.956	212.09
424.416	222.29
424.876	257.79
425.336	253.29
425.797	256.09
426.257	247.39
426.717	228.79
427.177	227.89
427.637	217.09
428.097	228.99
428.556	240.79
429.016	261.79
429.476	262.19
429.936	263.39
430.396	273.29
430.856	284.49
431.315	308.19
431.775	337.89
432.235	368.29
432.694	341.79
433.154	351.29
433.614	376.49
434.073	333.29
434.533	281.59
434.993	258.89
435.452	277.19
435.912	281.29
436.371	274.09
436.83	283.19
437.29	268.99
437.749	246.69
438.209	237.79
438.668	262.59
439.127	273.99
439.587	262.19
440.046	235.69
440.505	248.49
440.964	260.39
441.424	303.59
441.883	300.79
442.342	254.89
442.801	215.89
443.26	209.89
443.719	215.09
444.178	210.99
444.637	202.19
445.096	217.89
445.555	217.99
446.014	215.89
446.473	217.89
446.932	225.59
447.391	213.39
447.849	221.99
448.308	219.99
448.767	218.19
449.226	230.49
449.685	226.89
450.143	243.89
450.602	237.89
451.061	224.49
451.519	230.29
451.978	227.59
452.436	220.19
452.895	242.69
453.353	247.19
453.812	230.19
454.27	235.09
454.729	227.59
455.187	230.19
455.646	233.09
456.104	246.89
456.562	253.39
457.021	265.59
457.479	253.99
457.937	265.59
458.395	258.39
458.854	243.59
459.312	247.19
459.77	270.99
460.228	250.89
460.686	233.09
461.144	237.79
461.602	234.99
462.06	233.29
462.518	242.69
462.976	252.49
463.434	249.89
463.892	258.59
464.35	269.79
464.808	282.69
465.266	265.09
465.724	256.59
466.181	261.59
466.639	262.49
467.097	284.39
467.555	289.79
468.012	290.39
468.47	302.99
468.928	320.09
469.385	329.69
469.843	342.79
470.3	336.39
470.758	353.09
471.215	365.99
471.673	398.59
472.13	396.49
472.588	411.29
473.045	359.49
473.503	362.59
473.96	380.59
474.417	399.89
474.875	427.49
475.332	457.99
475.789	449.19
476.246	452.99
476.704	472.49
477.161	491.89
477.618	508.29
478.075	550.29
478.532	601.59
478.989	676.79
479.446	785.69
479.903	755.39
480.36	794.69
480.817	855.69
481.274	952.79
481.731	1064.09
482.188	1145.59
482.645	1276.29
483.102	1383.99
483.558	1532.89
484.015	1565.79
484.472	1554.49
484.929	1506.29
485.385	1453.79
485.842	1407.19
486.299	1353.99
486.755	1281.79
487.212	1071.39
487.668	915.39
488.125	836.69
488.582	762.09
489.038	732.39
489.494	698.99
489.951	684.19
490.407	658.69
490.864	633.19
491.32	625.19
491.776	621.59
492.233	627.79
492.689	591.39
493.145	596.19
493.602	581.19
494.058	602.39
494.514	607.89
494.97	616.29
495.426	634.69
495.882	605.39
496.338	597.89
496.794	615.49
497.251	604.09
497.707	621.19
498.163	635.59
498.618	630.09
499.074	637.19
499.53	658.59
499.986	663.19
500.442	635.49
500.898	621.89
501.354	614.89
501.809	619.79
502.265	631.89
502.721	649.89
503.177	648.59
503.632	647.79
504.088	654.49
504.543	699.79
504.999	695.09
505.455	637.39
505.91	618.59
506.366	624.39
506.821	618.29
507.277	610.09
507.732	602.39
508.187	610.39
508.643	617.49
509.098	618.59
509.553	640.49
510.009	649.39
510.464	652.89
510.919	673.59
511.375	676.79
511.83	690.69
512.285	710.29
512.74	751.59
513.195	758.89
513.65	748.89
514.105	756.39
514.56	758.69
515.015	768.39
515.47	797.89
515.925	790.19
516.38	770.69
516.835	776.59
517.29	776.09
517.745	752.89
518.2	742.69
518.655	723.79
519.109	723.09
519.564	717.59
520.019	713.49
520.474	708.89
520.928	699.79
521.383	703.19
521.838	692.59
522.292	697.59
522.747	693.99
523.201	688.59
523.656	679.09
524.11	672.99
524.565	673.09
525.019	670.19
525.474	679.29
525.928	679.19
526.382	677.39
526.837	673.09
527.291	685.99
527.745	679.99
528.2	685.39
528.654	679.59
529.108	669.09
529.562	674.89
530.016	666.79
530.47	676.79
530.925	671.89
531.379	676.39
531.833	684.29
532.287	694.89
532.741	684.89
533.195	689.39
533.649	692.79
534.103	703.49
534.556	687.89
535.01	701.49
535.464	685.79
535.918	702.39
536.372	696.89
536.826	702.59
537.279	698.09
537.733	695.79
538.187	689.69
538.64	697.79
539.094	701.99
539.548	715.89
540.001	707.19
540.455	697.89
540.908	710.19
541.362	712.99
541.815	727.19
542.269	741.09
542.722	739.79
543.175	737.49
543.629	749.09
544.082	762.49
544.536	771.29
544.989	767.09
545.442	765.89
545.895	764.79
546.349	769.79
546.802	757.89
547.255	770.59
547.708	769.19
548.161	775.79
548.614	789.09
549.067	806.19
549.52	791.29
549.973	784.69
550.426	776.79
550.879	771.49
551.332	770.79
551.785	787.99
552.238	781.79
552.691	802.39
553.144	804.79
553.596	811.19
554.049	831.19
554.502	858.29
554.955	879.89
555.407	883.29
555.86	875.09
556.313	860.89
556.765	855.19
557.218	851.79
557.67	851.59
558.123	857.79
558.576	850.69
559.028	842.79
559.48	858.19
559.933	846.79
560.385	813.29
560.838	787.59
561.29	747.19
561.742	739.99
562.195	732.49
562.647	735.09
563.099	757.89
563.551	737.49
564.004	751.49
564.456	744.89
564.908	736.49
565.36	712.89
565.812	710.29
566.264	690.79
566.716	699.59
567.168	682.59
567.62	702.59
568.072	681.09
568.524	661.49
568.976	665.09
569.428	643.09
569.88	636.29
570.332	654.39
570.784	643.79
571.235	651.29
571.687	660.89
572.139	678.39
572.59	677.99
573.042	675.09
573.494	676.69
573.945	679.09
574.397	659.29
574.849	666.79
575.3	663.09
575.752	648.59
576.203	651.49
576.655	652.49
577.106	643.39
577.557	634.89
578.009	640.19
578.46	631.69
578.912	641.49
579.363	638.89
579.814	632.59
580.265	634.49
580.717	639.49
581.168	641.49
581.619	649.59
582.07	644.49
582.521	638.49
582.972	632.09
583.423	628.99
583.875	646.09
584.326	670.79
584.777	712.49
585.227	784.19
585.678	882.19
586.129	954.69
586.58	1047.39
587.031	1120.29
587.482	1283.79
587.933	1464.39
588.384	1270.59
588.834	936.09
589.285	772.59
589.736	747.09
590.186	738.49
590.637	726.99
591.088	705.99
591.538	695.89
591.989	691.89
592.439	685.59
592.89	678.49
593.34	678.49
593.791	681.59
594.241	673.09
594.692	683.79
595.142	665.49
595.593	666.99
596.043	678.29
596.493	669.29
596.943	672.19
597.394	674.29
597.844	680.39
598.294	690.59
598.744	705.09
599.195	738.59
599.645	775.59
600.095	794.49
600.545	867.89
600.995	904.69
601.445	959.89
601.895	1025.29
602.345	1079.59
602.795	1053.39
603.245	1014.39
603.695	955.99
604.145	904.49
604.594	854.49
605.044	807.39
605.494	757.99
605.944	710.69
606.393	697.09
606.843	689.59
607.293	689.89
607.743	693.49
608.192	697.49
608.642	712.89
609.091	717.09
609.541	726.09
609.99	723.79
610.44	722.69
610.889	672.59
611.339	653.29
611.788	647.49
612.238	645.79
612.687	677.19
613.136	667.89
613.586	695.99
614.035	690.89
614.484	708.79
614.933	715.29
615.383	712.19
615.832	700.29
616.281	683.39
616.73	647.29
617.179	628.49
617.628	607.19
618.077	593.89
618.526	583.19
618.975	582.09
619.424	580.79
619.873	567.49
620.322	573.29
620.771	563.09
621.22	566.39
621.669	557.49
622.118	553.99
622.567	549.49
623.015	529.09
623.464	531.79
623.913	526.29
624.361	521.89
624.81	513.09
625.259	520.39
625.707	509.39
626.156	512.39
626.604	537.39
627.053	526.39
627.501	524.09
627.95	532.89
628.398	542.89
628.847	526.99
629.295	538.09
629.744	537.79
630.192	528.89
630.64	525.39
631.089	526.99
631.537	539.69
631.985	542.89
632.433	555.19
632.881	553.69
633.33	605.99
633.778	588.09
634.226	525.19
634.674	531.29
635.122	535.09
635.57	554.19
636.018	581.39
636.466	535.09
636.914	521.09
637.362	531.49
637.81	536.19
638.258	530.89
638.705	533.39
639.153	567.69
639.601	570.79
640.049	590.09
640.497	629.19
640.944	647.19
641.392	596.59
641.84	567.39
642.287	546.19
642.735	522.49
643.182	527.49
643.63	530.79
644.078	535.49
644.525	542.29
644.973	555.69
645.42	556.79
645.867	592.89
646.315	588.69
646.762	608.79
647.21	641.29
647.657	658.79
648.104	698.59
648.551	724.39
648.999	768.49
649.446	852.59
649.893	926.39
650.34	1067.59
650.787	1284.79
651.234	1588.59
651.682	2063.99
652.129	2821.39
652.576	4056.89
653.023	6038.69
653.47	8310.09
653.917	10454.09
654.363	12209.09
654.81	13658.69
655.257	12942.99
655.704	8457.59
656.151	4965.79
656.598	3220.79
657.044	2266.59
657.491	1733.89
657.938	1385.49
658.385	1150.19
658.831	1004.49
659.278	894.79
659.724	790.99
660.171	725.79
660.618	668.99
661.064	635.09
661.511	615.39
661.957	594.79
662.404	589.89
662.85	593.29
663.296	576.99
663.743	517.59
664.189	493.49
664.635	491.99
665.082	487.39
665.528	483.89
665.974	479.49
666.42	465.29
666.867	460.49
667.313	450.89
667.759	446.09
668.205	443.19
668.651	446.19
669.097	447.49
669.543	461.89
669.989	430.09
670.435	415.69
670.881	403.99
671.327	414.09
671.773	434.29
672.219	444.89
672.665	485.09
673.11	532.99
673.556	583.09
674.002	621.29
674.448	599.59
674.893	499.09
675.339	429.29
675.785	402.39
676.23	377.79
676.676	354.09
677.122	349.99
677.567	337.39
678.013	337.09
678.458	333.39
678.904	329.09
679.349	316.49
679.794	330.19
680.24	328.79
680.685	318.49
681.131	317.89
681.576	316.49
682.021	319.59
682.466	317.79
682.912	313.79
683.357	320.39
683.802	344.09
684.247	368.69
684.692	414.79
685.137	446.29
685.583	491.79
686.028	516.89
686.473	470.29
686.918	412.29
687.363	377.79
687.807	359.09
688.252	334.49
688.697	325.89
689.142	310.99
689.587	297.49
690.032	295.19
690.477	308.39
690.921	314.39
691.366	340.39
691.811	359.19
692.255	399.29
692.7	420.39
693.145	457.49
693.589	613.29
694.034	1000.79
694.478	1382.59
694.923	1588.99
695.367	2089.49
695.812	1086.09
696.256	453.89
696.701	336.99
697.145	304.09
697.59	294.89
698.034	290.59
698.478	295.39
698.922	300.89
699.367	298.89
699.811	307.79
700.255	321.59
700.699	350.89
701.143	391.69
701.588	436.89
702.032	473.89
702.476	465.59
702.92	451.39
703.364	433.09
703.808	567.39
704.252	901.89
704.696	1288.69
705.14	1522.29
705.584	1962.29
706.027	970.49
706.471	477.89
706.915	357.69
707.359	320.89
707.803	282.09
708.246	281.89
708.69	284.39
709.134	288.79
709.577	280.99
710.021	283.89
710.465	276.99
710.908	267.79
711.352	265.99
711.795	281.69
712.239	313.09
712.682	344.99
713.126	368.19
713.569	423.79
714.012	341.09
714.456	288.09
714.899	280.29
715.342	250.19
715.786	236.39
716.229	230.49
716.672	230.39
717.115	228.59
717.558	227.89
718.002	226.29
718.445	231.49
718.888	255.59
719.331	268.39
719.774	288.39
720.217	270.59
720.66	251.69
721.103	245.59
721.546	230.99
721.989	215.89
722.432	204.29
722.874	218.29
723.317	215.59
723.76	212.09
724.203	232.79
724.645	283.29
725.088	393.29
725.531	514.39
725.974	587.79
726.416	500.69
726.859	273.99
727.301	215.59
727.744	210.39
728.187	213.99
728.629	210.19
729.071	214.49
729.514	228.69
729.956	244.09
730.399	255.89
730.841	260.79
731.283	249.99
731.726	243.59
732.168	237.29
732.61	239.99
733.053	256.79
733.495	287.79
733.937	314.69
734.379	354.39
734.821	387.49
735.263	481.89
735.705	734.59
736.148	1363.59
736.59	2287.49
737.032	2807.29
737.474	2272.79
737.916	727.49
738.357	388.49
738.799	290.49
739.241	272.79
739.683	257.19
740.125	261.39
740.567	263.89
741.008	283.49
741.45	281.99
741.892	281.19
742.334	314.29
742.775	321.89
743.217	299.39
743.658	237.79
744.1	233.19
744.542	233.49
744.983	274.39
745.425	308.59
745.866	314.29
746.307	263.59
746.749	253.19
747.19	286.49
747.632	400.69
748.073	764.39
748.514	1628.39
748.956	2566.69
749.397	3199.09
749.838	2660.59
750.279	2699.69
750.72	1366.69
751.162	488.19
751.603	290.49
752.044	229.49
752.485	196.49
752.926	197.39
753.367	181.59
753.808	173.79
754.249	170.69
754.69	165.79
755.131	166.89
755.572	161.99
756.013	163.69
756.453	168.39
756.894	167.69
757.335	175.39
757.776	183.49
758.216	177.29
758.657	176.49
759.098	181.69
759.538	203.79
759.979	243.79
760.42	331.59
760.86	622.39
761.301	1581.79
761.741	3899.49
762.182	5924.09
762.622	4180.49
763.063	1185.89
763.503	482.29
763.943	315.59
764.384	313.19
764.824	381.99
765.264	421.99
765.705	283.29
766.145	189.99
766.585	173.19
767.025	160.69
767.465	168.99
767.906	221.49
768.346	294.19
768.786	323.49
769.226	240.79
769.666	280.59
770.106	544.69
770.546	1358.79
770.986	2407.39
771.426	2179.39
771.866	725.19
772.306	292.29
772.745	187.19
773.185	158.69
773.625	151.49
774.065	152.49
774.505	177.39
774.944	273.29
775.384	609.59
775.824	1131.69
776.263	1125.09
776.703	470.89
777.142	199.19
777.582	144.19
778.021	130.19
778.461	126.39
778.9	125.19
779.34	117.89
779.779	101.69
780.219	96.39
780.658	96.29
781.097	100.99
781.537	107.79
781.976	96.59
782.415	88.39
782.855	94.69
783.294	92.09
783.733	90.59
784.172	91.19
784.611	85.59
785.05	95.19
785.489	97.99
785.928	106.19
786.367	108.39
786.806	107.89
787.245	118.59
787.684	123.59
788.123	137.89
788.562	117.89
789.001	118.09
789.44	110.89
789.879	99.29
790.317	108.69
790.756	119.69
791.195	113.29
791.634	129.69
792.072	182.79
792.511	317.49
792.95	867.59
793.388	1921.49
793.827	1789.09
794.265	612.79
794.704	246.79
795.142	161.99
795.581	134.19
796.019	122.99
796.458	113.39
796.896	108.49
797.334	119.29
797.773	142.79
798.211	188.99
798.649	366.49
799.087	895.29
799.526	1416.89
799.964	1788.39
800.402	1857.59
800.84	692.19
801.278	275.09
801.716	161.49
802.154	138.39
802.592	126.49
803.03	120.99
803.468	119.29
803.906	124.99
804.344	135.09
804.782	121.09
805.22	121.99
805.658	118.49
806.096	138.59
806.533	137.69
806.971	157.69
807.409	191.39
807.847	278.49
808.284	572.19
808.722	1625.59
809.16	2981.49
809.597	2765.19
810.035	4869.79
810.472	5393.79
810.91	1911.79
811.347	718.09
811.785	362.99
812.222	235.39
812.66	171.69
813.097	143.59
813.535	125.49
813.972	118.89
814.409	107.69
814.846	100.49
815.284	100.09
815.721	95.59
816.158	98.59
816.595	106.09
817.032	162.69
817.47	179.19
817.907	149.09
818.344	136.49
818.781	99.39
819.218	83.89
819.655	103.99
820.092	165.09
820.529	197.29
820.966	165.99
821.403	122.29
821.839	104.19
822.276	94.29
822.713	113.79
823.15	119.59
823.587	103.39
824.023	126.89
824.46	250.59
824.897	777.49
825.333	1241.59
825.77	529.69
826.206	206.39
826.643	118.59
827.08	93.09
827.516	71.79
827.953	71.19
828.389	68.59
828.825	64.39
829.262	65.19
829.698	60.59
830.135	55.99
830.571	52.79
831.007	56.69
831.443	60.09
831.88	52.69
832.316	56.29
832.752	54.49
833.188	61.89
833.624	61.69
834.06	59.39
834.497	64.19
834.933	63.69
835.369	65.89
835.805	57.79
836.241	75.49
836.677	67.69
837.112	74.39
837.548	86.89
837.984	117.79
838.42	175.79
838.856	420.29
839.292	1331.19
839.727	2117.99
840.163	971.79
840.599	820.49
841.034	1816.89
841.47	1969.29
841.906	701.79
842.341	296.19
842.777	214.59
843.212	291.09
843.648	284.99
844.083	142.79
844.519	86.89
844.954	69.89
845.39	52.39
845.825	46.89
846.261	55.59
846.696	50.79
847.131	48.39
847.566	54.99
848.002	49.19
848.437	43.19
848.872	52.89
849.307	53.69
849.742	77.69
850.177	155.49
850.613	491.49
851.048	797.59
851.483	341.49
851.918	136.69
852.353	79.89
852.788	58.89
853.223	52.49
853.657	47.39
854.092	44.49
854.527	36.79
854.962	38.39
855.397	40.49
855.832	48.89
856.266	38.69
856.701	32.69
857.136	33.49
857.57	36.69
858.005	43.29
858.44	57.69
858.874	40.99
859.309	47.29
859.743	33.59
860.178	46.39
860.612	37.59
861.047	50.59
861.481	56.09
861.915	63.69
862.35	44.99
862.784	35.69
863.218	37.49
863.653	28.59
864.087	46.99
864.521	47.59
864.955	63.99
865.39	131.59
865.824	157.39
866.258	96.89
866.692	148.59
867.126	156.29
867.56	93.39
867.994	46.99
868.428	33.39
868.862	43.89
869.296	49.99
869.73	52.99
870.164	51.89
870.598	45.99
871.031	35.39
871.465	29.99
871.899	27.69
872.333	18.99
872.766	26.69
873.2	21.99
873.634	34.19
874.067	26.49
874.501	27.79
874.935	25.99
875.368	23.79
875.802	19.79
876.235	21.19
876.669	18.39
877.102	20.29
877.535	25.19
877.969	15.19
878.402	23.89
878.836	21.29
879.269	19.89
879.702	18.99
880.135	19.29
880.569	15.89
881.002	25.49
881.435	17.99
881.868	12.69
882.301	22.29
882.734	13.79
883.167	22.59
883.601	18.49
884.034	21.39
884.467	7.99
884.899	23.19
885.332	18.09
885.765	16.69
886.198	10.59
886.631	15.49
887.064	11.89
887.497	19.39
887.929	24.09
888.362	10.69
888.795	12.19
889.228	14.29
889.66	19.19
890.093	19.69
890.526	9.99
890.958	18.19
891.391	16.79
891.823	17.69
892.256	11.89
892.688	11.69
893.121	8.99
893.553	10.09
893.985	17.99
894.418	20.59
894.85	10.99
895.282	7.29
895.715	18.39
896.147	17.39
896.579	17.89
897.011	11.89
897.444	15.59
897.876	16.19
898.308	11.89
898.74	15.99
899.172	14.99
899.604	21.09
900.036	15.19
900.468	7.79
900.9	13.99
901.332	12.19
901.764	7.19
902.196	11.19
902.628	15.79
903.06	14.59
903.491	20.59
903.923	22.19
904.355	18.19
904.787	22.39
905.218	22.39
905.65	21.99
906.082	9.49
906.513	9.59
906.945	10.49
907.376	12.89
907.808	20.89
908.239	18.99
908.671	15.09
909.102	18.89
909.534	25.39
909.965	40.59
910.397	78.59
910.828	283.49
911.259	434.19
911.691	198.89
912.122	91.09
912.553	44.99
912.984	31.59
913.415	31.29
913.847	20.39
914.278	12.89
914.709	17.79
915.14	15.99
915.571	13.59
916.002	10.39
916.433	13.99
916.864	12.19
917.295	7.89
917.726	26.89
918.157	14.79
918.587	30.69
919.018	21.49
919.449	17.19
919.88	20.69
920.311	29.99
920.741	43.99
921.172	150.99
921.603	138.99
922.033	64.09
922.464	38.89
922.895	23.99
923.325	20.49
923.756	12.29
924.186	9.79
924.617	28.49
925.047	39.89
925.478	49.39
925.908	42.69
926.338	22.59
926.769	13.09
927.199	16.89
927.629	7.79
928.06	13.99
928.49	16.09
928.92	14.19
929.35	14.29
929.78	12.79
930.21	5.89
930.641	4.89
931.071	5.99
931.501	1.49
931.931	4.19
932.361	7.19
932.791	-4.81
933.221	-2.01
933.651	3.99
934.08	13.79
934.51	31.79
934.94	13.69
935.37	11.99
935.8	11.09
936.229	4.49
936.659	8.99
937.089	4.99
937.519	17.79
937.948	23.19
938.378	17.29
938.807	4.79
939.237	1.89
939.666	3.19
940.096	-7.01
940.525	-0.31
940.955	-2.11
941.384	1.49
941.814	0.89
942.243	-2.91
942.672	5.79
943.102	-0.01
943.531	2.59
943.96	2.89
944.39	-1.41
944.819	1.99
945.248	2.19
945.677	3.89
946.106	11.09
946.535	-0.31
946.964	0.49
947.393	8.09
947.822	3.19
948.251	-3.41
948.68	2.79
949.109	5.99
949.538	10.89
949.967	2.99
950.396	3.99
950.825	-3.71
951.254	2.59
951.682	-6.21
952.111	7.59
952.54	1.79
952.969	-10.11
953.397	-8.01
953.826	-0.41
954.254	-3.31
954.683	2.39
955.112	-7.41
955.54	0.69
955.969	5.99
956.397	-1.71
956.826	0.89
957.254	0.49
957.682	2.49
958.111	0.19
958.539	-0.01
958.967	-4.31
959.396	-2.61
959.824	5.19
960.252	6.29
960.68	-1.81
961.109	1.29
961.537	-4.71
961.965	-3.61
962.393	-0.01
962.821	-4.21
963.249	8.59
963.677	1.39
964.105	5.89
964.533	42.09
964.961	36.19
965.389	17.39
965.817	7.19
966.245	5.69
966.672	-2.81
967.1	0.49
967.528	4.09
967.956	0.29
968.383	5.09
968.811	-2.11
969.239	-0.81
969.666	-7.41
970.094	0.79
970.522	-0.21
970.949	-4.11
971.377	-6.81
971.804	-3.41
972.232	-4.01
972.659	-3.41
973.087	-9.91
973.514	-3.61
973.941	-5.51
974.369	1.39
974.796	0.49
975.223	-0.51
975.651	-5.81
976.078	4.59
976.505	-4.21
976.932	3.59
977.359	10.69
977.786	13.99
978.214	-4.11
978.641	-1.81
979.068	-6.91
979.495	-6.21
979.922	-3.01
980.349	-2.41
980.776	3.19
981.202	2.69
981.629	1.69
982.056	3.69
982.483	-2.81
982.91	-5.21
983.337	-4.91
983.763	-2.11
984.19	-5.91
984.617	4.99
985.043	-3.31
985.47	-3.01
985.897	-13.31
986.323	-7.21
986.75	0.09
987.176	2.49
987.603	6.49
988.029	4.29
988.456	-9.41
988.882	-0.81
989.308	-8.81
989.735	-2.11
990.161	-1.11
990.587	-3.31
991.014	5.59
991.44	6.49
991.866	-2.61
992.292	-3.81
992.719	-2.11
993.145	2.69
993.571	-3.21
993.997	-5.21
994.423	-4.81
994.849	-4.91
995.275	0.99
995.701	-0.41
996.127	-4.31
996.553	-0.31
996.979	-4.61
997.405	-3.31
997.83	-3.71
998.256	-7.81
998.682	-6.01
999.108	-6.91
999.534	-0.51
999.959	-1.81
1000.385	-2.51
1000.811	3.29
1001.236	-3.81
1001.662	-6.21
1002.087	-10.51
1002.513	-1.61
1002.938	0.69
1003.364	-4.21
1003.789	0.99
1004.215	3.49
1004.64	1.19
1005.066	2.99
1005.491	2.29
1005.916	-5.01
1006.342	0.59
1006.767	-6.41
1007.192	7.09
1007.617	-3.41
1008.042	0.99
1008.468	-7.61
1008.893	-3.61
1009.318	0.69
1009.743	1.49
1010.168	0.99
1010.593	2.59
1011.018	-9.71
1011.443	-1.31
1011.868	-1.51
1012.293	-2.21
1012.718	-4.01
1013.143	-3.01
1013.567	-1.31
1013.992	-4.71
1014.417	-11.21
1014.842	1.59
1015.267	-4.81
1015.691	-2.71
1016.116	4.79
1016.541	-3.41
1016.965	2.39
1017.39	0.89
1017.814	-2.31
1018.239	-4.21
1018.663	-6.51
1019.088	-10.41
1019.512	1.49
1019.937	2.39
1020.361	-4.41
1020.785	-6.81
1021.21	0.19
1021.634	-1.81
1022.058	3.79
1022.483	7.59
1022.907	-4.21
1023.331	-2.51
1023.755	-9.61
1024.179	-4.21
1024.604	-2.71
1025.028	-5.21
1025.452	-2.31
1025.876	-4.91
1026.3	8.29
1026.724	-11.01
1027.148	-2.81
1027.572	-8.91
1027.996	-4.91
1028.42	0.79
1028.843	-1.61
1029.267	-0.21
1029.691	-5.01
1030.115	-3.51
1030.539	-0.61
1030.962	-10.41
1031.386	-13.01
1031.81	-5.71
1032.233	-1.71
1032.657	-5.91
1033.08	-0.31
1033.504	-0.01
1033.927	-6.01
1034.351	-8.41
1034.774	-3.61
1035.198	-0.41
1035.621	-7.61
1036.045	-6.21
1036.468	3.19
1036.891	-11.81
1037.315	-4.41
1037.738	-4.21
1038.161	-2.41
1038.584	1.29
1039.008	-6.51
1039.431	-2.31
1039.854	-5.21
1040.277	-8.61
1040.7	-9.41
1041.123	-2.91
1041.546	-7.91
1041.969	-4.81
1042.392	-2.21
1042.815	-1.71
1043.238	-0.41
1043.661	-2.31
1044.084	-8.71
1044.507	-8.31
1044.93	-7.31
1045.352	-7.61
1045.775	-2.31
1046.198	2.69
1046.621	3.49
1047.043	3.09
1047.466	7.59
1047.889	-7.01
1048.311	-5.01
1048.734	-4.51
1049.156	-2.81
1049.579	-5.61
1050.001	-4.61
1050.424	-1.41
1050.846	-4.71
1051.269	-3.51
1051.691	-8.01
1052.113	-3.21
1052.536	-4.91
1052.958	3.29
1053.38	-5.41
1053.802	-10.11
1054.225	2.19
1054.647	-12.21
1055.069	-13.61
1055.491	0.09
1055.913	-0.01
1056.335	1.39
1056.757	-5.71
1057.179	-7.11
1057.601	-5.91
1058.023	-2.41
1058.445	-1.91
1058.867	-5.61
1059.289	-1.41
1059.711	-1.71
1060.133	-0.81
1060.555	-3.41
1060.976	-11.11
1061.398	-9.21
1061.82	-9.01
1062.241	-3.91
1062.663	-6.41
1063.085	-9.91
1063.506	-2.11
1063.928	-8.21
1064.35	0.39
1064.771	-6.01
1065.193	-1.01
1065.614	-9.41
1066.035	-4.91
1066.457	-5.51
1066.878	3.89
1067.3	0.19
1067.721	-2.51
1068.142	-1.31
1068.564	-7.01
1068.985	-1.41
1069.406	-8.11
1069.827	-5.61
1070.248	3.79
1070.67	-5.81
1071.091	-5.51
1071.512	-4.01
1071.933	-4.51
1072.354	-9.71
1072.775	-5.51
1073.196	-5.21
1073.617	-4.41
1074.038	-7.71
1074.459	0.69
1074.88	-8.61
1075.3	-1.41
1075.721	-7.11
1076.142	0.19
1076.563	-0.91
1076.983	-12.51
1077.404	-7.11
1077.825	-6.61
1078.246	2.49
1078.666	-12.91
1079.087	-3.51
1079.507	-1.71
1079.928	-2.81
1080.348	-3.51
1080.769	-5.01
1081.189	-2.11
1081.61	-1.61
1082.03	-2.21
1082.451	-7.71
1082.871	-8.21
1083.291	-9.31
1083.711	-9.71
1084.132	-5.61
1084.552	-4.51
1084.972	-2.31
1085.392	-12.21
1085.813	-9.11
1086.233	-8.01
1086.653	-10.31
1087.073	-4.01
1087.493	-4.21
1087.913	-3.71
1088.333	-5.41
1088.753	-4.01
1089.173	-0.51
1089.593	0.09
1090.013	4.79
1090.433	-2.91
1090.852	-2.31
1091.272	-0.71
1091.692	0.49
1092.112	-4.91
1092.531	-1.21
1092.951	-14.31
1093.371	-3.01
1093.79	1.99
1094.21	-2.51
1094.63	-1.81
1095.049	-2.01
1095.469	1.59
1095.888	-5.21
1096.308	1.29
1096.727	0.09
1097.146	-7.01
1097.566	4.49
1097.985	-2.11
1098.405	-1.61
1098.824	-0.31
1099.243	-6.11
1099.662	-8.41
1100.082	-6.01
1100.501	-2.91
1100.92	-11.11
1101.339	-1.71
1101.758	-5.41
