Data from 20171114-ORNL-Ar_H_NY_Subt18_08-08-04-465.txt Node
Date: Tue Nov 14 08:08:04 EST 2017
User: Ender
Spectrometer: HR+D1039
Trigger mode: 0
Integration Time (sec): 2.730000E-2
Scans to average: 10
Electric dark correction enabled: true
Nonlinearity correction enabled: false
Boxcar width: 0
XAxis mode: Wavelengths
Number of Pixels in Spectrum: 2048
>>>>>Begin Spectral Data<<<<<
187.836	-10.49
188.309	-10.49
188.782	-10.49
189.255	-3.59
189.728	-4.99
190.201	5.61
190.674	-1.09
191.147	5.11
191.619	-9.19
192.092	3.71
192.565	9.91
193.038	1.91
193.511	3.21
193.984	-1.09
194.456	2.01
194.929	1.01
195.402	-2.59
195.874	0.61
196.347	0.31
196.82	-3.29
197.292	3.41
197.765	0.11
198.237	-2.69
198.71	3.11
199.182	-3.09
199.655	-1.89
200.127	1.61
200.6	-4.79
201.072	1.21
201.544	-5.39
202.017	-3.49
202.489	3.41
202.961	-1.49
203.433	-2.39
203.906	-2.89
204.378	-4.79
204.85	-0.19
205.322	-8.69
205.794	-0.69
206.266	-0.79
206.739	-5.19
207.211	1.81
207.683	-3.29
208.155	-7.09
208.627	-6.79
209.099	-5.69
209.57	-9.09
210.042	-4.59
210.514	2.91
210.986	-6.39
211.458	-7.29
211.93	1.71
212.402	-0.29
212.873	-6.29
213.345	-10.29
213.817	-6.59
214.288	-8.09
214.76	-9.39
215.232	-8.09
215.703	-4.99
216.175	-5.79
216.646	-3.99
217.118	-5.69
217.589	-3.89
218.061	-1.09
218.532	-2.29
219.004	-2.39
219.475	-7.39
219.946	2.21
220.418	-11.19
220.889	-1.29
221.36	9.01
221.832	-6.19
222.303	-7.79
222.774	-3.89
223.245	-8.39
223.717	-5.79
224.188	-2.49
224.659	-0.59
225.13	-2.69
225.601	-5.09
226.072	4.81
226.543	-2.49
227.014	1.41
227.485	1.21
227.956	-6.79
228.427	-9.09
228.898	0.71
229.369	-1.29
229.839	-7.99
230.31	-11.19
230.781	5.51
231.252	-0.49
231.722	1.81
232.193	-10.29
232.664	1.31
233.135	4.71
233.605	1.31
234.076	-3.69
234.546	-0.59
235.017	6.51
235.487	3.71
235.958	-2.19
236.428	-4.89
236.899	-4.69
237.369	4.31
237.84	2.11
238.31	2.11
238.78	1.51
239.251	4.11
239.721	2.01
240.191	2.31
240.662	-0.39
241.132	1.91
241.602	-1.19
242.072	1.31
242.542	9.41
243.013	1.41
243.483	6.11
243.953	2.01
244.423	2.01
244.893	-5.89
245.363	-0.39
245.833	6.81
246.303	1.81
246.773	4.51
247.243	0.21
247.712	3.01
248.182	8.31
248.652	4.81
249.122	-2.39
249.592	10.71
250.061	25.51
250.531	30.01
251.001	13.81
251.471	15.51
251.94	18.61
252.41	4.31
252.879	2.01
253.349	16.41
253.818	8.61
254.288	2.81
254.757	5.51
255.227	-0.79
255.696	-1.69
256.166	5.01
256.635	2.41
257.105	7.71
257.574	6.01
258.043	6.21
258.513	11.31
258.982	15.91
259.451	7.21
259.92	14.31
260.389	12.71
260.859	16.41
261.328	15.81
261.797	18.81
262.266	11.51
262.735	13.61
263.204	3.81
263.673	3.51
264.142	2.81
264.611	-5.69
265.08	-1.09
265.549	-1.19
266.018	5.61
266.487	-4.99
266.955	-2.39
267.424	-1.99
267.893	5.81
268.362	-2.49
268.83	6.61
269.299	14.41
269.768	2.11
270.236	1.31
270.705	0.01
271.174	0.81
271.642	6.61
272.111	7.71
272.579	16.41
273.048	24.21
273.516	35.11
273.985	25.91
274.453	19.81
274.922	14.61
275.39	7.71
275.858	5.51
276.327	7.31
276.795	18.11
277.263	13.61
277.731	30.81
278.2	58.81
278.668	53.81
279.136	48.21
279.604	18.91
280.072	13.81
280.54	14.31
281.008	5.01
281.477	14.91
281.945	10.51
282.413	20.41
282.881	16.01
283.348	4.51
283.816	12.11
284.284	13.11
284.752	19.41
285.22	15.11
285.688	18.61
286.156	16.61
286.623	48.21
287.091	57.81
287.559	28.81
288.026	14.91
288.494	16.01
288.962	6.31
289.429	14.01
289.897	13.51
290.364	15.81
290.832	16.11
291.3	19.51
291.767	16.51
292.234	21.01
292.702	12.61
293.169	18.91
293.637	20.81
294.104	23.51
294.571	7.21
295.039	13.91
295.506	15.01
295.973	23.61
296.44	11.91
296.908	16.41
297.375	10.51
297.842	16.81
298.309	15.61
298.776	20.31
299.243	22.61
299.71	9.21
300.177	25.01
300.644	25.31
301.111	24.01
301.578	25.21
302.045	17.01
302.512	25.31
302.979	24.61
303.446	24.51
303.913	20.11
304.379	18.71
304.846	22.81
305.313	23.21
305.78	23.81
306.246	30.51
306.713	22.01
307.18	23.11
307.646	28.01
308.113	25.11
308.579	25.11
309.046	25.91
309.512	25.41
309.979	17.71
310.445	30.71
310.912	27.71
311.378	28.61
311.845	34.31
312.311	32.61
312.777	30.41
313.244	27.71
313.71	39.41
314.176	30.71
314.642	34.11
315.109	32.41
315.575	38.41
316.041	28.31
316.507	32.21
316.973	36.11
317.439	29.41
317.905	34.71
318.371	30.41
318.837	35.21
319.303	35.71
319.769	31.51
320.235	36.41
320.701	32.71
321.167	38.91
321.633	36.81
322.099	35.61
322.564	39.01
323.03	40.31
323.496	36.31
323.962	32.31
324.427	37.31
324.893	40.71
325.359	36.21
325.824	36.31
326.29	34.11
326.755	35.71
327.221	39.71
327.686	35.51
328.152	43.21
328.617	34.61
329.083	40.31
329.548	49.51
330.014	45.71
330.479	40.01
330.944	46.41
331.41	42.41
331.875	38.91
332.34	43.91
332.805	43.21
333.271	46.31
333.736	45.21
334.201	50.61
334.666	53.91
335.131	53.11
335.596	48.81
336.061	49.01
336.526	40.81
336.991	46.51
337.456	44.51
337.921	40.51
338.386	41.71
338.851	46.41
339.316	41.91
339.781	48.41
340.246	58.51
340.711	47.51
341.175	43.91
341.64	44.61
342.105	49.21
342.569	48.81
343.034	55.81
343.499	49.91
343.963	57.21
344.428	61.11
344.893	58.31
345.357	63.91
345.822	62.71
346.286	70.91
346.751	65.31
347.215	69.61
347.679	77.01
348.144	98.01
348.608	72.51
349.073	66.31
349.537	78.11
350.001	78.21
350.465	87.01
350.93	76.51
351.394	78.31
351.858	69.11
352.322	82.01
352.786	86.01
353.25	98.41
353.715	111.51
354.179	99.51
354.643	119.61
355.107	122.01
355.571	103.21
356.035	100.51
356.498	119.21
356.962	120.41
357.426	127.31
357.89	113.51
358.354	82.71
358.818	85.11
359.281	78.01
359.745	79.41
360.209	71.91
360.673	68.91
361.136	79.61
361.6	80.91
362.064	82.71
362.527	81.41
362.991	89.21
363.454	80.01
363.918	76.11
364.381	79.41
364.845	78.91
365.308	84.81
365.772	85.71
366.235	83.51
366.698	80.31
367.162	77.61
367.625	84.41
368.088	86.51
368.552	89.71
369.015	88.21
369.478	97.01
369.941	103.81
370.404	95.21
370.867	97.71
371.331	108.61
371.794	110.11
372.257	110.51
372.72	113.81
373.183	112.21
373.646	106.61
374.109	93.81
374.572	104.91
375.035	108.21
375.497	110.61
375.96	106.81
376.423	104.41
376.886	109.31
377.349	106.41
377.811	93.41
378.274	106.91
378.737	108.41
379.199	106.11
379.662	117.81
380.125	116.11
380.587	119.21
381.05	119.61
381.512	135.01
381.975	134.21
382.437	133.11
382.9	130.61
383.362	129.41
383.825	140.61
384.287	150.01
384.75	144.21
385.212	138.01
385.674	145.51
386.136	139.31
386.599	129.11
387.061	128.61
387.523	135.01
387.985	138.41
388.447	152.71
388.91	147.01
389.372	163.31
389.834	159.81
390.296	148.71
390.758	158.51
391.22	171.61
391.682	210.61
392.144	303.61
392.606	236.91
393.068	170.61
393.529	163.51
393.991	159.61
394.453	148.71
394.915	153.71
395.377	197.81
395.838	221.51
396.3	163.41
396.762	139.71
397.224	132.61
397.685	138.21
398.147	133.81
398.608	131.61
399.07	139.61
399.531	137.91
399.993	147.41
400.454	153.31
400.916	140.31
401.377	146.91
401.839	145.41
402.3	152.11
402.762	161.21
403.223	183.01
403.684	177.31
404.145	160.11
404.607	159.91
405.068	165.11
405.529	170.01
405.99	191.41
406.451	179.11
406.913	172.31
407.374	164.01
407.835	162.11
408.296	167.31
408.757	170.31
409.218	190.41
409.679	175.21
410.14	177.11
410.601	186.41
411.062	187.41
411.522	191.61
411.983	189.11
412.444	176.41
412.905	176.91
413.366	175.91
413.826	192.21
414.287	211.81
414.748	258.71
415.208	245.01
415.669	212.11
416.13	206.11
416.59	204.21
417.051	207.11
417.511	215.01
417.972	238.01
418.432	245.11
418.893	287.01
419.353	254.71
419.814	205.91
420.274	176.91
420.734	184.91
421.195	200.61
421.655	195.31
422.115	192.71
422.576	193.61
423.036	201.81
423.496	206.71
423.956	216.61
424.416	231.21
424.876	264.11
425.336	260.21
425.797	260.91
426.257	253.91
426.717	247.21
427.177	233.51
427.637	221.31
428.097	232.11
428.556	243.41
429.016	271.71
429.476	269.21
429.936	278.81
430.396	276.71
430.856	294.41
431.315	317.21
431.775	349.11
432.235	376.31
432.694	358.91
433.154	369.51
433.614	401.41
434.073	334.91
434.533	288.41
434.993	277.01
435.452	284.51
435.912	301.31
436.371	297.91
436.83	286.41
437.29	275.21
437.749	246.01
438.209	244.01
438.668	276.51
439.127	290.41
439.587	269.61
440.046	244.41
440.505	257.61
440.964	280.81
441.424	327.41
441.883	307.11
442.342	256.81
442.801	221.51
443.26	219.01
443.719	226.51
444.178	220.81
444.637	205.11
445.096	212.61
445.555	221.21
446.014	226.81
446.473	229.11
446.932	229.21
447.391	221.71
447.849	231.81
448.308	216.81
448.767	218.31
449.226	236.91
449.685	234.81
450.143	239.31
450.602	236.31
451.061	226.21
451.519	229.21
451.978	234.71
452.436	231.11
452.895	239.71
453.353	252.11
453.812	244.01
454.27	239.11
454.729	238.21
455.187	238.61
455.646	245.71
456.104	240.81
456.562	255.51
457.021	272.41
457.479	264.71
457.937	277.61
458.395	266.31
458.854	246.51
459.312	258.71
459.77	274.71
460.228	254.61
460.686	235.31
461.144	250.31
461.602	242.61
462.06	238.61
462.518	255.51
462.976	260.51
463.434	258.01
463.892	260.71
464.35	274.11
464.808	288.61
465.266	266.31
465.724	269.91
466.181	276.11
466.639	265.41
467.097	288.31
467.555	301.71
468.012	300.51
468.47	308.41
468.928	323.21
469.385	338.61
469.843	346.11
470.3	347.21
470.758	356.81
471.215	385.01
471.673	412.31
472.13	405.41
472.588	416.41
473.045	372.31
473.503	379.51
473.96	391.91
474.417	401.91
474.875	436.81
475.332	473.21
475.789	464.21
476.246	469.71
476.704	482.91
477.161	511.51
477.618	522.01
478.075	557.01
478.532	616.71
478.989	703.51
479.446	812.21
479.903	768.21
480.36	809.31
480.817	855.91
481.274	968.41
481.731	1067.21
482.188	1162.01
482.645	1303.81
483.102	1392.11
483.558	1536.41
484.015	1590.31
484.472	1572.11
484.929	1523.81
485.385	1468.01
485.842	1431.81
486.299	1354.11
486.755	1295.21
487.212	1085.51
487.668	924.61
488.125	842.91
488.582	772.61
489.038	744.11
489.494	708.41
489.951	669.71
490.407	659.21
490.864	638.71
491.32	636.61
491.776	635.71
492.233	638.71
492.689	611.51
493.145	608.91
493.602	603.01
494.058	611.11
494.514	607.31
494.97	642.71
495.426	645.81
495.882	615.81
496.338	604.91
496.794	618.81
497.251	613.01
497.707	625.81
498.163	637.81
498.618	636.81
499.074	644.81
499.53	667.81
499.986	670.51
500.442	647.31
500.898	628.01
501.354	622.01
501.809	638.81
502.265	640.71
502.721	654.31
503.177	675.41
503.632	664.61
504.088	677.91
504.543	719.01
504.999	703.01
505.455	655.71
505.91	621.11
506.366	625.41
506.821	618.01
507.277	623.81
507.732	625.31
508.187	625.81
508.643	623.41
509.098	627.31
509.553	643.31
510.009	654.81
510.464	658.91
510.919	671.01
511.375	683.51
511.83	698.01
512.285	714.41
512.74	761.61
513.195	778.71
513.65	767.51
514.105	757.91
514.56	766.51
515.015	781.51
515.47	790.31
515.925	771.81
516.38	772.21
516.835	779.01
517.29	767.41
517.745	763.11
518.2	752.91
518.655	742.91
519.109	735.91
519.564	738.71
520.019	722.01
520.474	718.71
520.928	716.91
521.383	714.71
521.838	700.71
522.292	709.11
522.747	707.91
523.201	694.81
523.656	686.51
524.11	681.61
524.565	697.91
525.019	679.91
525.474	700.21
525.928	689.01
526.382	687.91
526.837	689.01
527.291	694.41
527.745	686.31
528.2	693.91
528.654	691.81
529.108	680.51
529.562	686.21
530.016	679.51
530.47	687.41
530.925	682.31
531.379	681.51
531.833	692.11
532.287	690.01
532.741	693.71
533.195	690.61
533.649	706.41
534.103	713.71
534.556	701.31
535.01	705.61
535.464	709.01
535.918	710.31
536.372	711.01
536.826	711.91
537.279	694.21
537.733	709.01
538.187	718.51
538.64	706.41
539.094	713.91
539.548	718.31
540.001	719.31
540.455	720.51
540.908	716.31
541.362	730.81
541.815	737.91
542.269	758.71
542.722	753.51
543.175	764.21
543.629	762.81
544.082	775.41
544.536	780.51
544.989	776.31
545.442	775.61
545.895	778.41
546.349	791.81
546.802	790.31
547.255	786.71
547.708	788.61
548.161	806.61
548.614	810.11
549.067	829.21
549.52	808.71
549.973	796.21
550.426	798.61
550.879	785.01
551.332	796.91
551.785	797.31
552.238	795.61
552.691	814.01
553.144	827.11
553.596	840.01
554.049	853.21
554.502	875.61
554.955	903.81
555.407	894.51
555.86	886.41
556.313	883.61
556.765	874.31
557.218	867.81
557.67	879.31
558.123	864.91
558.576	858.31
559.028	861.01
559.48	871.81
559.933	856.51
560.385	829.91
560.838	799.91
561.29	782.21
561.742	772.21
562.195	759.01
562.647	757.41
563.099	763.21
563.551	760.41
564.004	780.51
564.456	767.11
564.908	754.91
565.36	744.91
565.812	722.21
566.264	719.31
566.716	728.21
567.168	707.91
567.62	718.51
568.072	707.81
568.524	694.31
568.976	674.41
569.428	670.11
569.88	664.81
570.332	676.81
570.784	676.21
571.235	677.41
571.687	686.51
572.139	695.81
572.59	705.31
573.042	700.81
573.494	701.61
573.945	695.01
574.397	686.01
574.849	678.91
575.3	683.41
575.752	679.61
576.203	673.91
576.655	685.61
577.106	669.71
577.557	661.31
578.009	661.01
578.46	662.21
578.912	651.11
579.363	656.61
579.814	664.41
580.265	668.61
580.717	667.51
581.168	662.31
581.619	674.51
582.07	681.11
582.521	668.81
582.972	659.41
583.423	674.51
583.875	679.41
584.326	697.21
584.777	757.31
585.227	831.61
585.678	924.31
586.129	1022.51
586.58	1110.11
587.031	1194.21
587.482	1342.41
587.933	1536.11
588.384	1330.21
588.834	985.11
589.285	808.41
589.736	779.71
590.186	767.91
590.637	756.31
591.088	739.61
591.538	737.61
591.989	727.81
592.439	727.41
592.89	716.41
593.34	706.21
593.791	704.41
594.241	705.71
594.692	710.01
595.142	703.61
595.593	698.71
596.043	702.61
596.493	714.81
596.943	712.01
597.394	722.61
597.844	717.21
598.294	729.31
598.744	749.51
599.195	769.91
599.645	807.91
600.095	849.81
600.545	912.81
600.995	960.41
601.445	1016.21
601.895	1083.21
602.345	1128.91
602.795	1098.31
603.245	1055.61
603.695	1001.21
604.145	953.41
604.594	902.91
605.044	850.21
605.494	800.61
605.944	747.81
606.393	728.41
606.843	726.31
607.293	725.41
607.743	730.21
608.192	740.01
608.642	751.81
609.091	761.71
609.541	770.51
609.99	768.91
610.44	764.31
610.889	723.81
611.339	698.21
611.788	689.51
612.238	700.71
612.687	716.11
613.136	725.51
613.586	738.71
614.035	742.51
614.484	765.91
614.933	762.41
615.383	754.91
615.832	743.61
616.281	727.41
616.73	696.21
617.179	666.21
617.628	656.31
618.077	643.91
618.526	620.01
618.975	622.11
619.424	612.91
619.873	619.31
620.322	619.91
620.771	604.01
621.22	600.81
621.669	587.01
622.118	578.71
622.567	577.01
623.015	569.31
623.464	563.61
623.913	561.11
624.361	555.01
624.81	546.71
625.259	560.11
625.707	557.21
626.156	555.81
626.604	563.51
627.053	564.61
627.501	566.71
627.95	568.11
628.398	580.11
628.847	566.51
629.295	569.31
629.744	568.71
630.192	573.91
630.64	577.31
631.089	578.41
631.537	592.21
631.985	594.91
632.433	601.51
632.881	621.01
633.33	668.71
633.778	662.11
634.226	574.01
634.674	585.31
635.122	583.61
635.57	597.31
636.018	639.11
636.466	588.61
636.914	556.11
637.362	569.71
637.81	580.71
638.258	581.81
638.705	585.91
639.153	609.21
639.601	610.11
640.049	644.01
640.497	673.81
640.944	694.11
641.392	638.61
641.84	614.61
642.287	579.41
642.735	565.81
643.182	572.41
643.63	571.01
644.078	577.41
644.525	588.71
644.973	602.41
645.42	613.41
645.867	631.51
646.315	637.21
646.762	663.01
647.21	694.71
647.657	720.91
648.104	758.51
648.551	780.71
648.999	849.91
649.446	927.01
649.893	1022.51
650.34	1179.81
650.787	1415.91
651.234	1754.41
651.682	2297.11
652.129	3165.21
652.576	4594.81
653.023	6773.61
653.47	9246.01
653.917	11475.51
654.363	13144.41
654.81	14479.81
655.257	13763.11
655.704	8987.31
656.151	5309.51
656.598	3445.91
657.044	2433.41
657.491	1880.71
657.938	1510.31
658.385	1244.21
658.831	1077.71
659.278	960.51
659.724	850.91
660.171	784.41
660.618	726.31
661.064	687.41
661.511	669.01
661.957	662.41
662.404	647.31
662.85	655.31
663.296	629.21
663.743	563.81
664.189	542.01
664.635	532.91
665.082	526.11
665.528	533.31
665.974	512.61
666.42	510.21
666.867	500.11
667.313	493.71
667.759	482.21
668.205	481.11
668.651	490.91
669.097	497.11
669.543	505.11
669.989	485.91
670.435	444.11
670.881	448.91
671.327	448.61
671.773	467.51
672.219	487.31
672.665	552.21
673.11	575.71
673.556	615.01
674.002	657.51
674.448	655.51
674.893	546.11
675.339	476.61
675.785	435.11
676.23	418.81
676.676	395.71
677.122	387.31
677.567	368.31
678.013	364.91
678.458	359.91
678.904	352.61
679.349	345.91
679.794	352.11
680.24	351.61
680.685	343.71
681.131	354.31
681.576	352.21
682.021	354.41
682.466	342.31
682.912	349.71
683.357	351.91
683.802	379.91
684.247	414.11
684.692	454.61
685.137	501.41
685.583	533.91
686.028	552.61
686.473	518.51
686.918	441.41
687.363	412.71
687.807	393.61
688.252	360.81
688.697	352.31
689.142	327.21
689.587	327.71
690.032	328.81
690.477	339.11
690.921	353.61
691.366	384.41
691.811	393.31
692.255	432.21
692.7	462.61
693.145	516.71
693.589	710.21
694.034	1150.61
694.478	1537.11
694.923	1707.41
695.367	2225.61
695.812	1176.21
696.256	496.61
696.701	372.21
697.145	351.01
697.59	326.01
698.034	326.51
698.478	336.01
698.922	334.71
699.367	331.21
699.811	339.71
700.255	356.41
700.699	386.61
701.143	428.71
701.588	480.71
702.032	524.01
702.476	515.71
702.92	486.81
703.364	492.61
703.808	649.51
704.252	1047.51
704.696	1463.11
705.14	1650.01
705.584	2086.51
706.027	1026.71
706.471	515.01
706.915	399.71
707.359	352.61
707.803	318.41
708.246	316.71
708.69	316.71
709.134	307.91
709.577	315.71
710.021	318.61
710.465	305.41
710.908	297.81
711.352	295.61
711.795	320.31
712.239	353.41
712.682	386.41
713.126	418.51
713.569	470.01
714.012	374.31
714.456	320.71
714.899	301.21
715.342	272.71
715.786	267.11
716.229	254.31
716.672	247.31
717.115	248.41
717.558	252.01
718.002	253.31
718.445	259.91
718.888	289.71
719.331	292.11
719.774	307.21
720.217	306.81
720.66	285.31
721.103	268.81
721.546	257.41
721.989	247.81
722.432	231.11
722.874	232.91
723.317	230.61
723.76	236.61
724.203	261.81
724.645	317.91
725.088	454.81
725.531	561.01
725.974	641.41
726.416	537.61
726.859	304.21
727.301	243.91
727.744	232.51
728.187	230.11
728.629	243.31
729.071	235.71
729.514	250.41
729.956	273.81
730.399	287.51
730.841	290.71
731.283	280.71
731.726	260.51
732.168	264.01
732.61	259.01
733.053	281.61
733.495	312.71
733.937	355.81
734.379	389.91
734.821	439.11
735.263	541.91
735.705	856.61
736.148	1616.51
736.59	2584.11
737.032	2972.91
737.474	2424.11
737.916	801.91
738.357	424.71
738.799	321.91
739.241	296.81
739.683	282.11
740.125	291.11
740.567	297.61
741.008	313.21
741.45	310.21
741.892	319.41
742.334	353.01
742.775	352.91
743.217	332.71
743.658	269.21
744.1	253.81
744.542	261.61
744.983	307.41
745.425	336.91
745.866	339.71
746.307	288.81
746.749	291.41
747.19	327.61
747.632	457.91
748.073	902.51
748.514	1895.61
748.956	2818.71
749.397	3563.41
749.838	2947.81
750.279	2892.01
750.72	1473.41
751.162	535.91
751.603	319.31
752.044	253.91
752.485	211.71
752.926	209.71
753.367	200.51
753.808	190.51
754.249	185.91
754.69	181.51
755.131	180.11
755.572	181.01
756.013	178.51
756.453	182.51
756.894	186.01
757.335	199.21
757.776	193.81
758.216	204.61
758.657	194.31
759.098	205.41
759.538	229.21
759.979	273.81
760.42	382.41
760.86	723.71
761.301	1889.01
761.741	4435.71
762.182	6256.51
762.622	4385.41
763.063	1286.31
763.503	538.71
763.943	353.51
764.384	348.01
764.824	409.71
765.264	444.61
765.705	321.21
766.145	217.71
766.585	191.71
767.025	185.71
767.465	188.41
767.906	258.11
768.346	323.31
768.786	354.01
769.226	269.61
769.666	326.61
770.106	639.31
770.546	1592.81
770.986	2596.61
771.426	2310.41
771.866	782.81
772.306	328.01
772.745	206.41
773.185	173.41
773.625	170.61
774.065	167.61
774.505	204.41
774.944	321.11
775.384	727.71
775.824	1275.21
776.263	1205.21
776.703	525.51
777.142	231.21
777.582	163.01
778.021	140.71
778.461	138.31
778.9	148.21
779.34	132.81
779.779	119.21
780.219	112.91
780.658	107.91
781.097	108.41
781.537	114.81
781.976	111.81
782.415	112.51
782.855	103.41
783.294	104.01
783.733	106.41
784.172	112.81
784.611	98.41
785.05	114.31
785.489	112.91
785.928	119.61
786.367	124.51
786.806	118.71
787.245	132.61
787.684	136.31
788.123	148.61
788.562	125.91
789.001	124.11
789.44	116.71
789.879	120.31
790.317	126.51
790.756	134.61
791.195	134.01
791.634	151.21
792.072	206.21
792.511	377.51
792.95	1040.11
793.388	2106.91
793.827	1887.31
794.265	669.11
794.704	279.71
795.142	183.11
795.581	152.31
796.019	132.41
796.458	126.31
796.896	130.11
797.334	132.31
797.773	154.11
798.211	216.31
798.649	454.81
799.087	1028.01
799.526	1584.81
799.964	2009.01
800.402	1958.71
800.84	747.11
801.278	292.61
801.716	179.41
802.154	155.21
802.592	145.31
803.03	141.01
803.468	134.71
803.906	145.41
804.344	153.81
804.782	145.91
805.22	133.91
805.658	128.61
806.096	151.01
806.533	154.41
806.971	179.61
807.409	223.51
807.847	310.11
808.284	684.21
808.722	1899.11
809.16	3244.11
809.597	3129.71
810.035	5385.51
810.472	5575.21
810.91	2037.01
811.347	784.81
811.785	400.61
812.222	254.51
812.66	193.91
813.097	163.01
813.535	141.71
813.972	129.01
814.409	122.61
814.846	104.91
815.284	111.91
815.721	106.71
816.158	105.81
816.595	128.81
817.032	183.81
817.47	196.61
817.907	166.81
818.344	153.61
818.781	125.91
819.218	107.51
819.655	131.31
820.092	187.81
820.529	210.61
820.966	175.01
821.403	130.61
821.839	117.91
822.276	98.41
822.713	120.51
823.15	131.71
823.587	113.91
824.023	144.11
824.46	301.11
824.897	898.61
825.333	1330.41
825.77	566.31
826.206	225.91
826.643	133.91
827.08	99.61
827.516	85.21
827.953	77.91
828.389	80.01
828.825	69.61
829.262	66.51
829.698	61.91
830.135	70.41
830.571	61.01
831.007	70.71
831.443	64.31
831.88	60.11
832.316	64.91
832.752	61.81
833.188	65.41
833.624	69.01
834.06	69.61
834.497	66.71
834.933	75.71
835.369	71.51
835.805	71.51
836.241	78.91
836.677	84.31
837.112	92.71
837.548	106.61
837.984	139.01
838.42	205.61
838.856	509.51
839.292	1528.31
839.727	2246.11
840.163	1056.31
840.599	926.81
841.034	2013.31
841.47	2055.41
841.906	759.91
842.341	334.71
842.777	231.31
843.212	322.81
843.648	313.41
844.083	155.01
844.519	94.91
844.954	78.91
845.39	53.61
845.825	62.91
846.261	57.31
846.696	55.81
847.131	59.41
847.566	55.21
848.002	56.11
848.437	53.81
848.872	61.51
849.307	59.11
849.742	87.61
850.177	188.01
850.613	569.11
851.048	861.21
851.483	378.01
851.918	156.11
852.353	90.21
852.788	68.91
853.223	59.61
853.657	54.91
854.092	44.01
854.527	40.31
854.962	44.51
855.397	50.71
855.832	54.71
856.266	40.01
856.701	42.71
857.136	40.61
857.57	45.21
858.005	51.01
858.44	56.11
858.874	53.31
859.309	55.71
859.743	44.61
860.178	45.81
860.612	47.11
861.047	46.81
861.481	61.31
861.915	69.11
862.35	51.51
862.784	38.71
863.218	39.91
863.653	36.51
864.087	47.21
864.521	53.21
864.955	67.81
865.39	156.01
865.824	174.01
866.258	115.11
866.692	162.81
867.126	169.41
867.56	102.11
867.994	51.81
868.428	31.91
868.862	43.41
869.296	56.81
869.73	59.31
870.164	49.91
870.598	44.31
871.031	31.31
871.465	24.91
871.899	26.91
872.333	26.31
872.766	25.41
873.2	21.41
873.634	31.71
874.067	26.21
874.501	25.51
874.935	35.81
875.368	32.71
875.802	28.81
876.235	25.11
876.669	28.51
877.102	22.31
877.535	24.71
877.969	24.31
878.402	24.51
878.836	17.21
879.269	23.81
879.702	21.71
880.135	20.11
880.569	28.01
881.002	27.21
881.435	26.91
881.868	18.01
882.301	22.81
882.734	14.91
883.167	20.91
883.601	19.51
884.034	23.31
884.467	16.51
884.899	19.61
885.332	16.91
885.765	21.21
886.198	14.61
886.631	17.81
887.064	16.81
887.497	21.01
887.929	26.31
888.362	16.01
888.795	19.31
889.228	14.61
889.66	20.21
890.093	17.11
890.526	19.51
890.958	15.01
891.391	15.51
891.823	20.61
892.256	14.91
892.688	9.91
893.121	14.41
893.553	15.11
893.985	24.11
894.418	23.11
894.85	7.91
895.282	13.91
895.715	10.51
896.147	19.51
896.579	17.61
897.011	13.81
897.444	18.91
897.876	16.11
898.308	18.01
898.74	16.41
899.172	16.31
899.604	22.51
900.036	13.71
900.468	16.51
900.9	15.41
901.332	19.81
901.764	14.31
902.196	22.11
902.628	22.61
903.06	21.51
903.491	36.11
903.923	19.31
904.355	20.01
904.787	29.81
905.218	23.61
905.65	17.31
906.082	9.41
906.513	10.61
906.945	16.91
907.376	17.71
907.808	13.81
908.239	22.51
908.671	18.01
909.102	21.41
909.534	22.61
909.965	47.71
910.397	96.01
910.828	314.41
911.259	468.41
911.691	215.21
912.122	105.41
912.553	50.41
912.984	37.81
913.415	26.31
913.847	28.11
914.278	15.31
914.709	16.01
915.14	21.61
915.571	16.01
916.002	18.31
916.433	19.41
916.864	16.61
917.295	8.51
917.726	19.81
918.157	21.21
918.587	26.81
919.018	21.81
919.449	23.61
919.88	25.31
920.311	30.61
920.741	47.11
921.172	165.31
921.603	148.81
922.033	74.01
922.464	44.01
922.895	28.11
923.325	23.21
923.756	20.71
924.186	17.41
924.617	28.81
925.047	44.21
925.478	49.51
925.908	47.01
926.338	29.01
926.769	24.61
927.199	23.91
927.629	12.21
928.06	12.11
928.49	18.81
928.92	15.41
929.35	9.71
929.78	7.41
930.21	11.11
930.641	9.01
931.071	10.61
931.501	4.61
931.931	9.41
932.361	4.31
932.791	3.81
933.221	4.71
933.651	0.61
934.08	18.11
934.51	33.51
934.94	9.21
935.37	7.91
935.8	5.11
936.229	11.11
936.659	13.01
937.089	1.31
937.519	13.81
937.948	22.81
938.378	15.31
938.807	2.51
939.237	2.01
939.666	12.01
940.096	2.91
940.525	3.91
940.955	4.91
941.384	1.51
941.814	-0.49
942.243	3.91
942.672	3.51
943.102	-2.59
943.531	-0.59
943.96	1.81
944.39	-1.59
944.819	5.71
945.248	5.71
945.677	-0.19
946.106	7.21
946.535	5.91
946.964	0.31
947.393	8.01
947.822	5.31
948.251	-3.09
948.68	9.61
949.109	3.61
949.538	7.41
949.967	1.51
950.396	2.81
950.825	2.31
951.254	-0.79
951.682	-7.49
952.111	5.51
952.54	7.21
952.969	1.51
953.397	-4.19
953.826	2.51
954.254	0.51
954.683	2.61
955.112	-0.89
955.54	1.31
955.969	0.51
956.397	4.21
956.826	1.61
957.254	3.51
957.682	0.51
958.111	8.31
958.539	1.21
958.967	-4.79
959.396	-1.99
959.824	2.81
960.252	0.71
960.68	-4.79
961.109	-0.59
961.537	-2.79
961.965	-0.89
962.393	2.41
962.821	-2.69
963.249	2.71
963.677	0.21
964.105	2.91
964.533	49.61
964.961	41.11
965.389	17.61
965.817	9.81
966.245	6.11
966.672	1.11
967.1	-8.09
967.528	-3.29
967.956	0.11
968.383	1.11
968.811	0.11
969.239	0.71
969.666	-6.69
970.094	6.31
970.522	1.31
970.949	1.01
971.377	-6.89
971.804	-2.39
972.232	-7.39
972.659	-0.79
973.087	-0.49
973.514	-3.19
973.941	-5.49
974.369	3.21
974.796	-4.49
975.223	-3.89
975.651	-3.29
976.078	2.91
976.505	-6.19
976.932	1.71
977.359	13.21
977.786	13.61
978.214	2.21
978.641	-0.59
979.068	-6.79
979.495	-3.39
979.922	-1.99
980.349	-0.69
980.776	-2.39
981.202	1.31
981.629	5.81
982.056	0.51
982.483	-3.29
982.91	7.31
983.337	-5.59
983.763	-1.29
984.19	-7.49
984.617	-5.09
985.043	-4.79
985.47	-2.69
985.897	-1.89
986.323	-6.99
986.75	4.71
987.176	-3.89
987.603	0.11
988.029	0.71
988.456	1.31
988.882	3.51
989.308	-7.09
989.735	-2.19
990.161	0.21
990.587	-8.89
991.014	-8.69
991.44	9.01
991.866	1.61
992.292	-1.89
992.719	3.31
993.145	1.51
993.571	-8.29
993.997	-7.19
994.423	-5.49
994.849	-0.09
995.275	1.01
995.701	5.81
996.127	2.31
996.553	4.41
996.979	0.51
997.405	-2.59
997.83	-2.69
998.256	-4.89
998.682	-6.29
999.108	-7.29
999.534	2.01
999.959	1.01
1000.385	-3.89
1000.811	1.91
1001.236	-10.59
1001.662	-2.89
1002.087	-1.99
1002.513	3.31
1002.938	3.31
1003.364	-3.99
1003.789	-5.59
1004.215	7.41
1004.64	-3.99
1005.066	1.41
1005.491	3.01
1005.916	-5.09
1006.342	0.81
1006.767	-0.79
1007.192	2.81
1007.617	-1.69
1008.042	-7.39
1008.468	-5.89
1008.893	-5.19
1009.318	-7.49
1009.743	-0.79
1010.168	4.51
1010.593	2.31
1011.018	-7.19
1011.443	5.11
1011.868	4.11
1012.293	-6.69
1012.718	-7.89
1013.143	3.71
1013.567	2.51
1013.992	-5.19
1014.417	-12.69
1014.842	0.11
1015.267	-5.59
1015.691	-4.59
1016.116	9.01
1016.541	-0.69
1016.965	-2.49
1017.39	-3.09
1017.814	1.21
1018.239	-7.19
1018.663	-7.29
1019.088	-8.99
1019.512	2.41
1019.937	-2.59
1020.361	-4.09
1020.785	-7.59
1021.21	-4.19
1021.634	2.11
1022.058	-4.89
1022.483	0.51
1022.907	-4.29
1023.331	-3.89
1023.755	-0.09
1024.179	0.41
1024.604	-2.19
1025.028	-10.39
1025.452	-7.09
1025.876	-1.09
1026.3	-3.09
1026.724	-7.79
1027.148	-2.49
1027.572	-7.79
1027.996	-1.49
1028.42	-3.19
1028.843	-3.79
1029.267	-11.29
1029.691	-4.69
1030.115	-5.49
1030.539	-8.99
1030.962	-6.79
1031.386	-9.09
1031.81	-0.59
1032.233	-2.89
1032.657	-2.99
1033.08	2.01
1033.504	-3.59
1033.927	0.31
1034.351	-0.09
1034.774	0.01
1035.198	-4.49
1035.621	-4.79
1036.045	-7.09
1036.468	0.01
1036.891	-6.79
1037.315	-2.79
1037.738	-2.59
1038.161	-2.79
1038.584	-13.09
1039.008	-7.29
1039.431	-3.79
1039.854	-3.89
1040.277	-6.29
1040.7	-5.49
1041.123	1.61
1041.546	-9.19
1041.969	-7.59
1042.392	-5.89
1042.815	-2.19
1043.238	1.51
1043.661	4.51
1044.084	-5.49
1044.507	-7.59
1044.93	-6.49
1045.352	-4.19
1045.775	4.11
1046.198	-2.99
1046.621	2.51
1047.043	-2.49
1047.466	1.91
1047.889	-5.29
1048.311	-6.29
1048.734	-7.49
1049.156	0.31
1049.579	-7.59
1050.001	-7.99
1050.424	-6.09
1050.846	-6.19
1051.269	-0.59
1051.691	-1.19
1052.113	-8.99
1052.536	-0.69
1052.958	-0.59
1053.38	-2.39
1053.802	-10.19
1054.225	5.61
1054.647	-5.09
1055.069	-4.89
1055.491	-1.59
1055.913	-4.79
1056.335	-3.09
1056.757	-9.89
1057.179	-8.79
1057.601	-5.29
1058.023	-5.89
1058.445	-8.89
1058.867	-3.29
1059.289	-0.89
1059.711	-13.59
1060.133	-4.89
1060.555	-5.99
1060.976	-3.49
1061.398	-1.99
1061.82	-3.39
1062.241	-3.59
1062.663	-4.19
1063.085	-3.89
1063.506	-4.19
1063.928	-4.19
1064.35	0.31
1064.771	-13.39
1065.193	1.31
1065.614	-6.49
1066.035	0.91
1066.457	-8.69
1066.878	5.61
1067.3	-2.59
1067.721	-6.39
1068.142	-3.09
1068.564	-1.79
1068.985	-4.89
1069.406	-4.79
1069.827	-6.49
1070.248	0.91
1070.67	-3.69
1071.091	-7.89
1071.512	-0.19
1071.933	-4.79
1072.354	-10.29
1072.775	-1.09
1073.196	-5.89
1073.617	-3.69
1074.038	-7.39
1074.459	-4.39
1074.88	-5.99
1075.3	0.21
1075.721	-6.09
1076.142	-2.19
1076.563	-4.09
1076.983	-11.29
1077.404	-7.49
1077.825	-12.19
1078.246	-0.89
1078.666	-14.99
1079.087	-6.59
1079.507	-7.89
1079.928	-3.59
1080.348	2.71
1080.769	-4.79
1081.189	-2.29
1081.61	-7.79
1082.03	-6.39
1082.451	-7.79
1082.871	-4.09
1083.291	-6.39
1083.711	-7.59
1084.132	-5.79
1084.552	-9.49
1084.972	0.11
1085.392	-8.19
1085.813	-5.69
1086.233	-10.79
1086.653	-9.79
1087.073	-2.69
1087.493	-3.89
1087.913	-1.19
1088.333	-5.49
1088.753	-5.99
1089.173	-0.89
1089.593	3.21
1090.013	-2.89
1090.433	2.71
1090.852	-7.29
1091.272	-0.99
1091.692	-0.49
1092.112	-6.59
1092.531	-1.89
1092.951	-12.89
1093.371	-8.89
1093.79	2.01
1094.21	-0.39
1094.63	-2.79
1095.049	-2.19
1095.469	-4.09
1095.888	-6.59
1096.308	-0.99
1096.727	1.31
1097.146	-1.69
1097.566	-2.89
1097.985	-7.49
1098.405	-5.29
1098.824	-7.89
1099.243	-10.19
1099.662	-6.69
1100.082	-4.69
1100.501	3.71
1100.92	-2.79
1101.339	-4.79
1101.758	-4.89
