Data from 20171114-ORNL-Ar_H_NY_Subt18_08-04-38-095.txt Node
Date: Tue Nov 14 08:04:38 EST 2017
User: Ender
Spectrometer: HR+D1039
Trigger mode: 0
Integration Time (sec): 2.730000E-2
Scans to average: 10
Electric dark correction enabled: true
Nonlinearity correction enabled: false
Boxcar width: 0
XAxis mode: Wavelengths
Number of Pixels in Spectrum: 2048
>>>>>Begin Spectral Data<<<<<
187.836	-4.81
188.309	-4.81
188.782	-4.81
189.255	-5.11
189.728	1.19
190.201	1.69
190.674	5.49
191.147	0.29
191.619	-7.91
192.092	1.09
192.565	8.69
193.038	1.49
193.511	0.59
193.984	3.09
194.456	-2.21
194.929	-0.51
195.402	-5.11
195.874	2.09
196.347	2.79
196.82	-8.31
197.292	9.79
197.765	-0.91
198.237	-10.01
198.71	5.59
199.182	-1.31
199.655	0.59
200.127	4.49
200.6	1.39
201.072	-4.31
201.544	-8.71
202.017	-7.71
202.489	-0.41
202.961	-3.61
203.433	2.59
203.906	-3.91
204.378	-3.91
204.85	-3.91
205.322	-5.01
205.794	1.59
206.266	-3.81
206.739	-10.21
207.211	4.29
207.683	-8.41
208.155	-4.81
208.627	-6.01
209.099	-1.21
209.57	-0.31
210.042	-0.41
210.514	-6.41
210.986	-6.71
211.458	-7.31
211.93	-4.41
212.402	2.09
212.873	-3.91
213.345	-10.81
213.817	-13.31
214.288	-5.11
214.76	-9.81
215.232	-0.71
215.703	-3.91
216.175	-7.01
216.646	-2.81
217.118	-6.21
217.589	-3.21
218.061	-0.61
218.532	-4.11
219.004	-6.81
219.475	0.59
219.946	1.09
220.418	-5.91
220.889	5.49
221.36	3.29
221.832	-6.71
222.303	-4.41
222.774	4.89
223.245	-4.41
223.717	-7.01
224.188	-3.81
224.659	-6.91
225.13	-9.81
225.601	-2.81
226.072	5.79
226.543	-2.31
227.014	3.19
227.485	-3.81
227.956	-10.51
228.427	-1.41
228.898	2.79
229.369	6.19
229.839	-0.01
230.31	-4.21
230.781	4.19
231.252	0.19
231.722	-7.81
232.193	-1.11
232.664	-2.61
233.135	1.49
233.605	2.29
234.076	-4.11
234.546	-0.51
235.017	-0.61
235.487	-0.01
235.958	0.69
236.428	3.79
236.899	1.49
237.369	2.19
237.84	2.69
238.31	10.59
238.78	0.49
239.251	-1.81
239.721	2.39
240.191	5.09
240.662	0.89
241.132	0.19
241.602	3.39
242.072	3.49
242.542	10.19
243.013	7.79
243.483	7.29
243.953	5.59
244.423	3.19
244.893	-2.01
245.363	7.89
245.833	5.29
246.303	-0.91
246.773	8.69
247.243	5.89
247.712	6.99
248.182	10.69
248.652	2.79
249.122	2.49
249.592	10.19
250.061	27.49
250.531	35.29
251.001	19.39
251.471	27.89
251.94	17.29
252.41	12.19
252.879	6.39
253.349	16.79
253.818	8.99
254.288	6.49
254.757	6.29
255.227	8.19
255.696	5.59
256.166	4.49
256.635	14.89
257.105	10.89
257.574	6.99
258.043	9.29
258.513	16.99
258.982	21.29
259.451	7.99
259.92	12.29
260.389	7.89
260.859	19.29
261.328	16.69
261.797	20.89
262.266	12.99
262.735	10.29
263.204	3.79
263.673	3.49
264.142	8.69
264.611	3.49
265.08	4.89
265.549	1.29
266.018	8.29
266.487	3.09
266.955	0.29
267.424	3.49
267.893	14.39
268.362	4.99
268.83	6.99
269.299	11.79
269.768	9.39
270.236	4.99
270.705	0.79
271.174	3.99
271.642	12.69
272.111	12.69
272.579	20.19
273.048	26.09
273.516	30.99
273.985	26.29
274.453	25.19
274.922	17.99
275.39	15.99
275.858	7.09
276.327	12.39
276.795	17.39
277.263	14.59
277.731	34.59
278.2	53.59
278.668	62.49
279.136	54.59
279.604	23.29
280.072	13.49
280.54	13.19
281.008	14.59
281.477	13.49
281.945	14.29
282.413	10.89
282.881	6.69
283.348	11.69
283.816	20.69
284.284	19.69
284.752	23.79
285.22	5.59
285.688	18.79
286.156	14.69
286.623	50.59
287.091	54.39
287.559	32.39
288.026	23.89
288.494	24.39
288.962	10.99
289.429	11.99
289.897	14.59
290.364	17.19
290.832	20.69
291.3	15.09
291.767	19.09
292.234	25.69
292.702	15.89
293.169	21.69
293.637	27.39
294.104	20.89
294.571	17.29
295.039	17.59
295.506	16.89
295.973	17.09
296.44	21.49
296.908	22.19
297.375	23.09
297.842	20.09
298.309	18.19
298.776	14.49
299.243	24.29
299.71	18.49
300.177	29.19
300.644	22.39
301.111	25.49
301.578	25.99
302.045	19.29
302.512	23.79
302.979	27.39
303.446	28.59
303.913	17.59
304.379	19.69
304.846	28.49
305.313	28.09
305.78	22.59
306.246	34.69
306.713	31.19
307.18	27.59
307.646	31.29
308.113	31.69
308.579	27.09
309.046	24.79
309.512	26.59
309.979	25.39
310.445	34.09
310.912	30.49
311.378	35.99
311.845	34.39
312.311	32.39
312.777	34.59
313.244	32.79
313.71	40.29
314.176	30.89
314.642	32.79
315.109	32.39
315.575	37.79
316.041	44.29
316.507	31.69
316.973	31.29
317.439	28.89
317.905	41.69
318.371	36.59
318.837	32.19
319.303	33.99
319.769	39.09
320.235	37.49
320.701	39.99
321.167	39.49
321.633	39.99
322.099	43.59
322.564	45.39
323.03	41.79
323.496	41.59
323.962	42.39
324.427	36.29
324.893	40.79
325.359	42.69
325.824	44.39
326.29	39.89
326.755	42.09
327.221	44.89
327.686	43.49
328.152	48.59
328.617	43.09
329.083	49.29
329.548	57.99
330.014	48.39
330.479	46.09
330.944	40.49
331.41	40.39
331.875	45.29
332.34	48.09
332.805	45.09
333.271	52.39
333.736	43.29
334.201	53.89
334.666	54.39
335.131	58.49
335.596	60.39
336.061	54.19
336.526	47.09
336.991	45.89
337.456	54.39
337.921	48.19
338.386	44.89
338.851	42.39
339.316	52.99
339.781	53.79
340.246	51.59
340.711	46.79
341.175	49.89
341.64	48.29
342.105	56.99
342.569	52.49
343.034	60.09
343.499	55.39
343.963	50.69
344.428	57.69
344.893	64.69
345.357	57.99
345.822	53.79
346.286	66.59
346.751	72.19
347.215	69.29
347.679	74.89
348.144	98.49
348.608	85.79
349.073	70.39
349.537	75.69
350.001	84.99
350.465	99.49
350.93	82.99
351.394	81.39
351.858	72.49
352.322	89.59
352.786	77.79
353.25	105.29
353.715	109.69
354.179	103.89
354.643	121.89
355.107	129.59
355.571	109.59
356.035	101.79
356.498	119.29
356.962	116.99
357.426	127.49
357.89	108.29
358.354	91.89
358.818	89.49
359.281	87.39
359.745	75.79
360.209	79.49
360.673	75.79
361.136	80.19
361.6	85.49
362.064	81.29
362.527	84.19
362.991	91.69
363.454	80.39
363.918	77.09
364.381	75.59
364.845	82.69
365.308	79.09
365.772	84.59
366.235	84.09
366.698	79.69
367.162	88.59
367.625	75.09
368.088	88.19
368.552	83.89
369.015	88.59
369.478	89.99
369.941	96.19
370.404	94.69
370.867	98.79
371.331	105.89
371.794	112.99
372.257	108.19
372.72	111.39
373.183	108.39
373.646	100.79
374.109	99.69
374.572	100.09
375.035	106.49
375.497	112.49
375.96	104.89
376.423	101.69
376.886	105.09
377.349	103.09
377.811	101.99
378.274	99.59
378.737	106.49
379.199	113.09
379.662	110.89
380.125	113.79
380.587	117.99
381.05	119.59
381.512	128.89
381.975	133.09
382.437	119.79
382.9	116.49
383.362	126.59
383.825	140.79
384.287	141.89
384.75	139.09
385.212	140.69
385.674	132.79
386.136	127.29
386.599	122.69
387.061	123.89
387.523	130.59
387.985	127.89
388.447	141.59
388.91	135.89
389.372	144.89
389.834	142.89
390.296	141.39
390.758	151.29
391.22	157.39
391.682	197.79
392.144	273.49
392.606	220.69
393.068	161.59
393.529	162.89
393.991	146.49
394.453	141.89
394.915	149.59
395.377	182.19
395.838	202.89
396.3	148.59
396.762	133.29
397.224	128.09
397.685	119.99
398.147	122.89
398.608	121.99
399.07	129.09
399.531	130.19
399.993	136.99
400.454	145.79
400.916	142.79
401.377	132.89
401.839	143.09
402.3	148.49
402.762	158.69
403.223	169.69
403.684	164.29
404.145	156.29
404.607	155.59
405.068	156.69
405.529	161.09
405.99	176.09
406.451	166.79
406.913	159.99
407.374	161.39
407.835	157.09
408.296	161.39
408.757	165.29
409.218	177.69
409.679	168.39
410.14	166.39
410.601	172.79
411.062	170.69
411.522	179.59
411.983	179.59
412.444	166.59
412.905	172.09
413.366	169.19
413.826	184.99
414.287	208.69
414.748	247.49
415.208	229.99
415.669	206.19
416.13	196.09
416.59	199.59
417.051	199.99
417.511	200.79
417.972	220.29
418.432	235.79
418.893	272.59
419.353	241.59
419.814	186.29
420.274	171.99
420.734	170.59
421.195	187.99
421.655	179.89
422.115	178.89
422.576	185.89
423.036	182.59
423.496	198.39
423.956	200.29
424.416	217.39
424.876	258.59
425.336	246.89
425.797	253.19
426.257	241.39
426.717	224.69
427.177	217.99
427.637	209.09
428.097	221.89
428.556	236.69
429.016	259.39
429.476	246.49
429.936	251.89
430.396	259.59
430.856	269.89
431.315	291.89
431.775	329.69
432.235	353.39
432.694	328.09
433.154	339.39
433.614	366.99
434.073	314.79
434.533	263.49
434.993	251.79
435.452	265.69
435.912	271.79
436.371	268.09
436.83	257.39
437.29	253.19
437.749	234.69
438.209	226.19
438.668	253.89
439.127	271.29
439.587	246.59
440.046	234.19
440.505	248.09
440.964	266.19
441.424	301.39
441.883	296.09
442.342	245.99
442.801	209.59
443.26	209.29
443.719	211.09
444.178	203.69
444.637	199.39
445.096	208.39
445.555	208.59
446.014	216.09
446.473	211.89
446.932	219.89
447.391	209.29
447.849	207.79
448.308	211.39
448.767	214.19
449.226	220.79
449.685	224.99
450.143	234.89
450.602	224.89
451.061	212.39
451.519	218.79
451.978	221.09
452.436	226.59
452.895	225.99
453.353	243.89
453.812	221.59
454.27	226.99
454.729	227.99
455.187	226.19
455.646	231.79
456.104	229.19
456.562	241.89
457.021	247.19
457.479	253.99
457.937	256.49
458.395	248.79
458.854	233.99
459.312	243.99
459.77	253.39
460.228	233.49
460.686	227.69
461.144	237.39
461.602	230.39
462.06	230.39
462.518	237.79
462.976	236.99
463.434	248.49
463.892	249.09
464.35	261.79
464.808	273.09
465.266	248.79
465.724	254.19
466.181	262.99
466.639	253.69
467.097	276.89
467.555	288.19
468.012	283.29
468.47	293.69
468.928	309.79
469.385	319.19
469.843	331.39
470.3	329.19
470.758	340.09
471.215	353.99
471.673	376.79
472.13	380.59
472.588	398.29
473.045	347.99
473.503	358.69
473.96	372.99
474.417	383.39
474.875	408.19
475.332	447.39
475.789	433.09
476.246	445.99
476.704	460.19
477.161	484.59
477.618	495.19
478.075	522.89
478.532	578.99
478.989	645.49
479.446	744.19
479.903	727.49
480.36	762.99
480.817	822.19
481.274	918.49
481.731	1016.89
482.188	1098.09
482.645	1231.09
483.102	1332.49
483.558	1449.79
484.015	1510.79
484.472	1493.09
484.929	1445.49
485.385	1388.99
485.842	1362.19
486.299	1289.69
486.755	1222.59
487.212	1031.99
487.668	872.99
488.125	804.59
488.582	742.59
489.038	702.29
489.494	671.89
489.951	659.89
490.407	638.79
490.864	618.59
491.32	605.19
491.776	594.69
492.233	606.89
492.689	574.69
493.145	564.49
493.602	565.99
494.058	578.89
494.514	584.59
494.97	603.59
495.426	608.99
495.882	584.09
496.338	576.09
496.794	594.19
497.251	586.79
497.707	604.89
498.163	624.79
498.618	619.69
499.074	616.09
499.53	641.99
499.986	641.09
500.442	617.39
500.898	600.19
501.354	594.39
501.809	601.49
502.265	621.39
502.721	627.19
503.177	642.19
503.632	631.39
504.088	644.79
504.543	674.99
504.999	672.39
505.455	626.39
505.91	592.29
506.366	603.69
506.821	600.59
507.277	592.79
507.732	590.19
508.187	587.09
508.643	600.29
509.098	600.79
509.553	619.09
510.009	629.79
510.464	632.09
510.919	654.19
511.375	645.29
511.83	676.79
512.285	686.99
512.74	719.39
513.195	731.99
513.65	729.89
514.105	724.59
514.56	730.99
515.015	754.99
515.47	772.49
515.925	745.79
516.38	741.09
516.835	749.89
517.29	740.09
517.745	737.29
518.2	721.39
518.655	702.69
519.109	704.09
519.564	704.89
520.019	690.49
520.474	692.39
520.928	679.39
521.383	687.29
521.838	684.59
522.292	672.09
522.747	660.59
523.201	670.09
523.656	656.89
524.11	653.29
524.565	651.19
525.019	649.09
525.474	661.59
525.928	663.59
526.382	649.19
526.837	651.39
527.291	661.89
527.745	659.89
528.2	666.39
528.654	642.89
529.108	646.99
529.562	651.39
530.016	659.79
530.47	657.59
530.925	650.39
531.379	650.29
531.833	666.49
532.287	660.59
532.741	672.19
533.195	667.09
533.649	666.49
534.103	678.19
534.556	678.09
535.01	664.29
535.464	671.99
535.918	686.09
536.372	677.29
536.826	677.39
537.279	663.09
537.733	660.89
538.187	677.99
538.64	677.29
539.094	692.49
539.548	687.29
540.001	672.29
540.455	681.59
540.908	693.29
541.362	679.49
541.815	692.29
542.269	706.59
542.722	709.39
543.175	731.39
543.629	715.29
544.082	728.49
544.536	731.99
544.989	733.79
545.442	744.59
545.895	733.69
546.349	739.09
546.802	743.39
547.255	740.59
547.708	756.59
548.161	763.59
548.614	772.39
549.067	778.59
549.52	763.69
549.973	758.69
550.426	756.19
550.879	748.69
551.332	755.99
551.785	753.99
552.238	756.09
552.691	764.69
553.144	784.49
553.596	781.99
554.049	802.89
554.502	826.59
554.955	857.59
555.407	844.29
555.86	836.19
556.313	824.09
556.765	813.99
557.218	830.49
557.67	814.69
558.123	814.89
558.576	819.49
559.028	809.79
559.48	820.99
559.933	807.29
560.385	768.69
560.838	750.49
561.29	731.29
561.742	732.39
562.195	710.79
562.647	712.99
563.099	716.99
563.551	712.49
564.004	728.99
564.456	721.49
564.908	706.59
565.36	692.09
565.812	675.39
566.264	668.99
566.716	666.49
567.168	659.29
567.62	665.29
568.072	658.89
568.524	647.39
568.976	645.39
569.428	627.09
569.88	621.29
570.332	627.59
570.784	626.59
571.235	629.59
571.687	635.69
572.139	647.29
572.59	651.69
573.042	662.79
573.494	658.29
573.945	651.59
574.397	637.19
574.849	639.49
575.3	646.39
575.752	629.79
576.203	625.59
576.655	636.19
577.106	611.99
577.557	605.19
578.009	609.09
578.46	617.59
578.912	609.69
579.363	607.89
579.814	612.69
580.265	613.29
580.717	614.59
581.168	620.99
581.619	617.19
582.07	620.89
582.521	620.49
582.972	613.69
583.423	620.79
583.875	626.69
584.326	642.59
584.777	672.49
585.227	743.09
585.678	828.39
586.129	909.89
586.58	979.19
587.031	1063.79
587.482	1215.79
587.933	1390.69
588.384	1195.79
588.834	900.19
589.285	738.49
589.736	717.09
590.186	705.79
590.637	688.09
591.088	671.99
591.538	664.69
591.989	671.59
592.439	658.79
592.89	659.89
593.34	649.19
593.791	646.79
594.241	635.99
594.692	655.99
595.142	641.29
595.593	638.39
596.043	644.39
596.493	655.39
596.943	651.89
597.394	657.99
597.844	648.49
598.294	655.39
598.744	681.59
599.195	704.59
599.645	734.59
600.095	775.09
600.545	822.09
600.995	872.19
601.445	933.09
601.895	985.39
602.345	1039.49
602.795	1010.59
603.245	973.79
603.695	919.79
604.145	875.69
604.594	823.79
605.044	783.19
605.494	711.39
605.944	681.79
606.393	676.89
606.843	658.69
607.293	666.09
607.743	653.29
608.192	676.09
608.642	686.49
609.091	690.79
609.541	694.09
609.99	685.89
610.44	680.49
610.889	649.69
611.339	631.19
611.788	620.89
612.238	629.09
612.687	637.89
613.136	648.59
613.586	667.79
614.035	667.69
614.484	668.89
614.933	677.69
615.383	672.19
615.832	664.09
616.281	638.09
616.73	606.49
617.179	600.79
617.628	591.79
618.077	564.39
618.526	556.29
618.975	552.29
619.424	544.79
619.873	541.19
620.322	555.49
620.771	533.89
621.22	539.29
621.669	527.69
622.118	523.29
622.567	515.19
623.015	506.29
623.464	508.19
623.913	494.19
624.361	485.29
624.81	488.39
625.259	486.09
625.707	496.29
626.156	492.99
626.604	505.69
627.053	494.19
627.501	497.09
627.95	509.49
628.398	512.29
628.847	501.49
629.295	502.19
629.744	512.19
630.192	506.69
630.64	510.39
631.089	502.39
631.537	510.29
631.985	516.59
632.433	524.09
632.881	527.49
633.33	576.49
633.778	552.49
634.226	498.89
634.674	508.39
635.122	511.49
635.57	524.39
636.018	555.19
636.466	515.99
636.914	494.59
637.362	502.89
637.81	508.49
638.258	510.59
638.705	508.69
639.153	533.79
639.601	539.49
640.049	566.79
640.497	593.59
640.944	608.09
641.392	560.99
641.84	548.49
642.287	513.69
642.735	491.99
643.182	501.69
643.63	507.39
644.078	499.59
644.525	519.19
644.973	530.39
645.42	525.19
645.867	546.99
646.315	561.39
646.762	587.29
647.21	610.89
647.657	623.09
648.104	656.79
648.551	683.69
648.999	731.69
649.446	791.79
649.893	862.49
650.34	996.39
650.787	1200.09
651.234	1485.19
651.682	1937.89
652.129	2633.19
652.576	3772.49
653.023	5585.59
653.47	7747.19
653.917	9769.09
654.363	11409.29
654.81	12844.59
655.257	12193.59
655.704	7890.79
656.151	4655.19
656.598	3009.29
657.044	2128.19
657.491	1635.29
657.938	1312.39
658.385	1093.99
658.831	954.79
659.278	841.29
659.724	753.09
660.171	697.09
660.618	627.79
661.064	595.99
661.511	584.29
661.957	560.59
662.404	556.29
662.85	562.59
663.296	542.39
663.743	488.29
664.189	466.39
664.635	471.19
665.082	463.99
665.528	454.59
665.974	445.29
666.42	443.79
666.867	439.79
667.313	428.39
667.759	416.09
668.205	415.09
668.651	413.89
669.097	421.19
669.543	429.49
669.989	408.29
670.435	393.59
670.881	385.29
671.327	391.69
671.773	407.99
672.219	420.79
672.665	467.79
673.11	507.19
673.556	534.39
674.002	581.59
674.448	568.39
674.893	476.79
675.339	413.99
675.785	390.19
676.23	366.19
676.676	342.79
677.122	331.89
677.567	320.29
678.013	311.59
678.458	312.59
678.904	309.89
679.349	296.49
679.794	303.49
680.24	308.99
680.685	299.59
681.131	294.89
681.576	302.29
682.021	299.29
682.466	296.59
682.912	292.69
683.357	300.39
683.802	330.19
684.247	360.99
684.692	394.09
685.137	425.29
685.583	467.79
686.028	491.39
686.473	445.59
686.918	383.49
687.363	364.79
687.807	347.39
688.252	315.19
688.697	307.09
689.142	287.89
689.587	291.09
690.032	280.89
690.477	294.89
690.921	297.49
691.366	336.49
691.811	347.09
692.255	360.69
692.7	398.29
693.145	428.49
693.589	590.89
694.034	953.79
694.478	1299.59
694.923	1511.99
695.367	2002.49
695.812	1039.59
696.256	432.79
696.701	325.59
697.145	288.59
697.59	282.99
698.034	278.09
698.478	291.19
698.922	279.19
699.367	283.99
699.811	292.49
700.255	306.89
700.699	328.39
701.143	372.29
701.588	407.69
702.032	448.49
702.476	442.89
702.92	421.19
703.364	414.29
703.808	538.39
704.252	860.79
704.696	1236.69
705.14	1453.99
705.584	1868.69
706.027	930.49
706.471	448.59
706.915	336.19
707.359	297.29
707.803	269.59
708.246	265.79
708.69	268.09
709.134	259.89
709.577	268.49
710.021	271.49
710.465	266.49
710.908	260.69
711.352	251.29
711.795	264.89
712.239	299.59
712.682	331.19
713.126	356.39
713.569	408.99
714.012	322.99
714.456	282.49
714.899	254.69
715.342	234.29
715.786	224.79
716.229	222.69
716.672	224.69
717.115	213.09
717.558	219.49
718.002	215.59
718.445	224.89
718.888	241.99
719.331	246.99
719.774	267.89
720.217	263.29
720.66	240.59
721.103	229.59
721.546	217.69
721.989	219.59
722.432	195.69
722.874	203.99
723.317	190.59
723.76	201.99
724.203	225.89
724.645	265.99
725.088	369.69
725.531	488.19
725.974	561.59
726.416	474.29
726.859	257.29
727.301	210.69
727.744	201.29
728.187	202.59
728.629	202.19
729.071	203.09
729.514	216.99
729.956	229.19
730.399	241.09
730.841	245.49
731.283	228.79
731.726	232.39
732.168	221.89
732.61	223.89
733.053	245.69
733.495	266.49
733.937	292.69
734.379	339.79
734.821	366.49
735.263	455.59
735.705	694.89
736.148	1302.79
736.59	2201.59
737.032	2687.29
737.474	2176.99
737.916	696.99
738.357	368.19
738.799	271.89
739.241	255.29
739.683	236.99
740.125	251.29
740.567	253.89
741.008	273.69
741.45	272.29
741.892	273.09
742.334	297.29
742.775	311.59
743.217	293.59
743.658	237.29
744.1	213.79
744.542	222.59
744.983	258.59
745.425	293.49
745.866	299.29
746.307	243.09
746.749	238.59
747.19	271.19
747.632	380.69
748.073	719.69
748.514	1543.19
748.956	2436.39
749.397	3043.09
749.838	2554.09
750.279	2617.89
750.72	1306.69
751.162	464.99
751.603	274.69
752.044	219.89
752.485	185.09
752.926	186.59
753.367	178.19
753.808	162.69
754.249	163.29
754.69	156.59
755.131	156.79
755.572	152.39
756.013	156.49
756.453	158.99
756.894	158.99
757.335	166.79
757.776	165.19
758.216	168.19
758.657	170.19
759.098	166.79
759.538	186.69
759.979	223.19
760.42	304.39
760.86	578.19
761.301	1493.49
761.741	3708.59
762.182	5704.89
762.622	4009.39
763.063	1142.19
763.503	464.99
763.943	297.39
764.384	287.39
764.824	346.19
765.264	382.79
765.705	265.09
766.145	177.19
766.585	159.29
767.025	158.39
767.465	158.99
767.906	204.09
768.346	273.49
768.786	297.69
769.226	222.59
769.666	266.79
770.106	508.09
770.546	1279.29
770.986	2281.59
771.426	2097.09
771.866	686.39
772.306	277.89
772.745	175.29
773.185	148.89
773.625	144.59
774.065	147.89
774.505	164.69
774.944	249.29
775.384	546.79
775.824	1032.59
776.263	1028.29
776.703	433.19
777.142	186.99
777.582	137.49
778.021	114.99
778.461	126.19
778.9	124.59
779.34	108.89
779.779	96.89
780.219	87.59
780.658	93.39
781.097	94.29
781.537	91.29
781.976	92.99
782.415	88.89
782.855	94.19
783.294	82.19
783.733	84.99
784.172	93.69
784.611	88.89
785.05	94.59
785.489	94.69
785.928	99.49
786.367	98.79
786.806	95.69
787.245	110.59
787.684	112.09
788.123	121.39
788.562	112.29
789.001	106.59
789.44	107.59
789.879	97.19
790.317	97.39
790.756	110.19
791.195	112.49
791.634	120.09
792.072	174.69
792.511	297.19
792.95	816.09
793.388	1860.09
793.827	1717.19
794.265	583.09
794.704	247.59
795.142	159.49
795.581	131.39
796.019	115.19
796.458	111.59
796.896	107.39
797.334	107.89
797.773	126.59
798.211	182.09
798.649	363.59
799.087	852.79
799.526	1352.29
799.964	1722.89
800.402	1774.99
800.84	655.29
801.278	254.09
801.716	159.99
802.154	128.49
802.592	117.59
803.03	116.99
803.468	108.09
803.906	123.69
804.344	131.99
804.782	124.89
805.22	115.19
805.658	114.39
806.096	126.79
806.533	131.49
806.971	150.29
807.409	188.09
807.847	257.89
808.284	539.39
808.722	1554.09
809.16	2859.19
809.597	2632.09
810.035	4674.09
810.472	5205.19
810.91	1853.09
811.347	685.79
811.785	340.79
812.222	220.69
812.66	165.79
813.097	143.19
813.535	120.59
813.972	111.39
814.409	101.19
814.846	96.09
815.284	96.19
815.721	83.69
816.158	90.59
816.595	102.59
817.032	151.89
817.47	174.59
817.907	148.59
818.344	127.49
818.781	99.09
819.218	79.29
819.655	102.09
820.092	151.59
820.529	186.49
820.966	152.29
821.403	115.89
821.839	91.39
822.276	89.49
822.713	105.99
823.15	119.09
823.587	100.69
824.023	124.99
824.46	245.09
824.897	750.39
825.333	1198.49
825.77	507.89
826.206	196.59
826.643	113.79
827.08	87.59
827.516	66.79
827.953	62.79
828.389	69.19
828.825	59.09
829.262	59.39
829.698	54.39
830.135	54.69
830.571	50.49
831.007	54.29
831.443	54.09
831.88	55.29
832.316	50.59
832.752	59.99
833.188	61.19
833.624	56.99
834.06	58.49
834.497	64.19
834.933	68.99
835.369	63.69
835.805	61.79
836.241	61.99
836.677	67.09
837.112	74.79
837.548	87.69
837.984	112.89
838.42	171.29
838.856	411.39
839.292	1272.49
839.727	2027.49
840.163	932.49
840.599	768.99
841.034	1743.89
841.47	1892.09
841.906	679.59
842.341	279.89
842.777	198.19
843.212	267.09
843.648	273.89
844.083	132.79
844.519	86.69
844.954	65.69
845.39	55.39
845.825	49.99
846.261	49.89
846.696	47.59
847.131	47.59
847.566	52.89
848.002	45.79
848.437	50.19
848.872	54.39
849.307	51.79
849.742	70.79
850.177	147.99
850.613	461.99
851.048	765.09
851.483	330.89
851.918	134.79
852.353	80.49
852.788	51.99
853.223	48.99
853.657	49.69
854.092	42.49
854.527	36.59
854.962	31.49
855.397	36.89
855.832	40.29
856.266	33.69
856.701	32.49
857.136	30.79
857.57	33.79
858.005	43.69
858.44	54.49
858.874	36.79
859.309	46.39
859.743	30.39
860.178	43.69
860.612	35.19
861.047	41.99
861.481	61.89
861.915	62.79
862.35	42.09
862.784	29.29
863.218	30.89
863.653	28.39
864.087	42.59
864.521	48.19
864.955	60.39
865.39	138.99
865.824	157.09
866.258	97.39
866.692	135.79
867.126	155.59
867.56	97.29
867.994	47.29
868.428	38.49
868.862	41.49
869.296	46.79
869.73	52.39
870.164	53.89
870.598	39.49
871.031	32.09
871.465	28.09
871.899	30.39
872.333	22.99
872.766	24.69
873.2	19.49
873.634	27.49
874.067	26.69
874.501	24.29
874.935	37.39
875.368	28.69
875.802	20.59
876.235	22.29
876.669	24.79
877.102	19.29
877.535	24.99
877.969	17.59
878.402	25.49
878.836	21.69
879.269	20.79
879.702	22.79
880.135	14.69
880.569	18.09
881.002	27.79
881.435	21.29
881.868	15.99
882.301	24.89
882.734	9.59
883.167	20.19
883.601	16.09
884.034	26.79
884.467	13.69
884.899	12.29
885.332	14.09
885.765	8.79
886.198	15.59
886.631	19.79
887.064	19.29
887.497	21.59
887.929	23.29
888.362	13.69
888.795	15.09
889.228	16.89
889.66	20.29
890.093	17.99
890.526	15.99
890.958	15.09
891.391	15.99
891.823	15.59
892.256	17.99
892.688	9.59
893.121	9.09
893.553	16.29
893.985	20.49
894.418	15.19
894.85	7.29
895.282	10.29
895.715	12.79
896.147	18.69
896.579	17.59
897.011	12.89
897.444	16.79
897.876	10.09
898.308	16.59
898.74	15.29
899.172	7.69
899.604	25.49
900.036	20.89
900.468	12.39
900.9	11.99
901.332	11.49
901.764	9.89
902.196	17.29
902.628	21.49
903.06	14.69
903.491	24.19
903.923	22.59
904.355	21.19
904.787	15.69
905.218	21.49
905.65	18.69
906.082	9.19
906.513	8.09
906.945	8.19
907.376	6.39
907.808	19.39
908.239	17.19
908.671	21.99
909.102	17.19
909.534	19.29
909.965	43.29
910.397	79.49
910.828	268.19
911.259	422.69
911.691	193.29
912.122	94.19
912.553	42.29
912.984	32.19
913.415	27.19
913.847	20.59
914.278	13.19
914.709	10.29
915.14	9.59
915.571	16.99
916.002	7.79
916.433	15.19
916.864	16.79
917.295	12.29
917.726	15.99
918.157	18.99
918.587	20.69
919.018	16.39
919.449	20.09
919.88	19.89
920.311	22.89
920.741	43.89
921.172	140.19
921.603	131.29
922.033	60.89
922.464	40.59
922.895	20.39
923.325	20.79
923.756	15.29
924.186	17.69
924.617	17.99
925.047	32.39
925.478	41.59
925.908	36.59
926.338	22.69
926.769	16.79
927.199	15.99
927.629	10.29
928.06	17.29
928.49	13.09
928.92	18.19
929.35	12.59
929.78	10.19
930.21	8.69
930.641	4.99
931.071	9.49
931.501	2.29
931.931	3.09
932.361	7.19
932.791	3.99
933.221	8.09
933.651	4.69
934.08	16.29
934.51	24.89
934.94	0.99
935.37	7.49
935.8	10.59
936.229	4.09
936.659	12.29
937.089	3.39
937.519	14.99
937.948	25.29
938.378	13.69
938.807	7.59
939.237	5.09
939.666	9.99
940.096	-1.11
940.525	3.19
940.955	3.09
941.384	5.79
941.814	2.19
942.243	-9.21
942.672	1.69
943.102	-2.41
943.531	-2.91
943.96	6.39
944.39	0.09
944.819	2.69
945.248	3.59
945.677	-0.31
946.106	5.49
946.535	5.39
946.964	2.89
947.393	3.39
947.822	3.79
948.251	-5.61
948.68	0.09
949.109	1.29
949.538	8.89
949.967	7.59
950.396	1.79
950.825	-0.01
951.254	2.29
951.682	-3.01
952.111	4.59
952.54	4.39
952.969	-3.11
953.397	-6.11
953.826	6.39
954.254	-2.51
954.683	2.89
955.112	-1.51
955.54	-1.11
955.969	4.19
956.397	3.19
956.826	3.29
957.254	13.19
957.682	-6.11
958.111	8.49
958.539	2.19
958.967	-4.31
959.396	-2.91
959.824	1.09
960.252	3.29
960.68	-5.51
961.109	-2.81
961.537	-6.31
961.965	-3.51
962.393	-0.61
962.821	-11.11
963.249	-1.51
963.677	6.79
964.105	0.39
964.533	32.69
964.961	42.59
965.389	18.69
965.817	1.59
966.245	0.99
966.672	0.49
967.1	-6.11
967.528	-1.21
967.956	0.29
968.383	1.99
968.811	-6.51
969.239	-6.11
969.666	-0.71
970.094	4.39
970.522	-0.11
970.949	-0.21
971.377	-4.91
971.804	2.59
972.232	3.29
972.659	-4.41
973.087	-3.91
973.514	-3.31
973.941	-8.91
974.369	3.69
974.796	2.29
975.223	-0.11
975.651	1.19
976.078	4.79
976.505	-8.01
976.932	4.59
977.359	16.59
977.786	14.99
978.214	0.69
978.641	2.09
979.068	0.19
979.495	-6.11
979.922	-2.51
980.349	-7.41
980.776	1.69
981.202	-1.21
981.629	3.69
982.056	10.69
982.483	-0.51
982.91	5.29
983.337	-4.01
983.763	3.99
984.19	-6.21
984.617	-2.41
985.043	-10.91
985.47	1.19
985.897	-6.01
986.323	-6.91
986.75	5.09
987.176	-1.11
987.603	0.29
988.029	2.29
988.456	-0.41
988.882	-0.31
989.308	-3.71
989.735	-6.51
990.161	-4.01
990.587	-6.71
991.014	1.69
991.44	7.99
991.866	-2.41
992.292	-4.21
992.719	-1.91
993.145	5.49
993.571	-4.41
993.997	-0.81
994.423	-5.41
994.849	-3.81
995.275	1.49
995.701	-1.21
996.127	-5.21
996.553	1.09
996.979	-3.31
997.405	5.59
997.83	-4.81
998.256	-6.61
998.682	-3.61
999.108	-8.01
999.534	-1.21
999.959	4.89
1000.385	-3.61
1000.811	3.19
1001.236	-3.91
1001.662	-9.11
1002.087	-7.41
1002.513	0.59
1002.938	5.19
1003.364	-1.61
1003.789	-1.91
1004.215	1.99
1004.64	4.49
1005.066	3.69
1005.491	0.39
1005.916	-4.01
1006.342	-3.51
1006.767	-6.91
1007.192	4.19
1007.617	-3.51
1008.042	-1.01
1008.468	-2.81
1008.893	-4.01
1009.318	-4.01
1009.743	-1.61
1010.168	-0.41
1010.593	-2.21
1011.018	-8.71
1011.443	-3.91
1011.868	-2.41
1012.293	-5.41
1012.718	-8.71
1013.143	-0.91
1013.567	0.49
1013.992	-7.41
1014.417	-11.91
1014.842	1.39
1015.267	-1.81
1015.691	-1.51
1016.116	10.19
1016.541	-1.61
1016.965	4.69
1017.39	-0.51
1017.814	-2.31
1018.239	5.09
1018.663	-3.51
1019.088	-8.51
1019.512	-6.31
1019.937	-7.31
1020.361	-7.21
1020.785	-13.91
1021.21	2.69
1021.634	-1.21
1022.058	6.29
1022.483	1.19
1022.907	-4.11
1023.331	0.99
1023.755	1.09
1024.179	-2.61
1024.604	-7.01
1025.028	-8.31
1025.452	-4.31
1025.876	-4.11
1026.3	4.49
1026.724	-7.31
1027.148	-4.11
1027.572	-6.01
1027.996	-5.11
1028.42	-3.11
1028.843	-3.01
1029.267	-8.41
1029.691	4.69
1030.115	-0.61
1030.539	-7.51
1030.962	-8.21
1031.386	-12.91
1031.81	1.09
1032.233	-2.91
1032.657	-0.61
1033.08	-3.01
1033.504	-2.71
1033.927	-4.41
1034.351	-2.21
1034.774	-5.61
1035.198	-2.01
1035.621	-9.01
1036.045	-9.31
1036.468	-3.01
1036.891	-13.41
1037.315	-7.71
1037.738	-10.21
1038.161	-0.71
1038.584	-4.01
1039.008	-5.81
1039.431	-2.51
1039.854	-0.41
1040.277	-0.81
1040.7	-7.81
1041.123	-6.31
1041.546	-6.41
1041.969	0.09
1042.392	-3.51
1042.815	-3.41
1043.238	0.29
1043.661	-3.81
1044.084	-4.21
1044.507	-6.91
1044.93	-5.91
1045.352	-9.61
1045.775	-4.41
1046.198	-1.91
1046.621	0.19
1047.043	-1.61
1047.466	7.19
1047.889	-1.61
1048.311	-2.11
1048.734	-4.21
1049.156	-0.61
1049.579	-4.81
1050.001	-3.21
1050.424	3.19
1050.846	-6.21
1051.269	-6.11
1051.691	-3.21
1052.113	-8.21
1052.536	0.99
1052.958	-1.51
1053.38	-3.61
1053.802	-7.41
1054.225	-1.81
1054.647	-7.11
1055.069	-0.01
1055.491	2.39
1055.913	-6.31
1056.335	-0.71
1056.757	-3.91
1057.179	-6.41
1057.601	-9.81
1058.023	-2.31
1058.445	-5.61
1058.867	-4.41
1059.289	-6.01
1059.711	-4.91
1060.133	-8.21
1060.555	-7.41
1060.976	-8.01
1061.398	-6.21
1061.82	-2.51
1062.241	-1.91
1062.663	-10.61
1063.085	-7.11
1063.506	2.19
1063.928	-2.91
1064.35	-2.81
1064.771	-8.61
1065.193	-4.01
1065.614	-5.81
1066.035	0.79
1066.457	0.69
1066.878	-1.21
1067.3	-5.61
1067.721	-5.41
1068.142	-3.91
1068.564	-2.91
1068.985	-10.01
1069.406	-1.01
1069.827	-6.71
1070.248	-2.41
1070.67	-7.61
1071.091	-8.71
1071.512	0.79
1071.933	-5.01
1072.354	-5.61
1072.775	-4.41
1073.196	-8.51
1073.617	-6.51
1074.038	-10.71
1074.459	0.19
1074.88	-6.21
1075.3	-2.11
1075.721	1.09
1076.142	-1.91
1076.563	-1.81
1076.983	-7.61
1077.404	-11.81
1077.825	-12.81
1078.246	-0.31
1078.666	-12.41
1079.087	-11.11
1079.507	-5.51
1079.928	-4.81
1080.348	-1.61
1080.769	-6.81
1081.189	2.59
1081.61	0.29
1082.03	-4.31
1082.451	-4.51
1082.871	-5.51
1083.291	-8.61
1083.711	-12.21
1084.132	-4.11
1084.552	0.39
1084.972	1.39
1085.392	-7.41
1085.813	-6.31
1086.233	-6.31
1086.653	-4.71
1087.073	-1.71
1087.493	-5.11
1087.913	-9.41
1088.333	-10.11
1088.753	-5.31
1089.173	-1.51
1089.593	-6.31
1090.013	2.99
1090.433	-2.11
1090.852	-1.81
1091.272	-1.21
1091.692	1.29
1092.112	-7.21
1092.531	-11.61
1092.951	-10.21
1093.371	-1.41
1093.79	-2.41
1094.21	-4.51
1094.63	-10.11
1095.049	-9.61
1095.469	1.09
1095.888	-2.71
1096.308	1.99
1096.727	-0.91
1097.146	-3.71
1097.566	-0.11
1097.985	-8.61
1098.405	0.79
1098.824	-5.51
1099.243	-11.61
1099.662	-8.01
1100.082	-6.01
1100.501	-6.91
1100.92	-8.61
1101.339	-5.41
1101.758	-7.51
