Data from 20171114-ORNL-Ar_H_NY_Subt18_08-08-26-576.txt Node
Date: Tue Nov 14 08:08:26 EST 2017
User: Ender
Spectrometer: HR+D1039
Trigger mode: 0
Integration Time (sec): 2.730000E-2
Scans to average: 10
Electric dark correction enabled: true
Nonlinearity correction enabled: false
Boxcar width: 0
XAxis mode: Wavelengths
Number of Pixels in Spectrum: 2048
>>>>>Begin Spectral Data<<<<<
187.836	-1.34
188.309	-1.34
188.782	-1.34
189.255	4.36
189.728	0.76
190.201	2.86
190.674	4.46
191.147	7.16
191.619	-8.54
192.092	-0.44
192.565	-0.24
193.038	3.16
193.511	1.76
193.984	-1.74
194.456	-4.84
194.929	-3.34
195.402	-2.64
195.874	-1.44
196.347	5.46
196.82	-0.54
197.292	7.56
197.765	1.76
198.237	-3.64
198.71	5.06
199.182	-1.74
199.655	-0.34
200.127	-1.64
200.6	0.96
201.072	-2.84
201.544	-2.54
202.017	-4.74
202.489	-0.94
202.961	-4.54
203.433	-5.64
203.906	-10.64
204.378	-4.64
204.85	-0.64
205.322	-10.74
205.794	0.36
206.266	-4.94
206.739	-2.74
207.211	1.26
207.683	-11.24
208.155	-4.84
208.627	-9.14
209.099	-3.24
209.57	-15.14
210.042	-9.04
210.514	-9.04
210.986	-4.04
211.458	-11.44
211.93	-0.74
212.402	2.56
212.873	-3.84
213.345	-15.24
213.817	-11.64
214.288	-1.04
214.76	-11.44
215.232	-4.54
215.703	-2.14
216.175	-3.84
216.646	-6.04
217.118	-5.64
217.589	-3.64
218.061	-3.34
218.532	-5.14
219.004	-6.34
219.475	-5.94
219.946	-3.74
220.418	-8.74
220.889	3.26
221.36	0.26
221.832	-1.44
222.303	-7.94
222.774	2.86
223.245	-6.64
223.717	-6.44
224.188	-9.44
224.659	-15.14
225.13	-8.44
225.601	-0.94
226.072	0.56
226.543	-2.84
227.014	-1.14
227.485	-1.04
227.956	-5.24
228.427	-2.04
228.898	-0.74
229.369	-3.14
229.839	-5.64
230.31	-2.04
230.781	-2.74
231.252	-2.74
231.722	-12.94
232.193	-0.34
232.664	4.76
233.135	-1.94
233.605	-0.24
234.076	-4.64
234.546	-2.24
235.017	1.16
235.487	-2.64
235.958	-3.94
236.428	-1.44
236.899	0.26
237.369	-0.74
237.84	-4.34
238.31	8.16
238.78	2.66
239.251	-8.54
239.721	-2.34
240.191	-4.94
240.662	-3.04
241.132	-3.54
241.602	-3.84
242.072	-2.04
242.542	3.66
243.013	-4.54
243.483	0.16
243.953	-0.54
244.423	-5.74
244.893	-6.04
245.363	1.06
245.833	-0.04
246.303	-1.34
246.773	1.36
247.243	2.36
247.712	2.46
248.182	5.36
248.652	-0.74
249.122	-0.74
249.592	2.86
250.061	6.56
250.531	11.96
251.001	2.96
251.471	4.36
251.94	8.36
252.41	7.56
252.879	-3.14
253.349	8.36
253.818	4.86
254.288	7.16
254.757	0.76
255.227	-2.04
255.696	1.36
256.166	5.96
256.635	7.26
257.105	5.66
257.574	6.26
258.043	3.16
258.513	-0.04
258.982	6.86
259.451	-0.74
259.92	6.16
260.389	7.26
260.859	7.96
261.328	2.56
261.797	12.56
262.266	-4.24
262.735	13.36
263.204	5.06
263.673	-1.94
264.142	3.46
264.611	-2.44
265.08	-2.54
265.549	0.46
266.018	1.76
266.487	-0.44
266.955	-1.54
267.424	-4.64
267.893	4.06
268.362	-1.94
268.83	1.26
269.299	14.36
269.768	3.96
270.236	-1.04
270.705	-0.34
271.174	8.76
271.642	0.16
272.111	5.06
272.579	1.46
273.048	1.06
273.516	12.06
273.985	4.86
274.453	12.56
274.922	20.16
275.39	6.46
275.858	-1.84
276.327	7.76
276.795	9.66
277.263	5.56
277.731	17.06
278.2	13.56
278.668	15.26
279.136	16.56
279.604	4.46
280.072	8.96
280.54	8.86
281.008	1.26
281.477	15.26
281.945	11.66
282.413	12.06
282.881	14.16
283.348	7.26
283.816	14.26
284.284	17.76
284.752	22.26
285.22	12.96
285.688	11.26
286.156	13.66
286.623	25.06
287.091	13.76
287.559	12.86
288.026	18.56
288.494	10.96
288.962	-0.34
289.429	6.86
289.897	18.26
290.364	13.86
290.832	16.26
291.3	20.86
291.767	14.56
292.234	15.96
292.702	8.46
293.169	19.96
293.637	24.56
294.104	15.86
294.571	8.86
295.039	7.46
295.506	15.76
295.973	14.46
296.44	13.06
296.908	23.66
297.375	11.86
297.842	17.16
298.309	21.26
298.776	8.76
299.243	22.46
299.71	16.76
300.177	19.06
300.644	21.76
301.111	21.56
301.578	25.06
302.045	18.26
302.512	19.96
302.979	24.66
303.446	23.16
303.913	16.86
304.379	11.36
304.846	28.26
305.313	23.76
305.78	19.26
306.246	20.66
306.713	25.86
307.18	27.06
307.646	25.56
308.113	33.56
308.579	20.46
309.046	28.76
309.512	24.86
309.979	19.76
310.445	26.56
310.912	28.36
311.378	28.56
311.845	30.06
312.311	36.06
312.777	29.46
313.244	32.46
313.71	31.16
314.176	28.56
314.642	25.66
315.109	37.06
315.575	35.06
316.041	39.86
316.507	25.76
316.973	31.66
317.439	35.76
317.905	37.46
318.371	36.26
318.837	32.96
319.303	35.66
319.769	35.46
320.235	35.76
320.701	32.96
321.167	38.56
321.633	35.36
322.099	31.36
322.564	45.76
323.03	39.76
323.496	33.66
323.962	42.46
324.427	34.96
324.893	38.26
325.359	40.46
325.824	38.66
326.29	40.06
326.755	40.96
327.221	38.96
327.686	42.16
328.152	42.16
328.617	45.86
329.083	49.16
329.548	52.36
330.014	51.16
330.479	36.56
330.944	44.46
331.41	38.56
331.875	45.06
332.34	37.76
332.805	49.66
333.271	45.06
333.736	39.06
334.201	48.56
334.666	50.36
335.131	55.86
335.596	45.16
336.061	45.86
336.526	42.36
336.991	42.76
337.456	51.76
337.921	51.16
338.386	51.46
338.851	49.86
339.316	49.36
339.781	51.36
340.246	58.26
340.711	47.96
341.175	42.36
341.64	43.76
342.105	54.06
342.569	57.96
343.034	56.66
343.499	60.06
343.963	59.86
344.428	66.56
344.893	61.76
345.357	60.66
345.822	59.66
346.286	67.76
346.751	77.36
347.215	70.96
347.679	77.86
348.144	95.06
348.608	86.06
349.073	70.56
349.537	78.16
350.001	82.66
350.465	92.16
350.93	85.36
351.394	80.16
351.858	79.26
352.322	94.26
352.786	88.76
353.25	110.96
353.715	119.66
354.179	109.26
354.643	130.16
355.107	131.76
355.571	101.96
356.035	101.26
356.498	119.96
356.962	121.86
357.426	134.16
357.89	116.46
358.354	92.86
358.818	84.46
359.281	83.06
359.745	81.56
360.209	78.56
360.673	72.56
361.136	80.66
361.6	81.76
362.064	81.66
362.527	85.16
362.991	91.66
363.454	82.16
363.918	81.86
364.381	78.16
364.845	80.06
365.308	90.86
365.772	87.46
366.235	84.46
366.698	84.36
367.162	84.96
367.625	92.66
368.088	91.96
368.552	91.56
369.015	92.16
369.478	95.36
369.941	98.96
370.404	101.96
370.867	110.86
371.331	115.76
371.794	112.96
372.257	107.86
372.72	113.76
373.183	105.46
373.646	98.46
374.109	99.86
374.572	104.96
375.035	102.66
375.497	113.36
375.96	104.76
376.423	102.86
376.886	117.06
377.349	111.96
377.811	106.36
378.274	110.46
378.737	105.16
379.199	113.26
379.662	117.06
380.125	120.56
380.587	107.06
381.05	112.66
381.512	123.26
381.975	126.76
382.437	131.06
382.9	123.96
383.362	130.06
383.825	138.56
384.287	134.96
384.75	122.26
385.212	135.46
385.674	141.26
386.136	146.46
386.599	127.96
387.061	126.26
387.523	123.96
387.985	132.16
388.447	139.06
388.91	124.26
389.372	134.26
389.834	129.96
390.296	139.86
390.758	143.96
391.22	150.76
391.682	157.66
392.144	175.46
392.606	159.26
393.068	152.96
393.529	161.36
393.991	147.86
394.453	142.56
394.915	137.36
395.377	143.06
395.838	150.16
396.3	142.66
396.762	149.36
397.224	142.56
397.685	138.66
398.147	142.46
398.608	143.06
399.07	142.06
399.531	145.26
399.993	159.86
400.454	165.06
400.916	154.76
401.377	153.86
401.839	158.56
402.3	166.56
402.762	181.56
403.223	184.86
403.684	179.66
404.145	174.86
404.607	171.66
405.068	174.76
405.529	182.46
405.99	195.96
406.451	186.96
406.913	177.56
407.374	172.06
407.835	166.86
408.296	176.16
408.757	181.76
409.218	190.26
409.679	188.36
410.14	187.86
410.601	186.86
411.062	200.86
411.522	185.56
411.983	183.16
412.444	184.86
412.905	195.46
413.366	196.86
413.826	206.56
414.287	234.26
414.748	284.16
415.208	272.16
415.669	226.26
416.13	225.46
416.59	218.16
417.051	233.36
417.511	238.86
417.972	262.36
418.432	271.86
418.893	307.16
419.353	271.96
419.814	209.36
420.274	201.06
420.734	195.46
421.195	210.36
421.655	208.26
422.115	214.26
422.576	208.86
423.036	215.86
423.496	221.96
423.956	234.46
424.416	252.66
424.876	286.26
425.336	279.16
425.797	282.66
426.257	275.26
426.717	257.06
427.177	247.46
427.637	236.76
428.097	248.36
428.556	258.46
429.016	285.76
429.476	279.06
429.936	290.16
430.396	292.16
430.856	307.56
431.315	329.36
431.775	368.06
432.235	403.16
432.694	364.16
433.154	378.16
433.614	415.46
434.073	358.56
434.533	295.26
434.993	280.76
435.452	292.96
435.912	308.36
436.371	310.16
436.83	310.96
437.29	278.76
437.749	266.36
438.209	262.46
438.668	298.56
439.127	307.86
439.587	277.26
440.046	259.86
440.505	274.86
440.964	303.56
441.424	343.26
441.883	343.96
442.342	286.96
442.801	245.36
443.26	228.66
443.719	237.06
444.178	233.76
444.637	236.26
445.096	247.96
445.555	247.86
446.014	244.36
446.473	243.26
446.932	249.06
447.391	235.76
447.849	247.66
448.308	232.76
448.767	247.06
449.226	259.96
449.685	256.86
450.143	271.96
450.602	264.16
451.061	246.66
451.519	252.96
451.978	252.56
452.436	244.36
452.895	260.76
453.353	276.26
453.812	262.86
454.27	261.56
454.729	250.66
455.187	266.96
455.646	268.76
456.104	268.56
456.562	289.26
457.021	291.76
457.479	273.86
457.937	305.36
458.395	286.06
458.854	273.86
459.312	275.06
459.77	304.26
460.228	279.46
460.686	268.06
461.144	272.86
461.602	270.36
462.06	269.56
462.518	281.36
462.976	282.26
463.434	286.26
463.892	287.76
464.35	302.16
464.808	310.86
465.266	288.56
465.724	290.66
466.181	298.06
466.639	295.06
467.097	311.96
467.555	332.46
468.012	323.06
468.47	341.56
468.928	362.36
469.385	372.86
469.843	374.36
470.3	376.76
470.758	394.26
471.215	414.56
471.673	432.66
472.13	440.66
472.588	445.96
473.045	408.56
473.503	410.86
473.96	420.66
474.417	432.46
474.875	469.26
475.332	515.26
475.789	499.36
476.246	497.96
476.704	518.26
477.161	543.76
477.618	556.26
478.075	601.76
478.532	654.56
478.989	732.36
479.446	854.86
479.903	794.76
480.36	832.86
480.817	888.46
481.274	978.76
481.731	1074.06
482.188	1150.06
482.645	1265.56
483.102	1371.76
483.558	1504.96
484.015	1536.36
484.472	1498.36
484.929	1476.86
485.385	1418.66
485.842	1396.56
486.299	1351.86
486.755	1308.36
487.212	1109.06
487.668	940.46
488.125	880.66
488.582	814.86
489.038	783.56
489.494	749.16
489.951	711.26
490.407	695.96
490.864	676.96
491.32	671.86
491.776	681.26
492.233	693.66
492.689	660.46
493.145	648.06
493.602	634.66
494.058	660.46
494.514	656.26
494.97	684.46
495.426	697.66
495.882	664.16
496.338	645.26
496.794	663.26
497.251	652.36
497.707	666.76
498.163	676.56
498.618	685.16
499.074	686.06
499.53	714.46
499.986	716.86
500.442	688.06
500.898	664.66
501.354	658.26
501.809	661.56
502.265	656.06
502.721	678.26
503.177	684.96
503.632	680.66
504.088	685.56
504.543	713.66
504.999	733.06
505.455	709.36
505.91	675.36
506.366	683.46
506.821	669.36
507.277	671.56
507.732	676.96
508.187	674.96
508.643	683.16
509.098	678.96
509.553	706.56
510.009	714.46
510.464	727.26
510.919	743.06
511.375	754.86
511.83	761.96
512.285	772.16
512.74	819.66
513.195	837.56
513.65	825.96
514.105	811.76
514.56	822.66
515.015	848.06
515.47	848.76
515.925	831.56
516.38	825.06
516.835	836.46
517.29	831.06
517.745	824.66
518.2	812.06
518.655	793.56
519.109	795.26
519.564	793.36
520.019	780.96
520.474	777.06
520.928	770.76
521.383	781.26
521.838	769.56
522.292	757.76
522.747	759.56
523.201	761.36
523.656	744.46
524.11	737.36
524.565	736.46
525.019	734.76
525.474	751.36
525.928	745.76
526.382	744.46
526.837	747.66
527.291	757.76
527.745	740.16
528.2	738.26
528.654	737.86
529.108	731.76
529.562	739.86
530.016	734.86
530.47	734.86
530.925	742.36
531.379	736.86
531.833	745.26
532.287	747.76
532.741	746.46
533.195	752.86
533.649	752.76
534.103	763.66
534.556	746.96
535.01	758.66
535.464	750.96
535.918	756.06
536.372	764.66
536.826	758.56
537.279	744.16
537.733	767.36
538.187	763.56
538.64	761.66
539.094	775.66
539.548	774.66
540.001	775.16
540.455	777.76
540.908	782.16
541.362	786.56
541.815	792.76
542.269	807.46
542.722	811.86
543.175	824.26
543.629	830.16
544.082	843.46
544.536	843.46
544.989	834.26
545.442	840.06
545.895	845.96
546.349	846.26
546.802	846.06
547.255	864.26
547.708	862.66
548.161	876.56
548.614	885.06
549.067	888.26
549.52	880.86
549.973	867.26
550.426	869.46
550.879	853.66
551.332	859.96
551.785	868.86
552.238	857.76
552.691	888.26
553.144	893.06
553.596	919.16
554.049	928.26
554.502	954.56
554.955	969.06
555.407	966.86
555.86	962.26
556.313	959.46
556.765	945.36
557.218	944.16
557.67	935.76
558.123	929.16
558.576	934.36
559.028	936.56
559.48	942.86
559.933	928.56
560.385	907.76
560.838	871.46
561.29	830.26
561.742	845.36
562.195	820.26
562.647	821.56
563.099	828.66
563.551	829.36
564.004	840.26
564.456	819.76
564.908	811.76
565.36	793.76
565.812	779.66
566.264	769.76
566.716	762.26
567.168	749.46
567.62	757.06
568.072	752.36
568.524	738.16
568.976	744.26
569.428	725.26
569.88	727.86
570.332	736.66
570.784	732.86
571.235	731.26
571.687	749.26
572.139	749.26
572.59	759.06
573.042	761.16
573.494	760.76
573.945	754.06
574.397	732.56
574.849	741.36
575.3	738.26
575.752	729.16
576.203	722.36
576.655	732.16
577.106	724.86
577.557	710.96
578.009	727.16
578.46	718.46
578.912	713.06
579.363	713.96
579.814	719.56
580.265	719.16
580.717	714.86
581.168	724.86
581.619	722.76
582.07	730.06
582.521	723.16
582.972	719.86
583.423	729.76
583.875	720.06
584.326	733.26
584.777	758.46
585.227	774.16
585.678	782.36
586.129	822.86
586.58	839.66
587.031	875.56
587.482	915.06
587.933	951.76
588.384	922.46
588.834	858.96
589.285	830.56
589.736	827.46
590.186	830.46
590.637	816.26
591.088	787.66
591.538	782.86
591.989	778.86
592.439	777.86
592.89	766.96
593.34	752.76
593.791	758.76
594.241	743.66
594.692	752.36
595.142	750.06
595.593	740.06
596.043	749.26
596.493	760.36
596.943	748.26
597.394	769.36
597.844	770.76
598.294	781.26
598.744	807.46
599.195	841.96
599.645	879.66
600.095	915.96
600.545	968.26
600.995	1048.46
601.445	1095.76
601.895	1160.16
602.345	1209.26
602.795	1183.76
603.245	1139.36
603.695	1080.46
604.145	1014.56
604.594	979.26
605.044	926.66
605.494	861.06
605.944	811.56
606.393	793.46
606.843	776.06
607.293	787.46
607.743	774.26
608.192	793.66
608.642	800.36
609.091	811.96
609.541	815.26
609.99	814.16
610.44	810.56
610.889	762.96
611.339	740.16
611.788	722.46
612.238	739.26
612.687	750.26
613.136	752.36
613.586	747.36
614.035	751.66
614.484	767.26
614.933	755.46
615.383	753.46
615.832	752.76
616.281	744.36
616.73	715.16
617.179	698.16
617.628	687.46
618.077	673.86
618.526	659.26
618.975	649.36
619.424	650.56
619.873	657.66
620.322	661.06
620.771	646.06
621.22	645.26
621.669	636.16
622.118	635.06
622.567	621.76
623.015	600.76
623.464	618.16
623.913	602.06
624.361	589.76
624.81	595.96
625.259	596.56
625.707	594.86
626.156	601.36
626.604	607.56
627.053	600.06
627.501	606.36
627.95	610.26
628.398	615.16
628.847	613.16
629.295	612.26
629.744	622.16
630.192	612.56
630.64	606.66
631.089	588.06
631.537	579.86
631.985	574.26
632.433	572.46
632.881	569.06
633.33	572.86
633.778	560.36
634.226	558.86
634.674	572.86
635.122	576.36
635.57	588.36
636.018	607.06
636.466	601.26
636.914	593.76
637.362	613.06
637.81	616.46
638.258	621.46
638.705	617.06
639.153	650.06
639.601	652.56
640.049	677.16
640.497	714.26
640.944	740.16
641.392	678.46
641.84	657.76
642.287	625.36
642.735	600.06
643.182	605.26
643.63	597.56
644.078	607.56
644.525	608.86
644.973	617.56
645.42	635.76
645.867	657.06
646.315	675.76
646.762	682.46
647.21	721.86
647.657	730.56
648.104	780.36
648.551	797.46
648.999	866.66
649.446	942.86
649.893	1027.46
650.34	1179.26
650.787	1410.36
651.234	1731.76
651.682	2236.36
652.129	3016.56
652.576	4297.66
653.023	6245.86
653.47	8407.76
653.917	10390.96
654.363	11927.26
654.81	13035.56
655.257	12385.46
655.704	8236.96
656.151	4976.66
656.598	3276.76
657.044	2350.76
657.491	1818.46
657.938	1479.16
658.385	1243.36
658.831	1085.66
659.278	983.56
659.724	872.66
660.171	812.66
660.618	746.36
661.064	719.66
661.511	707.06
661.957	680.16
662.404	666.96
662.85	677.66
663.296	662.06
663.743	593.96
664.189	562.16
664.635	571.76
665.082	566.16
665.528	562.96
665.974	551.16
666.42	537.56
666.867	528.86
667.313	521.26
667.759	499.16
668.205	485.76
668.651	489.26
669.097	478.16
669.543	467.06
669.989	478.46
670.435	476.56
670.881	478.76
671.327	480.76
671.773	506.76
672.219	531.96
672.665	582.76
673.11	627.96
673.556	669.76
674.002	707.66
674.448	704.26
674.893	587.16
675.339	507.16
675.785	472.96
676.23	451.56
676.676	422.06
677.122	404.96
677.567	394.06
678.013	396.36
678.458	390.06
678.904	393.16
679.349	379.56
679.794	377.56
680.24	372.06
680.685	379.96
681.131	375.16
681.576	372.56
682.021	379.16
682.466	377.76
682.912	378.16
683.357	380.36
683.802	412.16
684.247	451.86
684.692	495.16
685.137	526.96
685.583	575.96
686.028	602.36
686.473	561.16
686.918	480.86
687.363	446.36
687.807	419.26
688.252	387.16
688.697	384.36
689.142	369.16
689.587	360.26
690.032	346.86
690.477	371.06
690.921	379.76
691.366	413.76
691.811	435.26
692.255	464.56
692.7	496.46
693.145	549.16
693.589	775.56
694.034	1236.46
694.478	1668.06
694.923	1863.46
695.367	2394.96
695.812	1293.46
696.256	541.36
696.701	404.66
697.145	362.06
697.59	347.46
698.034	340.36
698.478	346.56
698.922	342.36
699.367	351.56
699.811	364.76
700.255	378.06
700.699	408.66
701.143	453.56
701.588	510.26
702.032	559.96
702.476	548.76
702.92	529.86
703.364	531.26
703.808	715.06
704.252	1156.86
704.696	1583.46
705.14	1780.66
705.584	2264.96
706.027	1150.66
706.471	566.46
706.915	426.56
707.359	388.56
707.803	355.36
708.246	326.46
708.69	333.06
709.134	339.46
709.577	333.16
710.021	331.06
710.465	324.76
710.908	320.86
711.352	320.76
711.795	337.96
712.239	375.36
712.682	418.56
713.126	442.26
713.569	483.36
714.012	386.86
714.456	327.46
714.899	305.16
715.342	300.16
715.786	281.76
716.229	278.66
716.672	271.36
717.115	267.96
717.558	278.46
718.002	269.06
718.445	276.26
718.888	303.76
719.331	313.06
719.774	323.76
720.217	326.26
720.66	307.76
721.103	283.36
721.546	276.16
721.989	266.16
722.432	254.56
722.874	254.26
723.317	254.06
723.76	253.36
724.203	275.46
724.645	350.26
725.088	479.86
725.531	602.76
725.974	689.46
726.416	588.56
726.859	336.66
727.301	271.86
727.744	262.26
728.187	249.86
728.629	253.26
729.071	256.56
729.514	283.36
729.956	294.26
730.399	304.76
730.841	305.46
731.283	294.26
731.726	286.86
732.168	283.76
732.61	286.76
733.053	317.16
733.495	347.26
733.937	383.06
734.379	428.76
734.821	475.56
735.263	600.96
735.705	930.06
736.148	1765.66
736.59	2809.26
737.032	3248.26
737.474	2648.96
737.916	876.56
738.357	463.56
738.799	358.36
739.241	323.26
739.683	304.16
740.125	313.46
740.567	328.76
741.008	336.86
741.45	340.36
741.892	343.26
742.334	388.36
742.775	388.96
743.217	377.66
743.658	288.26
744.1	279.36
744.542	282.36
744.983	348.36
745.425	379.06
745.866	371.96
746.307	297.86
746.749	302.86
747.19	359.26
747.632	507.16
748.073	988.96
748.514	2069.56
748.956	3080.16
749.397	3864.86
749.838	3232.36
750.279	3150.66
750.72	1611.46
751.162	583.16
751.603	348.06
752.044	275.96
752.485	233.26
752.926	228.76
753.367	214.96
753.808	213.46
754.249	195.76
754.69	198.46
755.131	192.96
755.572	195.66
756.013	192.16
756.453	198.06
756.894	196.96
757.335	206.06
757.776	213.46
758.216	213.66
758.657	211.46
759.098	219.66
759.538	243.76
759.979	293.16
760.42	409.96
760.86	796.16
761.301	2066.06
761.741	4878.66
762.182	6812.56
762.622	4809.06
763.063	1425.56
763.503	583.46
763.943	356.66
764.384	303.76
764.824	290.36
765.264	283.26
765.705	236.86
766.145	198.76
766.585	186.96
767.025	190.46
767.465	180.46
767.906	207.26
768.346	232.86
768.786	238.86
769.226	244.36
769.666	337.46
770.106	705.06
770.546	1730.06
770.986	2823.66
771.426	2499.26
771.866	854.86
772.306	348.06
772.745	222.36
773.185	181.36
773.625	174.86
774.065	154.96
774.505	179.66
774.944	227.66
775.384	399.06
775.824	653.16
776.263	625.96
776.703	304.36
777.142	176.06
777.582	148.16
778.021	134.06
778.461	136.66
778.9	138.76
779.34	135.76
779.779	121.86
780.219	119.36
780.658	114.96
781.097	120.36
781.537	119.06
781.976	115.26
782.415	110.36
782.855	109.96
783.294	108.76
783.733	111.46
784.172	116.66
784.611	114.56
785.05	108.86
785.489	119.76
785.928	125.26
786.367	130.56
786.806	132.56
787.245	145.56
787.684	147.06
788.123	162.06
788.562	141.96
789.001	136.86
789.44	127.06
789.879	127.16
790.317	128.56
790.756	139.46
791.195	135.66
791.634	168.26
792.072	222.26
792.511	406.96
792.95	1123.76
793.388	2280.26
793.827	2024.86
794.265	722.76
794.704	303.56
795.142	200.36
795.581	168.66
796.019	146.76
796.458	144.16
796.896	132.66
797.334	136.06
797.773	169.46
798.211	240.86
798.649	490.26
799.087	1117.56
799.526	1725.06
799.964	2189.86
800.402	2123.56
800.84	819.06
801.278	337.76
801.716	201.86
802.154	161.36
802.592	154.56
803.03	150.46
803.468	144.66
803.906	155.46
804.344	164.96
804.782	150.36
805.22	143.26
805.658	144.56
806.096	156.46
806.533	173.56
806.971	197.36
807.409	245.26
807.847	349.86
808.284	746.96
808.722	2061.66
809.16	3557.46
809.597	3447.96
810.035	5874.36
810.472	6086.26
810.91	2252.46
811.347	862.96
811.785	445.26
812.222	280.46
812.66	210.86
813.097	179.06
813.535	148.56
813.972	136.66
814.409	127.66
814.846	119.06
815.284	117.66
815.721	108.76
816.158	109.56
816.595	115.36
817.032	168.16
817.47	191.06
817.907	131.46
818.344	114.16
818.781	104.16
819.218	101.36
819.655	134.56
820.092	202.66
820.529	234.56
820.966	185.26
821.403	136.66
821.839	106.86
822.276	107.76
822.713	124.76
823.15	145.56
823.587	126.76
824.023	163.06
824.46	338.36
824.897	977.36
825.333	1434.46
825.77	624.86
826.206	243.46
826.643	149.66
827.08	113.46
827.516	91.66
827.953	85.36
828.389	87.56
828.825	74.36
829.262	76.56
829.698	69.46
830.135	71.56
830.571	69.26
831.007	74.46
831.443	67.86
831.88	67.76
832.316	61.86
832.752	70.26
833.188	67.66
833.624	67.86
834.06	69.56
834.497	75.76
834.933	74.56
835.369	85.96
835.805	78.86
836.241	82.26
836.677	83.26
837.112	97.46
837.548	118.76
837.984	150.26
838.42	214.46
838.856	556.76
839.292	1663.06
839.727	2441.36
840.163	1155.46
840.599	1031.46
841.034	2199.26
841.47	2241.76
841.906	824.16
842.341	357.86
842.777	218.36
843.212	219.56
843.648	201.26
844.083	121.06
844.519	93.86
844.954	76.46
845.39	61.76
845.825	60.66
846.261	63.16
846.696	55.86
847.131	56.66
847.566	61.16
848.002	58.86
848.437	61.66
848.872	60.36
849.307	69.06
849.742	92.56
850.177	197.26
850.613	615.56
851.048	935.06
851.483	402.86
851.918	170.46
852.353	95.36
852.788	58.56
853.223	54.56
853.657	59.66
854.092	51.06
854.527	43.56
854.962	41.06
855.397	43.76
855.832	51.96
856.266	42.46
856.701	41.26
857.136	40.36
857.57	42.76
858.005	50.46
858.44	59.86
858.874	43.96
859.309	56.46
859.743	42.76
860.178	55.76
860.612	43.56
861.047	55.06
861.481	78.16
861.915	77.36
862.35	51.16
862.784	35.66
863.218	41.06
863.653	38.76
864.087	48.16
864.521	59.16
864.955	73.66
865.39	169.26
865.824	187.46
866.258	124.06
866.692	179.46
867.126	194.36
867.56	115.26
867.994	61.36
868.428	39.96
868.862	51.46
869.296	59.86
869.73	57.96
870.164	56.36
870.598	53.46
871.031	37.46
871.465	34.26
871.899	31.46
872.333	28.26
872.766	25.46
873.2	22.86
873.634	31.76
874.067	31.16
874.501	24.46
874.935	34.96
875.368	33.56
875.802	30.26
876.235	29.16
876.669	29.06
877.102	29.36
877.535	29.26
877.969	28.26
878.402	25.16
878.836	25.16
879.269	18.56
879.702	26.06
880.135	23.66
880.569	26.76
881.002	28.76
881.435	22.16
881.868	23.86
882.301	28.86
882.734	18.66
883.167	25.96
883.601	25.46
884.034	22.66
884.467	19.96
884.899	18.66
885.332	17.76
885.765	18.66
886.198	17.86
886.631	16.76
887.064	26.06
887.497	26.46
887.929	20.46
888.362	19.36
888.795	13.56
889.228	21.76
889.66	25.16
890.093	11.16
890.526	14.16
890.958	19.06
891.391	21.16
891.823	25.76
892.256	17.06
892.688	13.06
893.121	16.06
893.553	14.76
893.985	20.46
894.418	20.76
894.85	16.56
895.282	18.46
895.715	21.86
896.147	19.06
896.579	17.66
897.011	11.76
897.444	25.36
897.876	11.06
898.308	19.76
898.74	14.66
899.172	16.66
899.604	20.36
900.036	21.36
900.468	17.36
900.9	24.86
901.332	21.76
901.764	14.26
902.196	15.96
902.628	16.76
903.06	20.46
903.491	30.06
903.923	26.16
904.355	25.16
904.787	31.76
905.218	21.86
905.65	23.96
906.082	16.06
906.513	11.26
906.945	16.56
907.376	20.96
907.808	23.46
908.239	22.06
908.671	21.06
909.102	22.36
909.534	29.06
909.965	52.96
910.397	105.16
910.828	344.16
911.259	496.76
911.691	236.56
912.122	116.46
912.553	57.76
912.984	35.66
913.415	26.56
913.847	28.66
914.278	23.36
914.709	15.36
915.14	17.86
915.571	23.06
916.002	16.16
916.433	20.36
916.864	15.66
917.295	13.36
917.726	19.96
918.157	19.86
918.587	30.76
919.018	23.06
919.449	19.46
919.88	26.16
920.311	33.16
920.741	58.46
921.172	186.16
921.603	167.66
922.033	79.56
922.464	49.96
922.895	27.76
923.325	21.36
923.756	16.36
924.186	11.06
924.617	23.36
925.047	23.86
925.478	34.56
925.908	22.66
926.338	13.46
926.769	10.06
927.199	17.16
927.629	7.66
928.06	20.76
928.49	13.86
928.92	19.26
929.35	13.76
929.78	9.96
930.21	10.46
930.641	9.46
931.071	9.66
931.501	2.56
931.931	9.76
932.361	13.46
932.791	7.56
933.221	9.56
933.651	9.76
934.08	18.76
934.51	31.46
934.94	14.06
935.37	16.96
935.8	11.26
936.229	9.06
936.659	6.86
937.089	-0.24
937.519	13.96
937.948	25.56
938.378	13.86
938.807	8.06
939.237	4.76
939.666	8.46
940.096	-7.84
940.525	2.76
940.955	2.66
941.384	5.86
941.814	-5.04
942.243	-7.54
942.672	4.46
943.102	-1.44
943.531	0.26
943.96	3.46
944.39	6.06
944.819	-2.54
945.248	4.06
945.677	6.06
946.106	9.56
946.535	6.76
946.964	2.56
947.393	2.36
947.822	-0.44
948.251	-2.74
948.68	7.86
949.109	7.26
949.538	5.96
949.967	3.26
950.396	-0.54
950.825	-0.64
951.254	-2.54
951.682	-5.04
952.111	2.56
952.54	4.66
952.969	-1.24
953.397	-1.94
953.826	5.66
954.254	-2.04
954.683	2.16
955.112	1.36
955.54	-2.44
955.969	1.16
956.397	5.06
956.826	-5.34
957.254	4.86
957.682	3.16
958.111	3.36
958.539	-2.14
958.967	-0.54
959.396	-1.64
959.824	7.36
960.252	1.86
960.68	-1.34
961.109	-2.34
961.537	-9.34
961.965	2.26
962.393	-0.84
962.821	-2.74
963.249	3.96
963.677	5.56
964.105	5.46
964.533	45.06
964.961	48.56
965.389	27.66
965.817	8.66
966.245	3.66
966.672	2.16
967.1	-0.94
967.528	-1.34
967.956	-2.14
968.383	-1.24
968.811	2.06
969.239	0.06
969.666	-5.24
970.094	-1.74
970.522	4.16
970.949	-4.94
971.377	-2.74
971.804	-3.24
972.232	-2.74
972.659	3.66
973.087	-5.44
973.514	-1.84
973.941	1.26
974.369	-0.34
974.796	0.76
975.223	2.06
975.651	4.36
976.078	4.76
976.505	-3.84
976.932	6.46
977.359	18.96
977.786	12.86
978.214	3.76
978.641	-3.14
979.068	-1.34
979.495	-3.24
979.922	2.36
980.349	-3.04
980.776	-3.44
981.202	-2.84
981.629	-3.94
982.056	5.76
982.483	-3.84
982.91	4.46
983.337	-3.74
983.763	6.76
984.19	-1.74
984.617	-2.64
985.043	-8.34
985.47	-3.44
985.897	-0.64
986.323	-6.34
986.75	4.06
987.176	4.56
987.603	0.26
988.029	3.16
988.456	-6.34
988.882	-0.94
989.308	-6.24
989.735	0.56
990.161	0.66
990.587	-0.84
991.014	-2.54
991.44	4.96
991.866	1.56
992.292	-9.74
992.719	-6.24
993.145	1.16
993.571	-12.44
993.997	-4.34
994.423	-3.54
994.849	-10.24
995.275	-0.44
995.701	-1.24
996.127	-1.24
996.553	5.16
996.979	-7.34
997.405	-2.94
997.83	-5.34
998.256	-6.24
998.682	2.26
999.108	-3.14
999.534	-0.34
999.959	-7.84
1000.385	-6.74
1000.811	2.96
1001.236	-3.74
1001.662	-7.24
1002.087	-5.74
1002.513	1.96
1002.938	-4.14
1003.364	0.56
1003.789	-2.54
1004.215	-1.74
1004.64	-0.44
1005.066	6.26
1005.491	2.36
1005.916	-2.24
1006.342	-1.34
1006.767	-6.74
1007.192	2.16
1007.617	-8.04
1008.042	-5.74
1008.468	-7.64
1008.893	-5.44
1009.318	0.96
1009.743	-0.14
1010.168	0.66
1010.593	3.86
1011.018	-8.74
1011.443	-3.04
1011.868	-0.04
1012.293	-2.24
1012.718	-8.44
1013.143	5.96
1013.567	1.66
1013.992	-3.74
1014.417	-11.54
1014.842	-2.14
1015.267	-6.24
1015.691	-2.14
1016.116	0.46
1016.541	-1.14
1016.965	0.66
1017.39	4.56
1017.814	0.56
1018.239	1.66
1018.663	-3.74
1019.088	-3.64
1019.512	1.66
1019.937	-1.24
1020.361	-0.84
1020.785	-9.74
1021.21	-5.94
1021.634	-5.14
1022.058	-2.44
1022.483	7.56
1022.907	-7.84
1023.331	0.06
1023.755	-2.84
1024.179	-3.34
1024.604	-1.54
1025.028	-1.44
1025.452	-2.64
1025.876	-5.64
1026.3	-1.04
1026.724	-7.44
1027.148	-1.74
1027.572	-12.44
1027.996	-7.64
1028.42	0.66
1028.843	-4.94
1029.267	-11.14
1029.691	-2.94
1030.115	-7.54
1030.539	0.16
1030.962	-6.64
1031.386	-8.14
1031.81	-0.64
1032.233	-1.64
1032.657	-8.74
1033.08	2.96
1033.504	-4.74
1033.927	-4.44
1034.351	-4.44
1034.774	-1.94
1035.198	-3.64
1035.621	-6.94
1036.045	-7.24
1036.468	1.96
1036.891	-10.94
1037.315	-11.84
1037.738	-9.74
1038.161	2.56
1038.584	-6.24
1039.008	-3.74
1039.431	-1.74
1039.854	-2.64
1040.277	-14.44
1040.7	-13.24
1041.123	-1.04
1041.546	-7.04
1041.969	-3.34
1042.392	-4.74
1042.815	-1.04
1043.238	1.26
1043.661	2.16
1044.084	-7.84
1044.507	-11.54
1044.93	-9.94
1045.352	-8.54
1045.775	-3.64
1046.198	-6.64
1046.621	0.96
1047.043	-3.04
1047.466	4.36
1047.889	-6.24
1048.311	-8.04
1048.734	-4.54
1049.156	-5.54
1049.579	-0.04
1050.001	1.06
1050.424	3.06
1050.846	-5.94
1051.269	-0.24
1051.691	-1.64
1052.113	-6.14
1052.536	-2.74
1052.958	-4.44
1053.38	-5.64
1053.802	-7.74
1054.225	0.36
1054.647	-8.04
1055.069	-2.24
1055.491	2.56
1055.913	-8.84
1056.335	-1.04
1056.757	-1.04
1057.179	-2.64
1057.601	-9.04
1058.023	-7.24
1058.445	-3.14
1058.867	-4.84
1059.289	1.76
1059.711	-4.04
1060.133	-6.94
1060.555	-5.44
1060.976	-10.14
1061.398	-7.14
1061.82	-0.04
1062.241	-8.84
1062.663	-15.64
1063.085	-4.44
1063.506	-0.24
1063.928	-7.34
1064.35	-3.34
1064.771	-12.74
1065.193	1.16
1065.614	-7.34
1066.035	1.96
1066.457	-6.34
1066.878	0.56
1067.3	-6.24
1067.721	-3.14
1068.142	-0.64
1068.564	-1.54
1068.985	-3.94
1069.406	-9.54
1069.827	-2.14
1070.248	0.36
1070.67	-8.94
1071.091	-0.54
1071.512	-0.34
1071.933	-1.34
1072.354	-9.04
1072.775	-3.74
1073.196	-10.94
1073.617	-6.04
1074.038	-3.64
1074.459	-2.54
1074.88	-4.34
1075.3	-3.64
1075.721	-11.94
1076.142	1.66
1076.563	2.06
1076.983	-11.74
1077.404	-4.94
1077.825	-11.24
1078.246	1.46
1078.666	-9.64
1079.087	-5.54
1079.507	-4.54
1079.928	2.36
1080.348	0.96
1080.769	-5.94
1081.189	-6.54
1081.61	-4.74
1082.03	-6.04
1082.451	-6.34
1082.871	-3.14
1083.291	-5.94
1083.711	-9.64
1084.132	-8.54
1084.552	-4.44
1084.972	-6.64
1085.392	-13.34
1085.813	-9.74
1086.233	-10.24
1086.653	-1.94
1087.073	-5.64
1087.493	-10.84
1087.913	-8.84
1088.333	-10.54
1088.753	-3.24
1089.173	-2.04
1089.593	-4.44
1090.013	4.86
1090.433	2.26
1090.852	-7.54
1091.272	-5.14
1091.692	0.56
1092.112	-7.24
1092.531	-9.14
1092.951	-12.14
1093.371	2.36
1093.79	-2.64
1094.21	-6.04
1094.63	-7.84
1095.049	-1.24
1095.469	-4.14
1095.888	-1.94
1096.308	5.36
1096.727	3.86
1097.146	-6.14
1097.566	-1.64
1097.985	-0.84
1098.405	-2.04
1098.824	-9.14
1099.243	-10.94
1099.662	-6.34
1100.082	-3.64
1100.501	1.66
1100.92	-5.14
1101.339	-14.74
1101.758	-4.54
