Data from 20171114-ORNL-Ar_H_NY_Subt18_08-05-17-676.txt Node
Date: Tue Nov 14 08:05:17 EST 2017
User: Ender
Spectrometer: HR+D1039
Trigger mode: 0
Integration Time (sec): 2.730000E-2
Scans to average: 10
Electric dark correction enabled: true
Nonlinearity correction enabled: false
Boxcar width: 0
XAxis mode: Wavelengths
Number of Pixels in Spectrum: 2048
>>>>>Begin Spectral Data<<<<<
187.836	-2.18
188.309	-2.18
188.782	-2.18
189.255	-0.68
189.728	-1.97
190.201	5.12
190.674	-0.18
191.147	1.32
191.619	-2.18
192.092	-2.48
192.565	6.12
193.038	1.92
193.511	-1.48
193.984	2.02
194.456	-1.67
194.929	4.23
195.402	-7.18
195.874	-0.77
196.347	1.52
196.82	-4.67
197.292	8.23
197.765	2.33
198.237	-9.98
198.71	0.62
199.182	-3.67
199.655	1.32
200.127	0.52
200.6	-1.98
201.072	-0.58
201.544	-5.98
202.017	-6.17
202.489	-0.48
202.961	1.23
203.433	3.62
203.906	-5.47
204.378	-1.38
204.85	-6.28
205.322	-14.68
205.794	-1.18
206.266	-7.48
206.739	-6.38
207.211	0.52
207.683	-7.27
208.155	-7.18
208.627	-7.58
209.099	-3.48
209.57	-9.57
210.042	-1.68
210.514	-5.57
210.986	-1.17
211.458	-6.48
211.93	-4.08
212.402	1.12
212.873	-5.08
213.345	-9.67
213.817	-7.98
214.288	-0.78
214.76	-10.77
215.232	3.12
215.703	-1.57
216.175	-1.67
216.646	-5.17
217.118	-7.98
217.589	0.03
218.061	3.52
218.532	-5.38
219.004	-1.67
219.475	-1.27
219.946	-3.38
220.418	-9.07
220.889	4.73
221.36	5.03
221.832	-2.58
222.303	-6.57
222.774	-2.38
223.245	-9.97
223.717	-0.68
224.188	-3.48
224.659	-12.38
225.13	-9.57
225.601	-0.48
226.072	-2.57
226.543	-3.08
227.014	-1.18
227.485	-7.38
227.956	-7.17
228.427	-0.57
228.898	3.12
229.369	7.82
229.839	-0.27
230.31	-8.98
230.781	8.02
231.252	-0.17
231.722	-9.48
232.193	0.62
232.664	3.43
233.135	8.02
233.605	2.53
234.076	-7.98
234.546	-1.38
235.017	7.12
235.487	1.92
235.958	-0.48
236.428	-3.17
236.899	2.23
237.369	2.83
237.84	-5.08
238.31	0.32
238.78	6.33
239.251	1.33
239.721	3.52
240.191	5.23
240.662	2.93
241.132	4.83
241.602	-1.08
242.072	4.83
242.542	10.62
243.013	-1.38
243.483	6.93
243.953	6.83
244.423	-2.97
244.893	-3.68
245.363	4.92
245.833	0.33
246.303	1.92
246.773	8.92
247.243	1.12
247.712	8.22
248.182	8.32
248.652	13.02
249.122	1.62
249.592	12.73
250.061	26.12
250.531	37.53
251.001	20.93
251.471	21.83
251.94	21.12
252.41	11.73
252.879	1.83
253.349	13.52
253.818	11.62
254.288	3.73
254.757	1.12
255.227	4.62
255.696	3.02
256.166	8.53
256.635	10.43
257.105	6.43
257.574	8.82
258.043	14.33
258.513	11.82
258.982	19.43
259.451	12.73
259.92	17.23
260.389	14.52
260.859	13.83
261.328	17.12
261.797	21.12
262.266	8.23
262.735	13.33
263.204	2.52
263.673	1.02
264.142	10.03
264.611	0.42
265.08	-4.98
265.549	-0.27
266.018	11.23
266.487	-3.88
266.955	2.62
267.424	2.33
267.893	8.12
268.362	3.93
268.83	9.42
269.299	15.62
269.768	6.32
270.236	5.83
270.705	5.62
271.174	11.93
271.642	7.12
272.111	10.93
272.579	16.72
273.048	26.22
273.516	35.02
273.985	29.02
274.453	32.42
274.922	26.12
275.39	13.92
275.858	5.12
276.327	16.62
276.795	15.83
277.263	18.12
277.731	38.72
278.2	52.02
278.668	63.23
279.136	56.23
279.604	18.83
280.072	15.93
280.54	20.83
281.008	20.42
281.477	13.42
281.945	8.12
282.413	20.23
282.881	17.62
283.348	10.12
283.816	16.82
284.284	13.62
284.752	20.72
285.22	17.23
285.688	15.72
286.156	18.23
286.623	49.62
287.091	49.73
287.559	31.83
288.026	19.62
288.494	11.02
288.962	6.12
289.429	16.32
289.897	19.53
290.364	19.82
290.832	19.23
291.3	19.02
291.767	23.03
292.234	15.02
292.702	13.52
293.169	19.73
293.637	19.12
294.104	20.73
294.571	10.42
295.039	15.32
295.506	17.12
295.973	18.82
296.44	18.93
296.908	20.33
297.375	21.23
297.842	25.83
298.309	22.43
298.776	12.33
299.243	27.52
299.71	17.82
300.177	21.23
300.644	27.12
301.111	24.73
301.578	29.82
302.045	16.52
302.512	29.83
302.979	25.02
303.446	21.92
303.913	17.43
304.379	19.73
304.846	27.33
305.313	31.42
305.78	28.62
306.246	33.12
306.713	29.62
307.18	29.03
307.646	27.32
308.113	37.02
308.579	27.92
309.046	27.03
309.512	27.62
309.979	19.32
310.445	28.12
310.912	36.92
311.378	35.42
311.845	28.03
312.311	31.02
312.777	35.32
313.244	31.12
313.71	40.62
314.176	34.73
314.642	29.42
315.109	36.02
315.575	40.83
316.041	44.52
316.507	33.62
316.973	51.02
317.439	34.62
317.905	37.23
318.371	39.92
318.837	39.93
319.303	42.73
319.769	39.33
320.235	38.82
320.701	33.42
321.167	41.42
321.633	41.23
322.099	41.52
322.564	45.52
323.03	45.02
323.496	40.12
323.962	40.12
324.427	45.33
324.893	44.52
325.359	43.62
325.824	40.42
326.29	39.42
326.755	40.22
327.221	47.82
327.686	43.52
328.152	50.73
328.617	47.62
329.083	49.73
329.548	50.52
330.014	53.02
330.479	52.52
330.944	44.42
331.41	39.02
331.875	47.93
332.34	43.43
332.805	44.92
333.271	46.83
333.736	51.73
334.201	55.43
334.666	57.02
335.131	53.82
335.596	53.42
336.061	55.82
336.526	43.52
336.991	53.12
337.456	57.93
337.921	57.92
338.386	45.42
338.851	48.72
339.316	48.02
339.781	46.83
340.246	52.93
340.711	51.73
341.175	56.12
341.64	45.93
342.105	56.33
342.569	60.12
343.034	66.82
343.499	58.52
343.963	58.03
344.428	68.03
344.893	64.82
345.357	62.23
345.822	60.82
346.286	70.23
346.751	75.73
347.215	73.92
347.679	73.12
348.144	104.23
348.608	89.33
349.073	71.62
349.537	80.52
350.001	83.23
350.465	91.62
350.93	86.52
351.394	84.43
351.858	78.53
352.322	96.62
352.786	85.33
353.25	107.42
353.715	116.52
354.179	103.62
354.643	119.83
355.107	126.42
355.571	117.62
356.035	105.42
356.498	117.52
356.962	124.52
357.426	135.82
357.89	121.02
358.354	92.52
358.818	89.83
359.281	83.12
359.745	80.03
360.209	80.12
360.673	78.12
361.136	84.23
361.6	81.62
362.064	88.83
362.527	81.82
362.991	90.42
363.454	81.12
363.918	81.62
364.381	80.42
364.845	85.42
365.308	85.62
365.772	83.73
366.235	88.92
366.698	82.32
367.162	92.12
367.625	83.32
368.088	95.62
368.552	88.52
369.015	85.62
369.478	97.52
369.941	105.62
370.404	98.22
370.867	110.32
371.331	105.12
371.794	110.02
372.257	118.52
372.72	115.22
373.183	108.83
373.646	109.62
374.109	108.53
374.572	105.82
375.035	109.02
375.497	115.22
375.96	108.23
376.423	111.62
376.886	115.12
377.349	116.23
377.811	101.93
378.274	108.03
378.737	112.12
379.199	111.53
379.662	110.02
380.125	117.53
380.587	117.23
381.05	119.73
381.512	135.52
381.975	136.02
382.437	133.43
382.9	127.52
383.362	134.33
383.825	142.73
384.287	146.92
384.75	151.62
385.212	145.92
385.674	139.62
386.136	136.93
386.599	132.73
387.061	125.62
387.523	135.23
387.985	142.62
388.447	140.12
388.91	144.73
389.372	153.03
389.834	156.42
390.296	144.82
390.758	155.23
391.22	169.52
391.682	214.43
392.144	288.23
392.606	221.72
393.068	168.83
393.529	167.82
393.991	157.52
394.453	153.12
394.915	155.82
395.377	199.52
395.838	214.32
396.3	152.12
396.762	142.23
397.224	135.52
397.685	129.22
398.147	135.03
398.608	130.62
399.07	132.83
399.531	135.73
399.993	141.73
400.454	152.42
400.916	146.32
401.377	146.33
401.839	151.62
402.3	159.52
402.762	166.33
403.223	181.32
403.684	175.62
404.145	165.82
404.607	163.42
405.068	172.23
405.529	175.52
405.99	188.73
406.451	176.72
406.913	175.52
407.374	167.52
407.835	162.62
408.296	170.12
408.757	169.52
409.218	188.92
409.679	176.12
410.14	177.43
410.601	183.83
411.062	178.02
411.522	189.43
411.983	187.82
412.444	179.93
412.905	179.73
413.366	182.42
413.826	194.92
414.287	224.32
414.748	267.02
415.208	248.42
415.669	217.02
416.13	204.83
416.59	210.22
417.051	215.92
417.511	217.62
417.972	246.12
418.432	249.63
418.893	292.63
419.353	246.03
419.814	196.42
420.274	181.62
420.734	182.72
421.195	195.02
421.655	197.73
422.115	197.92
422.576	198.12
423.036	196.53
423.496	200.33
423.956	213.12
424.416	224.52
424.876	269.42
425.336	259.83
425.797	268.72
426.257	251.33
426.717	247.73
427.177	236.43
427.637	227.42
428.097	235.83
428.556	250.63
429.016	274.93
429.476	264.92
429.936	283.23
430.396	280.93
430.856	294.52
431.315	318.52
431.775	348.22
432.235	387.52
432.694	350.22
433.154	368.13
433.614	393.02
434.073	340.83
434.533	289.83
434.993	275.82
435.452	286.02
435.912	298.12
436.371	291.33
436.83	284.73
437.29	267.42
437.749	246.02
438.209	251.32
438.668	267.02
439.127	289.93
439.587	265.73
440.046	252.23
440.505	263.83
440.964	282.33
441.424	321.03
441.883	307.53
442.342	260.53
442.801	227.73
443.26	222.43
443.719	225.43
444.178	214.23
444.637	215.03
445.096	222.33
445.555	230.12
446.014	225.22
446.473	231.02
446.932	223.72
447.391	220.02
447.849	221.92
448.308	220.93
448.767	218.42
449.226	238.92
449.685	234.02
450.143	246.32
450.602	237.52
451.061	229.52
451.519	239.12
451.978	232.02
452.436	239.52
452.895	239.03
453.353	251.42
453.812	244.42
454.27	238.32
454.729	241.03
455.187	244.52
455.646	243.22
456.104	245.73
456.562	261.42
457.021	271.12
457.479	255.82
457.937	280.12
458.395	266.42
458.854	247.63
459.312	252.52
459.77	272.23
460.228	258.83
460.686	241.93
461.144	253.73
461.602	242.62
462.06	247.53
462.518	249.83
462.976	255.92
463.434	260.02
463.892	266.32
464.35	277.42
464.808	299.63
465.266	270.73
465.724	265.83
466.181	278.82
466.639	271.02
467.097	289.43
467.555	300.23
468.012	304.82
468.47	307.02
468.928	326.72
469.385	343.23
469.843	349.82
470.3	351.92
470.758	357.82
471.215	386.02
471.673	412.32
472.13	413.12
472.588	422.43
473.045	378.33
473.503	392.12
473.96	393.12
474.417	409.73
474.875	429.33
475.332	482.43
475.789	459.03
476.246	468.62
476.704	483.03
477.161	516.52
477.618	531.73
478.075	571.53
478.532	621.73
478.989	695.13
479.446	811.92
479.903	771.03
480.36	819.43
480.817	877.22
481.274	980.32
481.731	1092.33
482.188	1185.12
482.645	1323.72
483.102	1438.03
483.558	1573.22
484.015	1624.33
484.472	1593.03
484.929	1553.93
485.385	1500.62
485.842	1456.42
486.299	1380.92
486.755	1312.62
487.212	1099.33
487.668	944.92
488.125	856.32
488.582	781.73
489.038	752.23
489.494	722.62
489.951	695.82
490.407	673.83
490.864	656.72
491.32	651.52
491.776	643.23
492.233	656.72
492.689	612.63
493.145	608.72
493.602	601.43
494.058	611.93
494.514	622.53
494.97	646.73
495.426	647.63
495.882	618.02
496.338	613.93
496.794	636.02
497.251	626.73
497.707	638.73
498.163	646.32
498.618	647.12
499.074	646.52
499.53	680.92
499.986	664.33
500.442	658.23
500.898	635.33
501.354	625.92
501.809	637.22
502.265	653.13
502.721	675.83
503.177	670.03
503.632	663.12
504.088	677.83
504.543	718.03
504.999	715.93
505.455	658.92
505.91	634.52
506.366	638.23
506.821	635.33
507.277	619.12
507.732	617.83
508.187	620.73
508.643	635.73
509.098	627.93
509.553	655.42
510.009	672.22
510.464	675.62
510.919	689.63
511.375	697.72
511.83	711.12
512.285	720.22
512.74	764.73
513.195	787.13
513.65	776.42
514.105	773.52
514.56	779.22
515.015	801.73
515.47	810.93
515.925	796.53
516.38	799.62
516.835	801.82
517.29	788.53
517.745	779.33
518.2	778.83
518.655	761.12
519.109	738.33
519.564	740.72
520.019	737.43
520.474	729.33
520.928	723.92
521.383	723.22
521.838	715.02
522.292	709.63
522.747	712.43
523.201	707.52
523.656	699.82
524.11	695.92
524.565	693.23
525.019	694.33
525.474	700.02
525.928	706.42
526.382	695.02
526.837	690.82
527.291	707.52
527.745	693.92
528.2	700.12
528.654	694.82
529.108	695.73
529.562	689.02
530.016	680.53
530.47	690.12
530.925	700.23
531.379	695.82
531.833	701.92
532.287	698.02
532.741	699.62
533.195	695.12
533.649	714.23
534.103	724.32
534.556	718.02
535.01	712.33
535.464	705.23
535.918	725.83
536.372	727.83
536.826	714.03
537.279	705.42
537.733	711.02
538.187	712.62
538.64	711.12
539.094	729.63
539.548	726.22
540.001	731.33
540.455	723.52
540.908	720.82
541.362	736.02
541.815	739.73
542.269	756.42
542.722	759.43
543.175	767.32
543.629	768.62
544.082	786.02
544.536	791.13
544.989	769.83
545.442	790.02
545.895	779.02
546.349	777.73
546.802	782.02
547.255	796.52
547.708	809.52
548.161	803.72
548.614	808.62
549.067	826.32
549.52	821.63
549.973	813.32
550.426	803.33
550.879	788.43
551.332	786.72
551.785	796.32
552.238	802.93
552.691	814.83
553.144	829.72
553.596	840.62
554.049	861.23
554.502	881.73
554.955	904.33
555.407	902.62
555.86	893.12
556.313	883.13
556.765	883.22
557.218	879.53
557.67	880.42
558.123	862.52
558.576	863.73
559.028	871.62
559.48	877.22
559.933	875.43
560.385	832.62
560.838	797.42
561.29	776.12
561.742	768.23
562.195	757.43
562.647	761.53
563.099	760.12
563.551	768.73
564.004	777.62
564.456	768.22
564.908	750.52
565.36	738.73
565.812	722.12
566.264	722.62
566.716	714.12
567.168	713.72
567.62	707.62
568.072	693.93
568.524	691.53
568.976	684.12
569.428	666.02
569.88	657.73
570.332	670.23
570.784	673.72
571.235	678.12
571.687	688.23
572.139	688.62
572.59	705.12
573.042	703.72
573.494	698.42
573.945	702.22
574.397	670.32
574.849	683.23
575.3	684.23
575.752	670.73
576.203	675.22
576.655	672.62
577.106	666.02
577.557	655.62
578.009	655.03
578.46	650.42
578.912	652.12
579.363	646.02
579.814	648.83
580.265	650.12
580.717	658.73
581.168	665.02
581.619	663.03
582.07	673.83
582.521	664.42
582.972	665.12
583.423	671.12
583.875	673.13
584.326	689.83
584.777	739.22
585.227	814.23
585.678	898.93
586.129	987.12
586.58	1073.83
587.031	1148.82
587.482	1311.73
587.933	1512.03
588.384	1293.93
588.834	975.52
589.285	799.83
589.736	766.93
590.186	756.92
590.637	745.43
591.088	733.73
591.538	725.02
591.989	710.63
592.439	713.42
592.89	700.33
593.34	694.82
593.791	689.42
594.241	690.12
594.692	695.63
595.142	687.43
595.593	684.23
596.043	693.42
596.493	702.43
596.943	697.12
597.394	701.32
597.844	691.82
598.294	704.12
598.744	729.12
599.195	759.63
599.645	788.02
600.095	830.03
600.545	892.42
600.995	936.62
601.445	980.83
601.895	1058.23
602.345	1100.22
602.795	1093.53
603.245	1029.72
603.695	989.53
604.145	923.13
604.594	890.62
605.044	841.73
605.494	770.22
605.944	734.73
606.393	722.12
606.843	707.23
607.293	714.12
607.743	698.13
608.192	722.12
608.642	731.52
609.091	745.83
609.541	742.82
609.99	747.33
610.44	735.23
610.889	695.83
611.339	676.72
611.788	661.33
612.238	676.03
612.687	695.83
613.136	694.52
613.586	712.72
614.035	713.23
614.484	728.93
614.933	733.12
615.383	724.63
615.832	714.33
616.281	704.53
616.73	657.02
617.179	651.72
617.628	630.33
618.077	614.93
618.526	600.52
618.975	592.22
619.424	596.12
619.873	588.03
620.322	593.73
620.771	582.32
621.22	588.12
621.669	577.62
622.118	561.33
622.567	567.83
623.015	548.62
623.464	549.43
623.913	542.92
624.361	533.42
624.81	534.12
625.259	535.23
625.707	532.12
626.156	533.12
626.604	548.33
627.053	538.42
627.501	546.83
627.95	554.12
628.398	555.62
628.847	544.23
629.295	555.63
629.744	547.22
630.192	550.53
630.64	544.62
631.089	544.52
631.537	551.02
631.985	556.32
632.433	577.63
632.881	582.42
633.33	634.42
633.778	617.93
634.226	534.23
634.674	551.73
635.122	560.22
635.57	582.42
636.018	600.32
636.466	549.43
636.914	537.93
637.362	547.62
637.81	547.22
638.258	543.83
638.705	557.32
639.153	576.62
639.601	583.93
640.049	605.33
640.497	651.92
640.944	669.42
641.392	623.32
641.84	579.33
642.287	554.93
642.735	538.83
643.182	547.53
643.63	554.23
644.078	549.12
644.525	571.22
644.973	568.52
645.42	571.83
645.867	587.32
646.315	612.42
646.762	636.12
647.21	653.62
647.657	681.72
648.104	710.02
648.551	733.02
648.999	797.73
649.446	876.02
649.893	969.03
650.34	1103.53
650.787	1335.82
651.234	1647.53
651.682	2136.42
652.129	2951.92
652.576	4208.62
653.023	6271.43
653.47	8623.72
653.917	10854.02
654.363	12613.93
654.81	13990.12
655.257	13358.62
655.704	8735.52
656.151	5121.42
656.598	3324.72
657.044	2344.52
657.491	1802.72
657.938	1442.82
658.385	1191.42
658.831	1032.53
659.278	920.23
659.724	823.92
660.171	751.62
660.618	689.32
661.064	661.12
661.511	633.13
661.957	627.53
662.404	613.02
662.85	617.33
663.296	594.93
663.743	536.62
664.189	508.83
664.635	502.52
665.082	499.43
665.528	501.22
665.974	487.32
666.42	489.12
666.867	479.12
667.313	463.93
667.759	458.92
668.205	453.83
668.651	461.83
669.097	469.33
669.543	486.22
669.989	449.02
670.435	425.62
670.881	422.03
671.327	416.12
671.773	445.83
672.219	463.52
672.665	514.83
673.11	552.52
673.556	597.23
674.002	630.23
674.448	619.33
674.893	519.82
675.339	449.53
675.785	414.13
676.23	393.72
676.676	379.32
677.122	363.12
677.567	347.52
678.013	345.12
678.458	336.73
678.904	334.53
679.349	326.43
679.794	333.13
680.24	328.12
680.685	337.12
681.131	333.73
681.576	332.83
682.021	335.02
682.466	332.33
682.912	325.02
683.357	328.93
683.802	359.83
684.247	385.42
684.692	423.12
685.137	462.43
685.583	506.02
686.028	519.02
686.473	481.42
686.918	412.42
687.363	390.03
687.807	372.12
688.252	346.22
688.697	333.22
689.142	306.73
689.587	315.22
690.032	301.62
690.477	317.03
690.921	324.12
691.366	356.52
691.811	382.22
692.255	398.52
692.7	428.52
693.145	469.73
693.589	648.92
694.034	1051.32
694.478	1435.02
694.923	1630.33
695.367	2156.93
695.812	1118.42
696.256	467.72
696.701	355.72
697.145	316.43
697.59	312.02
698.034	300.52
698.478	306.83
698.922	307.92
699.367	306.13
699.811	319.02
700.255	337.33
700.699	355.52
701.143	393.83
701.588	445.83
702.032	484.82
702.476	486.33
702.92	459.92
703.364	457.92
703.808	580.83
704.252	950.12
704.696	1339.42
705.14	1571.53
705.584	2019.22
706.027	1002.22
706.471	490.52
706.915	370.62
707.359	329.12
707.803	291.92
708.246	290.92
708.69	292.53
709.134	293.62
709.577	288.02
710.021	288.92
710.465	281.62
710.908	287.93
711.352	271.93
711.795	290.12
712.239	315.63
712.682	357.92
713.126	392.42
713.569	436.93
714.012	352.23
714.456	302.92
714.899	275.02
715.342	257.42
715.786	236.63
716.229	239.62
716.672	241.43
717.115	237.23
717.558	244.62
718.002	231.12
718.445	244.82
718.888	266.62
719.331	279.03
719.774	285.82
720.217	282.62
720.66	267.33
721.103	243.83
721.546	238.83
721.989	233.02
722.432	216.73
722.874	225.33
723.317	212.23
723.76	212.73
724.203	239.92
724.645	294.73
725.088	404.62
725.531	538.62
725.974	600.72
726.416	514.02
726.859	283.03
727.301	227.73
727.744	217.73
728.187	218.62
728.629	217.72
729.071	220.73
729.514	234.93
729.956	249.03
730.399	263.93
730.841	268.83
731.283	256.12
731.726	251.33
732.168	238.62
732.61	254.12
733.053	268.62
733.495	288.42
733.937	325.33
734.379	370.72
734.821	405.32
735.263	491.92
735.705	754.82
736.148	1439.12
736.59	2385.23
737.032	2891.02
737.474	2341.93
737.916	747.63
738.357	398.23
738.799	311.32
739.241	277.62
739.683	265.02
740.125	265.32
740.567	276.82
741.008	296.62
741.45	288.93
741.892	287.23
742.334	324.12
742.775	334.42
743.217	327.92
743.658	251.72
744.1	236.33
744.542	243.63
744.983	280.82
745.425	327.72
745.866	322.73
746.307	261.82
746.749	268.02
747.19	308.42
747.632	419.12
748.073	794.53
748.514	1695.13
748.956	2644.12
749.397	3328.52
749.838	2756.52
750.279	2782.32
750.72	1399.62
751.162	501.43
751.603	298.62
752.044	235.33
752.485	200.52
752.926	198.03
753.367	184.42
753.808	182.72
754.249	182.92
754.69	174.73
755.131	172.23
755.572	171.42
756.013	168.02
756.453	168.52
756.894	176.62
757.335	172.43
757.776	177.42
758.216	188.52
758.657	185.43
759.098	189.32
759.538	209.02
759.979	252.22
760.42	346.73
760.86	629.93
761.301	1641.62
761.741	4025.23
762.182	6072.83
762.622	4297.33
763.063	1220.93
763.503	503.53
763.943	324.03
764.384	320.92
764.824	382.53
765.264	428.73
765.705	290.62
766.145	201.32
766.585	177.12
767.025	168.32
767.465	171.32
767.906	225.63
768.346	298.33
768.786	333.42
769.226	239.93
769.666	294.02
770.106	554.92
770.546	1408.93
770.986	2467.23
771.426	2236.52
771.866	738.42
772.306	305.02
772.745	187.23
773.185	164.12
773.625	155.92
774.065	149.23
774.505	189.72
774.944	283.92
775.384	634.53
775.824	1176.62
776.263	1165.82
776.703	489.22
777.142	204.73
777.582	154.42
778.021	130.52
778.461	128.53
778.9	126.92
779.34	129.73
779.779	112.02
780.219	103.73
780.658	107.43
781.097	101.12
781.537	107.42
781.976	107.62
782.415	100.72
782.855	88.52
783.294	102.73
783.733	102.52
784.172	100.42
784.611	97.12
785.05	103.02
785.489	103.43
785.928	112.02
786.367	108.73
786.806	117.12
787.245	122.62
787.684	123.92
788.123	143.73
788.562	122.62
789.001	116.83
789.44	114.43
789.879	108.82
790.317	113.12
790.756	125.02
791.195	115.93
791.634	135.83
792.072	186.33
792.511	327.53
792.95	895.83
793.388	1988.32
793.827	1834.22
794.265	633.23
794.704	261.02
795.142	168.73
795.581	137.12
796.019	124.73
796.458	118.23
796.896	115.23
797.334	118.92
797.773	140.92
798.211	200.82
798.649	391.02
799.087	927.33
799.526	1457.22
799.964	1856.53
800.402	1897.83
800.84	698.52
801.278	282.93
801.716	168.33
802.154	137.32
802.592	128.93
803.03	125.12
803.468	119.12
803.906	133.73
804.344	143.52
804.782	126.23
805.22	126.72
805.658	115.52
806.096	141.33
806.533	145.12
806.971	162.52
807.409	194.12
807.847	287.72
808.284	583.83
808.722	1681.73
809.16	3087.22
809.597	2851.62
810.035	5006.42
810.472	5495.12
810.91	1968.72
811.347	734.92
811.785	380.62
812.222	232.92
812.66	181.12
813.097	153.52
813.535	135.82
813.972	118.73
814.409	108.73
814.846	100.33
815.284	101.83
815.721	90.82
816.158	101.23
816.595	106.53
817.032	162.02
817.47	183.73
817.907	170.43
818.344	140.42
818.781	108.62
819.218	93.33
819.655	115.23
820.092	169.82
820.529	203.83
820.966	166.73
821.403	123.52
821.839	106.52
822.276	94.83
822.713	115.32
823.15	122.23
823.587	110.33
824.023	136.23
824.46	273.92
824.897	815.32
825.333	1277.72
825.77	553.33
826.206	214.83
826.643	129.73
827.08	87.02
827.516	80.73
827.953	72.02
828.389	72.92
828.825	65.83
829.262	60.32
829.698	61.62
830.135	60.02
830.571	62.32
831.007	50.23
831.443	59.42
831.88	59.23
832.316	54.02
832.752	59.23
833.188	62.03
833.624	61.62
834.06	62.93
834.497	65.52
834.933	68.93
835.369	75.02
835.805	55.92
836.241	71.52
836.677	74.03
837.112	83.32
837.548	101.23
837.984	119.33
838.42	185.33
838.856	444.32
839.292	1387.43
839.727	2165.73
840.163	1003.83
840.599	838.32
841.034	1876.53
841.47	2025.32
841.906	728.83
842.341	307.73
842.777	217.42
843.212	293.92
843.648	299.12
844.083	138.52
844.519	86.53
844.954	75.62
845.39	67.23
845.825	58.73
846.261	53.93
846.696	49.42
847.131	55.23
847.566	55.02
848.002	53.83
848.437	46.33
848.872	61.62
849.307	59.83
849.742	71.53
850.177	157.73
850.613	507.53
851.048	819.12
851.483	352.83
851.918	139.22
852.353	80.12
852.788	53.02
853.223	53.12
853.657	55.82
854.092	42.43
854.527	38.42
854.962	40.92
855.397	45.62
855.832	43.62
856.266	36.03
856.701	31.12
857.136	29.73
857.57	37.73
858.005	49.62
858.44	51.23
858.874	36.33
859.309	46.83
859.743	35.23
860.178	41.92
860.612	42.73
861.047	46.12
861.481	57.02
861.915	63.53
862.35	44.92
862.784	36.12
863.218	31.42
863.653	26.92
864.087	38.23
864.521	51.02
864.955	63.93
865.39	139.32
865.824	164.12
866.258	103.23
866.692	153.83
867.126	166.12
867.56	101.22
867.994	48.82
868.428	38.42
868.862	45.93
869.296	51.23
869.73	48.42
870.164	52.52
870.598	42.62
871.031	30.82
871.465	31.73
871.899	25.83
872.333	21.83
872.766	23.33
873.2	23.52
873.634	27.93
874.067	23.92
874.501	24.12
874.935	31.02
875.368	29.42
875.802	24.62
876.235	27.23
876.669	22.52
877.102	19.52
877.535	26.83
877.969	16.33
878.402	25.92
878.836	12.02
879.269	19.03
879.702	26.23
880.135	18.52
880.569	21.42
881.002	24.03
881.435	18.32
881.868	14.23
882.301	21.83
882.734	10.73
883.167	20.52
883.601	15.73
884.034	17.22
884.467	12.53
884.899	14.73
885.332	18.23
885.765	14.53
886.198	12.92
886.631	18.82
887.064	13.73
887.497	18.82
887.929	25.23
888.362	10.73
888.795	8.62
889.228	11.92
889.66	15.82
890.093	11.02
890.526	17.72
890.958	16.73
891.391	17.93
891.823	23.43
892.256	13.83
892.688	12.73
893.121	15.53
893.553	18.82
893.985	20.72
894.418	19.72
894.85	12.83
895.282	17.42
895.715	18.23
896.147	14.93
896.579	15.42
897.011	14.33
897.444	20.33
897.876	16.62
898.308	20.22
898.74	17.73
899.172	14.12
899.604	23.93
900.036	22.92
900.468	16.62
900.9	8.23
901.332	9.02
901.764	13.62
902.196	19.53
902.628	24.83
903.06	11.72
903.491	30.92
903.923	22.92
904.355	15.23
904.787	23.42
905.218	28.03
905.65	21.02
906.082	15.12
906.513	14.82
906.945	8.52
907.376	16.52
907.808	14.92
908.239	17.03
908.671	16.52
909.102	17.43
909.534	25.03
909.965	46.62
910.397	79.12
910.828	283.73
911.259	448.42
911.691	203.43
912.122	98.03
912.553	46.92
912.984	26.53
913.415	27.43
913.847	28.02
914.278	18.02
914.709	17.92
915.14	16.12
915.571	16.62
916.002	15.42
916.433	20.43
916.864	21.32
917.295	13.12
917.726	19.12
918.157	15.72
918.587	24.42
919.018	26.23
919.449	21.93
919.88	15.62
920.311	30.23
920.741	49.82
921.172	154.52
921.603	139.12
922.033	67.42
922.464	41.62
922.895	22.22
923.325	16.33
923.756	11.52
924.186	11.33
924.617	26.53
925.047	38.23
925.478	50.93
925.908	43.23
926.338	18.83
926.769	12.43
927.199	20.33
927.629	8.73
928.06	15.42
928.49	12.62
928.92	15.42
929.35	10.93
929.78	13.42
930.21	8.22
930.641	6.52
931.071	8.12
931.501	6.93
931.931	6.93
932.361	4.02
932.791	1.42
933.221	5.62
933.651	6.83
934.08	12.12
934.51	32.42
934.94	3.43
935.37	8.33
935.8	11.42
936.229	12.92
936.659	6.32
937.089	-0.27
937.519	11.12
937.948	21.42
938.378	16.23
938.807	2.02
939.237	4.23
939.666	11.12
940.096	-2.98
940.525	-0.18
940.955	3.73
941.384	-3.38
941.814	-3.77
942.243	-4.77
942.672	3.73
943.102	-0.17
943.531	3.83
943.96	2.52
944.39	0.52
944.819	3.92
945.248	2.12
945.677	0.33
946.106	3.93
946.535	6.72
946.964	-1.98
947.393	7.02
947.822	6.12
948.251	-10.78
948.68	4.62
949.109	12.32
949.538	6.83
949.967	2.02
950.396	-5.58
950.825	-1.78
951.254	3.43
951.682	-7.18
952.111	5.52
952.54	4.02
952.969	-7.38
953.397	-4.48
953.826	7.52
954.254	-1.88
954.683	1.02
955.112	-3.67
955.54	1.93
955.969	-1.98
956.397	5.33
956.826	-5.77
957.254	2.12
957.682	0.42
958.111	9.02
958.539	-0.17
958.967	-6.17
959.396	-1.38
959.824	2.23
960.252	2.12
960.68	-1.58
961.109	-4.88
961.537	-6.27
961.965	3.23
962.393	0.23
962.821	-2.88
963.249	1.73
963.677	1.83
964.105	5.23
964.533	39.93
964.961	37.42
965.389	14.53
965.817	6.72
966.245	5.02
966.672	2.03
967.1	-3.47
967.528	3.82
967.956	-3.97
968.383	-6.18
968.811	-0.57
969.239	-3.18
969.666	-4.48
970.094	-0.98
970.522	2.23
970.949	-0.98
971.377	-3.88
971.804	3.12
972.232	0.33
972.659	6.43
973.087	-0.18
973.514	-2.98
973.941	-6.48
974.369	1.23
974.796	-3.47
975.223	-1.28
975.651	-1.07
976.078	3.02
976.505	2.73
976.932	4.42
977.359	15.12
977.786	13.02
978.214	0.02
978.641	-5.27
979.068	-1.68
979.495	-3.48
979.922	0.62
980.349	0.23
980.776	-0.98
981.202	-1.68
981.629	2.83
982.056	6.92
982.483	-6.17
982.91	9.33
983.337	-5.17
983.763	-1.18
984.19	-3.88
984.617	-0.88
985.043	-6.67
985.47	-0.67
985.897	-4.57
986.323	-5.48
986.75	0.83
987.176	0.92
987.603	-1.38
988.029	0.42
988.456	-3.98
988.882	2.03
989.308	-3.58
989.735	-10.08
990.161	3.33
990.587	-8.28
991.014	1.12
991.44	9.23
991.866	1.12
992.292	-2.67
992.719	2.32
993.145	4.12
993.571	-10.77
993.997	-0.48
994.423	-2.08
994.849	-4.48
995.275	-2.97
995.701	3.52
996.127	-2.78
996.553	-1.88
996.979	-5.67
997.405	-0.07
997.83	-6.77
998.256	-1.58
998.682	1.53
999.108	-17.28
999.534	-0.68
999.959	-8.58
1000.385	0.02
1000.811	-5.58
1001.236	-9.78
1001.662	-10.58
1002.087	-2.57
1002.513	-2.58
1002.938	0.62
1003.364	-0.27
1003.789	-1.27
1004.215	8.23
1004.64	-0.18
1005.066	-5.48
1005.491	4.53
1005.916	-2.88
1006.342	-1.47
1006.767	-4.98
1007.192	3.23
1007.617	-1.48
1008.042	-5.67
1008.468	-8.18
1008.893	-2.07
1009.318	-0.58
1009.743	-2.88
1010.168	4.62
1010.593	-0.88
1011.018	-3.77
1011.443	4.12
1011.868	-1.57
1012.293	-10.97
1012.718	-5.07
1013.143	-0.48
1013.567	-2.48
1013.992	-1.27
1014.417	-12.98
1014.842	-0.18
1015.267	-8.18
1015.691	-2.17
1016.116	10.73
1016.541	-0.17
1016.965	4.92
1017.39	6.52
1017.814	-2.57
1018.239	1.82
1018.663	-5.77
1019.088	-13.38
1019.512	-1.18
1019.937	-3.48
1020.361	-4.88
1020.785	-6.08
1021.21	2.73
1021.634	-4.38
1022.058	-5.18
1022.483	1.02
1022.907	-2.08
1023.331	-1.67
1023.755	-2.48
1024.179	-1.27
1024.604	-7.48
1025.028	-8.18
1025.452	-2.88
1025.876	-6.88
1026.3	-6.88
1026.724	-11.58
1027.148	-7.07
1027.572	-5.88
1027.996	-1.67
1028.42	-3.68
1028.843	-8.28
1029.267	-3.58
1029.691	-7.88
1030.115	-3.48
1030.539	-9.98
1030.962	-6.27
1031.386	-10.07
1031.81	0.43
1032.233	-3.88
1032.657	-1.97
1033.08	-6.48
1033.504	-2.98
1033.927	-7.07
1034.351	-6.47
1034.774	-7.27
1035.198	-3.88
1035.621	-7.57
1036.045	-8.98
1036.468	7.42
1036.891	-9.68
1037.315	-8.38
1037.738	-6.17
1038.161	-1.08
1038.584	-6.27
1039.008	-9.27
1039.431	-1.17
1039.854	-5.28
1040.277	-4.17
1040.7	-9.57
1041.123	-4.27
1041.546	-7.97
1041.969	-6.88
1042.392	-6.88
1042.815	-5.08
1043.238	-0.18
1043.661	-1.18
1044.084	-6.88
1044.507	-8.48
1044.93	-4.77
1045.352	-10.27
1045.775	-2.88
1046.198	4.52
1046.621	-3.38
1047.043	-2.57
1047.466	4.52
1047.889	-2.08
1048.311	-2.38
1048.734	-6.08
1049.156	-0.88
1049.579	-12.08
1050.001	-3.57
1050.424	-0.68
1050.846	-3.08
1051.269	-0.38
1051.691	-4.97
1052.113	-5.27
1052.536	-3.38
1052.958	-9.27
1053.38	-6.27
1053.802	-15.18
1054.225	-0.77
1054.647	-4.88
1055.069	-2.28
1055.491	4.83
1055.913	-5.58
1056.335	0.02
1056.757	-4.98
1057.179	-4.98
1057.601	-0.38
1058.023	-3.17
1058.445	-6.88
1058.867	-6.67
1059.289	-8.58
1059.711	-1.57
1060.133	-0.48
1060.555	-2.38
1060.976	-8.58
1061.398	-1.38
1061.82	-2.77
1062.241	-1.98
1062.663	-6.27
1063.085	-5.38
1063.506	-6.27
1063.928	-4.78
1064.35	-1.88
1064.771	-14.88
1065.193	-2.08
1065.614	-7.67
1066.035	-4.47
1066.457	-2.38
1066.878	1.02
1067.3	-5.48
1067.721	1.82
1068.142	-7.08
1068.564	-6.18
1068.985	-3.48
1069.406	-8.07
1069.827	3.12
1070.248	-0.67
1070.67	-6.08
1071.091	-4.27
1071.512	0.22
1071.933	-10.48
1072.354	-10.77
1072.775	-6.48
1073.196	-5.48
1073.617	-3.68
1074.038	-5.57
1074.459	-4.77
1074.88	-8.27
1075.3	5.73
1075.721	-10.28
1076.142	-4.97
1076.563	-3.28
1076.983	-8.17
1077.404	-7.38
1077.825	-13.07
1078.246	-4.17
1078.666	-12.78
1079.087	-1.77
1079.507	-1.88
1079.928	3.22
1080.348	1.73
1080.769	-6.68
1081.189	1.53
1081.61	-9.38
1082.03	-8.98
1082.451	-9.27
1082.871	-2.88
1083.291	-6.28
1083.711	-3.48
1084.132	-0.38
1084.552	-5.68
1084.972	4.02
1085.392	-6.18
1085.813	-9.77
1086.233	-9.17
1086.653	-2.57
1087.073	-2.38
1087.493	-7.38
1087.913	-2.68
1088.333	-4.88
1088.753	-0.88
1089.173	-2.08
1089.593	0.93
1090.013	0.23
1090.433	0.82
1090.852	3.92
1091.272	4.32
1091.692	1.02
1092.112	2.33
1092.531	-5.38
1092.951	-15.27
1093.371	-3.18
1093.79	-2.27
1094.21	-6.38
1094.63	-7.67
1095.049	-0.17
1095.469	0.23
1095.888	-4.27
1096.308	-3.18
1096.727	0.33
1097.146	-4.88
1097.566	3.02
1097.985	-6.48
1098.405	-2.38
1098.824	-7.67
1099.243	-1.88
1099.662	-8.38
1100.082	-1.47
1100.501	-1.58
1100.92	-8.48
1101.339	-4.98
1101.758	-9.77
