Data from 20171114-ORNL-Ar_H_NY_Subt18_08-05-09-214.txt Node
Date: Tue Nov 14 08:05:09 EST 2017
User: Ender
Spectrometer: HR+D1039
Trigger mode: 0
Integration Time (sec): 2.730000E-2
Scans to average: 10
Electric dark correction enabled: true
Nonlinearity correction enabled: false
Boxcar width: 0
XAxis mode: Wavelengths
Number of Pixels in Spectrum: 2048
>>>>>Begin Spectral Data<<<<<
187.836	-10.28
188.309	-10.28
188.782	-10.28
189.255	-1.38
189.728	-1.18
190.201	-0.78
190.674	-0.58
191.147	1.72
191.619	-3.68
192.092	3.22
192.565	6.02
193.038	4.12
193.511	0.72
193.984	0.42
194.456	-1.08
194.929	4.42
195.402	-5.18
195.874	3.52
196.347	-3.18
196.82	-5.68
197.292	7.62
197.765	-6.78
198.237	-7.38
198.71	0.62
199.182	-8.08
199.655	2.12
200.127	0.32
200.6	-1.88
201.072	-0.28
201.544	-11.48
202.017	-4.18
202.489	5.12
202.961	0.42
203.433	-0.18
203.906	-6.28
204.378	-4.58
204.85	-5.38
205.322	-10.98
205.794	2.12
206.266	-5.68
206.739	-1.98
207.211	4.42
207.683	-8.98
208.155	-2.28
208.627	-12.58
209.099	-2.98
209.57	-6.78
210.042	-4.88
210.514	-0.98
210.986	-5.08
211.458	-12.48
211.93	-5.48
212.402	0.82
212.873	-6.88
213.345	-9.48
213.817	-12.68
214.288	-5.48
214.76	-9.88
215.232	-1.78
215.703	-2.88
216.175	-3.08
216.646	-7.58
217.118	-4.58
217.589	-6.38
218.061	-6.28
218.532	-4.08
219.004	-1.88
219.475	-8.58
219.946	-4.08
220.418	-7.58
220.889	7.52
221.36	1.52
221.832	-6.98
222.303	-8.58
222.774	1.32
223.245	-9.18
223.717	-10.08
224.188	-9.18
224.659	-9.98
225.13	-2.98
225.601	-6.88
226.072	1.32
226.543	2.62
227.014	5.72
227.485	-4.28
227.956	-7.88
228.427	-4.08
228.898	3.82
229.369	4.42
229.839	-1.98
230.31	-6.98
230.781	-0.08
231.252	-5.78
231.722	-3.58
232.193	-0.18
232.664	-0.58
233.135	8.32
233.605	0.02
234.076	-6.78
234.546	0.82
235.017	5.52
235.487	0.72
235.958	-0.68
236.428	-5.18
236.899	7.22
237.369	3.62
237.84	-2.08
238.31	8.82
238.78	3.62
239.251	0.82
239.721	8.62
240.191	3.42
240.662	-1.38
241.132	-0.48
241.602	-4.58
242.072	1.02
242.542	7.42
243.013	0.02
243.483	5.72
243.953	2.92
244.423	-3.38
244.893	2.22
245.363	5.12
245.833	5.52
246.303	-5.98
246.773	12.32
247.243	4.32
247.712	5.82
248.182	12.02
248.652	13.12
249.122	0.12
249.592	14.52
250.061	21.62
250.531	36.42
251.001	21.42
251.471	17.82
251.94	19.52
252.41	11.72
252.879	0.92
253.349	12.92
253.818	10.92
254.288	10.92
254.757	3.62
255.227	4.02
255.696	2.82
256.166	9.02
256.635	10.52
257.105	8.22
257.574	11.42
258.043	4.62
258.513	12.72
258.982	16.22
259.451	6.12
259.92	14.02
260.389	14.22
260.859	19.42
261.328	13.32
261.797	18.52
262.266	11.32
262.735	11.92
263.204	6.62
263.673	5.02
264.142	3.42
264.611	-3.18
265.08	-1.28
265.549	-0.18
266.018	8.02
266.487	4.32
266.955	2.62
267.424	-0.98
267.893	6.22
268.362	1.62
268.83	6.12
269.299	11.82
269.768	8.42
270.236	8.72
270.705	6.22
271.174	8.12
271.642	12.22
272.111	15.12
272.579	16.32
273.048	24.92
273.516	31.72
273.985	31.92
274.453	28.32
274.922	26.22
275.39	11.62
275.858	10.32
276.327	15.82
276.795	17.62
277.263	14.52
277.731	37.02
278.2	57.52
278.668	66.42
279.136	48.32
279.604	22.32
280.072	19.82
280.54	12.02
281.008	11.72
281.477	18.42
281.945	19.42
282.413	15.82
282.881	17.32
283.348	10.52
283.816	19.62
284.284	19.92
284.752	24.12
285.22	18.62
285.688	19.32
286.156	20.32
286.623	47.12
287.091	52.62
287.559	27.52
288.026	20.72
288.494	18.72
288.962	7.72
289.429	11.82
289.897	17.72
290.364	10.52
290.832	21.42
291.3	21.32
291.767	20.82
292.234	22.32
292.702	16.02
293.169	18.62
293.637	25.22
294.104	19.62
294.571	11.12
295.039	11.32
295.506	14.02
295.973	20.52
296.44	16.62
296.908	18.92
297.375	23.42
297.842	24.22
298.309	21.52
298.776	14.62
299.243	25.12
299.71	18.72
300.177	26.22
300.644	24.02
301.111	20.02
301.578	23.42
302.045	16.12
302.512	29.42
302.979	26.82
303.446	26.22
303.913	30.62
304.379	21.32
304.846	27.72
305.313	26.32
305.78	23.32
306.246	29.12
306.713	27.22
307.18	26.82
307.646	26.12
308.113	26.72
308.579	25.62
309.046	26.02
309.512	26.32
309.979	24.82
310.445	27.72
310.912	25.62
311.378	33.42
311.845	23.82
312.311	35.12
312.777	31.42
313.244	29.62
313.71	42.22
314.176	29.82
314.642	36.42
315.109	37.82
315.575	39.62
316.041	41.12
316.507	39.02
316.973	43.82
317.439	34.42
317.905	39.92
318.371	44.62
318.837	36.92
319.303	36.62
319.769	32.72
320.235	33.92
320.701	38.02
321.167	42.52
321.633	41.52
322.099	45.02
322.564	47.62
323.03	41.72
323.496	41.72
323.962	44.12
324.427	42.62
324.893	42.02
325.359	39.92
325.824	44.22
326.29	36.32
326.755	37.92
327.221	43.42
327.686	43.32
328.152	53.72
328.617	50.82
329.083	50.22
329.548	51.02
330.014	55.62
330.479	43.62
330.944	45.82
331.41	42.02
331.875	51.12
332.34	42.52
332.805	46.12
333.271	48.12
333.736	47.12
334.201	62.22
334.666	56.92
335.131	58.52
335.596	52.22
336.061	54.22
336.526	45.92
336.991	50.32
337.456	63.82
337.921	45.02
338.386	41.62
338.851	49.62
339.316	43.72
339.781	46.22
340.246	55.82
340.711	47.32
341.175	50.72
341.64	49.22
342.105	61.02
342.569	59.52
343.034	59.42
343.499	63.12
343.963	52.62
344.428	66.42
344.893	62.22
345.357	63.62
345.822	63.72
346.286	69.22
346.751	65.62
347.215	73.32
347.679	70.42
348.144	105.12
348.608	83.12
349.073	67.42
349.537	77.72
350.001	82.52
350.465	90.02
350.93	81.52
351.394	85.02
351.858	78.22
352.322	90.32
352.786	83.52
353.25	103.32
353.715	117.22
354.179	106.72
354.643	122.22
355.107	133.32
355.571	113.32
356.035	108.72
356.498	122.52
356.962	128.62
357.426	137.12
357.89	121.72
358.354	91.92
358.818	86.62
359.281	83.32
359.745	79.72
360.209	75.32
360.673	78.12
361.136	79.42
361.6	87.92
362.064	84.52
362.527	80.12
362.991	86.92
363.454	83.62
363.918	81.42
364.381	81.52
364.845	81.12
365.308	95.62
365.772	88.12
366.235	91.42
366.698	85.02
367.162	87.32
367.625	91.32
368.088	85.62
368.552	92.32
369.015	89.82
369.478	97.12
369.941	104.42
370.404	101.12
370.867	107.32
371.331	107.42
371.794	119.02
372.257	112.32
372.72	112.42
373.183	115.02
373.646	104.92
374.109	105.62
374.572	109.62
375.035	111.42
375.497	115.22
375.96	111.02
376.423	110.42
376.886	111.92
377.349	112.02
377.811	107.72
378.274	105.22
378.737	108.52
379.199	117.62
379.662	109.72
380.125	119.62
380.587	119.22
381.05	122.32
381.512	133.42
381.975	137.12
382.437	129.72
382.9	127.42
383.362	132.52
383.825	144.12
384.287	145.92
384.75	141.32
385.212	139.72
385.674	138.32
386.136	132.12
386.599	129.62
387.061	126.92
387.523	131.02
387.985	137.62
388.447	146.92
388.91	145.82
389.372	160.92
389.834	155.62
390.296	138.12
390.758	152.22
391.22	165.82
391.682	203.22
392.144	288.92
392.606	235.42
393.068	166.02
393.529	175.52
393.991	156.12
394.453	144.62
394.915	157.32
395.377	191.92
395.838	207.52
396.3	158.62
396.762	146.12
397.224	140.42
397.685	132.72
398.147	134.12
398.608	129.02
399.07	132.62
399.531	130.22
399.993	148.22
400.454	150.92
400.916	145.32
401.377	149.92
401.839	151.22
402.3	155.82
402.762	164.92
403.223	179.02
403.684	172.72
404.145	162.02
404.607	167.42
405.068	165.92
405.529	171.02
405.99	198.92
406.451	177.92
406.913	175.92
407.374	162.52
407.835	158.62
408.296	168.52
408.757	169.32
409.218	184.42
409.679	183.42
410.14	180.92
410.601	179.82
411.062	180.32
411.522	194.72
411.983	188.72
412.444	178.12
412.905	184.82
413.366	187.02
413.826	196.02
414.287	219.52
414.748	262.62
415.208	251.52
415.669	211.82
416.13	206.52
416.59	202.72
417.051	210.22
417.511	212.02
417.972	232.42
418.432	245.42
418.893	292.52
419.353	258.32
419.814	198.72
420.274	188.02
420.734	186.32
421.195	194.42
421.655	198.12
422.115	194.12
422.576	189.72
423.036	198.82
423.496	203.52
423.956	212.62
424.416	224.22
424.876	269.32
425.336	263.52
425.797	266.62
426.257	252.92
426.717	252.92
427.177	232.52
427.637	226.22
428.097	237.52
428.556	247.72
429.016	270.92
429.476	260.92
429.936	268.02
430.396	275.22
430.856	289.42
431.315	321.82
431.775	349.22
432.235	377.72
432.694	351.72
433.154	366.72
433.614	397.22
434.073	338.62
434.533	288.72
434.993	272.12
435.452	282.02
435.912	298.02
436.371	288.92
436.83	285.52
437.29	266.72
437.749	253.92
438.209	244.52
438.668	276.42
439.127	282.72
439.587	268.82
440.046	251.22
440.505	264.02
440.964	277.42
441.424	327.42
441.883	313.62
442.342	260.12
442.801	229.32
443.26	223.42
443.719	220.02
444.178	218.62
444.637	217.72
445.096	211.32
445.555	220.72
446.014	223.02
446.473	226.52
446.932	230.92
447.391	228.12
447.849	231.92
448.308	215.12
448.767	214.42
449.226	231.32
449.685	233.02
450.143	249.92
450.602	235.72
451.061	225.72
451.519	231.72
451.978	238.52
452.436	231.92
452.895	237.02
453.353	253.92
453.812	241.02
454.27	235.72
454.729	236.42
455.187	246.62
455.646	244.92
456.104	250.82
456.562	258.52
457.021	267.62
457.479	253.02
457.937	269.02
458.395	260.32
458.854	245.92
459.312	252.52
459.77	269.92
460.228	261.82
460.686	237.02
461.144	252.22
461.602	245.82
462.06	240.52
462.518	252.62
462.976	254.82
463.434	260.32
463.892	260.32
464.35	268.22
464.808	280.82
465.266	264.82
465.724	268.62
466.181	272.72
466.639	274.12
467.097	291.42
467.555	297.42
468.012	299.52
468.47	308.52
468.928	332.02
469.385	341.62
469.843	345.82
470.3	341.82
470.758	362.62
471.215	380.82
471.673	408.92
472.13	403.22
472.588	420.32
473.045	366.12
473.503	378.42
473.96	388.92
474.417	405.32
474.875	426.82
475.332	467.12
475.789	458.52
476.246	469.72
476.704	488.12
477.161	502.42
477.618	517.22
478.075	552.02
478.532	614.12
478.989	690.12
479.446	812.22
479.903	772.72
480.36	798.62
480.817	858.52
481.274	969.62
481.731	1074.42
482.188	1163.72
482.645	1308.02
483.102	1415.92
483.558	1547.32
484.015	1597.42
484.472	1579.62
484.929	1524.42
485.385	1483.62
485.842	1445.52
486.299	1380.72
486.755	1305.32
487.212	1100.52
487.668	932.02
488.125	855.02
488.582	778.32
489.038	752.62
489.494	714.32
489.951	681.02
490.407	666.72
490.864	654.12
491.32	646.02
491.776	640.22
492.233	644.02
492.689	609.82
493.145	602.52
493.602	590.42
494.058	607.92
494.514	612.82
494.97	637.62
495.426	650.52
495.882	624.02
496.338	615.42
496.794	624.82
497.251	619.92
497.707	642.02
498.163	626.42
498.618	637.02
499.074	644.52
499.53	669.62
499.986	669.02
500.442	657.22
500.898	638.52
501.354	620.52
501.809	630.82
502.265	644.02
502.721	662.12
503.177	664.62
503.632	650.52
504.088	672.52
504.543	707.92
504.999	705.82
505.455	662.12
505.91	635.22
506.366	626.32
506.821	621.82
507.277	626.82
507.732	626.22
508.187	619.92
508.643	616.62
509.098	629.22
509.553	645.52
510.009	654.82
510.464	673.62
510.919	682.42
511.375	686.02
511.83	698.02
512.285	725.52
512.74	754.92
513.195	790.52
513.65	769.72
514.105	763.52
514.56	768.62
515.015	783.12
515.47	800.72
515.925	794.62
516.38	777.12
516.835	799.62
517.29	778.32
517.745	768.92
518.2	758.52
518.655	746.12
519.109	742.32
519.564	735.52
520.019	729.82
520.474	708.72
520.928	717.12
521.383	723.42
521.838	707.02
522.292	704.62
522.747	707.92
523.201	709.02
523.656	694.92
524.11	688.72
524.565	682.02
525.019	686.42
525.474	691.02
525.928	700.42
526.382	696.32
526.837	689.62
527.291	702.42
527.745	690.62
528.2	691.62
528.654	680.02
529.108	685.52
529.562	678.22
530.016	680.52
530.47	678.22
530.925	691.72
531.379	689.22
531.833	700.72
532.287	700.32
532.741	690.02
533.195	705.02
533.649	708.52
534.103	714.32
534.556	702.12
535.01	699.32
535.464	702.12
535.918	720.12
536.372	708.32
536.826	700.62
537.279	692.92
537.733	706.12
538.187	709.82
538.64	702.22
539.094	717.72
539.548	719.92
540.001	713.52
540.455	712.52
540.908	723.92
541.362	733.72
541.815	735.92
542.269	750.52
542.722	749.22
543.175	755.72
543.629	755.82
544.082	772.22
544.536	764.82
544.989	770.92
545.442	785.82
545.895	774.92
546.349	771.82
546.802	777.52
547.255	784.02
547.708	790.92
548.161	804.82
548.614	802.72
549.067	817.72
549.52	800.32
549.973	798.02
550.426	788.82
550.879	775.22
551.332	779.32
551.785	797.22
552.238	789.02
552.691	801.42
553.144	822.92
553.596	832.52
554.049	843.02
554.502	881.32
554.955	895.62
555.407	891.02
555.86	886.82
556.313	873.32
556.765	871.32
557.218	866.22
557.67	867.02
558.123	861.82
558.576	863.92
559.028	856.42
559.48	867.02
559.933	857.42
560.385	824.12
560.838	779.92
561.29	768.12
561.742	771.92
562.195	755.12
562.647	745.82
563.099	754.02
563.551	748.42
564.004	759.52
564.456	747.62
564.908	742.12
565.36	723.42
565.812	718.62
566.264	710.12
566.716	711.92
567.168	697.72
567.62	704.32
568.072	689.22
568.524	679.72
568.976	665.52
569.428	654.72
569.88	658.12
570.332	663.42
570.784	660.82
571.235	660.62
571.687	679.32
572.139	687.02
572.59	693.12
573.042	677.62
573.494	698.62
573.945	689.72
574.397	661.62
574.849	665.62
575.3	663.42
575.752	666.82
576.203	668.72
576.655	663.72
577.106	652.02
577.557	646.82
578.009	658.12
578.46	643.92
578.912	636.52
579.363	643.02
579.814	648.92
580.265	641.92
580.717	642.22
581.168	643.22
581.619	640.72
582.07	658.12
582.521	642.82
582.972	653.42
583.423	663.62
583.875	657.92
584.326	674.92
584.777	719.82
585.227	789.82
585.678	887.42
586.129	971.62
586.58	1040.72
587.031	1122.92
587.482	1291.92
587.933	1462.12
588.384	1272.32
588.834	939.12
589.285	779.22
589.736	762.62
590.186	749.32
590.637	736.42
591.088	713.92
591.538	708.32
591.989	704.62
592.439	700.32
592.89	688.52
593.34	680.22
593.791	692.22
594.241	675.52
594.692	685.72
595.142	684.22
595.593	665.72
596.043	682.92
596.493	679.22
596.943	681.32
597.394	695.72
597.844	690.92
598.294	697.22
598.744	717.02
599.195	740.72
599.645	776.12
600.095	812.42
600.545	861.42
600.995	915.62
601.445	982.12
601.895	1041.92
602.345	1093.62
602.795	1060.12
603.245	1024.92
603.695	974.32
604.145	910.22
604.594	871.72
605.044	826.92
605.494	760.62
605.944	719.72
606.393	704.82
606.843	699.92
607.293	696.82
607.743	708.92
608.192	715.22
608.642	722.72
609.091	726.42
609.541	739.52
609.99	730.72
610.44	727.32
610.889	682.82
611.339	667.12
611.788	653.72
612.238	661.82
612.687	685.32
613.136	684.42
613.586	705.22
614.035	704.82
614.484	717.62
614.933	719.02
615.383	711.42
615.832	703.52
616.281	695.62
616.73	648.72
617.179	636.02
617.628	612.02
618.077	594.92
618.526	597.52
618.975	585.82
619.424	572.72
619.873	583.52
620.322	590.92
620.771	583.62
621.22	570.32
621.669	558.72
622.118	556.92
622.567	549.02
623.015	548.12
623.464	539.22
623.913	530.52
624.361	529.62
624.81	522.52
625.259	520.82
625.707	534.72
626.156	529.52
626.604	541.72
627.053	537.12
627.501	539.82
627.95	539.52
628.398	548.32
628.847	538.22
629.295	543.12
629.744	542.12
630.192	539.12
630.64	538.12
631.089	532.12
631.537	544.22
631.985	555.12
632.433	562.62
632.881	570.92
633.33	612.42
633.778	600.22
634.226	531.72
634.674	535.02
635.122	541.22
635.57	567.62
636.018	584.62
636.466	548.12
636.914	524.62
637.362	538.02
637.81	539.22
638.258	534.92
638.705	544.42
639.153	566.82
639.601	581.32
640.049	599.92
640.497	630.52
640.944	650.22
641.392	599.02
641.84	579.32
642.287	549.22
642.735	538.42
643.182	530.72
643.63	542.82
644.078	542.22
644.525	559.42
644.973	555.52
645.42	557.72
645.867	577.12
646.315	601.72
646.762	623.82
647.21	645.92
647.657	666.02
648.104	714.22
648.551	728.22
648.999	783.82
649.446	855.42
649.893	930.62
650.34	1080.72
650.787	1290.12
651.234	1602.22
651.682	2090.92
652.129	2858.92
652.576	4104.82
653.023	6093.62
653.47	8378.72
653.917	10570.72
654.363	12323.42
654.81	13738.52
655.257	13047.32
655.704	8538.42
656.151	4995.12
656.598	3237.02
657.044	2293.82
657.491	1762.82
657.938	1417.72
658.385	1162.82
658.831	1006.62
659.278	904.82
659.724	801.12
660.171	735.92
660.618	685.42
661.064	653.02
661.511	628.82
661.957	609.62
662.404	607.82
662.85	605.12
663.296	581.72
663.743	522.52
664.189	508.82
664.635	494.32
665.082	491.12
665.528	495.02
665.974	480.32
666.42	478.82
666.867	474.52
667.313	459.32
667.759	448.02
668.205	445.72
668.651	455.52
669.097	456.22
669.543	471.62
669.989	448.62
670.435	420.92
670.881	418.02
671.327	415.12
671.773	438.12
672.219	451.52
672.665	503.02
673.11	538.62
673.556	577.52
674.002	617.92
674.448	607.22
674.893	513.12
675.339	438.62
675.785	417.72
676.23	385.32
676.676	360.92
677.122	359.72
677.567	343.92
678.013	345.32
678.458	335.02
678.904	339.62
679.349	319.82
679.794	326.92
680.24	323.82
680.685	320.02
681.131	320.02
681.576	320.32
682.021	326.72
682.466	322.12
682.912	318.52
683.357	327.92
683.802	352.02
684.247	372.82
684.692	412.92
685.137	459.42
685.583	496.12
686.028	522.42
686.473	480.52
686.918	412.62
687.363	391.62
687.807	363.62
688.252	342.82
688.697	329.52
689.142	309.62
689.587	309.12
690.032	299.92
690.477	315.52
690.921	322.52
691.366	354.02
691.811	368.32
692.255	403.42
692.7	429.32
693.145	448.92
693.589	619.92
694.034	1014.42
694.478	1388.12
694.923	1607.72
695.367	2113.22
695.812	1112.82
696.256	462.72
696.701	346.92
697.145	317.62
697.59	299.52
698.034	292.02
698.478	303.82
698.922	304.92
699.367	297.32
699.811	319.72
700.255	326.42
700.699	352.52
701.143	388.32
701.588	441.22
702.032	474.52
702.476	469.32
702.92	453.32
703.364	441.82
703.808	572.52
704.252	934.92
704.696	1318.02
705.14	1551.82
705.584	1986.02
706.027	982.72
706.471	480.52
706.915	364.22
707.359	328.02
707.803	283.02
708.246	290.02
708.69	288.12
709.134	294.62
709.577	280.72
710.021	290.72
710.465	284.82
710.908	276.12
711.352	269.22
711.795	285.02
712.239	320.42
712.682	346.32
713.126	375.72
713.569	429.42
714.012	338.12
714.456	291.02
714.899	270.62
715.342	258.72
715.786	242.42
716.229	232.72
716.672	233.02
717.115	227.32
717.558	227.12
718.002	230.72
718.445	236.42
718.888	262.22
719.331	266.72
719.774	286.02
720.217	274.72
720.66	267.62
721.103	249.22
721.546	231.32
721.989	223.72
722.432	210.92
722.874	216.12
723.317	211.62
723.76	215.82
724.203	240.02
724.645	279.92
725.088	400.32
725.531	511.52
725.974	604.52
726.416	505.62
726.859	289.12
727.301	223.82
727.744	222.62
728.187	218.62
728.629	218.32
729.071	220.42
729.514	234.32
729.956	250.02
730.399	260.32
730.841	261.62
731.283	246.32
731.726	238.62
732.168	238.22
732.61	249.82
733.053	263.22
733.495	286.52
733.937	316.62
734.379	370.42
734.821	393.72
735.263	495.52
735.705	741.32
736.148	1387.32
736.59	2324.22
737.032	2838.22
737.474	2305.62
737.916	740.22
738.357	394.42
738.799	296.32
739.241	269.62
739.683	260.42
740.125	274.22
740.567	270.62
741.008	288.32
741.45	290.22
741.892	286.32
742.334	315.22
742.775	319.72
743.217	311.42
743.658	247.82
744.1	229.02
744.542	233.72
744.983	284.62
745.425	318.22
745.866	313.42
746.307	262.12
746.749	259.82
747.19	291.22
747.632	412.52
748.073	777.72
748.514	1671.92
748.956	2593.92
749.397	3252.72
749.838	2683.42
750.279	2732.52
750.72	1388.82
751.162	501.12
751.603	289.12
752.044	228.42
752.485	193.32
752.926	189.52
753.367	182.82
753.808	177.12
754.249	179.62
754.69	173.32
755.131	165.02
755.572	164.12
756.013	160.92
756.453	167.02
756.894	173.12
757.335	174.32
757.776	181.52
758.216	172.52
758.657	176.72
759.098	183.32
759.538	206.82
759.979	242.72
760.42	332.22
760.86	617.42
761.301	1597.92
761.741	3950.12
762.182	5970.82
762.622	4220.82
763.063	1196.52
763.503	490.72
763.943	313.82
764.384	304.72
764.824	367.62
765.264	406.92
765.705	285.22
766.145	193.32
766.585	170.42
767.025	167.82
767.465	166.42
767.906	219.42
768.346	300.32
768.786	321.72
769.226	238.02
769.666	285.82
770.106	545.12
770.546	1372.12
770.986	2429.42
771.426	2206.02
771.866	727.62
772.306	299.62
772.745	191.12
773.185	152.32
773.625	146.02
774.065	146.62
774.505	174.52
774.944	271.12
775.384	610.02
775.824	1137.72
776.263	1118.92
776.703	470.72
777.142	202.32
777.582	144.22
778.021	131.02
778.461	132.42
778.9	127.32
779.34	124.02
779.779	108.12
780.219	95.42
780.658	98.22
781.097	105.92
781.537	102.12
781.976	100.02
782.415	98.52
782.855	94.62
783.294	92.52
783.733	93.92
784.172	95.62
784.611	95.82
785.05	100.92
785.489	105.52
785.928	108.32
786.367	109.72
786.806	102.62
787.245	118.22
787.684	118.02
788.123	136.42
788.562	125.92
789.001	113.12
789.44	111.72
789.879	112.72
790.317	109.42
790.756	112.62
791.195	118.02
791.634	139.82
792.072	178.22
792.511	324.52
792.95	883.52
793.388	1948.12
793.827	1814.22
794.265	616.72
794.704	248.62
795.142	163.12
795.581	139.82
796.019	119.52
796.458	117.52
796.896	112.62
797.334	115.72
797.773	137.32
798.211	195.92
798.649	386.32
799.087	909.42
799.526	1437.92
799.964	1831.72
800.402	1890.22
800.84	697.12
801.278	266.42
801.716	170.32
802.154	133.62
802.592	130.92
803.03	129.42
803.468	125.02
803.906	135.02
804.344	135.82
804.782	134.02
805.22	121.12
805.658	115.42
806.096	134.22
806.533	143.62
806.971	156.82
807.409	191.32
807.847	278.32
808.284	579.12
808.722	1658.82
809.16	3028.32
809.597	2799.42
810.035	4905.92
810.472	5427.92
810.91	1921.32
811.347	727.82
811.785	368.12
812.222	235.92
812.66	178.12
813.097	151.12
813.535	131.32
813.972	117.92
814.409	107.02
814.846	95.02
815.284	103.02
815.721	87.62
816.158	98.62
816.595	109.32
817.032	163.92
817.47	179.42
817.907	149.52
818.344	136.62
818.781	110.02
819.218	93.62
819.655	113.52
820.092	164.92
820.529	188.62
820.966	163.12
821.403	128.12
821.839	109.92
822.276	98.92
822.713	105.22
823.15	119.02
823.587	102.82
824.023	137.32
824.46	267.72
824.897	798.72
825.333	1261.42
825.77	542.72
826.206	211.02
826.643	123.22
827.08	95.82
827.516	80.32
827.953	68.32
828.389	72.42
828.825	73.02
829.262	63.32
829.698	56.72
830.135	56.82
830.571	55.12
831.007	52.22
831.443	60.92
831.88	55.02
832.316	52.62
832.752	59.52
833.188	61.82
833.624	54.42
834.06	57.32
834.497	61.32
834.933	67.52
835.369	62.92
835.805	62.02
836.241	62.12
836.677	70.12
837.112	82.32
837.548	94.32
837.984	114.02
838.42	175.02
838.856	428.52
839.292	1351.12
839.727	2126.02
840.163	989.92
840.599	823.52
841.034	1836.72
841.47	1996.62
841.906	718.32
842.341	306.42
842.777	208.72
843.212	294.62
843.648	291.32
844.083	143.32
844.519	89.62
844.954	68.72
845.39	59.12
845.825	49.62
846.261	57.52
846.696	54.72
847.131	44.72
847.566	52.92
848.002	50.42
848.437	48.12
848.872	50.82
849.307	56.22
849.742	87.32
850.177	161.92
850.613	497.32
851.048	808.12
851.483	338.42
851.918	138.32
852.353	77.92
852.788	52.52
853.223	54.82
853.657	53.42
854.092	42.22
854.527	39.62
854.962	34.02
855.397	38.62
855.832	48.22
856.266	32.72
856.701	32.72
857.136	28.62
857.57	36.52
858.005	48.22
858.44	50.22
858.874	42.42
859.309	48.72
859.743	34.82
860.178	43.52
860.612	37.52
861.047	49.72
861.481	61.62
861.915	65.72
862.35	40.82
862.784	25.32
863.218	37.42
863.653	30.22
864.087	45.62
864.521	52.02
864.955	58.22
865.39	140.62
865.824	167.52
866.258	107.72
866.692	156.72
867.126	168.82
867.56	96.02
867.994	52.02
868.428	27.62
868.862	42.32
869.296	53.62
869.73	55.82
870.164	45.32
870.598	41.22
871.031	36.22
871.465	33.12
871.899	32.42
872.333	24.42
872.766	21.22
873.2	23.32
873.634	28.22
874.067	21.62
874.501	24.12
874.935	31.42
875.368	27.02
875.802	29.72
876.235	17.42
876.669	15.32
877.102	16.32
877.535	26.22
877.969	22.42
878.402	23.02
878.836	12.42
879.269	24.82
879.702	19.12
880.135	21.92
880.569	17.52
881.002	27.22
881.435	15.72
881.868	12.92
882.301	15.82
882.734	9.32
883.167	21.32
883.601	15.62
884.034	23.42
884.467	11.92
884.899	15.82
885.332	12.82
885.765	13.42
886.198	13.02
886.631	19.92
887.064	17.52
887.497	16.32
887.929	19.12
888.362	12.02
888.795	11.02
889.228	16.22
889.66	18.92
890.093	17.62
890.526	12.82
890.958	13.92
891.391	20.42
891.823	23.72
892.256	18.32
892.688	13.32
893.121	14.92
893.553	10.22
893.985	20.22
894.418	16.82
894.85	8.62
895.282	17.62
895.715	16.42
896.147	16.02
896.579	13.92
897.011	7.72
897.444	13.52
897.876	8.02
898.308	12.62
898.74	17.02
899.172	14.02
899.604	24.12
900.036	21.52
900.468	15.62
900.9	14.92
901.332	17.42
901.764	16.12
902.196	15.62
902.628	18.22
903.06	14.62
903.491	30.92
903.923	18.32
904.355	21.82
904.787	24.02
905.218	20.52
905.65	22.42
906.082	16.12
906.513	12.62
906.945	14.72
907.376	10.12
907.808	13.42
908.239	15.72
908.671	14.02
909.102	17.02
909.534	14.92
909.965	43.02
910.397	83.12
910.828	286.92
911.259	437.92
911.691	200.42
912.122	99.02
912.553	51.52
912.984	32.32
913.415	23.92
913.847	15.52
914.278	10.72
914.709	11.92
915.14	20.82
915.571	10.42
916.002	11.12
916.433	17.92
916.864	15.22
917.295	9.02
917.726	14.12
918.157	18.82
918.587	27.42
919.018	20.72
919.449	16.72
919.88	19.02
920.311	29.92
920.741	45.02
921.172	150.42
921.603	138.42
922.033	64.02
922.464	47.72
922.895	19.72
923.325	15.92
923.756	11.92
924.186	9.82
924.617	23.82
925.047	37.22
925.478	50.92
925.908	45.82
926.338	30.82
926.769	18.62
927.199	18.02
927.629	10.72
928.06	11.32
928.49	14.12
928.92	13.02
929.35	11.12
929.78	14.32
930.21	6.22
930.641	4.12
931.071	9.02
931.501	4.92
931.931	4.62
932.361	11.92
932.791	1.62
933.221	6.72
933.651	4.02
934.08	11.12
934.51	32.02
934.94	10.52
935.37	4.12
935.8	4.92
936.229	4.52
936.659	10.02
937.089	5.02
937.519	11.42
937.948	15.32
938.378	13.12
938.807	0.82
939.237	5.22
939.666	7.52
940.096	-1.28
940.525	2.62
940.955	5.52
941.384	0.22
941.814	-6.38
942.243	0.72
942.672	4.52
943.102	0.12
943.531	4.12
943.96	6.72
944.39	0.82
944.819	3.12
945.248	-1.18
945.677	6.12
946.106	2.62
946.535	10.62
946.964	3.22
947.393	4.42
947.822	-1.58
948.251	-5.78
948.68	1.12
949.109	1.92
949.538	2.02
949.967	0.12
950.396	3.52
950.825	-0.88
951.254	-0.28
951.682	-6.48
952.111	2.92
952.54	9.02
952.969	-2.88
953.397	-2.08
953.826	-1.78
954.254	-4.98
954.683	-0.68
955.112	-4.08
955.54	-6.28
955.969	-0.68
956.397	-2.68
956.826	-0.48
957.254	9.52
957.682	-1.28
958.111	9.72
958.539	3.02
958.967	0.22
959.396	-4.08
959.824	2.32
960.252	3.72
960.68	3.12
961.109	-1.88
961.537	-0.08
961.965	0.42
962.393	0.32
962.821	-5.98
963.249	4.02
963.677	2.12
964.105	6.02
964.533	36.82
964.961	37.42
965.389	18.42
965.817	14.32
966.245	3.32
966.672	6.52
967.1	-9.38
967.528	2.62
967.956	-7.78
968.383	1.62
968.811	-0.68
969.239	-0.18
969.666	-4.28
970.094	0.62
970.522	-2.28
970.949	-0.18
971.377	-6.58
971.804	-1.38
972.232	2.02
972.659	-1.98
973.087	-4.58
973.514	-1.18
973.941	-5.28
974.369	0.72
974.796	7.72
975.223	4.02
975.651	-1.98
976.078	-0.08
976.505	-1.38
976.932	6.62
977.359	17.42
977.786	12.52
978.214	3.22
978.641	-0.88
979.068	-6.28
979.495	-4.88
979.922	-0.78
980.349	-0.48
980.776	4.52
981.202	-1.38
981.629	3.02
982.056	10.22
982.483	-5.28
982.91	3.62
983.337	-4.28
983.763	5.02
984.19	-1.68
984.617	-3.38
985.043	-8.68
985.47	3.22
985.897	-0.58
986.323	1.62
986.75	1.52
987.176	2.22
987.603	3.72
988.029	3.52
988.456	-3.28
988.882	-0.08
989.308	-6.18
989.735	-8.58
990.161	-1.68
990.587	-10.68
991.014	-1.38
991.44	4.52
991.866	1.82
992.292	-4.58
992.719	2.92
993.145	2.02
993.571	-12.38
993.997	-1.08
994.423	-2.98
994.849	-4.38
995.275	-0.88
995.701	-1.68
996.127	-0.38
996.553	-0.78
996.979	-10.58
997.405	-2.88
997.83	-5.68
998.256	-5.08
998.682	-9.88
999.108	-7.48
999.534	-0.48
999.959	0.62
1000.385	-1.78
1000.811	2.82
1001.236	-11.38
1001.662	-8.18
1002.087	-4.88
1002.513	3.92
1002.938	3.62
1003.364	-2.18
1003.789	-2.08
1004.215	8.12
1004.64	-2.58
1005.066	-1.48
1005.491	-0.88
1005.916	-3.28
1006.342	-8.58
1006.767	-7.48
1007.192	2.92
1007.617	-11.88
1008.042	-4.38
1008.468	-8.28
1008.893	2.22
1009.318	-2.18
1009.743	-5.48
1010.168	4.42
1010.593	2.22
1011.018	-8.28
1011.443	0.82
1011.868	-1.88
1012.293	0.02
1012.718	-6.68
1013.143	1.42
1013.567	1.32
1013.992	-1.58
1014.417	-15.58
1014.842	6.12
1015.267	-8.78
1015.691	-7.98
1016.116	9.02
1016.541	-2.68
1016.965	-2.18
1017.39	5.82
1017.814	-4.18
1018.239	-1.58
1018.663	-6.58
1019.088	-9.28
1019.512	-0.28
1019.937	0.82
1020.361	-11.38
1020.785	-12.48
1021.21	-3.38
1021.634	-3.58
1022.058	0.22
1022.483	1.42
1022.907	-1.88
1023.331	-3.88
1023.755	-2.78
1024.179	-8.08
1024.604	-6.28
1025.028	-2.58
1025.452	-6.08
1025.876	-2.18
1026.3	-2.18
1026.724	-11.58
1027.148	-4.48
1027.572	-8.68
1027.996	-6.08
1028.42	-1.78
1028.843	-2.98
1029.267	-4.18
1029.691	-2.18
1030.115	-5.58
1030.539	-11.38
1030.962	-5.68
1031.386	-5.08
1031.81	-0.88
1032.233	-1.08
1032.657	-3.58
1033.08	-2.28
1033.504	-3.18
1033.927	-1.58
1034.351	-4.88
1034.774	-3.18
1035.198	1.22
1035.621	-3.38
1036.045	-3.38
1036.468	1.32
1036.891	-8.38
1037.315	-6.68
1037.738	-10.28
1038.161	-4.08
1038.584	-7.88
1039.008	-6.98
1039.431	-9.48
1039.854	-3.18
1040.277	-13.08
1040.7	-9.38
1041.123	-2.48
1041.546	-8.58
1041.969	-4.58
1042.392	-0.58
1042.815	1.22
1043.238	0.52
1043.661	1.22
1044.084	-5.08
1044.507	-0.98
1044.93	-6.18
1045.352	-2.78
1045.775	2.42
1046.198	-2.18
1046.621	-5.48
1047.043	-1.08
1047.466	7.02
1047.889	0.12
1048.311	-10.68
1048.734	-3.58
1049.156	-3.08
1049.579	-3.78
1050.001	1.22
1050.424	1.42
1050.846	-1.58
1051.269	-2.48
1051.691	-6.88
1052.113	-10.78
1052.536	-2.08
1052.958	-3.58
1053.38	-5.98
1053.802	-14.38
1054.225	1.32
1054.647	-5.38
1055.069	-5.38
1055.491	3.32
1055.913	-11.58
1056.335	1.72
1056.757	4.42
1057.179	-3.58
1057.601	-2.98
1058.023	-4.38
1058.445	-0.78
1058.867	-2.38
1059.289	-1.08
1059.711	-4.28
1060.133	-2.58
1060.555	-5.78
1060.976	-5.28
1061.398	-7.58
1061.82	-5.98
1062.241	-3.78
1062.663	-9.38
1063.085	-3.28
1063.506	1.32
1063.928	-7.38
1064.35	-2.08
1064.771	-12.68
1065.193	1.32
1065.614	-8.78
1066.035	2.62
1066.457	-6.98
1066.878	-4.08
1067.3	-5.48
1067.721	-3.78
1068.142	-4.48
1068.564	-3.18
1068.985	-8.48
1069.406	-10.18
1069.827	-4.78
1070.248	-4.88
1070.67	-4.88
1071.091	-8.38
1071.512	-0.58
1071.933	-7.18
1072.354	-6.98
1072.775	-5.98
1073.196	-3.38
1073.617	1.22
1074.038	-3.88
1074.459	-0.08
1074.88	-6.28
1075.3	6.12
1075.721	-3.98
1076.142	-1.48
1076.563	-4.78
1076.983	-11.68
1077.404	-9.08
1077.825	-8.58
1078.246	0.22
1078.666	-15.98
1079.087	-2.58
1079.507	-3.18
1079.928	-6.48
1080.348	0.42
1080.769	-5.78
1081.189	-2.48
1081.61	-4.88
1082.03	-6.48
1082.451	-5.98
1082.871	-1.78
1083.291	-4.48
1083.711	-11.68
1084.132	-0.98
1084.552	-11.78
1084.972	-0.58
1085.392	-7.28
1085.813	-7.98
1086.233	-9.28
1086.653	-3.38
1087.073	-0.88
1087.493	-6.58
1087.913	-4.78
1088.333	-7.18
1088.753	-3.18
1089.173	0.22
1089.593	-3.38
1090.013	1.42
1090.433	-3.08
1090.852	-3.98
1091.272	-2.98
1091.692	-0.98
1092.112	-3.48
1092.531	-5.88
1092.951	-14.48
1093.371	-4.08
1093.79	-2.48
1094.21	-1.78
1094.63	-8.28
1095.049	-2.78
1095.469	2.52
1095.888	-2.98
1096.308	5.02
1096.727	2.42
1097.146	-0.68
1097.566	3.32
1097.985	-7.88
1098.405	0.62
1098.824	-5.78
1099.243	-1.58
1099.662	-10.48
1100.082	-0.38
1100.501	-6.48
1100.92	-8.38
1101.339	-11.08
1101.758	-3.18
