Data from 20171114-ORNL-Ar_H_NY_Subt18_08-06-25-647.txt Node
Date: Tue Nov 14 08:06:25 EST 2017
User: Ender
Spectrometer: HR+D1039
Trigger mode: 0
Integration Time (sec): 2.730000E-2
Scans to average: 10
Electric dark correction enabled: true
Nonlinearity correction enabled: false
Boxcar width: 0
XAxis mode: Wavelengths
Number of Pixels in Spectrum: 2048
>>>>>Begin Spectral Data<<<<<
187.836	-4.94
188.309	-4.94
188.782	-4.94
189.255	2.66
189.728	-5.04
190.201	5.26
190.674	1.46
191.147	0.86
191.619	-5.54
192.092	1.46
192.565	1.06
193.038	-1.54
193.511	1.16
193.984	2.96
194.456	-1.74
194.929	0.76
195.402	-0.64
195.874	1.76
196.347	-0.54
196.82	-7.84
197.292	3.26
197.765	1.76
198.237	-3.24
198.71	1.96
199.182	-2.44
199.655	2.76
200.127	2.76
200.6	-2.84
201.072	-5.64
201.544	-6.04
202.017	-0.24
202.489	0.36
202.961	-3.94
203.433	-7.34
203.906	-4.74
204.378	-8.44
204.85	2.06
205.322	-8.14
205.794	-1.44
206.266	0.16
206.739	-13.54
207.211	-1.84
207.683	-2.44
208.155	-3.24
208.627	-6.24
209.099	-0.14
209.57	-7.84
210.042	-7.94
210.514	1.16
210.986	-8.14
211.458	-12.64
211.93	-3.84
212.402	2.76
212.873	-7.64
213.345	-16.44
213.817	-8.24
214.288	-7.54
214.76	-8.44
215.232	-8.84
215.703	-4.04
216.175	-4.34
216.646	-3.74
217.118	-4.64
217.589	-4.14
218.061	-1.34
218.532	-2.34
219.004	-2.64
219.475	-4.24
219.946	-2.34
220.418	-3.54
220.889	4.46
221.36	2.16
221.832	-4.04
222.303	-7.04
222.774	-2.64
223.245	-7.74
223.717	-5.14
224.188	-4.94
224.659	-6.24
225.13	-3.04
225.601	4.96
226.072	-0.24
226.543	1.26
227.014	-0.94
227.485	-1.04
227.956	-8.04
228.427	0.36
228.898	0.26
229.369	3.76
229.839	-5.94
230.31	-7.04
230.781	-0.74
231.252	-3.94
231.722	-2.64
232.193	-2.44
232.664	1.66
233.135	1.56
233.605	-1.24
234.076	-7.94
234.546	4.26
235.017	6.86
235.487	3.66
235.958	-3.54
236.428	-2.34
236.899	1.76
237.369	5.56
237.84	-4.04
238.31	6.76
238.78	0.96
239.251	5.56
239.721	4.76
240.191	4.96
240.662	-4.14
241.132	2.16
241.602	-3.54
242.072	2.46
242.542	9.06
243.013	0.96
243.483	3.26
243.953	2.26
244.423	3.16
244.893	2.56
245.363	-1.54
245.833	5.06
246.303	0.06
246.773	7.36
247.243	0.16
247.712	4.86
248.182	10.06
248.652	10.96
249.122	-4.54
249.592	11.26
250.061	17.96
250.531	27.56
251.001	14.36
251.471	24.06
251.94	17.26
252.41	6.86
252.879	4.36
253.349	13.76
253.818	9.26
254.288	4.76
254.757	6.06
255.227	2.26
255.696	4.06
256.166	1.96
256.635	7.26
257.105	7.36
257.574	9.16
258.043	16.86
258.513	17.06
258.982	17.86
259.451	5.66
259.92	12.16
260.389	10.16
260.859	15.06
261.328	11.86
261.797	18.96
262.266	11.26
262.735	18.86
263.204	13.66
263.673	-3.74
264.142	4.16
264.611	-1.24
265.08	1.16
265.549	4.76
266.018	7.46
266.487	0.26
266.955	1.66
267.424	2.96
267.893	5.16
268.362	1.16
268.83	-2.14
269.299	13.66
269.768	7.36
270.236	5.36
270.705	3.06
271.174	4.56
271.642	5.66
272.111	9.16
272.579	21.26
273.048	29.36
273.516	28.16
273.985	30.06
274.453	24.66
274.922	26.96
275.39	10.86
275.858	8.66
276.327	13.06
276.795	19.86
277.263	12.36
277.731	29.76
278.2	56.46
278.668	58.86
279.136	45.36
279.604	25.46
280.072	13.16
280.54	8.86
281.008	11.36
281.477	20.86
281.945	16.86
282.413	16.16
282.881	20.46
283.348	6.96
283.816	15.76
284.284	14.66
284.752	18.66
285.22	11.36
285.688	19.76
286.156	22.56
286.623	37.66
287.091	50.96
287.559	25.66
288.026	17.66
288.494	15.56
288.962	11.56
289.429	7.36
289.897	17.06
290.364	16.06
290.832	11.66
291.3	21.86
291.767	19.06
292.234	19.36
292.702	11.76
293.169	17.56
293.637	25.96
294.104	25.06
294.571	11.46
295.039	11.36
295.506	13.26
295.973	19.56
296.44	16.96
296.908	22.46
297.375	14.96
297.842	20.56
298.309	18.96
298.776	15.06
299.243	23.36
299.71	13.26
300.177	18.86
300.644	24.26
301.111	25.16
301.578	25.66
302.045	20.66
302.512	27.16
302.979	23.86
303.446	24.86
303.913	18.16
304.379	12.86
304.846	26.26
305.313	27.36
305.78	19.66
306.246	26.86
306.713	22.06
307.18	25.06
307.646	29.86
308.113	31.16
308.579	26.96
309.046	29.56
309.512	28.66
309.979	28.16
310.445	26.46
310.912	30.66
311.378	31.26
311.845	31.26
312.311	25.06
312.777	39.26
313.244	35.96
313.71	38.96
314.176	36.06
314.642	26.86
315.109	25.16
315.575	37.56
316.041	41.96
316.507	38.46
316.973	35.66
317.439	31.66
317.905	39.76
318.371	30.66
318.837	36.96
319.303	42.66
319.769	33.36
320.235	42.36
320.701	30.96
321.167	38.66
321.633	31.06
322.099	39.56
322.564	46.96
323.03	42.16
323.496	41.36
323.962	44.86
324.427	35.26
324.893	46.86
325.359	44.46
325.824	42.36
326.29	41.76
326.755	41.16
327.221	49.46
327.686	42.96
328.152	50.66
328.617	42.06
329.083	51.76
329.548	51.26
330.014	49.36
330.479	44.36
330.944	43.56
331.41	44.06
331.875	51.86
332.34	44.46
332.805	46.96
333.271	46.66
333.736	48.56
334.201	53.26
334.666	54.26
335.131	53.76
335.596	54.06
336.061	51.06
336.526	51.06
336.991	52.86
337.456	56.36
337.921	53.26
338.386	44.26
338.851	45.16
339.316	44.76
339.781	53.76
340.246	55.76
340.711	42.06
341.175	52.26
341.64	48.46
342.105	55.46
342.569	56.26
343.034	59.16
343.499	58.06
343.963	59.06
344.428	67.96
344.893	61.36
345.357	64.36
345.822	59.06
346.286	73.66
346.751	68.86
347.215	72.36
347.679	76.56
348.144	94.06
348.608	74.56
349.073	73.86
349.537	78.56
350.001	84.96
350.465	91.56
350.93	81.16
351.394	85.96
351.858	78.06
352.322	90.36
352.786	86.06
353.25	98.86
353.715	113.86
354.179	104.36
354.643	125.76
355.107	130.76
355.571	104.96
356.035	112.96
356.498	118.56
356.962	126.76
357.426	132.96
357.89	120.46
358.354	97.56
358.818	84.86
359.281	82.96
359.745	84.46
360.209	73.86
360.673	79.36
361.136	81.56
361.6	90.26
362.064	94.66
362.527	92.46
362.991	97.16
363.454	82.76
363.918	79.06
364.381	78.36
364.845	83.76
365.308	90.16
365.772	91.56
366.235	93.26
366.698	86.06
367.162	88.86
367.625	87.86
368.088	93.36
368.552	92.06
369.015	92.86
369.478	102.36
369.941	111.26
370.404	103.06
370.867	113.46
371.331	115.06
371.794	125.66
372.257	113.86
372.72	115.46
373.183	111.46
373.646	109.56
374.109	106.16
374.572	111.26
375.035	106.06
375.497	110.16
375.96	103.86
376.423	107.06
376.886	113.06
377.349	117.16
377.811	109.96
378.274	106.26
378.737	108.56
379.199	112.76
379.662	116.06
380.125	124.46
380.587	124.46
381.05	126.46
381.512	136.36
381.975	141.86
382.437	134.36
382.9	133.26
383.362	143.36
383.825	144.26
384.287	147.16
384.75	143.06
385.212	144.66
385.674	143.06
386.136	135.06
386.599	130.66
387.061	135.96
387.523	132.76
387.985	136.16
388.447	152.36
388.91	147.36
389.372	167.26
389.834	157.96
390.296	153.86
390.758	163.46
391.22	175.16
391.682	217.66
392.144	309.26
392.606	233.66
393.068	175.96
393.529	167.66
393.991	158.36
394.453	158.26
394.915	165.06
395.377	199.36
395.838	219.36
396.3	162.36
396.762	154.76
397.224	140.66
397.685	131.16
398.147	140.96
398.608	135.86
399.07	135.86
399.531	132.16
399.993	148.96
400.454	159.26
400.916	150.76
401.377	147.76
401.839	158.66
402.3	160.46
402.762	168.56
403.223	183.06
403.684	180.16
404.145	167.36
404.607	169.76
405.068	169.76
405.529	176.46
405.99	196.96
406.451	183.66
406.913	174.16
407.374	165.36
407.835	168.76
408.296	166.66
408.757	181.36
409.218	197.26
409.679	189.06
410.14	186.06
410.601	187.06
411.062	191.76
411.522	201.36
411.983	199.96
412.444	190.06
412.905	189.36
413.366	186.66
413.826	200.26
414.287	224.16
414.748	273.16
415.208	257.56
415.669	222.66
416.13	212.16
416.59	213.46
417.051	220.46
417.511	228.16
417.972	248.16
418.432	258.06
418.893	300.16
419.353	267.06
419.814	208.86
420.274	188.86
420.734	192.46
421.195	207.86
421.655	213.36
422.115	205.46
422.576	207.46
423.036	205.96
423.496	220.66
423.956	221.46
424.416	241.36
424.876	278.86
425.336	274.76
425.797	274.96
426.257	267.66
426.717	261.66
427.177	247.26
427.637	233.96
428.097	244.26
428.556	251.46
429.016	280.46
429.476	277.26
429.936	287.56
430.396	286.36
430.856	299.26
431.315	328.36
431.775	363.26
432.235	395.06
432.694	371.46
433.154	380.46
433.614	410.26
434.073	348.06
434.533	304.16
434.993	288.16
435.452	297.16
435.912	312.66
436.371	302.36
436.83	298.26
437.29	278.06
437.749	260.66
438.209	263.56
438.668	286.96
439.127	299.56
439.587	278.36
440.046	259.16
440.505	268.76
440.964	291.26
441.424	347.16
441.883	338.26
442.342	271.16
442.801	240.46
443.26	240.46
443.719	235.96
444.178	229.26
444.637	220.56
445.096	226.06
445.555	237.86
446.014	226.96
446.473	234.66
446.932	238.76
447.391	234.86
447.849	239.06
448.308	231.06
448.767	232.96
449.226	243.46
449.685	247.86
450.143	258.66
450.602	254.96
451.061	234.86
451.519	237.46
451.978	244.06
452.436	241.96
452.895	249.66
453.353	266.26
453.812	250.16
454.27	251.06
454.729	243.86
455.187	250.96
455.646	259.36
456.104	259.36
456.562	280.06
457.021	276.86
457.479	266.26
457.937	291.46
458.395	272.66
458.854	264.86
459.312	266.66
459.77	277.06
460.228	265.96
460.686	258.76
461.144	256.56
461.602	253.36
462.06	256.76
462.518	260.66
462.976	264.66
463.434	274.26
463.892	281.26
464.35	283.26
464.808	305.76
465.266	277.36
465.724	272.06
466.181	284.46
466.639	284.56
467.097	305.76
467.555	307.76
468.012	320.56
468.47	326.36
468.928	338.76
469.385	355.26
469.843	366.96
470.3	365.36
470.758	374.16
471.215	402.96
471.673	428.66
472.13	427.76
472.588	435.96
473.045	391.66
473.503	399.66
473.96	416.06
474.417	419.56
474.875	445.36
475.332	499.16
475.789	483.16
476.246	486.66
476.704	503.96
477.161	542.86
477.618	547.06
478.075	586.86
478.532	639.96
478.989	718.46
479.446	840.36
479.903	793.46
480.36	848.56
480.817	907.56
481.274	1011.96
481.731	1121.56
482.188	1197.76
482.645	1334.66
483.102	1451.46
483.558	1603.96
484.015	1633.16
484.472	1622.56
484.929	1576.36
485.385	1525.96
485.842	1477.16
486.299	1422.86
486.755	1349.16
487.212	1132.16
487.668	958.66
488.125	888.06
488.582	813.36
489.038	780.56
489.494	748.76
489.951	712.36
490.407	698.56
490.864	675.46
491.32	672.76
491.776	672.66
492.233	675.36
492.689	640.16
493.145	626.86
493.602	622.96
494.058	641.46
494.514	631.86
494.97	664.86
495.426	680.26
495.882	654.86
496.338	633.56
496.794	652.36
497.251	637.86
497.707	658.26
498.163	663.56
498.618	674.86
499.074	674.36
499.53	702.86
499.986	697.46
500.442	682.36
500.898	652.96
501.354	648.76
501.809	662.16
502.265	675.66
502.721	690.16
503.177	696.46
503.632	691.16
504.088	711.46
504.543	725.36
504.999	734.96
505.455	687.46
505.91	658.36
506.366	661.06
506.821	658.56
507.277	656.96
507.732	648.06
508.187	655.66
508.643	661.56
509.098	656.86
509.553	690.66
510.009	689.96
510.464	695.46
510.919	711.76
511.375	726.46
511.83	728.06
512.285	749.46
512.74	779.46
513.195	803.46
513.65	802.16
514.105	794.06
514.56	807.26
515.015	826.36
515.47	838.06
515.925	820.16
516.38	818.86
516.835	820.46
517.29	817.06
517.745	812.66
518.2	797.26
518.655	771.06
519.109	768.56
519.564	769.86
520.019	760.56
520.474	758.66
520.928	754.76
521.383	755.46
521.838	732.46
522.292	740.16
522.747	733.36
523.201	728.76
523.656	714.16
524.11	715.06
524.565	727.26
525.019	716.76
525.474	725.76
525.928	724.36
526.382	728.06
526.837	719.76
527.291	735.06
527.745	724.86
528.2	728.16
528.654	718.66
529.108	715.46
529.562	717.66
530.016	705.96
530.47	717.36
530.925	721.26
531.379	713.96
531.833	725.06
532.287	724.96
532.741	731.16
533.195	730.56
533.649	739.26
534.103	746.56
534.556	738.56
535.01	737.26
535.464	736.36
535.918	748.16
536.372	753.16
536.826	751.26
537.279	739.06
537.733	730.16
538.187	747.06
538.64	751.06
539.094	745.06
539.548	763.06
540.001	748.66
540.455	751.36
540.908	753.36
541.362	772.96
541.815	781.66
542.269	784.56
542.722	776.46
543.175	801.86
543.629	799.06
544.082	813.96
544.536	816.36
544.989	812.76
545.442	821.46
545.895	821.36
546.349	830.56
546.802	824.86
547.255	826.96
547.708	827.76
548.161	843.96
548.614	847.46
549.067	852.46
549.52	845.86
549.973	845.46
550.426	839.66
550.879	835.76
551.332	825.46
551.785	828.36
552.238	833.36
552.691	849.06
553.144	858.66
553.596	896.16
554.049	899.46
554.502	908.56
554.955	935.66
555.407	947.96
555.86	932.36
556.313	932.56
556.765	914.76
557.218	915.36
557.67	919.66
558.123	905.76
558.576	909.36
559.028	910.76
559.48	912.06
559.933	903.36
560.385	886.56
560.838	834.16
561.29	804.16
561.742	817.06
562.195	791.76
562.647	801.36
563.099	805.16
563.551	791.56
564.004	808.16
564.456	805.46
564.908	788.06
565.36	767.86
565.812	759.86
566.264	756.86
566.716	739.36
567.168	735.46
567.62	743.96
568.072	736.96
568.524	717.16
568.976	704.86
569.428	690.06
569.88	691.76
570.332	709.76
570.784	712.66
571.235	710.76
571.687	715.86
572.139	726.26
572.59	736.86
573.042	743.56
573.494	736.76
573.945	733.86
574.397	715.56
574.849	707.06
575.3	722.96
575.752	708.46
576.203	696.76
576.655	706.76
577.106	691.86
577.557	695.56
578.009	695.36
578.46	690.86
578.912	689.06
579.363	697.46
579.814	703.76
580.265	690.86
580.717	693.36
581.168	685.96
581.619	698.86
582.07	705.06
582.521	699.66
582.972	695.36
583.423	701.06
583.875	706.16
584.326	714.36
584.777	760.46
585.227	847.26
585.678	932.36
586.129	1016.46
586.58	1082.26
587.031	1169.66
587.482	1321.46
587.933	1508.56
588.384	1316.96
588.834	991.16
589.285	834.46
589.736	810.26
590.186	801.46
590.637	799.36
591.088	770.76
591.538	758.96
591.989	747.66
592.439	745.96
592.89	742.66
593.34	730.46
593.791	733.76
594.241	723.86
594.692	735.36
595.142	731.36
595.593	723.16
596.043	724.96
596.493	741.06
596.943	739.46
597.394	736.36
597.844	737.26
598.294	746.86
598.744	773.16
599.195	796.96
599.645	845.16
600.095	884.96
600.545	945.76
600.995	992.46
601.445	1060.46
601.895	1110.16
602.345	1167.36
602.795	1147.56
603.245	1105.36
603.695	1037.86
604.145	980.96
604.594	942.46
605.044	887.66
605.494	817.76
605.944	786.96
606.393	766.06
606.843	746.16
607.293	746.46
607.743	753.66
608.192	771.76
608.642	790.76
609.091	781.76
609.541	787.06
609.99	796.76
610.44	793.26
610.889	737.86
611.339	711.26
611.788	714.86
612.238	720.76
612.687	730.36
613.136	743.26
613.586	748.56
614.035	751.26
614.484	771.96
614.933	781.16
615.383	768.16
615.832	758.86
616.281	734.56
616.73	701.26
617.179	685.56
617.628	672.56
618.077	654.36
618.526	650.26
618.975	640.76
619.424	644.06
619.873	628.96
620.322	630.76
620.771	617.76
621.22	624.56
621.669	607.66
622.118	606.16
622.567	603.26
623.015	595.06
623.464	590.56
623.913	578.56
624.361	580.76
624.81	559.46
625.259	574.76
625.707	566.66
626.156	570.26
626.604	585.46
627.053	587.46
627.501	575.46
627.95	587.96
628.398	597.06
628.847	597.06
629.295	589.06
629.744	593.56
630.192	582.46
630.64	582.16
631.089	582.16
631.537	583.56
631.985	590.56
632.433	604.56
632.881	617.86
633.33	664.96
633.778	651.36
634.226	589.36
634.674	597.56
635.122	595.56
635.57	604.56
636.018	638.36
636.466	602.26
636.914	571.06
637.362	584.96
637.81	590.76
638.258	599.56
638.705	593.76
639.153	629.26
639.601	636.86
640.049	659.16
640.497	684.96
640.944	715.36
641.392	662.76
641.84	630.56
642.287	603.06
642.735	587.06
643.182	583.26
643.63	594.26
644.078	590.56
644.525	604.16
644.973	609.96
645.42	620.06
645.867	629.36
646.315	652.96
646.762	671.26
647.21	704.66
647.657	730.46
648.104	764.06
648.551	797.26
648.999	852.06
649.446	934.56
649.893	1032.86
650.34	1179.46
650.787	1431.56
651.234	1760.86
651.682	2293.86
652.129	3145.36
652.576	4519.46
653.023	6655.76
653.47	9107.36
653.917	11372.76
654.363	13181.86
654.81	14504.26
655.257	13776.16
655.704	9064.36
656.151	5347.76
656.598	3480.76
657.044	2453.36
657.491	1895.56
657.938	1519.16
658.385	1256.26
658.831	1105.26
659.278	986.06
659.724	870.76
660.171	799.56
660.618	738.76
661.064	708.26
661.511	683.96
661.957	664.26
662.404	657.36
662.85	671.76
663.296	641.16
663.743	576.96
664.189	557.26
664.635	552.56
665.082	536.16
665.528	547.76
665.974	528.06
666.42	522.96
666.867	516.96
667.313	501.76
667.759	495.76
668.205	485.16
668.651	498.86
669.097	491.56
669.543	509.46
669.989	482.46
670.435	461.36
670.881	453.76
671.327	458.66
671.773	485.96
672.219	489.56
672.665	546.36
673.11	591.16
673.556	642.16
674.002	689.66
674.448	672.66
674.893	562.06
675.339	490.46
675.785	449.56
676.23	420.86
676.676	404.76
677.122	394.46
677.567	382.16
678.013	371.86
678.458	364.56
678.904	371.36
679.349	358.66
679.794	360.56
680.24	365.66
680.685	358.96
681.131	353.96
681.576	355.36
682.021	358.26
682.466	358.16
682.912	358.16
683.357	361.26
683.802	390.66
684.247	418.16
684.692	459.96
685.137	500.76
685.583	538.66
686.028	572.96
686.473	529.06
686.918	457.66
687.363	422.96
687.807	406.46
688.252	373.96
688.697	362.46
689.142	346.86
689.587	340.56
690.032	333.36
690.477	350.86
690.921	364.56
691.366	382.46
691.811	408.56
692.255	439.26
692.7	468.46
693.145	510.76
693.589	702.86
694.034	1141.46
694.478	1569.36
694.923	1759.46
695.367	2323.06
695.812	1220.06
696.256	503.96
696.701	379.16
697.145	350.06
697.59	328.56
698.034	336.96
698.478	340.96
698.922	338.26
699.367	340.96
699.811	346.26
700.255	368.96
700.699	389.36
701.143	442.96
701.588	490.76
702.032	524.36
702.476	523.56
702.92	503.56
703.364	506.26
703.808	642.06
704.252	1057.36
704.696	1472.96
705.14	1704.56
705.584	2172.46
706.027	1078.16
706.471	532.36
706.915	403.96
707.359	361.86
707.803	326.96
708.246	319.16
708.69	309.76
709.134	319.26
709.577	322.46
710.021	327.96
710.465	312.76
710.908	302.86
711.352	309.76
711.795	325.86
712.239	352.46
712.682	389.76
713.126	420.86
713.569	475.66
714.012	381.16
714.456	336.36
714.899	304.06
715.342	289.36
715.786	270.46
716.229	262.36
716.672	251.86
717.115	255.56
717.558	255.76
718.002	260.76
718.445	269.56
718.888	290.66
719.331	301.56
719.774	303.96
720.217	309.16
720.66	293.46
721.103	274.06
721.546	258.56
721.989	257.76
722.432	238.46
722.874	243.56
723.317	236.36
723.76	246.76
724.203	269.46
724.645	330.66
725.088	451.46
725.531	582.96
725.974	657.66
726.416	556.36
726.859	316.06
727.301	252.86
727.744	243.46
728.187	239.56
728.629	244.76
729.071	239.56
729.514	262.26
729.956	279.76
730.399	290.06
730.841	286.66
731.283	284.36
731.726	270.86
732.168	264.66
732.61	268.16
733.053	290.26
733.495	324.66
733.937	360.56
734.379	405.06
734.821	441.16
735.263	545.96
735.705	837.66
736.148	1595.26
736.59	2624.66
737.032	3102.56
737.474	2520.06
737.916	816.66
738.357	440.06
738.799	341.86
739.241	301.06
739.683	287.56
740.125	294.56
740.567	307.96
741.008	317.96
741.45	312.16
741.892	318.66
742.334	356.16
742.775	369.16
743.217	348.06
743.658	274.96
744.1	260.56
744.542	273.26
744.983	305.76
745.425	350.76
745.866	347.06
746.307	288.06
746.749	290.66
747.19	336.36
747.632	461.16
748.073	895.96
748.514	1885.36
748.956	2892.66
749.397	3611.86
749.838	3001.96
750.279	2998.86
750.72	1514.26
751.162	551.16
751.603	326.66
752.044	252.46
752.485	223.06
752.926	210.86
753.367	208.76
753.808	200.26
754.249	194.26
754.69	195.16
755.131	192.76
755.572	188.66
756.013	186.56
756.453	186.76
756.894	188.76
757.335	196.26
757.776	199.56
758.216	195.96
758.657	204.46
759.098	204.36
759.538	222.46
759.979	274.06
760.42	367.86
760.86	715.36
761.301	1830.46
761.741	4490.86
762.182	6496.76
762.622	4599.86
763.063	1316.36
763.503	553.66
763.943	355.96
764.384	338.46
764.824	410.66
765.264	432.56
765.705	306.66
766.145	211.06
766.585	192.26
767.025	188.86
767.465	191.56
767.906	242.36
768.346	309.46
768.786	338.06
769.226	265.76
769.666	318.96
770.106	627.06
770.546	1577.66
770.986	2699.26
771.426	2405.06
771.866	805.66
772.306	339.46
772.745	212.96
773.185	171.96
773.625	170.76
774.065	168.06
774.505	191.26
774.944	298.66
775.384	648.76
775.824	1173.16
776.263	1139.36
776.703	485.16
777.142	217.26
777.582	161.16
778.021	141.86
778.461	148.46
778.9	143.16
779.34	138.76
779.779	122.96
780.219	110.76
780.658	116.86
781.097	108.66
781.537	109.86
781.976	111.76
782.415	107.76
782.855	107.56
783.294	106.36
783.733	106.16
784.172	119.56
784.611	107.46
785.05	107.96
785.489	112.46
785.928	123.06
786.367	127.76
786.806	127.06
787.245	128.86
787.684	138.96
788.123	152.36
788.562	135.16
789.001	122.26
789.44	124.26
789.879	120.76
790.317	122.36
790.756	132.16
791.195	131.66
791.634	146.26
792.072	204.26
792.511	367.46
792.95	1012.46
793.388	2182.06
793.827	1964.56
794.265	684.46
794.704	286.86
795.142	186.46
795.581	156.26
796.019	135.16
796.458	127.86
796.896	125.16
797.334	140.16
797.773	152.56
798.211	221.06
798.649	441.46
799.087	1027.46
799.526	1605.96
799.964	2030.66
800.402	2034.36
800.84	762.46
801.278	307.46
801.716	194.76
802.154	159.96
802.592	154.96
803.03	142.36
803.468	139.06
803.906	148.96
804.344	153.86
804.782	135.96
805.22	135.76
805.658	130.96
806.096	147.16
806.533	161.16
806.971	179.66
807.409	222.96
807.847	324.86
808.284	662.16
808.722	1885.46
809.16	3317.26
809.597	3134.66
810.035	5434.46
810.472	5844.96
810.91	2115.56
811.347	807.16
811.785	404.46
812.222	262.16
812.66	203.06
813.097	162.66
813.535	146.16
813.972	136.56
814.409	128.26
814.846	108.46
815.284	115.66
815.721	110.06
816.158	105.86
816.595	124.76
817.032	180.76
817.47	203.46
817.907	172.36
818.344	148.86
818.781	115.66
819.218	103.16
819.655	129.86
820.092	192.66
820.529	216.66
820.966	177.86
821.403	130.16
821.839	109.36
822.276	99.26
822.713	117.26
823.15	142.56
823.587	119.86
824.023	145.76
824.46	299.66
824.897	903.46
825.333	1365.76
825.77	586.16
826.206	229.36
826.643	137.26
827.08	101.16
827.516	85.56
827.953	82.66
828.389	77.66
828.825	72.36
829.262	67.26
829.698	62.66
830.135	67.06
830.571	62.96
831.007	62.36
831.443	65.36
831.88	63.26
832.316	65.16
832.752	68.36
833.188	66.36
833.624	75.46
834.06	71.46
834.497	68.26
834.933	73.36
835.369	78.76
835.805	67.06
836.241	75.56
836.677	90.56
837.112	91.96
837.548	101.56
837.984	132.56
838.42	207.96
838.856	504.36
839.292	1512.56
839.727	2321.36
840.163	1080.26
840.599	935.46
841.034	2053.06
841.47	2138.26
841.906	789.76
842.341	339.66
842.777	232.36
843.212	315.56
843.648	299.16
844.083	147.56
844.519	99.86
844.954	82.26
845.39	59.76
845.825	60.66
846.261	58.86
846.696	54.76
847.131	55.06
847.566	59.96
848.002	53.96
848.437	60.26
848.872	67.06
849.307	65.56
849.742	86.06
850.177	176.36
850.613	555.86
851.048	892.06
851.483	383.16
851.918	154.16
852.353	84.86
852.788	63.36
853.223	65.46
853.657	56.66
854.092	50.66
854.527	45.56
854.962	45.36
855.397	49.36
855.832	53.56
856.266	44.56
856.701	39.06
857.136	43.16
857.57	40.26
858.005	50.06
858.44	57.66
858.874	45.56
859.309	51.86
859.743	39.56
860.178	45.36
860.612	44.56
861.047	49.36
861.481	66.76
861.915	70.36
862.35	48.66
862.784	38.36
863.218	38.06
863.653	35.66
864.087	53.16
864.521	57.86
864.955	72.96
865.39	159.26
865.824	181.36
866.258	118.06
866.692	165.36
867.126	176.16
867.56	107.66
867.994	53.36
868.428	38.46
868.862	52.16
869.296	55.26
869.73	59.56
870.164	56.56
870.598	49.36
871.031	37.36
871.465	34.16
871.899	36.36
872.333	27.66
872.766	22.16
873.2	23.16
873.634	28.86
874.067	30.06
874.501	25.16
874.935	31.36
875.368	32.66
875.802	27.66
876.235	25.76
876.669	21.76
877.102	20.36
877.535	26.86
877.969	25.26
878.402	21.56
878.836	20.56
879.269	22.96
879.702	26.56
880.135	26.16
880.569	28.56
881.002	32.16
881.435	25.56
881.868	15.16
882.301	25.36
882.734	23.26
883.167	24.86
883.601	17.06
884.034	21.36
884.467	16.86
884.899	20.36
885.332	22.16
885.765	18.76
886.198	17.46
886.631	16.26
887.064	19.56
887.497	20.96
887.929	27.46
888.362	15.26
888.795	10.26
889.228	18.56
889.66	20.86
890.093	22.36
890.526	19.16
890.958	18.36
891.391	15.86
891.823	20.66
892.256	7.76
892.688	17.16
893.121	20.66
893.553	13.06
893.985	20.86
894.418	19.36
894.85	16.56
895.282	16.46
895.715	16.26
896.147	18.56
896.579	16.86
897.011	15.96
897.444	18.16
897.876	15.96
898.308	18.46
898.74	12.46
899.172	18.06
899.604	23.86
900.036	21.96
900.468	15.16
900.9	16.56
901.332	18.06
901.764	14.16
902.196	18.16
902.628	23.36
903.06	19.36
903.491	26.16
903.923	28.36
904.355	23.56
904.787	27.26
905.218	27.06
905.65	25.56
906.082	18.36
906.513	18.86
906.945	21.76
907.376	19.36
907.808	25.66
908.239	21.46
908.671	25.56
909.102	18.76
909.534	25.36
909.965	42.86
910.397	96.56
910.828	311.36
911.259	477.06
911.691	216.96
912.122	106.06
912.553	50.76
912.984	33.56
913.415	33.76
913.847	26.36
914.278	13.86
914.709	15.46
915.14	24.16
915.571	18.56
916.002	14.86
916.433	19.66
916.864	25.06
917.295	16.46
917.726	20.66
918.157	19.66
918.587	28.16
919.018	22.76
919.449	24.66
919.88	23.96
920.311	35.26
920.741	50.36
921.172	172.26
921.603	153.86
922.033	70.76
922.464	39.56
922.895	20.86
923.325	23.96
923.756	15.46
924.186	16.76
924.617	29.66
925.047	42.46
925.478	46.76
925.908	47.46
926.338	22.46
926.769	17.06
927.199	23.66
927.629	15.76
928.06	16.76
928.49	16.56
928.92	15.36
929.35	7.26
929.78	6.16
930.21	5.56
930.641	9.66
931.071	6.86
931.501	2.86
931.931	11.26
932.361	8.86
932.791	2.96
933.221	7.76
933.651	13.26
934.08	19.06
934.51	26.16
934.94	12.76
935.37	6.06
935.8	10.86
936.229	8.06
936.659	7.26
937.089	5.26
937.519	14.36
937.948	24.06
938.378	17.06
938.807	5.46
939.237	4.56
939.666	8.56
940.096	-1.74
940.525	6.96
940.955	5.96
941.384	1.06
941.814	-4.14
942.243	1.26
942.672	6.56
943.102	-1.04
943.531	-1.44
943.96	5.96
944.39	0.86
944.819	-1.64
945.248	2.36
945.677	5.06
946.106	8.16
946.535	6.46
946.964	0.96
947.393	5.86
947.822	3.46
948.251	1.96
948.68	5.36
949.109	7.16
949.538	4.66
949.967	1.16
950.396	5.16
950.825	0.96
951.254	-1.24
951.682	-4.44
952.111	6.36
952.54	5.86
952.969	-3.04
953.397	-4.54
953.826	7.06
954.254	-7.84
954.683	1.26
955.112	-1.54
955.54	-4.34
955.969	6.36
956.397	2.36
956.826	-1.84
957.254	10.26
957.682	3.06
958.111	5.86
958.539	4.16
958.967	-1.94
959.396	0.66
959.824	-1.94
960.252	8.46
960.68	0.96
961.109	0.86
961.537	-3.24
961.965	2.56
962.393	0.86
962.821	-1.34
963.249	1.76
963.677	6.46
964.105	11.06
964.533	42.66
964.961	37.66
965.389	24.06
965.817	8.66
966.245	4.26
966.672	-2.94
967.1	-1.64
967.528	-6.04
967.956	1.26
968.383	-0.14
968.811	-0.74
969.239	-4.74
969.666	-2.04
970.094	8.36
970.522	1.36
970.949	4.56
971.377	-1.74
971.804	-2.14
972.232	-4.84
972.659	-1.74
973.087	-4.34
973.514	2.86
973.941	-1.34
974.369	2.56
974.796	-2.14
975.223	-1.54
975.651	8.06
976.078	8.86
976.505	-1.94
976.932	1.76
977.359	16.86
977.786	18.16
978.214	0.26
978.641	2.36
979.068	0.36
979.495	-5.64
979.922	3.06
980.349	-2.44
980.776	6.26
981.202	2.16
981.629	6.86
982.056	6.46
982.483	-2.84
982.91	4.16
983.337	-1.14
983.763	6.06
984.19	-4.44
984.617	-5.74
985.043	-11.44
985.47	-9.14
985.897	-6.94
986.323	-4.74
986.75	7.86
987.176	3.66
987.603	-1.94
988.029	1.66
988.456	-3.84
988.882	7.06
989.308	-3.04
989.735	-1.34
990.161	2.66
990.587	-2.24
991.014	0.66
991.44	5.16
991.866	-8.14
992.292	-1.94
992.719	-4.74
993.145	5.06
993.571	-10.54
993.997	-1.44
994.423	2.96
994.849	0.06
995.275	-2.34
995.701	3.26
996.127	2.16
996.553	6.56
996.979	-0.74
997.405	-0.34
997.83	1.76
998.256	-4.34
998.682	-5.04
999.108	-13.14
999.534	-2.74
999.959	-3.04
1000.385	-3.44
1000.811	2.36
1001.236	-11.04
1001.662	-5.04
1002.087	-6.04
1002.513	0.96
1002.938	1.26
1003.364	0.96
1003.789	-0.74
1004.215	2.16
1004.64	-0.44
1005.066	-2.54
1005.491	-5.44
1005.916	-3.04
1006.342	-0.64
1006.767	-5.84
1007.192	4.86
1007.617	-4.54
1008.042	-1.94
1008.468	-3.74
1008.893	1.96
1009.318	1.56
1009.743	1.36
1010.168	3.66
1010.593	-4.04
1011.018	-1.54
1011.443	1.76
1011.868	-1.44
1012.293	-3.04
1012.718	-7.14
1013.143	2.46
1013.567	1.66
1013.992	-1.04
1014.417	-5.84
1014.842	4.96
1015.267	-7.44
1015.691	0.86
1016.116	1.56
1016.541	-1.94
1016.965	-0.04
1017.39	-0.94
1017.814	1.36
1018.239	1.26
1018.663	-8.04
1019.088	-7.94
1019.512	-3.64
1019.937	-3.34
1020.361	-8.24
1020.785	-9.14
1021.21	-0.64
1021.634	-0.34
1022.058	-6.14
1022.483	6.56
1022.907	-4.84
1023.331	-3.04
1023.755	-0.14
1024.179	0.96
1024.604	-5.44
1025.028	-6.94
1025.452	0.46
1025.876	-0.34
1026.3	6.26
1026.724	-8.34
1027.148	-8.54
1027.572	-13.34
1027.996	-2.44
1028.42	-0.94
1028.843	-5.64
1029.267	-4.94
1029.691	-4.24
1030.115	-5.34
1030.539	-8.64
1030.962	-4.34
1031.386	-10.74
1031.81	-3.64
1032.233	0.96
1032.657	-5.64
1033.08	-0.24
1033.504	0.06
1033.927	0.46
1034.351	2.16
1034.774	-0.24
1035.198	-2.44
1035.621	-7.64
1036.045	-1.94
1036.468	1.26
1036.891	-10.14
1037.315	-13.44
1037.738	-12.84
1038.161	3.36
1038.584	-8.94
1039.008	-4.84
1039.431	-0.54
1039.854	-3.64
1040.277	-15.04
1040.7	-5.14
1041.123	-0.34
1041.546	-2.74
1041.969	-6.24
1042.392	-6.04
1042.815	-4.34
1043.238	-2.64
1043.661	0.76
1044.084	-7.34
1044.507	-5.64
1044.93	-4.94
1045.352	-7.74
1045.775	-5.24
1046.198	-1.24
1046.621	-10.24
1047.043	-0.34
1047.466	7.96
1047.889	1.56
1048.311	-2.74
1048.734	-1.34
1049.156	-0.14
1049.579	-6.04
1050.001	-2.24
1050.424	-7.04
1050.846	-7.34
1051.269	0.36
1051.691	-2.94
1052.113	-4.54
1052.536	-0.14
1052.958	1.26
1053.38	-5.84
1053.802	-11.64
1054.225	5.86
1054.647	-3.34
1055.069	-3.34
1055.491	1.26
1055.913	-9.74
1056.335	-1.14
1056.757	-7.64
1057.179	-10.04
1057.601	-3.74
1058.023	-2.94
1058.445	-1.54
1058.867	-0.54
1059.289	-1.14
1059.711	-8.54
1060.133	1.36
1060.555	-3.34
1060.976	-8.54
1061.398	-8.94
1061.82	-2.84
1062.241	-6.14
1062.663	-0.64
1063.085	-1.44
1063.506	-5.14
1063.928	-1.24
1064.35	0.26
1064.771	-14.64
1065.193	1.46
1065.614	-4.14
1066.035	-1.84
1066.457	-4.54
1066.878	-1.14
1067.3	-5.14
1067.721	-3.14
1068.142	-3.54
1068.564	3.16
1068.985	-4.74
1069.406	-11.54
1069.827	-3.44
1070.248	3.46
1070.67	-9.54
1071.091	-3.24
1071.512	0.36
1071.933	-9.24
1072.354	-6.74
1072.775	-6.44
1073.196	-4.84
1073.617	-3.84
1074.038	-5.34
1074.459	1.66
1074.88	-11.94
1075.3	1.36
1075.721	-10.74
1076.142	5.76
1076.563	2.16
1076.983	-6.04
1077.404	0.66
1077.825	-6.64
1078.246	-2.84
1078.666	-15.24
1079.087	-5.34
1079.507	-7.54
1079.928	-3.34
1080.348	-1.74
1080.769	-5.44
1081.189	1.66
1081.61	0.66
1082.03	-1.54
1082.451	-4.04
1082.871	-4.84
1083.291	-8.04
1083.711	-4.64
1084.132	-2.14
1084.552	1.26
1084.972	-1.54
1085.392	-9.74
1085.813	-11.14
1086.233	-9.84
1086.653	-9.74
1087.073	-4.14
1087.493	-3.84
1087.913	-6.74
1088.333	-13.14
1088.753	-1.44
1089.173	1.66
1089.593	-4.34
1090.013	-2.84
1090.433	2.56
1090.852	-6.64
1091.272	-4.14
1091.692	-8.34
1092.112	-6.44
1092.531	-9.74
1092.951	-9.14
1093.371	-3.84
1093.79	0.76
1094.21	-2.84
1094.63	-1.44
1095.049	-8.74
1095.469	-4.84
1095.888	-4.04
1096.308	0.06
1096.727	4.86
1097.146	1.06
1097.566	-1.04
1097.985	-5.74
1098.405	-3.54
1098.824	-8.24
1099.243	-1.94
1099.662	-11.34
1100.082	-3.84
1100.501	-3.34
1100.92	-4.74
1101.339	-5.04
1101.758	-2.04
