Data from 20171114-ORNL-Ar_H_NY_Subt18_08-06-37-658.txt Node
Date: Tue Nov 14 08:06:37 EST 2017
User: Ender
Spectrometer: HR+D1039
Trigger mode: 0
Integration Time (sec): 2.730000E-2
Scans to average: 10
Electric dark correction enabled: true
Nonlinearity correction enabled: false
Boxcar width: 0
XAxis mode: Wavelengths
Number of Pixels in Spectrum: 2048
>>>>>Begin Spectral Data<<<<<
187.836	-0.17
188.309	-0.17
188.782	-0.17
189.255	0.13
189.728	-2.27
190.201	4.63
190.674	1.33
191.147	4.33
191.619	-4.37
192.092	3.43
192.565	1.13
193.038	-0.97
193.511	-3.57
193.984	-1.27
194.456	0.33
194.929	-2.37
195.402	1.03
195.874	-1.37
196.347	-3.97
196.82	-6.57
197.292	8.13
197.765	2.83
198.237	-5.77
198.71	5.53
199.182	-0.87
199.655	2.83
200.127	-2.17
200.6	-1.47
201.072	-0.87
201.544	-2.27
202.017	-1.27
202.489	4.13
202.961	-4.37
203.433	-3.17
203.906	-6.27
204.378	-3.17
204.85	-0.67
205.322	-10.37
205.794	-1.27
206.266	-9.77
206.739	-14.77
207.211	-0.27
207.683	-15.77
208.155	-0.47
208.627	-4.27
209.099	-1.17
209.57	-7.07
210.042	-5.67
210.514	-2.07
210.986	1.33
211.458	-8.87
211.93	-0.67
212.402	4.03
212.873	-7.57
213.345	-10.47
213.817	-12.77
214.288	-8.17
214.76	-14.97
215.232	-3.17
215.703	-6.17
216.175	-3.97
216.646	-5.07
217.118	-3.17
217.589	-1.57
218.061	-9.47
218.532	-6.87
219.004	-2.67
219.475	2.63
219.946	-2.07
220.418	-4.17
220.889	-3.47
221.36	-1.77
221.832	-3.87
222.303	-7.67
222.774	2.53
223.245	-10.17
223.717	-4.47
224.188	-6.97
224.659	-8.47
225.13	-6.87
225.601	-5.37
226.072	-6.47
226.543	-2.87
227.014	3.23
227.485	-4.07
227.956	-4.07
228.427	-6.07
228.898	7.13
229.369	2.13
229.839	-3.17
230.31	-1.97
230.781	0.03
231.252	-7.87
231.722	-6.87
232.193	-4.67
232.664	-3.57
233.135	4.03
233.605	-3.67
234.076	-7.77
234.546	-2.27
235.017	0.03
235.487	1.23
235.958	4.93
236.428	-0.87
236.899	-1.77
237.369	-0.67
237.84	-7.47
238.31	0.43
238.78	-0.07
239.251	-0.47
239.721	-1.47
240.191	-5.27
240.662	-1.27
241.132	-2.87
241.602	-0.97
242.072	0.93
242.542	2.33
243.013	-2.67
243.483	-1.37
243.953	1.23
244.423	-0.77
244.893	-2.77
245.363	5.63
245.833	3.53
246.303	-5.07
246.773	-1.97
247.243	-1.47
247.712	-3.57
248.182	2.23
248.652	8.03
249.122	-8.17
249.592	-0.87
250.061	5.13
250.531	10.43
251.001	0.73
251.471	13.73
251.94	6.93
252.41	4.13
252.879	-5.27
253.349	7.03
253.818	11.23
254.288	4.73
254.757	2.43
255.227	-2.07
255.696	0.53
256.166	2.93
256.635	2.83
257.105	0.93
257.574	2.23
258.043	8.63
258.513	1.73
258.982	6.03
259.451	0.83
259.92	-1.17
260.389	-2.17
260.859	12.03
261.328	-1.17
261.797	5.63
262.266	6.73
262.735	5.33
263.204	4.23
263.673	-0.07
264.142	7.23
264.611	-2.47
265.08	-2.37
265.549	-3.37
266.018	8.83
266.487	0.73
266.955	-1.47
267.424	-0.17
267.893	4.73
268.362	1.53
268.83	1.63
269.299	15.23
269.768	9.63
270.236	9.93
270.705	1.73
271.174	7.13
271.642	8.63
272.111	7.63
272.579	8.33
273.048	3.83
273.516	9.73
273.985	7.83
274.453	14.63
274.922	11.83
275.39	10.33
275.858	-3.77
276.327	15.13
276.795	14.33
277.263	7.63
277.731	18.33
278.2	15.13
278.668	16.03
279.136	12.73
279.604	6.13
280.072	14.63
280.54	11.83
281.008	7.73
281.477	14.33
281.945	10.33
282.413	14.53
282.881	21.33
283.348	3.33
283.816	13.63
284.284	2.63
284.752	20.13
285.22	12.23
285.688	8.03
286.156	12.83
286.623	24.53
287.091	14.93
287.559	16.53
288.026	19.43
288.494	15.03
288.962	5.33
289.429	16.93
289.897	13.53
290.364	15.33
290.832	17.43
291.3	15.53
291.767	12.63
292.234	18.23
292.702	10.53
293.169	16.43
293.637	23.03
294.104	20.13
294.571	7.23
295.039	15.93
295.506	12.83
295.973	16.33
296.44	23.03
296.908	20.03
297.375	14.93
297.842	16.13
298.309	13.93
298.776	16.03
299.243	24.43
299.71	18.13
300.177	23.43
300.644	18.43
301.111	19.13
301.578	25.63
302.045	17.53
302.512	21.83
302.979	25.33
303.446	22.03
303.913	11.33
304.379	16.83
304.846	28.93
305.313	20.73
305.78	29.93
306.246	22.03
306.713	26.23
307.18	22.33
307.646	25.23
308.113	31.33
308.579	26.13
309.046	28.23
309.512	21.73
309.979	22.93
310.445	28.43
310.912	32.63
311.378	29.83
311.845	27.63
312.311	32.53
312.777	36.23
313.244	33.53
313.71	35.03
314.176	32.83
314.642	28.73
315.109	30.43
315.575	33.63
316.041	38.13
316.507	27.63
316.973	39.63
317.439	34.43
317.905	37.53
318.371	35.93
318.837	38.03
319.303	39.03
319.769	32.63
320.235	29.33
320.701	38.13
321.167	37.83
321.633	29.23
322.099	33.73
322.564	42.03
323.03	40.63
323.496	41.53
323.962	42.73
324.427	46.83
324.893	45.53
325.359	41.43
325.824	39.23
326.29	37.93
326.755	43.93
327.221	35.83
327.686	45.83
328.152	43.73
328.617	45.33
329.083	52.03
329.548	53.13
330.014	49.53
330.479	44.03
330.944	43.53
331.41	42.83
331.875	46.63
332.34	43.23
332.805	47.43
333.271	49.53
333.736	35.83
334.201	52.83
334.666	56.13
335.131	55.03
335.596	49.03
336.061	52.33
336.526	43.13
336.991	56.83
337.456	48.73
337.921	52.53
338.386	47.63
338.851	49.73
339.316	47.83
339.781	48.43
340.246	49.93
340.711	45.83
341.175	53.73
341.64	61.03
342.105	54.73
342.569	62.73
343.034	67.23
343.499	62.73
343.963	53.03
344.428	70.93
344.893	63.23
345.357	60.73
345.822	67.03
346.286	64.53
346.751	78.53
347.215	77.23
347.679	77.43
348.144	99.93
348.608	93.33
349.073	72.33
349.537	80.83
350.001	89.83
350.465	87.73
350.93	87.73
351.394	87.33
351.858	72.03
352.322	94.93
352.786	83.63
353.25	104.83
353.715	122.63
354.179	95.53
354.643	120.93
355.107	129.53
355.571	106.93
356.035	109.33
356.498	116.03
356.962	124.63
357.426	131.93
357.89	118.73
358.354	88.13
358.818	81.73
359.281	80.13
359.745	79.23
360.209	79.53
360.673	79.23
361.136	85.93
361.6	87.93
362.064	89.53
362.527	85.53
362.991	91.93
363.454	86.93
363.918	83.23
364.381	85.63
364.845	91.23
365.308	91.63
365.772	87.53
366.235	95.73
366.698	84.23
367.162	98.73
367.625	85.43
368.088	90.83
368.552	95.13
369.015	89.53
369.478	98.73
369.941	108.23
370.404	90.23
370.867	104.93
371.331	107.23
371.794	115.23
372.257	103.73
372.72	110.53
373.183	100.33
373.646	106.03
374.109	99.53
374.572	103.53
375.035	106.93
375.497	115.03
375.96	113.53
376.423	109.43
376.886	114.73
377.349	112.53
377.811	105.13
378.274	101.73
378.737	112.93
379.199	118.23
379.662	113.33
380.125	118.53
380.587	116.23
381.05	108.83
381.512	124.63
381.975	128.63
382.437	119.73
382.9	122.73
383.362	123.03
383.825	132.43
384.287	131.93
384.75	127.13
385.212	132.43
385.674	138.83
386.136	139.33
386.599	128.53
387.061	130.03
387.523	128.53
387.985	137.43
388.447	141.13
388.91	132.63
389.372	133.23
389.834	136.53
390.296	137.03
390.758	133.43
391.22	142.53
391.682	157.13
392.144	165.13
392.606	155.13
393.068	142.33
393.529	156.83
393.991	149.03
394.453	139.33
394.915	138.43
395.377	138.13
395.838	144.13
396.3	138.63
396.762	147.53
397.224	142.33
397.685	139.43
398.147	146.83
398.608	141.63
399.07	144.03
399.531	144.03
399.993	156.73
400.454	165.83
400.916	155.33
401.377	159.63
401.839	155.73
402.3	167.33
402.762	173.43
403.223	182.83
403.684	178.03
404.145	166.03
404.607	170.63
405.068	171.43
405.529	179.43
405.99	200.13
406.451	180.63
406.913	186.33
407.374	171.53
407.835	170.83
408.296	173.03
408.757	183.93
409.218	195.53
409.679	186.93
410.14	180.43
410.601	183.33
411.062	190.73
411.522	183.43
411.983	190.53
412.444	187.43
412.905	194.73
413.366	192.73
413.826	207.03
414.287	236.73
414.748	287.63
415.208	265.33
415.669	237.63
416.13	228.73
416.59	229.73
417.051	224.13
417.511	237.03
417.972	253.63
418.432	261.03
418.893	312.73
419.353	273.13
419.814	218.43
420.274	209.73
420.734	195.53
421.195	210.73
421.655	203.13
422.115	207.63
422.576	207.73
423.036	213.13
423.496	222.33
423.956	237.93
424.416	251.83
424.876	290.03
425.336	280.53
425.797	280.73
426.257	275.63
426.717	262.33
427.177	248.93
427.637	226.83
428.097	250.83
428.556	262.13
429.016	287.63
429.476	273.33
429.936	290.53
430.396	292.83
430.856	308.63
431.315	327.13
431.775	362.03
432.235	395.13
432.694	369.33
433.154	382.53
433.614	413.53
434.073	352.33
434.533	302.73
434.993	288.23
435.452	293.53
435.912	315.03
436.371	303.43
436.83	300.43
437.29	281.93
437.749	269.13
438.209	263.73
438.668	296.23
439.127	309.53
439.587	283.23
440.046	271.53
440.505	283.13
440.964	298.33
441.424	349.33
441.883	333.03
442.342	278.53
442.801	240.63
443.26	232.53
443.719	240.73
444.178	236.53
444.637	232.63
445.096	243.53
445.555	238.63
446.014	248.33
446.473	246.63
446.932	249.23
447.391	243.73
447.849	254.13
448.308	239.73
448.767	251.43
449.226	256.73
449.685	254.23
450.143	270.13
450.602	264.23
451.061	249.03
451.519	253.73
451.978	259.23
452.436	249.53
452.895	269.13
453.353	280.43
453.812	262.83
454.27	258.73
454.729	261.73
455.187	264.23
455.646	264.63
456.104	273.83
456.562	284.73
457.021	288.43
457.479	292.33
457.937	294.63
458.395	295.63
458.854	278.83
459.312	281.03
459.77	292.63
460.228	284.03
460.686	269.23
461.144	274.73
461.602	272.43
462.06	270.63
462.518	278.43
462.976	279.33
463.434	284.13
463.892	285.03
464.35	305.73
464.808	313.73
465.266	296.83
465.724	292.03
466.181	293.23
466.639	300.93
467.097	316.33
467.555	330.23
468.012	330.03
468.47	336.53
468.928	360.83
469.385	369.83
469.843	381.43
470.3	382.53
470.758	397.03
471.215	418.13
471.673	441.33
472.13	446.13
472.588	460.03
473.045	399.63
473.503	428.03
473.96	424.33
474.417	437.83
474.875	475.63
475.332	516.73
475.789	506.33
476.246	502.33
476.704	531.23
477.161	552.03
477.618	563.23
478.075	606.13
478.532	664.93
478.989	733.03
479.446	854.43
479.903	812.93
480.36	840.83
480.817	899.73
481.274	989.33
481.731	1089.23
482.188	1186.13
482.645	1288.63
483.102	1396.43
483.558	1501.53
484.015	1557.63
484.472	1530.83
484.929	1494.53
485.385	1444.03
485.842	1422.13
486.299	1367.83
486.755	1323.03
487.212	1124.93
487.668	959.93
488.125	894.93
488.582	821.73
489.038	793.63
489.494	758.43
489.951	738.73
490.407	726.03
490.864	696.13
491.32	685.03
491.776	684.53
492.233	701.53
492.689	663.63
493.145	652.03
493.602	652.03
494.058	657.53
494.514	663.33
494.97	683.63
495.426	709.13
495.882	678.13
496.338	669.23
496.794	675.53
497.251	667.03
497.707	685.83
498.163	701.53
498.618	700.53
499.074	704.03
499.53	726.83
499.986	724.23
500.442	707.03
500.898	674.23
501.354	669.43
501.809	678.23
502.265	683.43
502.721	693.73
503.177	693.73
503.632	687.93
504.088	701.23
504.543	725.23
504.999	752.83
505.455	709.53
505.91	698.43
506.366	693.53
506.821	686.23
507.277	683.83
507.732	696.13
508.187	687.53
508.643	700.63
509.098	698.93
509.553	715.03
510.009	727.13
510.464	736.93
510.919	763.23
511.375	758.73
511.83	768.53
512.285	797.53
512.74	840.93
513.195	858.13
513.65	841.03
514.105	829.63
514.56	838.13
515.015	860.23
515.47	878.83
515.925	846.83
516.38	855.13
516.835	864.93
517.29	841.13
517.745	859.63
518.2	840.93
518.655	813.53
519.109	798.63
519.564	815.33
520.019	795.03
520.474	803.93
520.928	789.63
521.383	782.63
521.838	769.83
522.292	779.33
522.747	780.43
523.201	772.53
523.656	761.83
524.11	757.23
524.565	758.23
525.019	748.93
525.474	757.43
525.928	762.93
526.382	761.93
526.837	758.43
527.291	766.23
527.745	764.73
528.2	762.03
528.654	752.83
529.108	752.83
529.562	750.63
530.016	754.23
530.47	750.33
530.925	756.63
531.379	751.33
531.833	758.73
532.287	757.53
532.741	770.73
533.195	773.43
533.649	779.33
534.103	781.43
534.556	771.03
535.01	781.53
535.464	770.43
535.918	782.53
536.372	782.63
536.826	783.53
537.279	776.53
537.733	784.13
538.187	784.23
538.64	789.93
539.094	780.83
539.548	796.83
540.001	788.83
540.455	783.93
540.908	797.23
541.362	818.03
541.815	802.83
542.269	832.23
542.722	830.33
543.175	839.93
543.629	836.23
544.082	859.63
544.536	839.73
544.989	866.03
545.442	870.53
545.895	868.83
546.349	870.93
546.802	867.23
547.255	873.93
547.708	883.53
548.161	889.23
548.614	907.53
549.067	901.53
549.52	893.93
549.973	887.63
550.426	883.93
550.879	881.13
551.332	881.83
551.785	879.73
552.238	885.13
552.691	901.13
553.144	912.83
553.596	923.43
554.049	944.33
554.502	975.23
554.955	999.63
555.407	1001.33
555.86	977.93
556.313	969.43
556.765	959.13
557.218	965.83
557.67	955.23
558.123	963.83
558.576	955.63
559.028	964.13
559.48	966.63
559.933	959.83
560.385	923.33
560.838	883.73
561.29	856.53
561.742	859.03
562.195	840.73
562.647	839.93
563.099	848.33
563.551	832.03
564.004	861.03
564.456	838.03
564.908	828.43
565.36	820.33
565.812	790.23
566.264	784.63
566.716	779.43
567.168	773.63
567.62	778.73
568.072	753.23
568.524	754.73
568.976	748.63
569.428	732.53
569.88	730.63
570.332	740.83
570.784	746.33
571.235	757.53
571.687	756.13
572.139	771.83
572.59	778.63
573.042	772.13
573.494	775.23
573.945	769.73
574.397	741.63
574.849	759.53
575.3	751.73
575.752	742.63
576.203	742.43
576.655	755.83
577.106	734.13
577.557	731.03
578.009	724.13
578.46	732.83
578.912	730.83
579.363	737.23
579.814	732.43
580.265	729.33
580.717	722.43
581.168	722.43
581.619	735.73
582.07	744.03
582.521	739.43
582.972	725.43
583.423	732.23
583.875	731.33
584.326	745.83
584.777	755.13
585.227	789.73
585.678	806.73
586.129	824.43
586.58	848.83
587.031	863.93
587.482	904.43
587.933	945.13
588.384	919.13
588.834	861.93
589.285	842.33
589.736	847.03
590.186	827.63
590.637	819.03
591.088	802.43
591.538	801.43
591.989	794.03
592.439	788.43
592.89	771.13
593.34	773.83
593.791	765.93
594.241	752.13
594.692	755.63
595.142	752.03
595.593	754.43
596.043	761.43
596.493	771.03
596.943	761.53
597.394	768.13
597.844	777.73
598.294	790.53
598.744	821.13
599.195	841.83
599.645	886.43
600.095	934.23
600.545	997.63
600.995	1038.73
601.445	1115.23
601.895	1165.13
602.345	1223.63
602.795	1201.33
603.245	1153.83
603.695	1086.13
604.145	1030.53
604.594	987.53
605.044	929.53
605.494	871.03
605.944	825.23
606.393	809.43
606.843	782.73
607.293	787.93
607.743	797.23
608.192	792.43
608.642	807.03
609.091	817.43
609.541	822.83
609.99	828.53
610.44	820.83
610.889	772.43
611.339	743.63
611.788	747.23
612.238	744.83
612.687	752.53
613.136	741.83
613.586	772.53
614.035	755.43
614.484	767.03
614.933	772.23
615.383	766.23
615.832	766.53
616.281	762.93
616.73	727.33
617.179	703.33
617.628	690.83
618.077	676.53
618.526	663.83
618.975	670.83
619.424	666.03
619.873	664.53
620.322	663.93
620.771	655.33
621.22	641.93
621.669	633.73
622.118	636.03
622.567	624.53
623.015	617.43
623.464	613.73
623.913	608.83
624.361	601.03
624.81	594.93
625.259	593.13
625.707	600.93
626.156	602.03
626.604	614.33
627.053	611.83
627.501	609.63
627.95	610.53
628.398	627.63
628.847	617.33
629.295	617.73
629.744	617.73
630.192	613.53
630.64	604.53
631.089	597.33
631.537	581.23
631.985	566.93
632.433	567.53
632.881	564.53
633.33	569.43
633.778	568.23
634.226	565.63
634.674	578.73
635.122	578.73
635.57	583.73
636.018	599.53
636.466	601.03
636.914	590.53
637.362	610.13
637.81	611.93
638.258	622.93
638.705	624.13
639.153	658.53
639.601	666.83
640.049	696.73
640.497	711.53
640.944	751.23
641.392	692.93
641.84	664.23
642.287	626.63
642.735	606.93
643.182	605.23
643.63	597.03
644.078	598.03
644.525	614.63
644.973	617.73
645.42	638.63
645.867	665.13
646.315	680.53
646.762	706.03
647.21	721.13
647.657	749.93
648.104	778.03
648.551	803.53
648.999	867.83
649.446	950.83
649.893	1023.63
650.34	1166.73
650.787	1400.33
651.234	1709.13
651.682	2194.23
652.129	2985.73
652.576	4230.33
653.023	6169.63
653.47	8324.83
653.917	10412.53
654.363	12029.03
654.81	13226.83
655.257	12511.43
655.704	8334.13
656.151	5013.33
656.598	3315.83
657.044	2371.93
657.491	1839.93
657.938	1486.03
658.385	1252.73
658.831	1101.83
659.278	997.63
659.724	875.33
660.171	809.93
660.618	751.93
661.064	725.03
661.511	701.63
661.957	694.33
662.404	667.23
662.85	682.43
663.296	663.83
663.743	590.53
664.189	568.53
664.635	563.83
665.082	568.83
665.528	559.03
665.974	551.63
666.42	542.73
666.867	538.53
667.313	523.53
667.759	493.83
668.205	483.83
668.651	493.63
669.097	487.93
669.543	472.73
669.989	480.03
670.435	471.73
670.881	472.43
671.327	482.43
671.773	498.73
672.219	529.53
672.665	588.63
673.11	622.93
673.556	684.83
674.002	724.33
674.448	705.73
674.893	590.23
675.339	514.23
675.785	477.43
676.23	452.83
676.676	424.53
677.122	417.23
677.567	401.93
678.013	396.43
678.458	382.93
678.904	392.23
679.349	374.73
679.794	375.93
680.24	375.33
680.685	382.23
681.131	378.43
681.576	373.73
682.021	378.83
682.466	371.63
682.912	375.53
683.357	384.73
683.802	407.93
684.247	436.13
684.692	489.13
685.137	529.63
685.583	574.93
686.028	597.13
686.473	560.03
686.918	489.13
687.363	450.03
687.807	426.73
688.252	397.43
688.697	384.73
689.142	366.63
689.587	356.63
690.032	357.03
690.477	366.63
690.921	373.93
691.366	403.53
691.811	429.93
692.255	456.53
692.7	502.13
693.145	536.23
693.589	752.73
694.034	1214.43
694.478	1659.53
694.923	1874.03
695.367	2437.63
695.812	1298.03
696.256	538.73
696.701	404.83
697.145	371.03
697.59	348.53
698.034	343.63
698.478	345.83
698.922	357.13
699.367	348.23
699.811	362.03
700.255	372.13
700.699	410.73
701.143	457.63
701.588	507.13
702.032	550.43
702.476	546.13
702.92	530.13
703.364	534.23
703.808	695.83
704.252	1109.33
704.696	1569.73
705.14	1793.23
705.584	2283.13
706.027	1153.23
706.471	563.13
706.915	429.63
707.359	380.23
707.803	343.03
708.246	339.53
708.69	336.63
709.134	340.43
709.577	336.63
710.021	344.03
710.465	323.93
710.908	319.23
711.352	319.43
711.795	334.23
712.239	373.23
712.682	415.13
713.126	441.13
713.569	488.23
714.012	384.63
714.456	326.53
714.899	312.93
715.342	288.33
715.786	283.33
716.229	274.33
716.672	270.13
717.115	267.53
717.558	272.03
718.002	272.03
718.445	280.23
718.888	305.83
719.331	317.03
719.774	334.23
720.217	323.03
720.66	307.53
721.103	282.33
721.546	271.93
721.989	270.33
722.432	249.83
722.874	254.93
723.317	250.83
723.76	256.33
724.203	265.13
724.645	340.63
725.088	467.83
725.531	612.93
725.974	690.23
726.416	592.83
726.859	328.03
727.301	263.93
727.744	253.03
728.187	255.23
728.629	253.43
729.071	260.03
729.514	281.23
729.956	291.53
730.399	300.33
730.841	309.43
731.283	296.23
731.726	287.83
732.168	279.63
732.61	289.23
733.053	307.73
733.495	342.93
733.937	382.53
734.379	423.13
734.821	469.23
735.263	581.03
735.705	897.33
736.148	1687.03
736.59	2791.63
737.032	3290.83
737.474	2681.73
737.916	877.83
738.357	465.53
738.799	349.43
739.241	316.43
739.683	307.73
740.125	313.33
740.567	314.23
741.008	341.93
741.45	338.63
741.892	338.83
742.334	373.83
742.775	389.73
743.217	367.93
743.658	294.83
744.1	276.63
744.542	278.13
744.983	337.43
745.425	371.03
745.866	361.03
746.307	301.03
746.749	292.63
747.19	347.13
747.632	490.93
748.073	946.23
748.514	2004.93
748.956	3068.43
749.397	3854.33
749.838	3193.53
750.279	3192.13
750.72	1626.53
751.162	596.13
751.603	355.53
752.044	277.13
752.485	224.73
752.926	228.03
753.367	216.43
753.808	211.13
754.249	210.33
754.69	210.23
755.131	195.93
755.572	193.73
756.013	194.93
756.453	201.23
756.894	194.33
757.335	203.33
757.776	198.93
758.216	209.73
758.657	211.23
759.098	214.23
759.538	240.33
759.979	285.53
760.42	401.23
760.86	759.23
761.301	1962.63
761.741	4761.33
762.182	6894.23
762.622	4900.03
763.063	1408.43
763.503	573.13
763.943	345.93
764.384	305.83
764.824	285.43
765.264	271.43
765.705	229.43
766.145	203.23
766.585	186.63
767.025	181.13
767.465	175.63
767.906	194.53
768.346	232.23
768.786	236.73
769.226	239.53
769.666	326.43
770.106	666.23
770.546	1661.23
770.986	2837.03
771.426	2540.03
771.866	855.33
772.306	356.73
772.745	220.33
773.185	180.83
773.625	171.03
774.065	160.53
774.505	173.93
774.944	218.63
775.384	386.53
775.824	636.53
776.263	609.73
776.703	295.23
777.142	177.73
777.582	144.23
778.021	138.63
778.461	135.13
778.9	137.43
779.34	138.83
779.779	119.73
780.219	113.33
780.658	113.53
781.097	118.23
781.537	120.23
781.976	117.63
782.415	112.93
782.855	114.13
783.294	111.43
783.733	112.03
784.172	112.33
784.611	112.23
785.05	121.43
785.489	116.73
785.928	126.83
786.367	134.43
786.806	128.03
787.245	138.53
787.684	143.53
788.123	150.73
788.562	150.03
789.001	134.33
789.44	124.93
789.879	132.73
790.317	131.43
790.756	138.33
791.195	135.43
791.634	160.73
792.072	214.03
792.511	383.73
792.95	1064.63
793.388	2248.33
793.827	2050.63
794.265	712.43
794.704	297.63
795.142	195.83
795.581	164.93
796.019	152.13
796.458	133.73
796.896	134.43
797.334	137.73
797.773	172.43
798.211	226.23
798.649	474.63
799.087	1089.13
799.526	1716.83
799.964	2153.03
800.402	2166.63
800.84	820.73
801.278	322.43
801.716	200.13
802.154	161.33
802.592	155.13
803.03	153.23
803.468	146.73
803.906	150.93
804.344	161.23
804.782	157.93
805.22	143.63
805.658	142.93
806.096	159.83
806.533	167.33
806.971	190.33
807.409	235.13
807.847	342.43
808.284	706.33
808.722	2022.13
809.16	3537.43
809.597	3383.13
810.035	5826.03
810.472	6203.53
810.91	2264.03
811.347	871.33
811.785	434.83
812.222	283.73
812.66	219.23
813.097	175.43
813.535	162.13
813.972	134.83
814.409	125.33
814.846	113.83
815.284	120.13
815.721	112.03
816.158	107.63
816.595	116.63
817.032	169.43
817.47	195.83
817.907	151.43
818.344	113.93
818.781	107.53
819.218	106.83
819.655	132.23
820.092	200.53
820.529	232.33
820.966	183.33
821.403	139.23
821.839	102.73
822.276	101.43
822.713	131.43
823.15	145.83
823.587	126.13
824.023	161.03
824.46	324.73
824.897	955.33
825.333	1454.33
825.77	634.93
826.206	247.53
826.643	149.63
827.08	110.43
827.516	90.53
827.953	85.23
828.389	88.63
828.825	78.83
829.262	79.23
829.698	67.63
830.135	68.53
830.571	65.73
831.007	70.93
831.443	71.03
831.88	68.53
832.316	68.93
832.752	68.33
833.188	70.33
833.624	69.13
834.06	72.83
834.497	75.03
834.933	78.33
835.369	82.33
835.805	75.33
836.241	88.93
836.677	89.63
837.112	94.03
837.548	117.63
837.984	148.23
838.42	210.63
838.856	528.13
839.292	1618.23
839.727	2469.03
840.163	1156.33
840.599	992.33
841.034	2172.03
841.47	2270.73
841.906	830.73
842.341	352.83
842.777	215.73
843.212	212.73
843.648	200.13
844.083	121.93
844.519	86.63
844.954	77.53
845.39	62.13
845.825	60.63
846.261	57.33
846.696	59.93
847.131	53.13
847.566	59.53
848.002	51.53
848.437	60.73
848.872	62.53
849.307	60.53
849.742	92.53
850.177	185.93
850.613	597.03
851.048	941.83
851.483	407.43
851.918	170.53
852.353	92.73
852.788	62.83
853.223	56.93
853.657	55.83
854.092	47.53
854.527	45.93
854.962	41.53
855.397	49.33
855.832	53.93
856.266	41.43
856.701	44.53
857.136	39.93
857.57	44.13
858.005	56.23
858.44	65.83
858.874	50.03
859.309	60.73
859.743	42.93
860.178	51.43
860.612	50.73
861.047	51.23
861.481	75.63
861.915	81.33
862.35	53.03
862.784	33.33
863.218	40.03
863.653	36.33
864.087	50.83
864.521	57.23
864.955	65.73
865.39	159.83
865.824	189.43
866.258	130.83
866.692	182.83
867.126	197.73
867.56	117.53
867.994	57.93
868.428	38.03
868.862	51.73
869.296	65.13
869.73	59.43
870.164	61.23
870.598	56.33
871.031	36.33
871.465	33.83
871.899	38.03
872.333	28.73
872.766	29.93
873.2	25.83
873.634	33.83
874.067	25.83
874.501	24.63
874.935	36.83
875.368	30.63
875.802	32.33
876.235	28.13
876.669	28.83
877.102	26.63
877.535	25.93
877.969	28.63
878.402	30.63
878.836	21.83
879.269	22.23
879.702	28.13
880.135	25.63
880.569	22.53
881.002	25.03
881.435	20.23
881.868	24.53
882.301	24.43
882.734	19.63
883.167	20.83
883.601	22.23
884.034	24.93
884.467	17.63
884.899	17.93
885.332	18.23
885.765	21.63
886.198	17.13
886.631	17.93
887.064	23.43
887.497	24.13
887.929	24.83
888.362	16.53
888.795	16.93
889.228	16.43
889.66	24.43
890.093	20.93
890.526	15.53
890.958	14.73
891.391	18.83
891.823	25.13
892.256	21.53
892.688	16.13
893.121	15.33
893.553	15.03
893.985	25.53
894.418	17.13
894.85	12.93
895.282	21.43
895.715	22.83
896.147	23.53
896.579	22.53
897.011	12.83
897.444	26.93
897.876	15.03
898.308	11.83
898.74	17.43
899.172	13.33
899.604	22.03
900.036	18.63
900.468	16.43
900.9	14.03
901.332	19.93
901.764	18.43
902.196	24.23
902.628	18.93
903.06	18.43
903.491	30.63
903.923	22.93
904.355	27.53
904.787	21.73
905.218	20.43
905.65	14.83
906.082	21.23
906.513	13.13
906.945	24.03
907.376	16.83
907.808	22.53
908.239	21.23
908.671	22.83
909.102	26.63
909.534	25.43
909.965	54.43
910.397	97.83
910.828	329.73
911.259	507.83
911.691	228.83
912.122	118.43
912.553	48.33
912.984	33.03
913.415	25.33
913.847	23.13
914.278	15.43
914.709	24.83
915.14	18.53
915.571	16.93
916.002	13.23
916.433	24.63
916.864	22.43
917.295	16.73
917.726	24.83
918.157	18.93
918.587	29.53
919.018	24.63
919.449	20.23
919.88	23.53
920.311	34.73
920.741	53.73
921.172	178.73
921.603	170.13
922.033	79.93
922.464	46.23
922.895	21.43
923.325	21.93
923.756	16.53
924.186	11.73
924.617	20.23
925.047	18.63
925.478	22.53
925.908	27.03
926.338	20.43
926.769	11.13
927.199	17.73
927.629	6.23
928.06	18.33
928.49	15.13
928.92	19.43
929.35	12.63
929.78	8.83
930.21	12.43
930.641	11.53
931.071	13.03
931.501	10.43
931.931	13.53
932.361	13.93
932.791	4.03
933.221	10.93
933.651	11.03
934.08	17.23
934.51	27.83
934.94	12.23
935.37	9.43
935.8	9.33
936.229	8.03
936.659	6.23
937.089	2.63
937.519	20.53
937.948	22.83
938.378	21.23
938.807	5.03
939.237	-2.27
939.666	8.53
940.096	-5.27
940.525	2.23
940.955	3.43
941.384	2.63
941.814	1.33
942.243	-1.47
942.672	6.13
943.102	0.53
943.531	2.63
943.96	6.53
944.39	2.73
944.819	4.93
945.248	-1.47
945.677	4.93
946.106	6.63
946.535	8.83
946.964	-3.57
947.393	5.63
947.822	-4.87
948.251	-6.77
948.68	7.33
949.109	1.93
949.538	11.03
949.967	3.93
950.396	-1.67
950.825	-2.87
951.254	2.03
951.682	-6.37
952.111	6.43
952.54	6.53
952.969	-3.17
953.397	-5.77
953.826	2.23
954.254	-0.57
954.683	-1.07
955.112	3.73
955.54	1.93
955.969	0.63
956.397	-3.67
956.826	-2.77
957.254	9.13
957.682	2.23
958.111	8.53
958.539	2.03
958.967	2.33
959.396	-3.07
959.824	0.03
960.252	1.73
960.68	-0.27
961.109	-2.37
961.537	-13.27
961.965	4.13
962.393	2.53
962.821	-1.67
963.249	-0.87
963.677	1.03
964.105	9.03
964.533	51.03
964.961	40.83
965.389	24.13
965.817	8.83
966.245	0.73
966.672	1.03
967.1	-5.47
967.528	-1.57
967.956	-5.17
968.383	2.83
968.811	-2.07
969.239	-0.87
969.666	0.63
970.094	-6.07
970.522	4.63
970.949	-2.17
971.377	2.23
971.804	-2.57
972.232	2.53
972.659	3.83
973.087	-6.17
973.514	-5.47
973.941	-6.47
974.369	2.93
974.796	-3.27
975.223	-4.57
975.651	0.33
976.078	3.43
976.505	-2.77
976.932	6.03
977.359	16.63
977.786	18.93
978.214	-0.37
978.641	-2.87
979.068	-3.47
979.495	-4.27
979.922	1.83
980.349	-3.27
980.776	-2.07
981.202	2.03
981.629	5.63
982.056	4.93
982.483	-1.07
982.91	5.33
983.337	-7.87
983.763	5.43
984.19	-3.07
984.617	-5.57
985.043	-4.17
985.47	-1.27
985.897	-0.77
986.323	-10.27
986.75	0.23
987.176	-8.47
987.603	-7.27
988.029	-1.97
988.456	-5.67
988.882	7.13
989.308	-1.47
989.735	-1.97
990.161	-0.27
990.587	-1.27
991.014	1.33
991.44	3.93
991.866	1.53
992.292	-0.97
992.719	-0.97
993.145	9.03
993.571	-6.97
993.997	-3.67
994.423	2.53
994.849	-6.97
995.275	7.13
995.701	-1.57
996.127	-6.77
996.553	-1.67
996.979	-8.57
997.405	-0.57
997.83	-3.27
998.256	-2.67
998.682	-9.67
999.108	-8.07
999.534	-6.37
999.959	3.13
1000.385	-2.67
1000.811	4.73
1001.236	-4.87
1001.662	-8.37
1002.087	-3.27
1002.513	2.83
1002.938	1.73
1003.364	0.83
1003.789	-0.37
1004.215	5.73
1004.64	-4.07
1005.066	-0.07
1005.491	-6.97
1005.916	-0.57
1006.342	-8.27
1006.767	-9.47
1007.192	9.43
1007.617	-6.87
1008.042	-4.87
1008.468	-8.17
1008.893	0.43
1009.318	-0.67
1009.743	-4.97
1010.168	11.53
1010.593	2.83
1011.018	-8.27
1011.443	0.83
1011.868	0.53
1012.293	0.03
1012.718	-10.47
1013.143	-4.47
1013.567	1.13
1013.992	-2.97
1014.417	-9.57
1014.842	-2.07
1015.267	-8.07
1015.691	-1.57
1016.116	-0.87
1016.541	-2.97
1016.965	2.33
1017.39	9.53
1017.814	-0.87
1018.239	-2.17
1018.663	-5.67
1019.088	-8.17
1019.512	-6.37
1019.937	0.93
1020.361	-3.17
1020.785	-10.47
1021.21	-0.37
1021.634	-4.47
1022.058	1.63
1022.483	0.83
1022.907	-2.07
1023.331	-4.17
1023.755	2.13
1024.179	-8.07
1024.604	-2.87
1025.028	-3.27
1025.452	-0.37
1025.876	-3.37
1026.3	-2.37
1026.724	-10.47
1027.148	-10.57
1027.572	-3.67
1027.996	1.73
1028.42	-6.77
1028.843	-6.97
1029.267	-7.77
1029.691	1.93
1030.115	-9.57
1030.539	-5.57
1030.962	-7.87
1031.386	-7.07
1031.81	-5.17
1032.233	-5.47
1032.657	-6.27
1033.08	-2.77
1033.504	2.13
1033.927	-6.97
1034.351	-0.97
1034.774	-8.67
1035.198	-7.07
1035.621	-5.67
1036.045	-8.77
1036.468	-3.47
1036.891	-14.57
1037.315	-9.97
1037.738	-15.47
1038.161	-6.47
1038.584	-5.07
1039.008	-2.27
1039.431	-2.17
1039.854	-4.57
1040.277	-9.37
1040.7	-9.27
1041.123	-2.57
1041.546	-12.87
1041.969	-4.57
1042.392	-4.77
1042.815	-6.87
1043.238	0.33
1043.661	-1.37
1044.084	-5.67
1044.507	-6.57
1044.93	-11.07
1045.352	-7.17
1045.775	-2.67
1046.198	-5.07
1046.621	-2.77
1047.043	-0.87
1047.466	10.03
1047.889	-3.17
1048.311	-6.17
1048.734	0.33
1049.156	-3.77
1049.579	-1.37
1050.001	-0.07
1050.424	1.43
1050.846	-0.77
1051.269	-5.47
1051.691	-3.37
1052.113	-8.77
1052.536	-2.37
1052.958	-2.97
1053.38	-2.37
1053.802	-12.67
1054.225	-3.97
1054.647	-6.17
1055.069	0.93
1055.491	7.63
1055.913	-9.17
1056.335	-4.37
1056.757	-2.87
1057.179	-3.97
1057.601	-4.27
1058.023	-4.17
1058.445	-9.27
1058.867	-7.17
1059.289	-2.37
1059.711	-10.37
1060.133	-4.77
1060.555	-3.27
1060.976	-1.67
1061.398	-5.27
1061.82	-1.97
1062.241	-6.57
1062.663	-8.37
1063.085	-2.67
1063.506	-8.97
1063.928	-4.37
1064.35	-2.27
1064.771	-6.67
1065.193	-4.87
1065.614	-6.67
1066.035	-3.37
1066.457	-3.37
1066.878	6.43
1067.3	-7.27
1067.721	-3.47
1068.142	-4.57
1068.564	-2.37
1068.985	-2.67
1069.406	-3.57
1069.827	-5.47
1070.248	2.03
1070.67	-5.57
1071.091	-6.07
1071.512	-5.97
1071.933	-4.67
1072.354	4.83
1072.775	-3.67
1073.196	-6.97
1073.617	-6.27
1074.038	-5.07
1074.459	-0.87
1074.88	-12.17
1075.3	2.73
1075.721	-6.87
1076.142	-0.57
1076.563	-2.77
1076.983	-16.87
1077.404	-8.97
1077.825	-8.27
1078.246	-4.37
1078.666	-5.47
1079.087	-0.47
1079.507	-3.07
1079.928	-1.87
1080.348	-2.37
1080.769	-4.47
1081.189	-3.97
1081.61	-5.57
1082.03	-7.87
1082.451	-4.27
1082.871	-7.37
1083.291	-12.27
1083.711	-8.27
1084.132	-13.17
1084.552	-1.97
1084.972	-3.67
1085.392	-9.27
1085.813	-10.77
1086.233	-8.07
1086.653	-2.67
1087.073	-5.17
1087.493	-2.77
1087.913	-4.17
1088.333	-9.77
1088.753	-6.07
1089.173	8.23
1089.593	-3.27
1090.013	-0.07
1090.433	4.63
1090.852	-1.87
1091.272	-0.27
1091.692	-3.87
1092.112	-3.37
1092.531	-17.17
1092.951	-10.27
1093.371	-3.27
1093.79	4.63
1094.21	-8.77
1094.63	-8.37
1095.049	-3.57
1095.469	-2.37
1095.888	1.23
1096.308	-1.87
1096.727	6.83
1097.146	-9.27
1097.566	2.33
1097.985	-6.37
1098.405	3.13
1098.824	-6.17
1099.243	-7.57
1099.662	-6.07
1100.082	-6.97
1100.501	-0.57
1100.92	-9.17
1101.339	-5.37
1101.758	-9.97
