Data from 20171114-ORNL-Ar_H_NY_Subt18_08-06-45-575.txt Node
Date: Tue Nov 14 08:06:45 EST 2017
User: Ender
Spectrometer: HR+D1039
Trigger mode: 0
Integration Time (sec): 2.730000E-2
Scans to average: 10
Electric dark correction enabled: true
Nonlinearity correction enabled: false
Boxcar width: 0
XAxis mode: Wavelengths
Number of Pixels in Spectrum: 2048
>>>>>Begin Spectral Data<<<<<
187.836	-4.18
188.309	-4.18
188.782	-4.18
189.255	2.02
189.728	-0.78
190.201	5.22
190.674	-0.08
191.147	-1.18
191.619	-4.58
192.092	-0.88
192.565	3.82
193.038	2.52
193.511	-1.18
193.984	-0.58
194.456	-4.88
194.929	2.62
195.402	2.12
195.874	0.02
196.347	-0.58
196.82	-4.38
197.292	5.02
197.765	-1.48
198.237	-7.48
198.71	0.02
199.182	0.02
199.655	2.02
200.127	1.82
200.6	-0.78
201.072	2.32
201.544	-5.88
202.017	-2.68
202.489	6.02
202.961	0.82
203.433	-3.48
203.906	-11.48
204.378	-1.18
204.85	-0.18
205.322	-2.78
205.794	-4.48
206.266	-3.38
206.739	-6.68
207.211	9.42
207.683	-5.98
208.155	0.02
208.627	-4.58
209.099	-2.68
209.57	-6.18
210.042	-6.98
210.514	-6.38
210.986	0.52
211.458	-10.08
211.93	1.02
212.402	2.42
212.873	-2.68
213.345	-5.48
213.817	-9.78
214.288	-4.38
214.76	-5.38
215.232	-2.58
215.703	-1.88
216.175	-6.48
216.646	-1.18
217.118	-3.28
217.589	-6.38
218.061	-0.58
218.532	-6.08
219.004	-3.48
219.475	-0.38
219.946	-3.38
220.418	-4.28
220.889	4.52
221.36	7.22
221.832	-3.28
222.303	-3.98
222.774	1.32
223.245	0.12
223.717	-2.58
224.188	0.12
224.659	-9.38
225.13	-6.38
225.601	-0.08
226.072	-5.38
226.543	-1.08
227.014	-0.48
227.485	-3.98
227.956	-4.98
228.427	-1.58
228.898	0.12
229.369	2.02
229.839	-4.08
230.31	-3.38
230.781	2.82
231.252	-4.18
231.722	-2.28
232.193	-7.08
232.664	-1.58
233.135	2.72
233.605	1.82
234.076	-2.28
234.546	-1.68
235.017	3.02
235.487	-0.88
235.958	-0.58
236.428	-6.78
236.899	0.12
237.369	-3.08
237.84	-6.48
238.31	1.52
238.78	-3.98
239.251	-3.08
239.721	-4.48
240.191	-6.18
240.662	-2.78
241.132	-4.78
241.602	-1.28
242.072	-5.18
242.542	5.42
243.013	-3.48
243.483	1.32
243.953	4.02
244.423	1.62
244.893	-3.68
245.363	2.02
245.833	3.42
246.303	-3.18
246.773	4.12
247.243	-1.58
247.712	1.02
248.182	6.92
248.652	6.32
249.122	-9.98
249.592	-1.48
250.061	0.62
250.531	7.22
251.001	-1.18
251.471	7.42
251.94	12.52
252.41	-1.38
252.879	-4.48
253.349	7.72
253.818	10.02
254.288	8.32
254.757	-2.28
255.227	0.82
255.696	2.92
256.166	5.12
256.635	3.42
257.105	3.62
257.574	-1.18
258.043	3.02
258.513	-5.78
258.982	4.12
259.451	4.02
259.92	3.82
260.389	1.32
260.859	3.92
261.328	6.92
261.797	6.22
262.266	-2.58
262.735	5.62
263.204	-2.88
263.673	1.72
264.142	4.42
264.611	2.42
265.08	4.52
265.549	1.82
266.018	2.72
266.487	-4.18
266.955	-1.78
267.424	-2.68
267.893	3.02
268.362	-3.28
268.83	-1.28
269.299	9.02
269.768	5.52
270.236	6.92
270.705	4.12
271.174	2.82
271.642	9.22
272.111	5.72
272.579	4.92
273.048	6.72
273.516	-2.38
273.985	9.62
274.453	6.72
274.922	17.22
275.39	3.12
275.858	-1.78
276.327	10.42
276.795	8.52
277.263	-0.38
277.731	10.42
278.2	9.62
278.668	6.02
279.136	11.02
279.604	4.02
280.072	6.42
280.54	11.92
281.008	7.62
281.477	13.02
281.945	1.22
282.413	13.42
282.881	11.12
283.348	5.92
283.816	11.02
284.284	15.62
284.752	14.92
285.22	10.62
285.688	16.92
286.156	11.32
286.623	20.62
287.091	10.02
287.559	16.62
288.026	9.72
288.494	11.72
288.962	2.82
289.429	6.72
289.897	14.32
290.364	10.92
290.832	23.82
291.3	13.72
291.767	18.22
292.234	16.52
292.702	12.42
293.169	15.62
293.637	22.32
294.104	15.92
294.571	7.32
295.039	13.32
295.506	11.32
295.973	17.92
296.44	11.32
296.908	22.42
297.375	12.32
297.842	16.82
298.309	17.02
298.776	15.22
299.243	21.42
299.71	11.72
300.177	24.22
300.644	17.12
301.111	19.52
301.578	18.42
302.045	16.82
302.512	27.22
302.979	26.12
303.446	22.52
303.913	16.72
304.379	20.52
304.846	21.72
305.313	22.52
305.78	16.62
306.246	20.62
306.713	20.82
307.18	17.52
307.646	20.62
308.113	26.42
308.579	27.02
309.046	24.52
309.512	25.92
309.979	14.12
310.445	29.02
310.912	28.02
311.378	27.12
311.845	32.52
312.311	31.42
312.777	32.82
313.244	25.82
313.71	40.92
314.176	23.32
314.642	28.12
315.109	25.92
315.575	34.42
316.041	36.32
316.507	29.12
316.973	36.92
317.439	35.82
317.905	34.32
318.371	36.72
318.837	36.12
319.303	33.32
319.769	30.52
320.235	32.72
320.701	31.42
321.167	40.02
321.633	32.82
322.099	34.92
322.564	39.92
323.03	33.12
323.496	35.62
323.962	33.12
324.427	42.12
324.893	47.22
325.359	37.72
325.824	34.22
326.29	37.22
326.755	42.22
327.221	40.12
327.686	35.72
328.152	49.02
328.617	45.12
329.083	48.32
329.548	54.52
330.014	44.72
330.479	35.22
330.944	40.82
331.41	47.12
331.875	40.32
332.34	45.82
332.805	47.12
333.271	47.32
333.736	44.02
334.201	55.92
334.666	51.62
335.131	48.22
335.596	60.02
336.061	42.52
336.526	39.02
336.991	45.72
337.456	54.22
337.921	46.22
338.386	38.12
338.851	47.92
339.316	44.52
339.781	50.02
340.246	52.22
340.711	49.22
341.175	49.52
341.64	43.72
342.105	51.92
342.569	54.72
343.034	55.52
343.499	48.82
343.963	55.92
344.428	66.72
344.893	61.72
345.357	68.02
345.822	55.02
346.286	63.92
346.751	71.22
347.215	65.42
347.679	73.22
348.144	103.92
348.608	82.72
349.073	67.82
349.537	69.82
350.001	75.32
350.465	93.62
350.93	72.02
351.394	83.12
351.858	74.02
352.322	90.72
352.786	82.82
353.25	101.92
353.715	104.82
354.179	92.72
354.643	120.22
355.107	114.92
355.571	102.22
356.035	97.32
356.498	114.22
356.962	103.12
357.426	117.42
357.89	111.22
358.354	91.02
358.818	82.02
359.281	75.82
359.745	74.72
360.209	74.02
360.673	68.42
361.136	82.62
361.6	89.12
362.064	81.12
362.527	78.52
362.991	95.62
363.454	80.22
363.918	79.62
364.381	82.02
364.845	82.32
365.308	83.42
365.772	94.52
366.235	84.42
366.698	90.12
367.162	85.72
367.625	85.32
368.088	82.32
368.552	86.02
369.015	89.22
369.478	90.12
369.941	98.82
370.404	89.52
370.867	100.32
371.331	98.92
371.794	107.82
372.257	95.92
372.72	107.22
373.183	105.82
373.646	91.22
374.109	96.72
374.572	99.22
375.035	102.42
375.497	110.22
375.96	105.22
376.423	105.42
376.886	109.72
377.349	110.92
377.811	104.82
378.274	105.12
378.737	102.12
379.199	106.52
379.662	109.02
380.125	108.32
380.587	109.82
381.05	108.72
381.512	124.32
381.975	123.02
382.437	120.12
382.9	115.22
383.362	124.32
383.825	132.62
384.287	129.72
384.75	122.82
385.212	121.02
385.674	131.82
386.136	129.72
386.599	124.82
387.061	122.22
387.523	126.42
387.985	124.12
388.447	130.22
388.91	128.32
389.372	126.62
389.834	126.82
390.296	129.42
390.758	129.62
391.22	129.72
391.682	156.82
392.144	158.92
392.606	149.32
393.068	148.62
393.529	155.82
393.991	142.72
394.453	135.52
394.915	132.72
395.377	139.92
395.838	148.22
396.3	141.52
396.762	142.22
397.224	133.62
397.685	134.62
398.147	137.52
398.608	135.92
399.07	135.92
399.531	132.82
399.993	152.62
400.454	150.52
400.916	153.02
401.377	149.32
401.839	156.62
402.3	158.22
402.762	173.92
403.223	189.32
403.684	176.12
404.145	164.82
404.607	164.92
405.068	164.92
405.529	177.12
405.99	187.12
406.451	185.72
406.913	177.42
407.374	178.22
407.835	164.52
408.296	176.52
408.757	174.92
409.218	195.32
409.679	183.52
410.14	185.32
410.601	183.32
411.062	185.82
411.522	191.92
411.983	182.52
412.444	185.82
412.905	185.82
413.366	192.92
413.826	206.82
414.287	229.22
414.748	277.72
415.208	265.12
415.669	227.82
416.13	216.02
416.59	216.82
417.051	230.52
417.511	241.12
417.972	250.62
418.432	266.02
418.893	299.62
419.353	267.72
419.814	210.32
420.274	189.02
420.734	196.12
421.195	210.92
421.655	196.92
422.115	203.12
422.576	203.02
423.036	213.52
423.496	221.62
423.956	228.72
424.416	240.62
424.876	283.52
425.336	273.42
425.797	277.12
426.257	268.42
426.717	248.92
427.177	241.82
427.637	233.32
428.097	247.32
428.556	251.22
429.016	280.02
429.476	272.42
429.936	282.02
430.396	285.22
430.856	295.72
431.315	331.32
431.775	358.32
432.235	382.42
432.694	357.02
433.154	381.52
433.614	403.22
434.073	348.22
434.533	286.82
434.993	281.92
435.452	285.72
435.912	305.22
436.371	291.22
436.83	285.72
437.29	277.22
437.749	250.62
438.209	252.72
438.668	291.72
439.127	299.42
439.587	275.02
440.046	263.32
440.505	271.82
440.964	295.32
441.424	340.42
441.883	331.32
442.342	273.22
442.801	232.82
443.26	237.42
443.719	233.32
444.178	231.12
444.637	228.72
445.096	232.92
445.555	242.62
446.014	242.92
446.473	251.02
446.932	248.12
447.391	250.62
447.849	248.82
448.308	233.82
448.767	237.42
449.226	256.52
449.685	260.62
450.143	266.42
450.602	257.32
451.061	235.82
451.519	249.62
451.978	245.52
452.436	250.12
452.895	263.02
453.353	275.92
453.812	261.82
454.27	248.32
454.729	261.32
455.187	253.62
455.646	265.42
456.104	266.22
456.562	275.52
457.021	285.32
457.479	276.72
457.937	299.32
458.395	289.02
458.854	269.42
459.312	276.12
459.77	295.82
460.228	271.32
460.686	257.72
461.144	265.02
461.602	260.32
462.06	261.92
462.518	276.22
462.976	273.12
463.434	279.02
463.892	281.92
464.35	298.62
464.808	304.02
465.266	289.52
465.724	295.22
466.181	291.62
466.639	287.22
467.097	308.42
467.555	319.52
468.012	324.62
468.47	333.42
468.928	356.92
469.385	364.02
469.843	365.72
470.3	365.72
470.758	382.42
471.215	408.52
471.673	432.92
472.13	436.02
472.588	437.62
473.045	398.72
473.503	398.42
473.96	417.92
474.417	428.02
474.875	459.32
475.332	503.82
475.789	490.52
476.246	507.32
476.704	517.42
477.161	532.92
477.618	552.42
478.075	587.02
478.532	643.52
478.989	716.52
479.446	834.32
479.903	794.62
480.36	822.82
480.817	854.22
481.274	972.12
481.731	1056.82
482.188	1145.42
482.645	1265.92
483.102	1350.52
483.558	1482.72
484.015	1518.52
484.472	1488.12
484.929	1457.32
485.385	1404.52
485.842	1391.92
486.299	1332.72
486.755	1280.82
487.212	1088.42
487.668	938.02
488.125	875.02
488.582	795.92
489.038	777.62
489.494	741.42
489.951	709.02
490.407	685.92
490.864	681.22
491.32	673.62
491.776	681.32
492.233	688.02
492.689	655.32
493.145	641.62
493.602	637.02
494.058	644.12
494.514	651.32
494.97	664.82
495.426	696.72
495.882	666.12
496.338	650.82
496.794	668.62
497.251	648.32
497.707	665.22
498.163	676.12
498.618	669.72
499.074	675.12
499.53	699.62
499.986	710.52
500.442	688.72
500.898	671.92
501.354	659.42
501.809	663.02
502.265	652.32
502.721	661.02
503.177	674.62
503.632	674.62
504.088	684.32
504.543	714.32
504.999	725.72
505.455	693.12
505.91	682.42
506.366	680.12
506.821	672.22
507.277	668.22
507.732	668.72
508.187	668.22
508.643	681.22
509.098	680.72
509.553	710.62
510.009	714.32
510.464	713.02
510.919	738.62
511.375	739.42
511.83	758.52
512.285	758.72
512.74	803.22
513.195	836.22
513.65	820.82
514.105	814.62
514.56	817.52
515.015	844.12
515.47	847.22
515.925	832.62
516.38	838.62
516.835	833.52
517.29	833.32
517.745	822.02
518.2	814.92
518.655	794.72
519.109	794.72
519.564	781.62
520.019	777.62
520.474	764.72
520.928	762.12
521.383	759.52
521.838	755.32
522.292	757.72
522.747	752.62
523.201	746.62
523.656	738.62
524.11	729.02
524.565	738.32
525.019	732.82
525.474	739.82
525.928	734.82
526.382	748.12
526.837	737.02
527.291	740.92
527.745	737.22
528.2	733.22
528.654	723.92
529.108	725.42
529.562	734.42
530.016	733.42
530.47	731.22
530.925	728.02
531.379	735.42
531.833	742.22
532.287	750.52
532.741	745.92
533.195	744.62
533.649	758.42
534.103	753.22
534.556	761.82
535.01	755.62
535.464	754.62
535.918	757.82
536.372	766.72
536.826	766.62
537.279	753.22
537.733	748.62
538.187	754.32
538.64	760.22
539.094	774.42
539.548	773.92
540.001	763.82
540.455	771.82
540.908	775.42
541.362	775.72
541.815	798.22
542.269	802.32
542.722	796.52
543.175	812.32
543.629	820.72
544.082	831.12
544.536	832.22
544.989	831.52
545.442	841.82
545.895	840.92
546.349	844.22
546.802	847.02
547.255	843.62
547.708	859.72
548.161	878.52
548.614	864.92
549.067	880.92
549.52	875.82
549.973	869.62
550.426	860.02
550.879	856.22
551.332	856.72
551.785	869.22
552.238	852.92
552.691	868.42
553.144	876.62
553.596	892.72
554.049	925.32
554.502	944.12
554.955	970.42
555.407	964.22
555.86	946.82
556.313	948.62
556.765	941.52
557.218	925.52
557.67	944.62
558.123	935.02
558.576	922.72
559.028	933.42
559.48	929.42
559.933	921.72
560.385	900.52
560.838	858.62
561.29	826.02
561.742	837.02
562.195	822.22
562.647	813.12
563.099	825.32
563.551	831.52
564.004	827.72
564.456	824.22
564.908	807.52
565.36	791.82
565.812	777.22
566.264	759.82
566.716	764.12
567.168	751.12
567.62	753.22
568.072	740.02
568.524	722.62
568.976	732.92
569.428	717.22
569.88	721.22
570.332	725.42
570.784	718.42
571.235	728.72
571.687	737.72
572.139	745.42
572.59	754.72
573.042	760.32
573.494	758.22
573.945	752.92
574.397	727.22
574.849	730.32
575.3	731.92
575.752	738.82
576.203	716.42
576.655	727.62
577.106	711.42
577.557	706.22
578.009	707.82
578.46	702.92
578.912	695.22
579.363	701.22
579.814	702.72
580.265	715.32
580.717	716.22
581.168	707.52
581.619	716.22
582.07	727.82
582.521	717.02
582.972	701.92
583.423	710.62
583.875	723.62
584.326	722.82
584.777	733.42
585.227	762.92
585.678	776.62
586.129	790.52
586.58	821.22
587.031	839.02
587.482	878.02
587.933	902.02
588.384	881.72
588.834	824.52
589.285	809.02
589.736	815.02
590.186	822.72
590.637	808.82
591.088	783.62
591.538	774.12
591.989	772.82
592.439	768.02
592.89	751.02
593.34	747.12
593.791	744.22
594.241	735.12
594.692	733.72
595.142	726.82
595.593	730.82
596.043	737.42
596.493	743.12
596.943	736.72
597.394	748.62
597.844	744.22
598.294	777.32
598.744	798.82
599.195	833.12
599.645	870.92
600.095	908.12
600.545	969.72
600.995	1008.62
601.445	1086.52
601.895	1140.32
602.345	1192.92
602.795	1169.72
603.245	1129.72
603.695	1058.82
604.145	1018.32
604.594	964.52
605.044	909.62
605.494	856.12
605.944	785.02
606.393	784.32
606.843	772.72
607.293	771.82
607.743	766.12
608.192	784.12
608.642	776.32
609.091	794.32
609.541	801.62
609.99	791.72
610.44	804.82
610.889	745.12
611.339	727.42
611.788	708.12
612.238	733.42
612.687	743.82
613.136	724.22
613.586	735.52
614.035	727.22
614.484	739.42
614.933	744.12
615.383	736.62
615.832	738.02
616.281	731.32
616.73	687.02
617.179	679.62
617.628	682.02
618.077	655.02
618.526	646.92
618.975	633.92
619.424	638.52
619.873	635.82
620.322	643.82
620.771	627.82
621.22	635.22
621.669	616.42
622.118	612.42
622.567	597.92
623.015	592.82
623.464	595.62
623.913	597.82
624.361	582.02
624.81	574.62
625.259	587.22
625.707	575.92
626.156	579.12
626.604	590.42
627.053	584.42
627.501	584.92
627.95	601.72
628.398	610.02
628.847	586.42
629.295	598.62
629.744	607.32
630.192	587.82
630.64	576.02
631.089	560.82
631.537	564.52
631.985	552.22
632.433	557.02
632.881	545.92
633.33	557.12
633.778	554.82
634.226	543.22
634.674	559.92
635.122	562.32
635.57	569.42
636.018	582.52
636.466	582.02
636.914	578.82
637.362	593.62
637.81	602.12
638.258	605.72
638.705	610.82
639.153	634.82
639.601	648.72
640.049	670.62
640.497	695.32
640.944	719.72
641.392	672.82
641.84	646.22
642.287	606.42
642.735	585.92
643.182	582.92
643.63	575.42
644.078	576.12
644.525	590.52
644.973	597.22
645.42	616.42
645.867	637.62
646.315	653.22
646.762	678.42
647.21	707.02
647.657	732.72
648.104	755.12
648.551	775.72
648.999	842.72
649.446	908.22
649.893	1005.62
650.34	1146.72
650.787	1349.02
651.234	1651.82
651.682	2141.72
652.129	2892.42
652.576	4106.62
653.023	5973.72
653.47	8089.32
653.917	10086.42
654.363	11616.12
654.81	12835.22
655.257	12160.52
655.704	8069.12
656.151	4861.72
656.598	3199.62
657.044	2280.62
657.491	1785.22
657.938	1440.42
658.385	1217.72
658.831	1059.32
659.278	959.72
659.724	850.92
660.171	789.42
660.618	727.22
661.064	699.12
661.511	673.42
661.957	665.22
662.404	655.82
662.85	663.52
663.296	641.02
663.743	570.92
664.189	546.12
664.635	550.92
665.082	543.52
665.528	550.02
665.974	535.62
666.42	544.32
666.867	524.72
667.313	496.32
667.759	489.12
668.205	470.72
668.651	469.52
669.097	456.92
669.543	455.92
669.989	456.52
670.435	462.02
670.881	450.02
671.327	459.92
671.773	482.92
672.219	508.92
672.665	574.42
673.11	610.52
673.556	655.82
674.002	692.82
674.448	676.92
674.893	566.52
675.339	496.02
675.785	456.72
676.23	439.62
676.676	413.62
677.122	398.12
677.567	382.22
678.013	376.62
678.458	371.02
678.904	383.02
679.349	361.12
679.794	378.02
680.24	364.92
680.685	362.72
681.131	358.32
681.576	368.02
682.021	372.12
682.466	361.12
682.912	362.72
683.357	364.52
683.802	395.82
684.247	422.52
684.692	474.32
685.137	509.42
685.583	564.72
686.028	595.12
686.473	545.52
686.918	462.52
687.363	439.82
687.807	411.12
688.252	383.22
688.697	369.12
689.142	351.02
689.587	350.72
690.032	336.32
690.477	360.02
690.921	366.42
691.366	401.22
691.811	425.92
692.255	446.42
692.7	482.72
693.145	524.42
693.589	730.62
694.034	1185.12
694.478	1603.12
694.923	1812.52
695.367	2372.42
695.812	1248.22
696.256	522.92
696.701	392.02
697.145	356.12
697.59	336.32
698.034	331.72
698.478	351.12
698.922	334.82
699.367	336.12
699.811	350.02
700.255	356.72
700.699	394.42
701.143	440.82
701.588	493.72
702.032	531.22
702.476	528.02
702.92	506.12
703.364	518.32
703.808	670.02
704.252	1081.12
704.696	1510.32
705.14	1755.02
705.584	2225.92
706.027	1123.12
706.471	549.72
706.915	415.62
707.359	373.42
707.803	328.82
708.246	318.72
708.69	327.52
709.134	328.52
709.577	328.62
710.021	327.92
710.465	319.22
710.908	311.42
711.352	312.62
711.795	326.52
712.239	371.52
712.682	409.12
713.126	427.12
713.569	473.12
714.012	374.12
714.456	322.92
714.899	301.52
715.342	289.92
715.786	271.52
716.229	270.12
716.672	267.52
717.115	257.22
717.558	259.02
718.002	266.32
718.445	282.22
718.888	299.82
719.331	311.02
719.774	320.92
720.217	314.42
720.66	298.72
721.103	274.32
721.546	258.02
721.989	261.82
722.432	246.02
722.874	242.32
723.317	240.62
723.76	243.32
724.203	270.62
724.645	334.32
725.088	466.72
725.531	601.02
725.974	676.82
726.416	577.72
726.859	327.12
727.301	263.82
727.744	253.02
728.187	243.92
728.629	252.42
729.071	253.22
729.514	271.62
729.956	280.92
730.399	293.62
730.841	300.02
731.283	285.62
731.726	281.02
732.168	275.32
732.61	279.72
733.053	291.52
733.495	328.42
733.937	375.32
734.379	415.22
734.821	457.62
735.263	570.82
735.705	887.02
736.148	1661.72
736.59	2727.72
737.032	3220.62
737.474	2588.02
737.916	851.12
738.357	449.12
738.799	342.72
739.241	304.52
739.683	292.42
740.125	303.92
740.567	310.12
741.008	327.72
741.45	328.32
741.892	331.12
742.334	363.72
742.775	382.62
743.217	376.52
743.658	287.82
744.1	269.52
744.542	279.42
744.983	340.72
745.425	377.52
745.866	363.72
746.307	288.92
746.749	286.22
747.19	336.22
747.632	478.52
748.073	921.12
748.514	1942.72
748.956	2991.42
749.397	3759.92
749.838	3109.72
750.279	3100.02
750.72	1566.12
751.162	582.32
751.603	339.42
752.044	261.32
752.485	226.22
752.926	220.12
753.367	201.52
753.808	204.42
754.249	205.82
754.69	199.22
755.131	189.42
755.572	192.32
756.013	184.92
756.453	188.62
756.894	194.22
757.335	204.72
757.776	207.72
758.216	199.42
758.657	210.52
759.098	207.52
759.538	237.42
759.979	279.62
760.42	396.62
760.86	747.42
761.301	1937.32
761.741	4661.32
762.182	6744.92
762.622	4766.22
763.063	1391.62
763.503	563.12
763.943	344.82
764.384	282.82
764.824	260.22
765.264	258.72
765.705	230.42
766.145	191.62
766.585	179.42
767.025	169.22
767.465	176.22
767.906	190.42
768.346	212.22
768.786	219.22
769.226	230.42
769.666	321.62
770.106	644.82
770.546	1608.42
770.986	2757.62
771.426	2468.12
771.866	829.42
772.306	335.42
772.745	216.42
773.185	174.72
773.625	166.52
774.065	156.52
774.505	166.92
774.944	211.52
775.384	380.42
775.824	619.12
776.263	601.72
776.703	287.62
777.142	173.42
777.582	144.22
778.021	136.52
778.461	128.52
778.9	132.82
779.34	138.82
779.779	118.12
780.219	114.42
780.658	113.42
781.097	115.92
781.537	114.82
781.976	114.12
782.415	104.02
782.855	113.22
783.294	111.02
783.733	111.62
784.172	115.92
784.611	110.22
785.05	111.62
785.489	116.22
785.928	124.62
786.367	127.52
786.806	125.02
787.245	131.32
787.684	143.12
788.123	159.52
788.562	139.82
789.001	135.12
789.44	129.52
789.879	116.22
790.317	124.42
790.756	133.02
791.195	127.92
791.634	152.42
792.072	213.12
792.511	372.02
792.95	1044.82
793.388	2215.02
793.827	2006.42
794.265	701.42
794.704	292.22
795.142	194.22
795.581	155.72
796.019	131.92
796.458	131.22
796.896	125.62
797.334	133.62
797.773	159.32
798.211	232.32
798.649	457.82
799.087	1061.42
799.526	1680.62
799.964	2120.02
800.402	2108.62
800.84	792.72
801.278	321.52
801.716	195.12
802.154	164.02
802.592	152.82
803.03	144.12
803.468	141.52
803.906	145.52
804.344	158.62
804.782	149.42
805.22	145.02
805.658	136.32
806.096	154.62
806.533	168.22
806.971	185.62
807.409	230.32
807.847	341.32
808.284	707.32
808.722	1958.72
809.16	3457.72
809.597	3311.52
810.035	5682.12
810.472	6066.22
810.91	2201.72
811.347	849.22
811.785	431.12
812.222	275.22
812.66	213.62
813.097	174.02
813.535	148.32
813.972	134.82
814.409	124.82
814.846	112.52
815.284	116.82
815.721	108.02
816.158	109.02
816.595	119.02
817.032	162.92
817.47	181.92
817.907	146.82
818.344	108.12
818.781	105.52
819.218	102.22
819.655	127.72
820.092	199.02
820.529	229.22
820.966	179.92
821.403	132.02
821.839	109.92
822.276	96.52
822.713	131.42
823.15	143.52
823.587	126.52
824.023	154.32
824.46	314.12
824.897	949.02
825.333	1425.72
825.77	621.82
826.206	235.02
826.643	146.72
827.08	110.72
827.516	89.72
827.953	81.22
828.389	84.22
828.825	73.82
829.262	74.32
829.698	61.12
830.135	66.02
830.571	65.42
831.007	70.32
831.443	70.22
831.88	63.52
832.316	60.52
832.752	65.32
833.188	67.62
833.624	65.32
834.06	74.72
834.497	65.52
834.933	71.82
835.369	82.92
835.805	70.52
836.241	75.92
836.677	84.02
837.112	96.52
837.548	111.32
837.984	144.32
838.42	208.12
838.856	520.32
839.292	1588.02
839.727	2418.72
840.163	1123.42
840.599	972.22
841.034	2131.62
841.47	2200.72
841.906	812.02
842.341	352.22
842.777	208.02
843.212	203.02
843.648	194.42
844.083	120.92
844.519	86.82
844.954	74.42
845.39	61.62
845.825	59.82
846.261	60.72
846.696	57.82
847.131	60.42
847.566	61.62
848.002	51.92
848.437	58.42
848.872	61.92
849.307	63.02
849.742	82.22
850.177	182.92
850.613	580.52
851.048	908.52
851.483	390.72
851.918	165.82
852.353	88.02
852.788	55.32
853.223	51.12
853.657	50.52
854.092	47.72
854.527	44.52
854.962	43.32
855.397	50.02
855.832	50.32
856.266	44.62
856.701	41.52
857.136	43.62
857.57	44.82
858.005	51.72
858.44	63.42
858.874	53.12
859.309	55.92
859.743	47.02
860.178	50.82
860.612	42.62
861.047	56.22
861.481	71.42
861.915	75.62
862.35	51.42
862.784	39.52
863.218	42.52
863.653	34.82
864.087	50.62
864.521	54.02
864.955	71.82
865.39	158.62
865.824	183.12
866.258	124.62
866.692	172.62
867.126	191.52
867.56	117.52
867.994	64.42
868.428	41.02
868.862	52.52
869.296	61.42
869.73	65.62
870.164	63.92
870.598	52.52
871.031	38.32
871.465	32.32
871.899	37.32
872.333	25.02
872.766	26.62
873.2	25.52
873.634	32.22
874.067	30.22
874.501	30.52
874.935	32.22
875.368	29.62
875.802	31.42
876.235	24.82
876.669	23.72
877.102	24.22
877.535	28.42
877.969	21.92
878.402	26.42
878.836	19.82
879.269	26.42
879.702	20.52
880.135	20.32
880.569	18.42
881.002	26.82
881.435	19.42
881.868	12.72
882.301	25.82
882.734	11.32
883.167	32.12
883.601	23.02
884.034	22.42
884.467	12.12
884.899	20.52
885.332	16.52
885.765	16.02
886.198	21.72
886.631	14.52
887.064	22.22
887.497	22.22
887.929	22.72
888.362	13.42
888.795	12.32
889.228	20.42
889.66	18.62
890.093	15.72
890.526	17.52
890.958	26.12
891.391	17.02
891.823	27.82
892.256	16.22
892.688	9.32
893.121	17.02
893.553	13.42
893.985	20.42
894.418	15.22
894.85	17.82
895.282	14.12
895.715	17.72
896.147	18.72
896.579	18.82
897.011	15.82
897.444	19.42
897.876	16.82
898.308	12.22
898.74	19.62
899.172	18.92
899.604	23.42
900.036	21.02
900.468	14.22
900.9	16.92
901.332	20.02
901.764	19.52
902.196	20.72
902.628	22.92
903.06	20.62
903.491	36.22
903.923	29.52
904.355	22.12
904.787	29.22
905.218	26.12
905.65	24.62
906.082	21.42
906.513	15.02
906.945	16.32
907.376	14.72
907.808	15.02
908.239	21.42
908.671	24.32
909.102	18.62
909.534	28.72
909.965	47.12
910.397	94.62
910.828	337.02
911.259	484.02
911.691	223.62
912.122	117.22
912.553	53.82
912.984	33.12
913.415	26.82
913.847	26.82
914.278	18.02
914.709	12.22
915.14	16.32
915.571	18.52
916.002	14.32
916.433	20.02
916.864	19.12
917.295	16.92
917.726	22.12
918.157	16.12
918.587	27.22
919.018	27.02
919.449	29.82
919.88	24.52
920.311	32.52
920.741	50.72
921.172	165.42
921.603	155.02
922.033	68.32
922.464	44.02
922.895	30.62
923.325	16.22
923.756	17.72
924.186	17.12
924.617	20.22
925.047	24.42
925.478	25.42
925.908	26.22
926.338	13.22
926.769	15.12
927.199	19.62
927.629	3.32
928.06	14.82
928.49	21.22
928.92	12.52
929.35	8.52
929.78	14.62
930.21	3.02
930.641	7.22
931.071	12.42
931.501	2.42
931.931	15.12
932.361	6.52
932.791	3.02
933.221	6.32
933.651	11.42
934.08	21.52
934.51	29.02
934.94	10.92
935.37	10.32
935.8	14.82
936.229	6.22
936.659	14.52
937.089	2.12
937.519	15.02
937.948	21.52
938.378	17.72
938.807	1.32
939.237	7.42
939.666	7.92
940.096	-3.08
940.525	1.42
940.955	6.42
941.384	7.62
941.814	-6.68
942.243	1.82
942.672	5.42
943.102	-0.78
943.531	0.42
943.96	5.42
944.39	-0.28
944.819	0.22
945.248	5.72
945.677	1.82
946.106	8.02
946.535	7.82
946.964	3.32
947.393	4.22
947.822	0.42
948.251	-3.18
948.68	-3.58
949.109	4.52
949.538	4.92
949.967	4.72
950.396	-1.98
950.825	-0.88
951.254	1.22
951.682	-8.68
952.111	9.72
952.54	1.52
952.969	2.92
953.397	-3.68
953.826	4.92
954.254	-7.68
954.683	7.92
955.112	5.92
955.54	6.52
955.969	3.12
956.397	2.02
956.826	-0.88
957.254	2.22
957.682	2.02
958.111	7.42
958.539	5.62
958.967	0.32
959.396	-2.58
959.824	-5.18
960.252	0.02
960.68	-1.58
961.109	-0.18
961.537	-5.08
961.965	-5.68
962.393	-0.18
962.821	-1.48
963.249	2.72
963.677	6.52
964.105	8.12
964.533	48.22
964.961	41.22
965.389	27.12
965.817	12.02
966.245	-1.08
966.672	1.02
967.1	-7.38
967.528	0.02
967.956	-3.18
968.383	1.62
968.811	-0.48
969.239	0.62
969.666	-1.08
970.094	6.52
970.522	1.92
970.949	-5.18
971.377	-2.78
971.804	1.02
972.232	0.12
972.659	-0.88
973.087	-3.38
973.514	-6.78
973.941	-2.68
974.369	2.72
974.796	-0.48
975.223	-0.28
975.651	-2.68
976.078	5.92
976.505	-3.78
976.932	3.12
977.359	11.12
977.786	19.42
978.214	4.82
978.641	-10.18
979.068	2.62
979.495	-3.38
979.922	2.02
980.349	-0.48
980.776	5.12
981.202	-2.18
981.629	3.32
982.056	2.22
982.483	-1.48
982.91	-2.58
983.337	-3.78
983.763	3.92
984.19	-3.58
984.617	-2.68
985.043	-12.68
985.47	1.42
985.897	-4.58
986.323	-5.88
986.75	6.72
987.176	-0.98
987.603	-0.08
988.029	0.32
988.456	0.52
988.882	3.02
989.308	1.12
989.735	-7.08
990.161	5.42
990.587	-1.98
991.014	-2.28
991.44	4.22
991.866	-1.58
992.292	-3.38
992.719	1.32
993.145	5.72
993.571	-7.58
993.997	-4.58
994.423	0.22
994.849	-3.48
995.275	3.72
995.701	2.12
996.127	-2.08
996.553	3.72
996.979	-5.28
997.405	-2.78
997.83	-2.98
998.256	-10.48
998.682	-8.68
999.108	-13.38
999.534	-6.08
999.959	-1.08
1000.385	-6.88
1000.811	-3.18
1001.236	-13.38
1001.662	-8.78
1002.087	-10.78
1002.513	2.52
1002.938	4.42
1003.364	-1.18
1003.789	2.22
1004.215	2.92
1004.64	-3.98
1005.066	5.82
1005.491	-3.48
1005.916	-1.78
1006.342	-0.78
1006.767	-6.88
1007.192	6.62
1007.617	-1.48
1008.042	-0.58
1008.468	-6.88
1008.893	1.52
1009.318	4.72
1009.743	-1.98
1010.168	7.52
1010.593	1.92
1011.018	-6.18
1011.443	2.52
1011.868	0.22
1012.293	0.42
1012.718	-3.58
1013.143	1.52
1013.567	-0.48
1013.992	-2.28
1014.417	-9.18
1014.842	2.22
1015.267	1.42
1015.691	-2.78
1016.116	7.22
1016.541	-6.88
1016.965	5.22
1017.39	3.82
1017.814	-5.78
1018.239	2.92
1018.663	-3.68
1019.088	-7.28
1019.512	-4.08
1019.937	1.92
1020.361	-3.98
1020.785	-9.18
1021.21	-2.98
1021.634	-4.88
1022.058	-0.68
1022.483	4.92
1022.907	-5.88
1023.331	-3.28
1023.755	-0.78
1024.179	-7.18
1024.604	-4.98
1025.028	-4.28
1025.452	-1.68
1025.876	-0.58
1026.3	-1.28
1026.724	-16.38
1027.148	-5.58
1027.572	-9.98
1027.996	-4.48
1028.42	-0.68
1028.843	-3.28
1029.267	-3.68
1029.691	-5.48
1030.115	-7.48
1030.539	-8.98
1030.962	-8.98
1031.386	-11.08
1031.81	-3.78
1032.233	0.62
1032.657	-2.18
1033.08	-2.18
1033.504	-0.88
1033.927	0.72
1034.351	2.92
1034.774	-2.18
1035.198	-1.88
1035.621	-1.38
1036.045	-9.58
1036.468	0.42
1036.891	-11.38
1037.315	-6.18
1037.738	-6.88
1038.161	0.52
1038.584	-2.08
1039.008	-5.58
1039.431	-4.98
1039.854	-3.58
1040.277	-12.58
1040.7	-14.58
1041.123	1.42
1041.546	-4.78
1041.969	-5.48
1042.392	-9.48
1042.815	2.52
1043.238	-2.98
1043.661	1.62
1044.084	-7.58
1044.507	-4.38
1044.93	-6.88
1045.352	-1.48
1045.775	-2.08
1046.198	-2.68
1046.621	-2.88
1047.043	-3.58
1047.466	3.92
1047.889	-4.08
1048.311	-8.98
1048.734	-3.18
1049.156	1.62
1049.579	-2.38
1050.001	-5.58
1050.424	2.22
1050.846	-3.18
1051.269	-7.48
1051.691	-4.38
1052.113	-1.88
1052.536	0.12
1052.958	-0.48
1053.38	-8.08
1053.802	-9.38
1054.225	2.92
1054.647	-3.18
1055.069	-6.58
1055.491	9.12
1055.913	-3.38
1056.335	-3.38
1056.757	3.42
1057.179	-5.88
1057.601	-6.38
1058.023	-1.78
1058.445	-5.18
1058.867	-3.68
1059.289	-6.08
1059.711	-2.58
1060.133	2.52
1060.555	-6.18
1060.976	-6.28
1061.398	-6.38
1061.82	-4.58
1062.241	-2.58
1062.663	-7.98
1063.085	-1.18
1063.506	5.02
1063.928	-3.78
1064.35	4.32
1064.771	-14.78
1065.193	1.42
1065.614	-8.38
1066.035	-0.28
1066.457	-0.38
1066.878	-1.48
1067.3	-1.48
1067.721	-4.78
1068.142	-2.28
1068.564	-5.38
1068.985	-6.48
1069.406	-3.88
1069.827	-5.38
1070.248	-5.28
1070.67	-11.08
1071.091	-0.78
1071.512	-3.98
1071.933	-4.88
1072.354	-5.98
1072.775	-3.48
1073.196	-9.58
1073.617	0.92
1074.038	-6.78
1074.459	-1.48
1074.88	-3.98
1075.3	4.62
1075.721	-4.28
1076.142	1.32
1076.563	0.32
1076.983	-8.08
1077.404	-5.78
1077.825	-4.68
1078.246	-2.38
1078.666	-9.48
1079.087	-4.28
1079.507	-7.28
1079.928	0.02
1080.348	2.92
1080.769	-2.68
1081.189	-4.98
1081.61	-3.98
1082.03	-6.88
1082.451	-4.48
1082.871	-6.28
1083.291	-10.48
1083.711	-4.18
1084.132	3.12
1084.552	-2.28
1084.972	-1.78
1085.392	-6.88
1085.813	-8.58
1086.233	-12.38
1086.653	-4.38
1087.073	-0.78
1087.493	-6.48
1087.913	-8.18
1088.333	-8.18
1088.753	-1.38
1089.173	4.82
1089.593	-2.28
1090.013	-1.58
1090.433	0.02
1090.852	-0.18
1091.272	0.22
1091.692	-2.28
1092.112	-4.18
1092.531	-9.58
1092.951	-16.58
1093.371	-5.08
1093.79	-2.38
1094.21	-3.88
1094.63	-5.58
1095.049	-10.88
1095.469	1.32
1095.888	-3.98
1096.308	3.92
1096.727	2.32
1097.146	-0.38
1097.566	-0.28
1097.985	-3.68
1098.405	-1.88
1098.824	-3.58
1099.243	-3.68
1099.662	-10.08
1100.082	-2.48
1100.501	-3.18
1100.92	-3.28
1101.339	-4.98
1101.758	-4.98
