Data from 20171114-ORNL-Ar_H_NY_Subt18_08-08-45-712.txt Node
Date: Tue Nov 14 08:08:45 EST 2017
User: Ender
Spectrometer: HR+D1039
Trigger mode: 0
Integration Time (sec): 2.730000E-2
Scans to average: 10
Electric dark correction enabled: true
Nonlinearity correction enabled: false
Boxcar width: 0
XAxis mode: Wavelengths
Number of Pixels in Spectrum: 2048
>>>>>Begin Spectral Data<<<<<
187.836	-6.21
188.309	-6.21
188.782	-6.21
189.255	3.29
189.728	1.39
190.201	7.99
190.674	-1.51
191.147	1.59
191.619	-8.11
192.092	-1.91
192.565	8.99
193.038	3.79
193.511	-0.01
193.984	-0.91
194.456	1.79
194.929	-2.21
195.402	-5.21
195.874	-2.81
196.347	-6.21
196.82	-10.91
197.292	5.59
197.765	0.69
198.237	-5.51
198.71	1.39
199.182	-6.31
199.655	3.19
200.127	0.79
200.6	-7.61
201.072	-3.31
201.544	-4.11
202.017	-4.21
202.489	2.29
202.961	-4.71
203.433	-4.21
203.906	-4.21
204.378	-6.51
204.85	-4.41
205.322	-6.81
205.794	-5.21
206.266	-3.51
206.739	-9.71
207.211	-0.01
207.683	-6.91
208.155	-6.11
208.627	-4.71
209.099	-2.71
209.57	-11.01
210.042	-8.91
210.514	-8.51
210.986	-5.61
211.458	-11.61
211.93	-8.51
212.402	0.09
212.873	-6.11
213.345	-8.21
213.817	-15.81
214.288	-6.81
214.76	-8.41
215.232	-5.21
215.703	-7.91
216.175	0.09
216.646	-6.51
217.118	-8.51
217.589	-4.81
218.061	1.49
218.532	-3.01
219.004	-2.31
219.475	3.39
219.946	-5.31
220.418	-3.31
220.889	3.19
221.36	4.59
221.832	-3.61
222.303	-7.51
222.774	-4.11
223.245	-13.31
223.717	-6.21
224.188	-1.21
224.659	-10.71
225.13	-7.11
225.601	-3.81
226.072	2.69
226.543	-1.21
227.014	-0.11
227.485	-4.41
227.956	-12.21
228.427	-1.71
228.898	2.29
229.369	0.39
229.839	-4.31
230.31	-9.01
230.781	5.89
231.252	-3.41
231.722	-4.91
232.193	-8.01
232.664	-3.91
233.135	-4.21
233.605	-7.51
234.076	-8.71
234.546	-0.41
235.017	4.99
235.487	-3.31
235.958	-8.31
236.428	-9.71
236.899	-1.21
237.369	-3.31
237.84	-4.21
238.31	3.89
238.78	3.09
239.251	-6.71
239.721	-5.51
240.191	-4.81
240.662	-7.31
241.132	-6.41
241.602	-10.41
242.072	-5.01
242.542	4.49
243.013	-3.21
243.483	5.19
243.953	-2.41
244.423	-3.41
244.893	-8.21
245.363	2.79
245.833	-0.81
246.303	-3.01
246.773	6.59
247.243	0.09
247.712	2.19
248.182	4.19
248.652	-3.71
249.122	-8.31
249.592	-4.01
250.061	2.39
250.531	9.39
251.001	2.89
251.471	3.69
251.94	8.59
252.41	-1.71
252.879	-6.71
253.349	0.49
253.818	3.09
254.288	0.39
254.757	-1.41
255.227	-5.41
255.696	-4.51
256.166	2.79
256.635	2.79
257.105	5.39
257.574	2.49
258.043	-3.11
258.513	-3.41
258.982	3.99
259.451	-5.81
259.92	3.09
260.389	1.29
260.859	5.19
261.328	3.69
261.797	1.19
262.266	1.69
262.735	4.49
263.204	-1.71
263.673	1.39
264.142	2.69
264.611	-2.71
265.08	-4.51
265.549	-2.71
266.018	3.69
266.487	-4.21
266.955	2.49
267.424	-3.61
267.893	2.09
268.362	-9.61
268.83	-1.41
269.299	4.09
269.768	0.09
270.236	4.19
270.705	-5.81
271.174	4.89
271.642	-0.31
272.111	3.79
272.579	1.69
273.048	3.59
273.516	3.59
273.985	3.99
274.453	11.39
274.922	10.69
275.39	3.59
275.858	-5.11
276.327	6.19
276.795	9.09
277.263	3.69
277.731	10.99
278.2	16.79
278.668	15.69
279.136	13.09
279.604	3.39
280.072	1.09
280.54	4.99
281.008	9.39
281.477	15.39
281.945	3.89
282.413	11.09
282.881	7.49
283.348	5.09
283.816	4.39
284.284	4.59
284.752	12.69
285.22	8.79
285.688	13.09
286.156	6.69
286.623	14.09
287.091	12.69
287.559	11.79
288.026	13.29
288.494	13.39
288.962	2.59
289.429	6.09
289.897	18.49
290.364	9.09
290.832	13.99
291.3	15.19
291.767	13.49
292.234	9.59
292.702	2.29
293.169	14.09
293.637	10.99
294.104	14.69
294.571	-0.71
295.039	12.39
295.506	9.09
295.973	11.89
296.44	7.99
296.908	9.39
297.375	2.69
297.842	12.59
298.309	7.79
298.776	4.39
299.243	10.99
299.71	4.29
300.177	16.19
300.644	14.59
301.111	13.49
301.578	20.69
302.045	7.19
302.512	18.59
302.979	21.29
303.446	18.69
303.913	16.99
304.379	14.29
304.846	21.19
305.313	18.79
305.78	15.69
306.246	20.69
306.713	16.69
307.18	19.59
307.646	21.89
308.113	21.69
308.579	15.69
309.046	20.39
309.512	28.49
309.979	15.49
310.445	23.59
310.912	28.19
311.378	24.09
311.845	23.09
312.311	26.09
312.777	19.49
313.244	21.39
313.71	30.29
314.176	25.69
314.642	22.59
315.109	20.69
315.575	25.79
316.041	36.39
316.507	23.69
316.973	30.49
317.439	25.49
317.905	32.49
318.371	32.69
318.837	24.89
319.303	26.19
319.769	29.89
320.235	26.49
320.701	26.19
321.167	27.99
321.633	24.69
322.099	29.39
322.564	29.29
323.03	33.19
323.496	27.19
323.962	27.99
324.427	30.79
324.893	37.89
325.359	33.99
325.824	29.19
326.29	29.99
326.755	31.39
327.221	35.59
327.686	29.29
328.152	37.39
328.617	37.99
329.083	38.09
329.548	40.19
330.014	39.39
330.479	28.29
330.944	34.39
331.41	39.29
331.875	40.09
332.34	39.49
332.805	38.59
333.271	35.59
333.736	32.49
334.201	34.89
334.666	40.99
335.131	51.79
335.596	47.19
336.061	43.89
336.526	37.89
336.991	42.09
337.456	47.79
337.921	40.69
338.386	38.39
338.851	41.39
339.316	37.19
339.781	37.89
340.246	49.89
340.711	38.09
341.175	45.79
341.64	38.19
342.105	44.39
342.569	48.59
343.034	48.79
343.499	44.29
343.963	45.29
344.428	57.79
344.893	56.69
345.357	49.29
345.822	50.89
346.286	60.99
346.751	62.99
347.215	60.99
347.679	56.09
348.144	86.09
348.608	71.19
349.073	63.79
349.537	71.99
350.001	66.39
350.465	80.69
350.93	66.69
351.394	71.09
351.858	64.39
352.322	74.09
352.786	71.09
353.25	94.29
353.715	97.89
354.179	85.89
354.643	106.99
355.107	102.99
355.571	92.19
356.035	83.79
356.498	101.19
356.962	103.49
357.426	106.69
357.89	104.99
358.354	80.99
358.818	72.59
359.281	73.99
359.745	68.09
360.209	70.09
360.673	68.69
361.136	72.79
361.6	69.99
362.064	76.69
362.527	69.89
362.991	82.69
363.454	72.39
363.918	67.69
364.381	79.09
364.845	78.69
365.308	78.19
365.772	81.89
366.235	80.39
366.698	72.89
367.162	77.99
367.625	77.19
368.088	83.49
368.552	81.89
369.015	78.59
369.478	83.09
369.941	96.39
370.404	86.19
370.867	94.39
371.331	92.59
371.794	101.49
372.257	91.29
372.72	96.69
373.183	102.59
373.646	83.19
374.109	88.49
374.572	96.79
375.035	99.09
375.497	98.29
375.96	100.99
376.423	94.69
376.886	108.09
377.349	107.59
377.811	95.69
378.274	88.19
378.737	95.09
379.199	101.09
379.662	107.89
380.125	101.89
380.587	101.89
381.05	106.69
381.512	111.09
381.975	114.29
382.437	115.59
382.9	116.09
383.362	120.49
383.825	122.59
384.287	122.49
384.75	120.99
385.212	122.09
385.674	125.49
386.136	125.29
386.599	121.09
387.061	117.59
387.523	117.09
387.985	120.69
388.447	129.49
388.91	127.89
389.372	126.79
389.834	129.29
390.296	129.19
390.758	122.49
391.22	131.59
391.682	148.29
392.144	161.49
392.606	152.59
393.068	144.39
393.529	147.59
393.991	131.89
394.453	124.69
394.915	129.79
395.377	139.99
395.838	137.39
396.3	134.69
396.762	152.59
397.224	128.09
397.685	136.19
398.147	129.79
398.608	128.19
399.07	132.59
399.531	137.49
399.993	144.19
400.454	150.09
400.916	144.99
401.377	145.09
401.839	155.79
402.3	149.69
402.762	161.99
403.223	173.89
403.684	164.19
404.145	161.59
404.607	160.39
405.068	161.39
405.529	164.49
405.99	180.29
406.451	167.29
406.913	175.39
407.374	158.59
407.835	163.99
408.296	162.39
408.757	169.39
409.218	176.49
409.679	178.19
410.14	173.49
410.601	178.89
411.062	181.29
411.522	181.99
411.983	174.79
412.444	181.29
412.905	186.29
413.366	188.99
413.826	203.79
414.287	220.89
414.748	265.69
415.208	256.59
415.669	216.99
416.13	214.39
416.59	202.49
417.051	223.19
417.511	232.29
417.972	246.49
418.432	252.49
418.893	293.29
419.353	256.69
419.814	200.39
420.274	190.29
420.734	187.19
421.195	201.29
421.655	198.89
422.115	198.69
422.576	193.59
423.036	204.19
423.496	215.89
423.956	220.09
424.416	231.99
424.876	276.79
425.336	262.79
425.797	268.19
426.257	258.99
426.717	237.89
427.177	233.89
427.637	229.09
428.097	232.59
428.556	252.09
429.016	266.59
429.476	265.79
429.936	277.09
430.396	278.99
430.856	293.39
431.315	308.39
431.775	346.69
432.235	382.79
432.694	349.19
433.154	357.59
433.614	387.49
434.073	336.89
434.533	287.69
434.993	268.29
435.452	277.49
435.912	291.59
436.371	293.49
436.83	286.69
437.29	266.39
437.749	243.09
438.209	247.79
438.668	278.19
439.127	285.29
439.587	262.29
440.046	253.99
440.505	257.29
440.964	282.19
441.424	325.39
441.883	315.39
442.342	267.29
442.801	238.19
443.26	225.69
443.719	235.49
444.178	225.69
444.637	223.09
445.096	229.99
445.555	231.49
446.014	229.39
446.473	234.89
446.932	241.49
447.391	235.09
447.849	243.99
448.308	230.29
448.767	237.69
449.226	243.09
449.685	249.99
450.143	268.29
450.602	247.09
451.061	233.69
451.519	242.19
451.978	235.19
452.436	247.79
452.895	250.39
453.353	260.89
453.812	240.49
454.27	252.79
454.729	259.79
455.187	256.29
455.646	250.69
456.104	254.69
456.562	276.39
457.021	278.69
457.479	269.59
457.937	283.79
458.395	272.09
458.854	260.09
459.312	264.49
459.77	286.89
460.228	273.79
460.686	253.59
461.144	263.29
461.602	265.99
462.06	256.09
462.518	268.39
462.976	269.79
463.434	267.79
463.892	271.29
464.35	282.49
464.808	292.99
465.266	283.09
465.724	281.19
466.181	284.49
466.639	281.59
467.097	303.59
467.555	314.69
468.012	319.59
468.47	322.09
468.928	345.49
469.385	359.99
469.843	366.79
470.3	368.99
470.758	373.79
471.215	397.89
471.673	423.39
472.13	424.59
472.588	439.29
473.045	389.99
473.503	392.59
473.96	415.69
474.417	420.89
474.875	455.59
475.332	491.79
475.789	463.19
476.246	480.89
476.704	499.19
477.161	525.49
477.618	535.09
478.075	575.89
478.532	623.89
478.989	691.29
479.446	801.19
479.903	768.39
480.36	809.49
480.817	848.89
481.274	946.39
481.731	1034.69
482.188	1107.29
482.645	1242.29
483.102	1331.99
483.558	1434.19
484.015	1487.99
484.472	1458.19
484.929	1419.79
485.385	1379.59
485.842	1348.99
486.299	1318.29
486.755	1255.69
487.212	1069.79
487.668	916.49
488.125	859.19
488.582	782.39
489.038	750.59
489.494	718.09
489.951	702.29
490.407	687.39
490.864	662.19
491.32	651.29
491.776	667.79
492.233	675.79
492.689	633.39
493.145	626.39
493.602	618.59
494.058	628.29
494.514	638.49
494.97	663.29
495.426	670.29
495.882	643.39
496.338	630.49
496.794	640.39
497.251	629.99
497.707	648.59
498.163	652.49
498.618	650.09
499.074	666.99
499.53	686.99
499.986	693.19
500.442	674.29
500.898	645.59
501.354	626.99
501.809	643.79
502.265	640.99
502.721	657.89
503.177	668.29
503.632	668.49
504.088	677.89
504.543	693.39
504.999	716.79
505.455	676.59
505.91	661.59
506.366	659.89
506.821	661.19
507.277	654.89
507.732	653.09
508.187	655.69
508.643	659.19
509.098	676.19
509.553	694.29
510.009	692.99
510.464	709.29
510.919	722.09
511.375	734.79
511.83	744.39
512.285	746.79
512.74	791.19
513.195	815.59
513.65	799.79
514.105	789.39
514.56	795.19
515.015	821.09
515.47	827.69
515.925	818.19
516.38	819.09
516.835	828.29
517.29	814.49
517.745	811.69
518.2	790.59
518.655	780.99
519.109	774.39
519.564	768.69
520.019	755.19
520.474	761.79
520.928	755.79
521.383	749.99
521.838	743.39
522.292	743.39
522.747	745.99
523.201	743.59
523.656	724.39
524.11	732.99
524.565	725.19
525.019	712.59
525.474	726.69
525.928	735.49
526.382	724.99
526.837	731.19
527.291	730.49
527.745	721.69
528.2	722.49
528.654	720.49
529.108	726.99
529.562	719.59
530.016	723.69
530.47	733.09
530.925	715.69
531.379	722.89
531.833	729.99
532.287	728.99
532.741	725.99
533.195	730.69
533.649	733.39
534.103	754.39
534.556	744.09
535.01	739.99
535.464	735.59
535.918	739.69
536.372	743.79
536.826	743.29
537.279	737.29
537.733	735.79
538.187	743.29
538.64	745.69
539.094	754.79
539.548	758.09
540.001	748.69
540.455	748.19
540.908	763.79
541.362	776.99
541.815	778.39
542.269	790.19
542.722	786.29
543.175	795.79
543.629	808.19
544.082	827.39
544.536	825.09
544.989	819.19
545.442	828.19
545.895	823.69
546.349	835.79
546.802	826.09
547.255	833.49
547.708	850.29
548.161	851.49
548.614	864.59
549.067	867.39
549.52	858.29
549.973	848.59
550.426	844.29
550.879	838.19
551.332	850.19
551.785	847.39
552.238	849.99
552.691	864.59
553.144	871.19
553.596	891.89
554.049	912.69
554.502	942.99
554.955	957.89
555.407	958.99
555.86	929.79
556.313	939.69
556.765	929.09
557.218	924.69
557.67	917.39
558.123	915.79
558.576	925.59
559.028	933.69
559.48	926.99
559.933	915.69
560.385	883.19
560.838	854.39
561.29	835.59
561.742	823.99
562.195	803.19
562.647	802.99
563.099	825.19
563.551	804.99
564.004	829.49
564.456	810.59
564.908	794.79
565.36	776.99
565.812	773.29
566.264	754.39
566.716	751.19
567.168	736.99
567.62	745.89
568.072	738.99
568.524	735.99
568.976	722.59
569.428	714.09
569.88	718.39
570.332	718.19
570.784	721.69
571.235	719.89
571.687	724.29
572.139	740.69
572.59	753.69
573.042	748.89
573.494	749.89
573.945	752.19
574.397	723.09
574.849	724.99
575.3	720.69
575.752	715.79
576.203	709.89
576.655	723.69
577.106	692.99
577.557	701.09
578.009	702.49
578.46	705.89
578.912	699.59
579.363	698.79
579.814	703.09
580.265	696.19
580.717	704.69
581.168	705.49
581.619	704.29
582.07	720.79
582.521	714.99
582.972	690.89
583.423	718.29
583.875	715.79
584.326	717.79
584.777	734.69
585.227	758.19
585.678	796.99
586.129	810.59
586.58	852.79
587.031	871.69
587.482	912.39
587.933	956.99
588.384	937.79
588.834	850.29
589.285	819.39
589.736	821.39
590.186	812.59
590.637	810.49
591.088	786.19
591.538	778.19
591.989	767.89
592.439	758.49
592.89	758.99
593.34	738.79
593.791	727.79
594.241	737.79
594.692	736.69
595.142	720.59
595.593	734.19
596.043	749.99
596.493	739.49
596.943	744.39
597.394	754.79
597.844	753.89
598.294	780.79
598.744	804.89
599.195	823.79
599.645	864.49
600.095	907.89
600.545	968.89
600.995	1027.49
601.445	1077.69
601.895	1143.89
602.345	1189.19
602.795	1177.39
603.245	1118.39
603.695	1060.69
604.145	1024.19
604.594	967.39
605.044	911.99
605.494	842.89
605.944	797.09
606.393	787.59
606.843	766.69
607.293	760.09
607.743	763.09
608.192	780.79
608.642	792.19
609.091	806.89
609.541	795.69
609.99	793.99
610.44	799.09
610.889	766.39
611.339	737.69
611.788	726.69
612.238	730.29
612.687	734.99
613.136	739.29
613.586	754.99
614.035	736.99
614.484	758.99
614.933	756.19
615.383	742.59
615.832	749.49
616.281	739.19
616.73	701.59
617.179	691.99
617.628	681.09
618.077	669.29
618.526	652.89
618.975	650.09
619.424	653.09
619.873	652.79
620.322	652.19
620.771	642.39
621.22	636.49
621.669	628.19
622.118	618.69
622.567	621.49
623.015	600.79
623.464	604.69
623.913	579.89
624.361	586.19
624.81	578.59
625.259	583.69
625.707	573.59
626.156	587.19
626.604	595.19
627.053	597.79
627.501	591.49
627.95	599.29
628.398	616.89
628.847	601.29
629.295	605.29
629.744	601.49
630.192	591.39
630.64	598.19
631.089	578.99
631.537	585.09
631.985	564.49
632.433	561.79
632.881	557.39
633.33	574.09
633.778	568.19
634.226	555.29
634.674	570.89
635.122	574.19
635.57	583.69
636.018	593.09
636.466	599.39
636.914	587.69
637.362	598.49
637.81	602.59
638.258	608.79
638.705	622.19
639.153	650.49
639.601	659.59
640.049	677.29
640.497	703.09
640.944	731.49
641.392	689.19
641.84	651.39
642.287	610.89
642.735	598.49
643.182	590.69
643.63	591.19
644.078	591.29
644.525	601.99
644.973	608.69
645.42	621.39
645.867	643.29
646.315	667.39
646.762	685.39
647.21	707.89
647.657	748.69
648.104	763.49
648.551	787.39
648.999	852.19
649.446	938.19
649.893	1025.99
650.34	1161.29
650.787	1390.09
651.234	1715.09
651.682	2219.99
652.129	3026.49
652.576	4297.29
653.023	6256.79
653.47	8421.99
653.917	10426.19
654.363	11915.09
654.81	13056.59
655.257	12345.09
655.704	8227.79
656.151	4940.99
656.598	3241.39
657.044	2327.09
657.491	1804.09
657.938	1464.69
658.385	1234.19
658.831	1075.49
659.278	972.09
659.724	871.89
660.171	801.49
660.618	736.99
661.064	712.29
661.511	695.09
661.957	683.39
662.404	663.29
662.85	666.49
663.296	655.19
663.743	580.19
664.189	569.59
664.635	558.59
665.082	563.09
665.528	556.19
665.974	547.19
666.42	541.89
666.867	532.49
667.313	519.89
667.759	488.49
668.205	477.59
668.651	477.39
669.097	477.89
669.543	471.39
669.989	474.79
670.435	481.49
670.881	468.09
671.327	475.59
671.773	496.89
672.219	523.59
672.665	587.89
673.11	622.39
673.556	672.19
674.002	713.99
674.448	697.49
674.893	592.49
675.339	500.69
675.785	468.39
676.23	448.19
676.676	418.39
677.122	413.19
677.567	395.39
678.013	388.59
678.458	386.79
678.904	384.99
679.349	371.59
679.794	377.59
680.24	377.09
680.685	373.39
681.131	372.49
681.576	378.99
682.021	377.79
682.466	373.09
682.912	371.39
683.357	382.99
683.802	409.49
684.247	444.59
684.692	484.19
685.137	529.49
685.583	566.99
686.028	607.29
686.473	550.69
686.918	474.89
687.363	444.69
687.807	422.79
688.252	388.29
688.697	384.69
689.142	361.39
689.587	353.69
690.032	351.89
690.477	367.59
690.921	375.99
691.366	417.39
691.811	428.29
692.255	459.29
692.7	494.69
693.145	545.19
693.589	770.79
694.034	1248.49
694.478	1679.49
694.923	1855.49
695.367	2414.19
695.812	1270.29
696.256	535.59
696.701	396.09
697.145	369.99
697.59	356.59
698.034	347.69
698.478	354.39
698.922	354.39
699.367	346.99
699.811	361.99
700.255	379.49
700.699	409.99
701.143	456.59
701.588	509.59
702.032	543.79
702.476	548.49
702.92	523.29
703.364	539.99
703.808	708.19
704.252	1143.59
704.696	1601.89
705.14	1769.69
705.584	2270.39
706.027	1141.79
706.471	563.89
706.915	434.29
707.359	381.19
707.803	345.49
708.246	329.69
708.69	341.09
709.134	331.29
709.577	331.89
710.021	339.49
710.465	318.69
710.908	326.09
711.352	313.49
711.795	344.29
712.239	377.49
712.682	406.39
713.126	435.99
713.569	478.99
714.012	378.99
714.456	328.39
714.899	312.89
715.342	293.99
715.786	276.69
716.229	279.69
716.672	270.89
717.115	269.09
717.558	265.69
718.002	273.89
718.445	278.89
718.888	308.09
719.331	314.99
719.774	334.39
720.217	324.59
720.66	304.69
721.103	287.09
721.546	275.59
721.989	272.29
722.432	241.19
722.874	248.79
723.317	242.89
723.76	250.09
724.203	284.39
724.645	330.59
725.088	485.89
725.531	627.99
725.974	678.09
726.416	591.69
726.859	332.09
727.301	267.49
727.744	257.19
728.187	251.69
728.629	255.29
729.071	264.19
729.514	274.69
729.956	291.49
730.399	303.19
730.841	307.69
731.283	297.39
731.726	282.79
732.168	284.89
732.61	285.79
733.053	309.89
733.495	342.59
733.937	380.09
734.379	430.09
734.821	478.89
735.263	605.69
735.705	931.59
736.148	1778.09
736.59	2823.49
737.032	3243.49
737.474	2654.69
737.916	876.19
738.357	461.49
738.799	356.59
739.241	324.49
739.683	303.19
740.125	319.69
740.567	323.19
741.008	335.39
741.45	341.69
741.892	344.59
742.334	372.09
742.775	383.49
743.217	369.99
743.658	288.59
744.1	285.79
744.542	288.49
744.983	341.59
745.425	367.29
745.866	368.59
746.307	302.79
746.749	299.09
747.19	358.39
747.632	507.39
748.073	1004.79
748.514	2082.59
748.956	3087.79
749.397	3905.49
749.838	3221.99
750.279	3131.49
750.72	1622.79
751.162	593.79
751.603	349.49
752.044	275.09
752.485	235.69
752.926	224.79
753.367	215.29
753.808	212.19
754.249	201.99
754.69	196.79
755.131	199.39
755.572	188.79
756.013	196.99
756.453	197.29
756.894	198.19
757.335	206.29
757.776	207.29
758.216	209.79
758.657	211.79
759.098	222.29
759.538	241.69
759.979	292.59
760.42	417.29
760.86	805.99
761.301	2100.49
761.741	4900.69
762.182	6775.59
762.622	4828.89
763.063	1420.49
763.503	581.49
763.943	356.09
764.384	300.49
764.824	289.59
765.264	279.09
765.705	237.79
766.145	197.39
766.585	190.39
767.025	184.89
767.465	181.09
767.906	202.59
768.346	221.09
768.786	241.69
769.226	242.69
769.666	337.79
770.106	702.49
770.546	1739.89
770.986	2827.89
771.426	2498.09
771.866	860.39
772.306	353.19
772.745	223.19
773.185	183.49
773.625	170.59
774.065	164.69
774.505	172.89
774.944	230.29
775.384	423.29
775.824	678.09
776.263	642.19
776.703	316.99
777.142	171.39
777.582	140.49
778.021	135.79
778.461	132.49
778.9	137.89
779.34	137.69
779.779	121.69
780.219	112.09
780.658	118.39
781.097	114.69
781.537	112.89
781.976	114.99
782.415	108.89
782.855	111.89
783.294	112.69
783.733	113.99
784.172	116.29
784.611	114.89
785.05	113.09
785.489	121.59
785.928	131.09
786.367	127.19
786.806	123.49
787.245	135.79
787.684	148.69
788.123	161.19
788.562	144.99
789.001	144.99
789.44	129.79
789.879	121.59
790.317	127.89
790.756	132.19
791.195	137.29
791.634	155.49
792.072	220.99
792.511	410.99
792.95	1139.49
793.388	2276.19
793.827	2020.49
794.265	716.79
794.704	304.19
795.142	193.29
795.581	155.09
796.019	156.79
796.458	141.49
796.896	130.59
797.334	137.49
797.773	170.29
798.211	240.99
798.649	497.99
799.087	1130.09
799.526	1750.39
799.964	2202.39
800.402	2140.69
800.84	815.89
801.278	327.29
801.716	200.19
802.154	173.19
802.592	156.39
803.03	153.29
803.468	146.59
803.906	155.09
804.344	159.79
804.782	147.99
805.22	147.19
805.658	141.29
806.096	157.29
806.533	169.69
806.971	191.59
807.409	240.89
807.847	357.79
808.284	755.69
808.722	2065.79
809.16	3532.79
809.597	3489.29
810.035	5917.19
810.472	6074.79
810.91	2261.79
811.347	869.79
811.785	439.89
812.222	282.79
812.66	209.89
813.097	175.09
813.535	152.19
813.972	141.29
814.409	130.09
814.846	116.79
815.284	117.59
815.721	103.19
816.158	111.39
816.595	116.89
817.032	168.69
817.47	197.29
817.907	136.69
818.344	105.89
818.781	105.89
819.218	103.19
819.655	127.19
820.092	208.79
820.529	223.89
820.966	184.99
821.403	133.59
821.839	107.09
822.276	102.09
822.713	137.09
823.15	146.39
823.587	131.29
824.023	164.49
824.46	345.49
824.897	1000.19
825.333	1434.39
825.77	626.49
826.206	245.29
826.643	142.79
827.08	109.09
827.516	89.69
827.953	85.19
828.389	90.19
828.825	77.49
829.262	73.99
829.698	67.49
830.135	66.49
830.571	69.59
831.007	73.39
831.443	72.19
831.88	57.19
832.316	66.59
832.752	71.79
833.188	70.39
833.624	61.99
834.06	67.29
834.497	80.89
834.933	77.49
835.369	79.49
835.805	67.29
836.241	84.09
836.677	87.99
837.112	93.09
837.548	110.09
837.984	146.89
838.42	232.79
838.856	567.89
839.292	1675.29
839.727	2455.29
840.163	1162.29
840.599	1039.29
841.034	2212.29
841.47	2230.39
841.906	833.89
842.341	354.09
842.777	211.39
843.212	226.79
843.648	212.69
844.083	122.49
844.519	91.59
844.954	79.49
845.39	64.69
845.825	64.59
846.261	64.69
846.696	59.89
847.131	55.99
847.566	64.09
848.002	53.19
848.437	57.39
848.872	63.19
849.307	68.19
849.742	93.39
850.177	203.39
850.613	617.69
851.048	934.59
851.483	411.59
851.918	167.89
852.353	95.99
852.788	59.59
853.223	58.19
853.657	56.49
854.092	47.89
854.527	42.29
854.962	41.99
855.397	46.89
855.832	50.09
856.266	48.59
856.701	44.89
857.136	49.59
857.57	44.49
858.005	56.09
858.44	63.09
858.874	45.79
859.309	59.79
859.743	48.59
860.178	49.69
860.612	44.09
861.047	56.29
861.481	77.99
861.915	77.39
862.35	50.29
862.784	38.09
863.218	41.29
863.653	39.79
864.087	48.99
864.521	60.99
864.955	81.79
865.39	169.09
865.824	186.19
866.258	125.99
866.692	185.99
867.126	196.59
867.56	112.99
867.994	55.79
868.428	40.69
868.862	52.39
869.296	62.69
869.73	61.99
870.164	60.09
870.598	53.39
871.031	42.49
871.465	35.89
871.899	35.79
872.333	26.59
872.766	25.29
873.2	26.29
873.634	31.79
874.067	26.39
874.501	27.09
874.935	32.19
875.368	28.99
875.802	31.99
876.235	27.49
876.669	22.69
877.102	22.99
877.535	26.29
877.969	27.09
878.402	30.79
878.836	23.19
879.269	24.89
879.702	29.39
880.135	19.29
880.569	22.49
881.002	27.49
881.435	25.69
881.868	15.99
882.301	21.99
882.734	17.39
883.167	28.89
883.601	19.89
884.034	19.29
884.467	18.49
884.899	25.99
885.332	20.39
885.765	22.79
886.198	19.29
886.631	24.29
887.064	20.99
887.497	19.49
887.929	25.89
888.362	11.89
888.795	12.99
889.228	20.89
889.66	17.29
890.093	19.59
890.526	22.99
890.958	15.49
891.391	16.29
891.823	21.29
892.256	13.69
892.688	13.69
893.121	18.89
893.553	17.29
893.985	21.89
894.418	17.69
894.85	11.89
895.282	10.99
895.715	16.19
896.147	14.79
896.579	19.99
897.011	16.69
897.444	22.49
897.876	18.99
898.308	21.39
898.74	20.29
899.172	14.19
899.604	21.09
900.036	22.49
900.468	18.79
900.9	17.99
901.332	20.69
901.764	10.69
902.196	17.49
902.628	15.59
903.06	19.79
903.491	30.99
903.923	27.19
904.355	25.69
904.787	29.19
905.218	21.59
905.65	23.29
906.082	17.29
906.513	13.19
906.945	16.39
907.376	14.79
907.808	25.69
908.239	18.49
908.671	16.49
909.102	25.99
909.534	30.59
909.965	50.99
910.397	107.19
910.828	341.49
911.259	497.19
911.691	232.59
912.122	120.59
912.553	52.49
912.984	34.39
913.415	31.09
913.847	25.69
914.278	19.89
914.709	10.89
915.14	20.49
915.571	21.69
916.002	13.19
916.433	18.59
916.864	16.09
917.295	12.99
917.726	20.99
918.157	16.09
918.587	30.49
919.018	27.89
919.449	17.79
919.88	27.89
920.311	35.09
920.741	51.79
921.172	180.79
921.603	163.09
922.033	76.09
922.464	42.69
922.895	24.19
923.325	19.19
923.756	20.09
924.186	21.79
924.617	21.19
925.047	26.29
925.478	24.49
925.908	23.39
926.338	17.69
926.769	10.79
927.199	14.19
927.629	4.79
928.06	16.79
928.49	9.99
928.92	15.39
929.35	9.29
929.78	12.89
930.21	5.09
930.641	8.99
931.071	10.39
931.501	2.69
931.931	10.19
932.361	6.19
932.791	5.89
933.221	12.89
933.651	6.59
934.08	21.29
934.51	35.39
934.94	8.29
935.37	12.39
935.8	13.29
936.229	4.59
936.659	14.39
937.089	-0.41
937.519	9.89
937.948	20.79
938.378	18.89
938.807	13.59
939.237	10.09
939.666	6.69
940.096	-2.11
940.525	2.29
940.955	5.69
941.384	1.09
941.814	-3.21
942.243	-3.11
942.672	0.59
943.102	-0.91
943.531	4.19
943.96	5.29
944.39	6.79
944.819	-0.11
945.248	4.29
945.677	1.59
946.106	2.19
946.535	4.29
946.964	-7.11
947.393	3.19
947.822	-3.91
948.251	-1.91
948.68	3.79
949.109	7.09
949.538	10.49
949.967	5.89
950.396	-0.01
950.825	-5.91
951.254	-2.81
951.682	-8.71
952.111	0.09
952.54	4.69
952.969	-2.01
953.397	-3.51
953.826	6.39
954.254	-4.01
954.683	4.49
955.112	-4.11
955.54	0.19
955.969	1.39
956.397	-0.11
956.826	-3.71
957.254	2.59
957.682	-0.11
958.111	11.59
958.539	-1.41
958.967	2.39
959.396	1.59
959.824	-2.81
960.252	-1.31
960.68	-4.61
961.109	-8.11
961.537	-1.41
961.965	8.29
962.393	-0.41
962.821	-4.31
963.249	-0.61
963.677	3.09
964.105	1.59
964.533	47.59
964.961	43.29
965.389	22.59
965.817	9.59
966.245	2.29
966.672	0.29
967.1	-5.51
967.528	-0.91
967.956	0.39
968.383	1.29
968.811	-2.81
969.239	-3.21
969.666	-3.51
970.094	4.29
970.522	-0.91
970.949	0.79
971.377	-6.01
971.804	-3.51
972.232	-2.51
972.659	-1.41
973.087	-3.41
973.514	-9.11
973.941	-9.81
974.369	5.89
974.796	3.89
975.223	0.69
975.651	-0.61
976.078	0.49
976.505	-5.61
976.932	2.49
977.359	16.29
977.786	21.29
978.214	4.89
978.641	-3.71
979.068	1.59
979.495	-8.01
979.922	-5.21
980.349	-2.81
980.776	3.59
981.202	0.29
981.629	4.99
982.056	-0.31
982.483	-1.61
982.91	2.49
983.337	-10.11
983.763	5.79
984.19	-8.51
984.617	1.59
985.043	-5.51
985.47	-1.81
985.897	-2.51
986.323	-6.41
986.75	6.99
987.176	0.69
987.603	0.89
988.029	1.59
988.456	-2.41
988.882	3.89
989.308	-4.91
989.735	-0.31
990.161	2.79
990.587	-9.01
991.014	2.59
991.44	2.19
991.866	-9.11
992.292	-4.71
992.719	-4.41
993.145	-2.71
993.571	-8.31
993.997	-2.31
994.423	-4.01
994.849	-7.01
995.275	0.79
995.701	-5.71
996.127	-0.31
996.553	0.59
996.979	-8.01
997.405	-4.51
997.83	2.29
998.256	-9.71
998.682	-7.01
999.108	-4.61
999.534	-1.91
999.959	-5.31
1000.385	-1.31
1000.811	3.49
1001.236	-6.01
1001.662	-2.21
1002.087	-9.01
1002.513	5.39
1002.938	2.09
1003.364	-4.91
1003.789	-3.11
1004.215	3.89
1004.64	1.59
1005.066	-5.51
1005.491	0.59
1005.916	-5.11
1006.342	-6.91
1006.767	-9.21
1007.192	2.89
1007.617	-0.11
1008.042	-4.71
1008.468	-10.31
1008.893	-2.81
1009.318	-3.71
1009.743	-3.31
1010.168	6.89
1010.593	1.89
1011.018	-11.01
1011.443	-4.91
1011.868	-1.71
1012.293	-0.91
1012.718	-6.41
1013.143	-0.51
1013.567	1.99
1013.992	-2.71
1014.417	-14.91
1014.842	-4.51
1015.267	0.29
1015.691	-3.31
1016.116	6.19
1016.541	-6.81
1016.965	3.29
1017.39	4.59
1017.814	-1.81
1018.239	-1.71
1018.663	-10.21
1019.088	-12.91
1019.512	-2.91
1019.937	-1.91
1020.361	-7.51
1020.785	-9.21
1021.21	-9.61
1021.634	-3.81
1022.058	-5.01
1022.483	0.89
1022.907	-6.01
1023.331	-7.61
1023.755	-0.61
1024.179	0.69
1024.604	-10.41
1025.028	-8.41
1025.452	-5.51
1025.876	-3.21
1026.3	-5.81
1026.724	-15.71
1027.148	-7.81
1027.572	-9.31
1027.996	0.89
1028.42	-3.01
1028.843	-1.91
1029.267	-3.61
1029.691	-6.31
1030.115	-7.81
1030.539	-0.31
1030.962	-4.21
1031.386	-7.21
1031.81	-1.91
1032.233	2.39
1032.657	-1.01
1033.08	-3.31
1033.504	-8.81
1033.927	-8.71
1034.351	1.99
1034.774	1.29
1035.198	-3.11
1035.621	-3.31
1036.045	-6.71
1036.468	-0.91
1036.891	-12.41
1037.315	-9.71
1037.738	-9.91
1038.161	-1.91
1038.584	-3.71
1039.008	-9.91
1039.431	-3.41
1039.854	-1.81
1040.277	-5.71
1040.7	-7.51
1041.123	-0.71
1041.546	-12.41
1041.969	-5.51
1042.392	-9.81
1042.815	3.39
1043.238	2.29
1043.661	4.69
1044.084	-6.11
1044.507	-8.31
1044.93	-7.01
1045.352	-6.81
1045.775	1.69
1046.198	-6.21
1046.621	-2.61
1047.043	-6.31
1047.466	5.19
1047.889	-1.31
1048.311	-7.51
1048.734	-5.11
1049.156	-4.01
1049.579	-2.91
1050.001	-12.41
1050.424	-5.61
1050.846	-4.51
1051.269	-4.51
1051.691	-3.41
1052.113	-2.11
1052.536	-4.31
1052.958	-4.91
1053.38	-4.21
1053.802	-14.81
1054.225	-7.81
1054.647	-6.21
1055.069	-5.21
1055.491	4.59
1055.913	-4.11
1056.335	-3.11
1056.757	-8.11
1057.179	-4.01
1057.601	-4.71
1058.023	-1.61
1058.445	-5.71
1058.867	-5.41
1059.289	-11.71
1059.711	-8.01
1060.133	0.59
1060.555	-3.61
1060.976	-3.21
1061.398	-9.21
1061.82	-7.71
1062.241	-13.21
1062.663	-8.51
1063.085	-4.01
1063.506	-1.81
1063.928	0.89
1064.35	-1.61
1064.771	-18.61
1065.193	-9.21
1065.614	-13.21
1066.035	-1.91
1066.457	-2.31
1066.878	-2.61
1067.3	-5.21
1067.721	-2.61
1068.142	-7.11
1068.564	-1.61
1068.985	-4.51
1069.406	-3.01
1069.827	-11.71
1070.248	-4.21
1070.67	-4.61
1071.091	-5.31
1071.512	-5.61
1071.933	-4.71
1072.354	-5.71
1072.775	-4.61
1073.196	-9.91
1073.617	-4.71
1074.038	-4.41
1074.459	-10.41
1074.88	-8.51
1075.3	0.29
1075.721	-7.41
1076.142	-1.21
1076.563	-3.11
1076.983	-10.61
1077.404	-0.81
1077.825	-6.81
1078.246	-7.61
1078.666	-13.81
1079.087	0.79
1079.507	-2.81
1079.928	0.09
1080.348	1.19
1080.769	-7.11
1081.189	-7.01
1081.61	-1.51
1082.03	-8.31
1082.451	-11.61
1082.871	-4.71
1083.291	-5.61
1083.711	-5.11
1084.132	-7.01
1084.552	-3.71
1084.972	0.29
1085.392	-9.21
1085.813	-14.61
1086.233	-13.11
1086.653	-1.41
1087.073	1.69
1087.493	-7.71
1087.913	-2.91
1088.333	-8.21
1088.753	-2.51
1089.173	-2.61
1089.593	-5.61
1090.013	-1.61
1090.433	1.29
1090.852	-2.51
1091.272	-4.01
1091.692	-4.01
1092.112	-3.91
1092.531	-3.51
1092.951	-12.41
1093.371	0.19
1093.79	-6.11
1094.21	-11.01
1094.63	-10.91
1095.049	-9.01
1095.469	1.39
1095.888	-2.31
1096.308	1.39
1096.727	-1.41
1097.146	-9.81
1097.566	-2.01
1097.985	-1.81
1098.405	-3.91
1098.824	-5.91
1099.243	-10.31
1099.662	-10.01
1100.082	-3.81
1100.501	-4.61
1100.92	-7.91
1101.339	-2.91
1101.758	-3.91
