Data from 20171114-ORNL-Ar_H_NY_Subt18_08-07-51-362.txt Node
Date: Tue Nov 14 08:07:51 EST 2017
User: Ender
Spectrometer: HR+D1039
Trigger mode: 0
Integration Time (sec): 2.730000E-2
Scans to average: 10
Electric dark correction enabled: true
Nonlinearity correction enabled: false
Boxcar width: 0
XAxis mode: Wavelengths
Number of Pixels in Spectrum: 2048
>>>>>Begin Spectral Data<<<<<
187.836	-0.98
188.309	-0.98
188.782	-0.98
189.255	2.02
189.728	-4.88
190.201	5.42
190.674	2.73
191.147	2.62
191.619	-8.78
192.092	6.93
192.565	5.72
193.038	0.02
193.511	-2.08
193.984	-0.38
194.456	2.62
194.929	-3.57
195.402	-7.58
195.874	0.12
196.347	-0.68
196.82	-2.67
197.292	8.32
197.765	4.62
198.237	-6.17
198.71	4.82
199.182	1.12
199.655	8.73
200.127	1.72
200.6	-1.77
201.072	-4.18
201.544	-4.48
202.017	-3.27
202.489	6.52
202.961	0.83
203.433	-1.38
203.906	-7.38
204.378	-10.17
204.85	-4.18
205.322	-9.98
205.794	-3.08
206.266	-1.38
206.739	-12.67
207.211	0.93
207.683	-4.77
208.155	-2.98
208.627	-4.77
209.099	-3.38
209.57	-6.57
210.042	-3.38
210.514	0.93
210.986	3.02
211.458	-10.88
211.93	-4.28
212.402	0.73
212.873	-7.27
213.345	-9.57
213.817	-10.88
214.288	-2.58
214.76	-7.48
215.232	-0.88
215.703	2.12
216.175	-0.38
216.646	-5.27
217.118	-9.08
217.589	0.43
218.061	-2.08
218.532	-2.57
219.004	-0.17
219.475	-2.88
219.946	-2.38
220.418	-0.38
220.889	5.52
221.36	-1.77
221.832	-8.38
222.303	-9.98
222.774	2.23
223.245	-5.97
223.717	-2.68
224.188	-1.67
224.659	-9.58
225.13	-9.27
225.601	-0.48
226.072	0.62
226.543	-4.88
227.014	4.12
227.485	0.52
227.956	-4.67
228.427	2.93
228.898	4.23
229.369	6.32
229.839	-6.27
230.31	-5.88
230.781	2.62
231.252	-1.77
231.722	0.42
232.193	2.33
232.664	1.73
233.135	3.32
233.605	0.33
234.076	-8.48
234.546	2.32
235.017	4.02
235.487	4.23
235.958	1.83
236.428	-6.88
236.899	4.93
237.369	5.73
237.84	-0.77
238.31	6.42
238.78	4.53
239.251	-1.38
239.721	3.12
240.191	1.83
240.662	-0.27
241.132	-1.17
241.602	-0.48
242.072	0.52
242.542	8.23
243.013	2.82
243.483	6.23
243.953	6.83
244.423	0.83
244.893	1.32
245.363	1.72
245.833	4.83
246.303	-0.17
246.773	7.92
247.243	-1.18
247.712	-0.18
248.182	5.92
248.652	15.42
249.122	1.02
249.592	5.23
250.061	22.23
250.531	32.93
251.001	11.43
251.471	20.62
251.94	13.52
252.41	7.53
252.879	0.62
253.349	14.92
253.818	10.02
254.288	7.73
254.757	5.93
255.227	-2.67
255.696	-1.38
256.166	7.73
256.635	12.83
257.105	13.23
257.574	4.82
258.043	7.62
258.513	10.92
258.982	18.53
259.451	5.02
259.92	13.73
260.389	10.93
260.859	18.02
261.328	10.03
261.797	19.53
262.266	8.73
262.735	13.23
263.204	6.12
263.673	6.73
264.142	5.03
264.611	-0.77
265.08	1.32
265.549	1.23
266.018	5.33
266.487	-0.78
266.955	0.12
267.424	2.02
267.893	7.73
268.362	2.23
268.83	1.33
269.299	7.73
269.768	2.92
270.236	5.02
270.705	0.73
271.174	5.73
271.642	10.23
272.111	13.33
272.579	12.02
273.048	19.02
273.516	25.62
273.985	26.02
274.453	22.52
274.922	21.82
275.39	5.72
275.858	8.92
276.327	13.73
276.795	14.43
277.263	11.02
277.731	33.42
278.2	56.42
278.668	53.02
279.136	48.33
279.604	18.73
280.072	17.12
280.54	4.12
281.008	5.42
281.477	19.02
281.945	11.52
282.413	8.82
282.881	18.73
283.348	6.33
283.816	18.23
284.284	12.12
284.752	19.82
285.22	9.23
285.688	9.42
286.156	18.83
286.623	43.33
287.091	49.83
287.559	33.02
288.026	26.33
288.494	21.62
288.962	11.92
289.429	9.02
289.897	17.93
290.364	16.73
290.832	19.53
291.3	19.52
291.767	18.93
292.234	17.83
292.702	14.93
293.169	24.93
293.637	25.12
294.104	17.92
294.571	8.72
295.039	11.23
295.506	13.62
295.973	20.73
296.44	14.12
296.908	14.62
297.375	15.92
297.842	20.52
298.309	17.52
298.776	11.62
299.243	20.12
299.71	11.82
300.177	22.83
300.644	20.93
301.111	23.43
301.578	25.82
302.045	15.62
302.512	28.33
302.979	23.02
303.446	25.52
303.913	20.43
304.379	15.52
304.846	25.33
305.313	24.02
305.78	24.12
306.246	28.02
306.713	25.72
307.18	18.93
307.646	26.72
308.113	29.02
308.579	23.73
309.046	27.33
309.512	21.62
309.979	17.92
310.445	30.73
310.912	35.02
311.378	28.52
311.845	26.83
312.311	22.92
312.777	30.12
313.244	33.33
313.71	39.33
314.176	32.12
314.642	28.23
315.109	29.33
315.575	34.62
316.041	37.33
316.507	33.82
316.973	37.23
317.439	33.62
317.905	36.53
318.371	38.12
318.837	34.03
319.303	34.12
319.769	32.33
320.235	35.92
320.701	33.22
321.167	35.92
321.633	34.83
322.099	35.52
322.564	42.73
323.03	43.42
323.496	30.02
323.962	39.43
324.427	39.52
324.893	38.22
325.359	35.72
325.824	38.62
326.29	35.32
326.755	35.92
327.221	34.82
327.686	39.33
328.152	48.53
328.617	37.02
329.083	44.73
329.548	48.32
330.014	49.33
330.479	38.62
330.944	39.22
331.41	44.42
331.875	45.12
332.34	39.62
332.805	40.32
333.271	44.92
333.736	45.83
334.201	53.43
334.666	46.82
335.131	52.42
335.596	47.72
336.061	51.73
336.526	50.82
336.991	44.33
337.456	50.53
337.921	45.62
338.386	43.52
338.851	37.22
339.316	43.83
339.781	42.12
340.246	44.52
340.711	46.62
341.175	52.52
341.64	39.02
342.105	54.02
342.569	53.52
343.034	56.72
343.499	47.62
343.963	46.43
344.428	61.33
344.893	59.72
345.357	58.23
345.822	65.42
346.286	71.02
346.751	69.33
347.215	62.02
347.679	70.43
348.144	91.73
348.608	83.83
349.073	61.52
349.537	69.62
350.001	77.73
350.465	83.43
350.93	78.42
351.394	80.93
351.858	70.73
352.322	79.33
352.786	84.12
353.25	96.62
353.715	105.02
354.179	99.32
354.643	112.53
355.107	117.12
355.571	97.52
356.035	101.02
356.498	118.12
356.962	119.32
357.426	126.92
357.89	111.12
358.354	92.12
358.818	80.83
359.281	68.93
359.745	72.33
360.209	72.12
360.673	77.83
361.136	75.62
361.6	76.42
362.064	81.23
362.527	79.42
362.991	87.12
363.454	76.12
363.918	72.33
364.381	76.73
364.845	76.73
365.308	86.52
365.772	89.42
366.235	85.92
366.698	83.42
367.162	87.32
367.625	87.23
368.088	87.02
368.552	87.62
369.015	89.33
369.478	96.73
369.941	97.82
370.404	92.22
370.867	103.82
371.331	105.32
371.794	114.42
372.257	104.43
372.72	115.52
373.183	109.43
373.646	103.42
374.109	99.93
374.572	105.62
375.035	105.23
375.497	108.42
375.96	103.93
376.423	104.32
376.886	110.83
377.349	103.52
377.811	100.52
378.274	99.83
378.737	100.62
379.199	108.33
379.662	109.33
380.125	114.23
380.587	115.83
381.05	119.83
381.512	128.72
381.975	127.92
382.437	129.02
382.9	124.32
383.362	133.12
383.825	145.73
384.287	141.92
384.75	139.73
385.212	135.32
385.674	139.52
386.136	136.33
386.599	121.73
387.061	131.33
387.523	124.83
387.985	134.92
388.447	143.52
388.91	137.43
389.372	155.93
389.834	151.12
390.296	147.62
390.758	151.73
391.22	162.23
391.682	211.12
392.144	300.43
392.606	225.62
393.068	169.73
393.529	166.22
393.991	146.43
394.453	141.62
394.915	154.42
395.377	189.33
395.838	205.43
396.3	155.52
396.762	140.53
397.224	136.82
397.685	126.92
398.147	130.33
398.608	134.33
399.07	125.02
399.531	130.12
399.993	143.03
400.454	152.42
400.916	147.73
401.377	146.23
401.839	144.32
402.3	147.73
402.762	162.23
403.223	177.73
403.684	174.72
404.145	156.32
404.607	164.52
405.068	165.23
405.529	166.62
405.99	188.12
406.451	175.42
406.913	168.62
407.374	160.23
407.835	164.62
408.296	169.03
408.757	176.42
409.218	183.62
409.679	177.43
410.14	175.23
410.601	173.12
411.062	184.23
411.522	191.62
411.983	191.92
412.444	173.73
412.905	178.53
413.366	183.42
413.826	193.62
414.287	213.43
414.748	267.43
415.208	244.62
415.669	209.72
416.13	203.52
416.59	202.42
417.051	202.33
417.511	215.12
417.972	234.42
418.432	249.43
418.893	290.23
419.353	248.23
419.814	194.42
420.274	176.92
420.734	183.02
421.195	191.72
421.655	192.12
422.115	191.22
422.576	192.32
423.036	196.23
423.496	208.42
423.956	213.33
424.416	222.62
424.876	266.72
425.336	259.33
425.797	257.62
426.257	258.42
426.717	240.42
427.177	231.13
427.637	217.03
428.097	228.12
428.556	245.82
429.016	257.32
429.476	259.83
429.936	267.42
430.396	270.62
430.856	295.33
431.315	314.33
431.775	353.33
432.235	378.02
432.694	354.03
433.154	358.82
433.614	390.12
434.073	329.83
434.533	292.72
434.993	273.43
435.452	290.82
435.912	297.83
436.371	287.53
436.83	275.83
437.29	264.83
437.749	253.63
438.209	238.73
438.668	273.93
439.127	277.52
439.587	255.83
440.046	250.32
440.505	262.03
440.964	269.12
441.424	326.42
441.883	313.83
442.342	265.92
442.801	232.23
443.26	221.23
443.719	229.52
444.178	212.52
444.637	211.03
445.096	219.22
445.555	223.32
446.014	225.33
446.473	227.82
446.932	231.33
447.391	219.52
447.849	226.22
448.308	227.32
448.767	224.42
449.226	233.53
449.685	235.12
450.143	247.73
450.602	240.72
451.061	222.52
451.519	230.73
451.978	230.12
452.436	234.32
452.895	242.33
453.353	252.83
453.812	249.12
454.27	243.93
454.729	233.33
455.187	239.12
455.646	241.53
456.104	249.02
456.562	263.53
457.021	264.12
457.479	259.12
457.937	266.92
458.395	267.62
458.854	244.43
459.312	254.43
459.77	269.02
460.228	256.42
460.686	239.12
461.144	246.73
461.602	239.72
462.06	237.92
462.518	248.83
462.976	258.92
463.434	256.82
463.892	256.02
464.35	265.72
464.808	289.23
465.266	264.73
465.724	266.53
466.181	266.43
466.639	267.73
467.097	286.32
467.555	302.63
468.012	293.73
468.47	306.32
468.928	317.33
469.385	344.23
469.843	347.52
470.3	347.42
470.758	358.43
471.215	383.02
471.673	409.73
472.13	403.62
472.588	422.93
473.045	372.23
473.503	381.12
473.96	391.32
474.417	403.32
474.875	434.02
475.332	476.32
475.789	466.12
476.246	466.42
476.704	482.92
477.161	501.73
477.618	514.93
478.075	556.53
478.532	616.23
478.989	691.82
479.446	797.03
479.903	772.92
480.36	802.23
480.817	850.72
481.274	963.93
481.731	1063.83
482.188	1154.43
482.645	1283.12
483.102	1394.62
483.558	1517.62
484.015	1560.33
484.472	1542.22
484.929	1495.03
485.385	1450.62
485.842	1412.53
486.299	1341.42
486.755	1278.83
487.212	1082.12
487.668	922.02
488.125	834.32
488.582	765.53
489.038	743.62
489.494	707.03
489.951	675.02
490.407	652.53
490.864	635.22
491.32	633.63
491.776	639.02
492.233	645.52
492.689	614.52
493.145	605.22
493.602	603.02
494.058	606.62
494.514	613.12
494.97	628.62
495.426	644.23
495.882	617.63
496.338	608.63
496.794	618.93
497.251	612.73
497.707	629.42
498.163	631.12
498.618	635.33
499.074	629.13
499.53	662.42
499.986	664.62
500.442	656.12
500.898	623.42
501.354	632.72
501.809	624.12
502.265	638.82
502.721	650.72
503.177	669.73
503.632	663.43
504.088	674.33
504.543	698.92
504.999	698.23
505.455	654.12
505.91	620.93
506.366	623.82
506.821	624.42
507.277	627.62
507.732	617.33
508.187	621.02
508.643	633.23
509.098	625.82
509.553	650.52
510.009	657.03
510.464	671.62
510.919	681.52
511.375	685.92
511.83	701.52
512.285	715.72
512.74	761.63
513.195	779.63
513.65	764.92
514.105	766.83
514.56	768.22
515.015	780.83
515.47	800.13
515.925	775.33
516.38	768.23
516.835	772.52
517.29	786.83
517.745	774.73
518.2	755.72
518.655	740.92
519.109	734.73
519.564	725.42
520.019	721.73
520.474	710.53
520.928	713.62
521.383	714.42
521.838	703.32
522.292	710.13
522.747	712.13
523.201	697.42
523.656	695.52
524.11	691.92
524.565	684.02
525.019	679.12
525.474	703.82
525.928	704.42
526.382	693.43
526.837	699.73
527.291	700.52
527.745	699.42
528.2	694.42
528.654	684.02
529.108	679.43
529.562	685.52
530.016	686.23
530.47	685.02
530.925	687.82
531.379	693.32
531.833	693.62
532.287	697.52
532.741	700.03
533.195	699.03
533.649	704.02
534.103	715.73
534.556	705.22
535.01	712.62
535.464	702.73
535.918	715.12
536.372	715.62
536.826	712.72
537.279	704.53
537.733	709.93
538.187	716.12
538.64	711.72
539.094	723.13
539.548	729.42
540.001	717.72
540.455	723.62
540.908	722.12
541.362	737.52
541.815	742.23
542.269	758.22
542.722	758.23
543.175	755.12
543.629	769.33
544.082	772.32
544.536	779.82
544.989	780.03
545.442	780.02
545.895	782.42
546.349	779.03
546.802	791.33
547.255	797.43
547.708	805.82
548.161	804.83
548.614	813.92
549.067	831.52
549.52	816.23
549.973	812.73
550.426	808.12
550.879	790.52
551.332	801.33
551.785	797.52
552.238	809.62
552.691	813.23
553.144	826.42
553.596	837.03
554.049	849.43
554.502	890.93
554.955	910.12
555.407	915.12
555.86	892.82
556.313	883.73
556.765	868.03
557.218	883.12
557.67	879.52
558.123	879.02
558.576	865.32
559.028	874.92
559.48	877.42
559.933	864.43
560.385	831.22
560.838	809.22
561.29	780.73
561.742	787.73
562.195	769.43
562.647	766.33
563.099	779.62
563.551	777.02
564.004	775.72
564.456	769.53
564.908	752.72
565.36	746.12
565.812	731.12
566.264	731.92
566.716	729.73
567.168	711.02
567.62	726.92
568.072	704.23
568.524	699.33
568.976	683.62
569.428	679.82
569.88	681.43
570.332	680.23
570.784	678.83
571.235	681.12
571.687	682.13
572.139	701.92
572.59	704.33
573.042	705.42
573.494	706.42
573.945	704.02
574.397	684.02
574.849	685.62
575.3	681.13
575.752	685.12
576.203	680.72
576.655	692.42
577.106	670.73
577.557	660.62
578.009	676.62
578.46	669.92
578.912	657.92
579.363	669.43
579.814	670.42
580.265	667.62
580.717	665.12
581.168	661.12
581.619	676.12
582.07	677.42
582.521	672.22
582.972	670.53
583.423	682.22
583.875	685.32
584.326	702.42
584.777	747.22
585.227	829.02
585.678	917.23
586.129	999.92
586.58	1075.83
587.031	1163.62
587.482	1309.73
587.933	1493.72
588.384	1310.53
588.834	977.93
589.285	810.92
589.736	780.82
590.186	774.42
590.637	762.93
591.088	750.23
591.538	737.13
591.989	726.82
592.439	722.42
592.89	721.22
593.34	716.82
593.791	717.92
594.241	707.33
594.692	710.23
595.142	703.52
595.593	702.02
596.043	712.72
596.493	714.43
596.943	722.53
597.394	719.02
597.844	717.02
598.294	727.73
598.744	757.62
599.195	769.63
599.645	822.73
600.095	869.03
600.545	925.72
600.995	965.92
601.445	1024.42
601.895	1078.23
602.345	1127.12
602.795	1115.03
603.245	1063.53
603.695	1012.33
604.145	960.23
604.594	908.12
605.044	857.32
605.494	789.22
605.944	744.52
606.393	747.33
606.843	729.12
607.293	736.92
607.743	726.82
608.192	747.72
608.642	755.43
609.091	757.33
609.541	768.62
609.99	774.42
610.44	769.53
610.889	712.42
611.339	706.33
611.788	682.42
612.238	694.62
612.687	713.62
613.136	722.63
613.586	742.83
614.035	729.23
614.484	764.52
614.933	758.62
615.383	748.93
615.832	733.83
616.281	728.42
616.73	694.23
617.179	670.42
617.628	653.02
618.077	640.52
618.526	630.72
618.975	619.12
619.424	611.92
619.873	612.83
620.322	625.73
620.771	604.32
621.22	609.72
621.669	603.83
622.118	586.83
622.567	575.03
623.015	573.52
623.464	576.32
623.913	566.83
624.361	551.62
624.81	557.23
625.259	563.33
625.707	561.73
626.156	561.43
626.604	573.72
627.053	572.83
627.501	565.52
627.95	571.23
628.398	585.92
628.847	572.62
629.295	567.52
629.744	573.83
630.192	572.53
630.64	577.72
631.089	563.52
631.537	587.23
631.985	592.93
632.433	600.93
632.881	596.33
633.33	665.42
633.778	642.02
634.226	567.03
634.674	577.42
635.122	575.03
635.57	603.42
636.018	639.93
636.466	582.02
636.914	556.32
637.362	576.83
637.81	569.62
638.258	589.73
638.705	584.32
639.153	607.62
639.601	625.23
640.049	642.33
640.497	666.83
640.944	695.92
641.392	647.12
641.84	612.33
642.287	579.63
642.735	570.22
643.182	577.53
643.63	582.62
644.078	576.03
644.525	588.22
644.973	599.62
645.42	605.33
645.867	625.23
646.315	643.23
646.762	668.62
647.21	692.62
647.657	711.22
648.104	751.32
648.551	772.32
648.999	847.73
649.446	929.43
649.893	1021.72
650.34	1176.62
650.787	1397.03
651.234	1744.03
651.682	2282.12
652.129	3136.32
652.576	4529.12
653.023	6682.03
653.47	9127.82
653.917	11357.22
654.363	13018.12
654.81	14314.23
655.257	13594.83
655.704	8916.62
656.151	5247.73
656.598	3394.92
657.044	2398.32
657.491	1850.22
657.938	1495.32
658.385	1237.33
658.831	1079.83
659.278	962.52
659.724	852.12
660.171	785.33
660.618	726.23
661.064	689.33
661.511	674.13
661.957	658.53
662.404	647.23
662.85	661.33
663.296	626.52
663.743	566.22
664.189	544.62
664.635	535.93
665.082	534.93
665.528	530.62
665.974	517.93
666.42	516.33
666.867	512.12
667.313	498.32
667.759	483.53
668.205	481.92
668.651	489.12
669.097	481.42
669.543	507.83
669.989	472.73
670.435	453.12
670.881	450.12
671.327	453.12
671.773	479.52
672.219	495.33
672.665	549.03
673.11	590.92
673.556	635.73
674.002	668.82
674.448	653.52
674.893	553.32
675.339	477.53
675.785	445.02
676.23	420.72
676.676	396.32
677.122	380.62
677.567	378.12
678.013	362.43
678.458	366.13
678.904	361.92
679.349	351.93
679.794	359.82
680.24	352.83
680.685	346.82
681.131	346.52
681.576	353.62
682.021	359.32
682.466	350.22
682.912	344.33
683.357	357.32
683.802	387.62
684.247	417.33
684.692	464.42
685.137	497.82
685.583	534.62
686.028	561.72
686.473	517.72
686.918	449.42
687.363	420.33
687.807	398.12
688.252	369.03
688.697	357.03
689.142	336.43
689.587	340.72
690.032	325.72
690.477	345.42
690.921	359.33
691.366	391.12
691.811	408.92
692.255	440.43
692.7	468.73
693.145	517.62
693.589	716.33
694.034	1149.72
694.478	1563.13
694.923	1714.83
695.367	2240.53
695.812	1192.83
696.256	499.12
696.701	376.12
697.145	348.93
697.59	335.42
698.034	321.22
698.478	329.12
698.922	324.62
699.367	326.82
699.811	342.02
700.255	362.42
700.699	393.93
701.143	432.73
701.588	480.62
702.032	517.82
702.476	512.23
702.92	486.83
703.364	498.42
703.808	655.62
704.252	1058.32
704.696	1457.92
705.14	1662.03
705.584	2120.22
706.027	1069.62
706.471	527.33
706.915	397.72
707.359	350.23
707.803	330.52
708.246	323.42
708.69	315.03
709.134	321.23
709.577	318.32
710.021	322.83
710.465	314.42
710.908	302.93
711.352	305.32
711.795	320.72
712.239	353.82
712.682	391.62
713.126	416.42
713.569	466.62
714.012	364.63
714.456	322.42
714.899	294.52
715.342	273.73
715.786	265.02
716.229	259.83
716.672	259.93
717.115	251.23
717.558	261.53
718.002	257.53
718.445	270.02
718.888	299.83
719.331	296.42
719.774	311.12
720.217	307.23
720.66	284.03
721.103	270.53
721.546	263.12
721.989	253.72
722.432	238.23
722.874	243.92
723.317	232.93
723.76	237.32
724.203	263.52
724.645	325.02
725.088	455.83
725.531	575.72
725.974	640.33
726.416	549.12
726.859	312.12
727.301	243.23
727.744	237.92
728.187	235.03
728.629	242.62
729.071	243.13
729.514	259.23
729.956	275.42
730.399	289.12
730.841	292.92
731.283	274.62
731.726	269.92
732.168	264.93
732.61	268.92
733.053	296.33
733.495	307.33
733.937	358.92
734.379	393.92
734.821	442.32
735.263	541.72
735.705	858.43
736.148	1614.43
736.59	2602.02
737.032	3013.32
737.474	2449.93
737.916	808.23
738.357	430.23
738.799	329.62
739.241	298.82
739.683	281.42
740.125	292.12
740.567	299.62
741.008	319.62
741.45	315.93
741.892	313.52
742.334	349.23
742.775	356.12
743.217	337.72
743.658	277.12
744.1	256.12
744.542	267.23
744.983	318.43
745.425	348.42
745.866	347.43
746.307	286.32
746.749	283.52
747.19	322.42
747.632	463.03
748.073	915.62
748.514	1897.92
748.956	2854.12
749.397	3597.62
749.838	2954.23
750.279	2923.53
750.72	1487.73
751.162	545.32
751.603	322.12
752.044	258.92
752.485	222.93
752.926	217.53
753.367	196.12
753.808	195.42
754.249	192.62
754.69	193.02
755.131	186.93
755.572	183.12
756.013	178.42
756.453	189.52
756.894	190.93
757.335	187.73
757.776	193.83
758.216	194.22
758.657	199.62
759.098	206.52
759.538	223.73
759.979	272.22
760.42	383.23
760.86	725.43
761.301	1903.32
761.741	4496.52
762.182	6362.43
762.622	4450.23
763.063	1302.12
763.503	534.22
763.943	343.03
764.384	351.83
764.824	414.92
765.264	451.02
765.705	316.22
766.145	212.23
766.585	192.02
767.025	181.22
767.465	190.82
767.906	252.23
768.346	317.33
768.786	356.83
769.226	273.13
769.666	332.52
770.106	643.22
770.546	1597.43
770.986	2632.73
771.426	2345.02
771.866	789.33
772.306	335.13
772.745	214.23
773.185	181.52
773.625	165.92
774.065	163.12
774.505	204.92
774.944	315.62
775.384	689.92
775.824	1212.73
776.263	1165.72
776.703	500.92
777.142	224.32
777.582	161.42
778.021	137.73
778.461	139.43
778.9	141.52
779.34	136.73
779.779	125.93
780.219	107.73
780.658	109.33
781.097	113.23
781.537	117.73
781.976	108.12
782.415	115.02
782.855	109.33
783.294	104.33
783.733	113.33
784.172	107.92
784.611	109.23
785.05	113.62
785.489	117.62
785.928	117.23
786.367	121.73
786.806	121.42
787.245	127.52
787.684	137.73
788.123	153.83
788.562	140.42
789.001	131.12
789.44	130.43
789.879	122.23
790.317	115.92
790.756	131.33
791.195	134.73
791.634	150.83
792.072	203.12
792.511	381.42
792.95	1039.53
793.388	2151.03
793.827	1904.82
794.265	676.62
794.704	281.02
795.142	187.53
795.581	150.82
796.019	143.12
796.458	130.02
796.896	125.52
797.334	134.23
797.773	157.92
798.211	225.23
798.649	448.52
799.087	1042.03
799.526	1605.43
799.964	2019.32
800.402	1996.33
800.84	749.92
801.278	297.43
801.716	191.92
802.154	154.02
802.592	147.53
803.03	145.93
803.468	132.23
803.906	149.52
804.344	149.12
804.782	142.02
805.22	140.62
805.658	132.62
806.096	153.62
806.533	150.33
806.971	181.72
807.409	223.22
807.847	330.22
808.284	689.92
808.722	1912.73
809.16	3287.92
809.597	3186.82
810.035	5453.02
810.472	5644.42
810.91	2052.83
811.347	793.42
811.785	407.42
812.222	268.42
812.66	203.42
813.097	160.62
813.535	140.72
813.972	126.83
814.409	124.02
814.846	111.23
815.284	118.73
815.721	97.02
816.158	107.83
816.595	125.43
817.032	180.62
817.47	194.02
817.907	159.23
818.344	159.12
818.781	116.53
819.218	100.33
819.655	126.23
820.092	190.92
820.529	212.42
820.966	181.62
821.403	133.23
821.839	99.73
822.276	101.12
822.713	126.02
823.15	136.33
823.587	116.92
824.023	148.02
824.46	316.62
824.897	907.32
825.333	1340.72
825.77	572.52
826.206	228.92
826.643	140.92
827.08	103.12
827.516	83.53
827.953	90.33
828.389	87.82
828.825	75.33
829.262	70.73
829.698	65.92
830.135	63.93
830.571	63.52
831.007	66.73
831.443	68.62
831.88	63.23
832.316	69.92
832.752	64.12
833.188	67.73
833.624	67.53
834.06	73.33
834.497	68.62
834.933	69.12
835.369	79.02
835.805	67.12
836.241	78.72
836.677	84.12
837.112	91.22
837.548	108.42
837.984	136.33
838.42	201.83
838.856	507.43
839.292	1523.62
839.727	2266.43
840.163	1058.03
840.599	941.52
841.034	2039.43
841.47	2082.62
841.906	765.83
842.341	334.32
842.777	233.12
843.212	324.33
843.648	299.62
844.083	150.02
844.519	101.33
844.954	78.83
845.39	59.43
845.825	57.92
846.261	65.93
846.696	53.42
847.131	55.43
847.566	54.32
848.002	56.52
848.437	56.12
848.872	64.43
849.307	60.03
849.742	87.23
850.177	186.93
850.613	556.23
851.048	872.53
851.483	381.83
851.918	156.82
852.353	89.62
852.788	62.32
853.223	55.52
853.657	58.82
854.092	48.73
854.527	46.32
854.962	42.82
855.397	43.62
855.832	51.73
856.266	40.62
856.701	44.93
857.136	41.02
857.57	44.33
858.005	54.43
858.44	59.62
858.874	47.53
859.309	51.53
859.743	39.73
860.178	44.32
860.612	40.92
861.047	52.92
861.481	66.52
861.915	72.93
862.35	51.92
862.784	38.62
863.218	36.02
863.653	35.73
864.087	46.62
864.521	53.12
864.955	72.73
865.39	168.02
865.824	177.53
866.258	113.23
866.692	171.12
867.126	165.92
867.56	105.92
867.994	51.92
868.428	34.52
868.862	43.43
869.296	48.23
869.73	60.42
870.164	53.23
870.598	46.93
871.031	37.42
871.465	33.02
871.899	34.62
872.333	26.83
872.766	27.62
873.2	20.12
873.634	30.62
874.067	28.52
874.501	22.52
874.935	37.52
875.368	32.32
875.802	29.73
876.235	25.23
876.669	18.83
877.102	21.62
877.535	21.03
877.969	19.93
878.402	21.32
878.836	20.52
879.269	25.23
879.702	24.23
880.135	21.62
880.569	22.42
881.002	27.62
881.435	26.32
881.868	18.02
882.301	22.02
882.734	15.12
883.167	26.33
883.601	22.83
884.034	26.52
884.467	11.83
884.899	19.33
885.332	20.12
885.765	21.62
886.198	15.73
886.631	17.02
887.064	23.83
887.497	17.52
887.929	22.73
888.362	19.52
888.795	9.92
889.228	14.83
889.66	19.02
890.093	19.42
890.526	20.72
890.958	17.93
891.391	15.83
891.823	26.73
892.256	17.33
892.688	7.62
893.121	23.23
893.553	18.52
893.985	21.92
894.418	16.12
894.85	13.43
895.282	14.73
895.715	17.52
896.147	19.83
896.579	17.42
897.011	16.73
897.444	16.52
897.876	16.93
898.308	19.42
898.74	9.12
899.172	14.93
899.604	23.83
900.036	19.32
900.468	11.42
900.9	14.42
901.332	14.22
901.764	19.12
902.196	16.43
902.628	19.02
903.06	17.22
903.491	33.62
903.923	27.92
904.355	22.73
904.787	23.62
905.218	24.73
905.65	20.02
906.082	17.12
906.513	16.62
906.945	14.62
907.376	18.22
907.808	20.62
908.239	22.62
908.671	18.12
909.102	24.83
909.534	27.33
909.965	49.52
910.397	95.82
910.828	318.52
911.259	470.53
911.691	212.23
912.122	109.03
912.553	50.92
912.984	37.12
913.415	29.53
913.847	28.92
914.278	15.62
914.709	16.82
915.14	20.33
915.571	23.33
916.002	13.52
916.433	20.83
916.864	14.23
917.295	17.32
917.726	22.23
918.157	12.52
918.587	32.12
919.018	26.53
919.449	22.03
919.88	23.52
920.311	31.93
920.741	56.22
921.172	166.83
921.603	147.72
922.033	82.02
922.464	47.33
922.895	32.12
923.325	25.43
923.756	14.92
924.186	18.73
924.617	28.62
925.047	41.73
925.478	52.43
925.908	41.92
926.338	23.12
926.769	20.03
927.199	21.23
927.629	12.52
928.06	18.73
928.49	13.73
928.92	13.52
929.35	7.62
929.78	8.52
930.21	7.62
930.641	7.02
931.071	7.92
931.501	6.83
931.931	7.43
932.361	9.73
932.791	6.23
933.221	6.12
933.651	8.03
934.08	13.42
934.51	28.52
934.94	13.73
935.37	9.33
935.8	11.12
936.229	8.23
936.659	11.62
937.089	6.12
937.519	12.12
937.948	21.12
938.378	22.52
938.807	8.42
939.237	7.33
939.666	11.03
940.096	-1.88
940.525	1.92
940.955	5.43
941.384	8.53
941.814	4.02
942.243	0.52
942.672	6.52
943.102	-0.97
943.531	2.62
943.96	0.12
944.39	3.82
944.819	-2.58
945.248	2.83
945.677	2.83
946.106	11.12
946.535	9.62
946.964	4.12
947.393	9.12
947.822	7.53
948.251	-6.28
948.68	2.73
949.109	5.62
949.538	7.23
949.967	4.62
950.396	-2.68
950.825	1.42
951.254	2.03
951.682	-4.68
952.111	0.52
952.54	4.23
952.969	-4.77
953.397	-5.48
953.826	4.02
954.254	-7.98
954.683	3.32
955.112	-1.17
955.54	0.53
955.969	3.62
956.397	3.73
956.826	-4.17
957.254	3.33
957.682	1.23
958.111	7.23
958.539	8.02
958.967	0.83
959.396	0.32
959.824	0.83
960.252	5.32
960.68	-5.08
961.109	0.82
961.537	-4.77
961.965	-1.68
962.393	9.02
962.821	-2.67
963.249	-1.18
963.677	2.33
964.105	8.02
964.533	46.33
964.961	43.92
965.389	24.03
965.817	8.12
966.245	6.92
966.672	-0.47
967.1	-2.57
967.528	1.12
967.956	-1.88
968.383	0.92
968.811	-0.17
969.239	2.22
969.666	-5.98
970.094	0.33
970.522	3.62
970.949	1.62
971.377	0.62
971.804	1.02
972.232	2.93
972.659	-0.38
973.087	-5.88
973.514	-3.98
973.941	-11.08
974.369	4.23
974.796	1.03
975.223	-0.08
975.651	0.12
976.078	3.73
976.505	-4.58
976.932	3.73
977.359	12.23
977.786	13.73
978.214	0.42
978.641	0.32
979.068	-3.27
979.495	-4.88
979.922	-1.48
980.349	-1.17
980.776	4.52
981.202	-1.18
981.629	3.02
982.056	7.52
982.483	-2.27
982.91	-0.27
983.337	-4.98
983.763	8.82
984.19	-9.48
984.617	-3.77
985.043	-6.58
985.47	-3.17
985.897	-4.77
986.323	-9.58
986.75	1.73
987.176	-4.18
987.603	2.22
988.029	-0.28
988.456	2.12
988.882	1.43
989.308	-7.58
989.735	-6.88
990.161	0.73
990.587	-3.18
991.014	2.02
991.44	5.52
991.866	-0.88
992.292	0.62
992.719	-0.98
993.145	5.62
993.571	-14.38
993.997	-2.38
994.423	-1.48
994.849	-3.98
995.275	3.62
995.701	-2.48
996.127	-1.88
996.553	2.83
996.979	2.23
997.405	0.03
997.83	1.42
998.256	-5.38
998.682	-8.38
999.108	-5.58
999.534	-4.28
999.959	4.92
1000.385	-2.67
1000.811	3.12
1001.236	-6.98
1001.662	-3.38
1002.087	-8.88
1002.513	-3.18
1002.938	4.43
1003.364	-0.17
1003.789	-1.17
1004.215	5.73
1004.64	-4.18
1005.066	0.93
1005.491	-1.27
1005.916	-3.18
1006.342	-3.57
1006.767	-3.27
1007.192	3.33
1007.617	-9.08
1008.042	-2.88
1008.468	-1.98
1008.893	-4.57
1009.318	0.33
1009.743	4.02
1010.168	2.73
1010.593	0.33
1011.018	-10.88
1011.443	1.52
1011.868	0.62
1012.293	0.93
1012.718	-3.77
1013.143	3.32
1013.567	-0.48
1013.992	-6.77
1014.417	-14.48
1014.842	2.12
1015.267	-7.18
1015.691	-9.77
1016.116	2.12
1016.541	-0.38
1016.965	5.32
1017.39	7.02
1017.814	-1.47
1018.239	-4.88
1018.663	-8.27
1019.088	-10.18
1019.512	-0.68
1019.937	-2.67
1020.361	-3.58
1020.785	-10.68
1021.21	-3.58
1021.634	-2.48
1022.058	2.12
1022.483	3.92
1022.907	-9.18
1023.331	-3.88
1023.755	-1.77
1024.179	-2.58
1024.604	-2.38
1025.028	-7.18
1025.452	-4.68
1025.876	-0.08
1026.3	2.42
1026.724	-5.58
1027.148	-7.88
1027.572	-5.38
1027.996	-0.77
1028.42	-2.28
1028.843	-4.58
1029.267	-0.58
1029.691	0.22
1030.115	-10.58
1030.539	-6.28
1030.962	-8.27
1031.386	-5.97
1031.81	-3.47
1032.233	5.02
1032.657	-1.38
1033.08	0.83
1033.504	-2.28
1033.927	0.03
1034.351	3.53
1034.774	-12.38
1035.198	-2.77
1035.621	-7.17
1036.045	-6.68
1036.468	-1.77
1036.891	-8.38
1037.315	-3.78
1037.738	-6.38
1038.161	-1.48
1038.584	-7.08
1039.008	-9.67
1039.431	1.83
1039.854	-0.58
1040.277	-2.77
1040.7	-15.38
1041.123	-3.98
1041.546	-3.38
1041.969	-6.57
1042.392	-2.48
1042.815	-9.18
1043.238	-2.68
1043.661	1.12
1044.084	-6.17
1044.507	-3.77
1044.93	-2.48
1045.352	-5.08
1045.775	-7.78
1046.198	0.33
1046.621	-1.07
1047.043	-0.17
1047.466	7.43
1047.889	-2.27
1048.311	0.23
1048.734	-1.67
1049.156	-3.77
1049.579	0.62
1050.001	-3.27
1050.424	1.42
1050.846	-2.27
1051.269	-6.07
1051.691	-9.07
1052.113	-6.68
1052.536	-1.07
1052.958	-0.58
1053.38	-7.27
1053.802	-9.18
1054.225	-0.58
1054.647	-8.88
1055.069	-5.38
1055.491	0.73
1055.913	-3.68
1056.335	3.32
1056.757	-0.57
1057.179	-3.77
1057.601	-3.77
1058.023	-3.17
1058.445	0.72
1058.867	-1.98
1059.289	-6.98
1059.711	-5.38
1060.133	-8.68
1060.555	-1.08
1060.976	-2.27
1061.398	-2.27
1061.82	-1.27
1062.241	-4.78
1062.663	-4.27
1063.085	-5.77
1063.506	5.73
1063.928	-6.98
1064.35	-1.77
1064.771	-9.88
1065.193	-0.98
1065.614	-11.27
1066.035	-0.67
1066.457	-5.17
1066.878	1.83
1067.3	-6.48
1067.721	1.42
1068.142	0.12
1068.564	-2.98
1068.985	-5.27
1069.406	-4.98
1069.827	-8.38
1070.248	2.73
1070.67	-12.38
1071.091	-2.27
1071.512	-2.28
1071.933	-8.08
1072.354	-5.17
1072.775	-7.67
1073.196	-9.17
1073.617	-3.28
1074.038	-7.98
1074.459	-1.57
1074.88	-6.67
1075.3	0.23
1075.721	-9.78
1076.142	-1.88
1076.563	-0.18
1076.983	-5.58
1077.404	-7.07
1077.825	-5.77
1078.246	-6.17
1078.666	-7.58
1079.087	-8.27
1079.507	-7.48
1079.928	0.62
1080.348	-9.38
1080.769	-5.18
1081.189	-4.17
1081.61	-4.67
1082.03	-7.77
1082.451	-4.58
1082.871	-4.07
1083.291	-5.48
1083.711	-4.77
1084.132	-4.17
1084.552	-3.77
1084.972	-4.77
1085.392	-11.48
1085.813	-11.77
1086.233	-6.98
1086.653	-5.48
1087.073	-4.38
1087.493	-7.88
1087.913	-4.88
1088.333	-6.68
1088.753	-2.38
1089.173	1.42
1089.593	0.23
1090.013	-0.08
1090.433	0.52
1090.852	-2.88
1091.272	-3.18
1091.692	2.02
1092.112	0.83
1092.531	-11.27
1092.951	-14.27
1093.371	-3.98
1093.79	-0.97
1094.21	-12.88
1094.63	-6.27
1095.049	-7.07
1095.469	-3.67
1095.888	-1.18
1096.308	0.23
1096.727	6.33
1097.146	-8.67
1097.566	-1.48
1097.985	-5.17
1098.405	-3.38
1098.824	-7.17
1099.243	-5.67
1099.662	-2.68
1100.082	-0.77
1100.501	-1.58
1100.92	-6.68
1101.339	-9.48
1101.758	-8.38
