Data from 20171114-ORNL-Ar_H_NY_Subt18_08-05-58-350.txt Node
Date: Tue Nov 14 08:05:58 EST 2017
User: Ender
Spectrometer: HR+D1039
Trigger mode: 0
Integration Time (sec): 2.730000E-2
Scans to average: 10
Electric dark correction enabled: true
Nonlinearity correction enabled: false
Boxcar width: 0
XAxis mode: Wavelengths
Number of Pixels in Spectrum: 2048
>>>>>Begin Spectral Data<<<<<
187.836	-6.92
188.309	-6.92
188.782	-6.92
189.255	4.68
189.728	-1.72
190.201	2.28
190.674	2.48
191.147	5.08
191.619	-3.62
192.092	-0.52
192.565	-0.02
193.038	1.58
193.511	2.08
193.984	-1.32
194.456	-4.72
194.929	0.78
195.402	-1.32
195.874	1.18
196.347	-3.92
196.82	-10.22
197.292	3.88
197.765	0.08
198.237	-6.02
198.71	2.98
199.182	-3.92
199.655	-0.42
200.127	2.58
200.6	-4.82
201.072	-3.42
201.544	-2.12
202.017	-2.32
202.489	-0.02
202.961	2.48
203.433	0.18
203.906	-0.02
204.378	-6.02
204.85	-3.52
205.322	-12.72
205.794	4.18
206.266	-3.82
206.739	-6.82
207.211	0.08
207.683	-5.32
208.155	-3.12
208.627	-5.32
209.099	-1.92
209.57	-4.02
210.042	-5.52
210.514	-0.72
210.986	0.38
211.458	-8.22
211.93	-2.02
212.402	6.18
212.873	-9.52
213.345	-12.22
213.817	-12.42
214.288	-0.92
214.76	-17.82
215.232	-6.42
215.703	-2.62
216.175	-3.52
216.646	-5.12
217.118	-9.32
217.589	-4.12
218.061	-2.92
218.532	-6.62
219.004	-2.12
219.475	-2.12
219.946	-9.62
220.418	-9.32
220.889	-1.02
221.36	0.98
221.832	-6.92
222.303	-6.92
222.774	-0.12
223.245	-10.92
223.717	-5.12
224.188	-8.52
224.659	-11.02
225.13	-5.52
225.601	-0.32
226.072	4.58
226.543	-7.22
227.014	-1.22
227.485	-3.52
227.956	-4.62
228.427	-4.52
228.898	2.98
229.369	1.98
229.839	-6.62
230.31	-5.42
230.781	-0.52
231.252	-4.62
231.722	-9.32
232.193	-1.82
232.664	3.78
233.135	2.78
233.605	-3.62
234.076	-8.62
234.546	3.58
235.017	7.88
235.487	-2.92
235.958	-3.62
236.428	-4.22
236.899	1.08
237.369	4.68
237.84	-3.82
238.31	7.78
238.78	4.48
239.251	-1.02
239.721	3.68
240.191	0.98
240.662	2.98
241.132	-4.12
241.602	4.18
242.072	1.48
242.542	3.88
243.013	4.38
243.483	4.28
243.953	2.68
244.423	-6.82
244.893	-3.32
245.363	4.48
245.833	2.58
246.303	-4.92
246.773	2.98
247.243	4.58
247.712	4.78
248.182	4.68
248.652	3.68
249.122	0.28
249.592	7.68
250.061	18.08
250.531	31.28
251.001	15.98
251.471	20.08
251.94	19.88
252.41	9.78
252.879	1.48
253.349	13.88
253.818	7.18
254.288	0.48
254.757	0.58
255.227	-1.72
255.696	0.98
256.166	4.88
256.635	8.68
257.105	8.98
257.574	9.48
258.043	9.78
258.513	12.28
258.982	19.78
259.451	5.78
259.92	11.78
260.389	6.38
260.859	13.38
261.328	13.98
261.797	16.88
262.266	9.38
262.735	13.38
263.204	3.78
263.673	-0.22
264.142	7.98
264.611	-2.82
265.08	3.78
265.549	-0.32
266.018	9.38
266.487	-0.02
266.955	-3.32
267.424	-3.42
267.893	8.58
268.362	-1.52
268.83	8.58
269.299	16.38
269.768	2.58
270.236	8.88
270.705	3.78
271.174	6.78
271.642	9.08
272.111	8.28
272.579	13.28
273.048	19.68
273.516	28.98
273.985	28.68
274.453	22.08
274.922	22.08
275.39	13.98
275.858	2.98
276.327	6.58
276.795	15.78
277.263	17.88
277.731	23.98
278.2	52.18
278.668	57.88
279.136	41.58
279.604	19.48
280.072	17.08
280.54	15.08
281.008	11.08
281.477	12.48
281.945	11.58
282.413	17.48
282.881	18.48
283.348	9.18
283.816	13.98
284.284	12.48
284.752	25.08
285.22	10.78
285.688	17.68
286.156	20.68
286.623	43.98
287.091	56.18
287.559	28.18
288.026	12.58
288.494	15.88
288.962	4.78
289.429	11.28
289.897	23.88
290.364	14.08
290.832	21.38
291.3	14.28
291.767	14.18
292.234	22.98
292.702	21.18
293.169	25.18
293.637	21.08
294.104	23.08
294.571	8.08
295.039	14.08
295.506	14.88
295.973	17.48
296.44	15.58
296.908	19.88
297.375	20.68
297.842	21.18
298.309	13.38
298.776	9.68
299.243	16.88
299.71	12.58
300.177	19.28
300.644	13.28
301.111	23.58
301.578	25.48
302.045	10.38
302.512	28.48
302.979	26.78
303.446	28.58
303.913	15.48
304.379	18.58
304.846	35.18
305.313	26.28
305.78	18.78
306.246	28.38
306.713	27.48
307.18	22.88
307.646	28.48
308.113	30.18
308.579	22.08
309.046	24.68
309.512	30.68
309.979	19.78
310.445	27.68
310.912	28.48
311.378	32.18
311.845	37.88
312.311	34.28
312.777	33.18
313.244	39.28
313.71	39.98
314.176	32.98
314.642	28.88
315.109	30.88
315.575	35.68
316.041	38.08
316.507	33.88
316.973	38.38
317.439	28.68
317.905	34.08
318.371	38.78
318.837	30.78
319.303	26.78
319.769	35.98
320.235	35.18
320.701	35.38
321.167	38.08
321.633	37.58
322.099	41.28
322.564	48.18
323.03	39.18
323.496	41.58
323.962	37.28
324.427	32.38
324.893	41.78
325.359	43.08
325.824	42.48
326.29	39.38
326.755	36.98
327.221	37.78
327.686	43.88
328.152	46.48
328.617	41.88
329.083	44.38
329.548	48.28
330.014	48.68
330.479	41.78
330.944	43.98
331.41	46.88
331.875	45.98
332.34	37.68
332.805	49.18
333.271	44.28
333.736	47.88
334.201	51.78
334.666	53.98
335.131	53.78
335.596	56.38
336.061	53.58
336.526	45.38
336.991	47.38
337.456	62.88
337.921	42.38
338.386	42.48
338.851	45.98
339.316	43.28
339.781	45.58
340.246	60.88
340.711	42.98
341.175	51.98
341.64	42.58
342.105	52.18
342.569	53.08
343.034	52.08
343.499	57.18
343.963	54.48
344.428	62.48
344.893	61.38
345.357	62.88
345.822	59.38
346.286	72.08
346.751	80.18
347.215	64.18
347.679	77.18
348.144	94.68
348.608	90.68
349.073	72.68
349.537	77.88
350.001	75.48
350.465	97.68
350.93	87.08
351.394	82.18
351.858	72.38
352.322	88.88
352.786	89.28
353.25	100.98
353.715	111.78
354.179	103.58
354.643	130.58
355.107	128.48
355.571	111.78
356.035	104.98
356.498	122.78
356.962	125.38
357.426	134.98
357.89	118.18
358.354	89.08
358.818	75.08
359.281	79.78
359.745	74.18
360.209	71.58
360.673	83.68
361.136	85.28
361.6	88.58
362.064	86.68
362.527	81.88
362.991	93.48
363.454	87.48
363.918	76.78
364.381	83.58
364.845	84.08
365.308	92.78
365.772	87.18
366.235	92.08
366.698	84.88
367.162	89.48
367.625	87.38
368.088	85.68
368.552	90.48
369.015	87.78
369.478	93.28
369.941	102.58
370.404	95.68
370.867	102.68
371.331	118.88
371.794	112.68
372.257	109.98
372.72	121.18
373.183	114.98
373.646	105.58
374.109	102.38
374.572	108.48
375.035	107.18
375.497	116.98
375.96	107.28
376.423	108.08
376.886	114.18
377.349	116.58
377.811	103.98
378.274	110.68
378.737	117.08
379.199	114.98
379.662	118.38
380.125	120.78
380.587	121.88
381.05	123.98
381.512	130.58
381.975	137.48
382.437	132.58
382.9	127.98
383.362	135.68
383.825	147.98
384.287	147.08
384.75	142.28
385.212	145.28
385.674	143.98
386.136	141.98
386.599	131.78
387.061	130.28
387.523	131.58
387.985	143.38
388.447	143.08
388.91	151.08
389.372	163.88
389.834	153.68
390.296	143.98
390.758	159.28
391.22	166.38
391.682	210.88
392.144	296.48
392.606	229.48
393.068	170.28
393.529	165.28
393.991	159.98
394.453	148.78
394.915	157.78
395.377	198.08
395.838	210.28
396.3	155.28
396.762	146.38
397.224	140.18
397.685	131.88
398.147	133.98
398.608	137.28
399.07	130.28
399.531	131.88
399.993	144.08
400.454	150.58
400.916	144.98
401.377	149.58
401.839	154.78
402.3	160.78
402.762	170.78
403.223	184.68
403.684	179.58
404.145	167.08
404.607	171.98
405.068	169.88
405.529	178.68
405.99	194.08
406.451	188.88
406.913	173.58
407.374	167.28
407.835	170.58
408.296	174.58
408.757	173.78
409.218	190.28
409.679	188.48
410.14	183.08
410.601	188.88
411.062	183.08
411.522	197.68
411.983	196.58
412.444	179.48
412.905	185.18
413.366	181.68
413.826	203.48
414.287	220.78
414.748	266.98
415.208	248.48
415.669	210.88
416.13	209.18
416.59	207.18
417.051	216.38
417.511	229.18
417.972	232.38
418.432	249.28
418.893	288.38
419.353	253.68
419.814	202.48
420.274	184.78
420.734	186.48
421.195	207.18
421.655	198.48
422.115	195.08
422.576	198.78
423.036	204.78
423.496	206.58
423.956	225.98
424.416	244.68
424.876	270.08
425.336	270.48
425.797	263.18
426.257	261.88
426.717	249.58
427.177	239.48
427.637	222.68
428.097	240.18
428.556	257.08
429.016	270.08
429.476	272.08
429.936	276.28
430.396	287.88
430.856	302.68
431.315	317.98
431.775	355.38
432.235	392.28
432.694	360.38
433.154	376.28
433.614	404.08
434.073	348.88
434.533	288.58
434.993	270.28
435.452	283.68
435.912	301.98
436.371	295.58
436.83	297.28
437.29	281.58
437.749	253.58
438.209	249.88
438.668	281.38
439.127	293.18
439.587	267.28
440.046	250.48
440.505	264.68
440.964	280.08
441.424	326.48
441.883	317.68
442.342	264.28
442.801	234.18
443.26	228.98
443.719	230.18
444.178	224.68
444.637	207.98
445.096	219.88
445.555	226.98
446.014	227.18
446.473	231.98
446.932	236.28
447.391	230.48
447.849	234.48
448.308	219.38
448.767	227.88
449.226	229.48
449.685	238.98
450.143	254.28
450.602	240.18
451.061	234.58
451.519	237.38
451.978	242.78
452.436	232.48
452.895	242.98
453.353	261.18
453.812	248.68
454.27	248.58
454.729	240.28
455.187	241.68
455.646	240.38
456.104	251.38
456.562	257.98
457.021	268.38
457.479	260.48
457.937	280.78
458.395	277.68
458.854	252.68
459.312	263.68
459.77	282.98
460.228	263.48
460.686	246.48
461.144	244.98
461.602	247.68
462.06	244.58
462.518	258.38
462.976	260.48
463.434	262.78
463.892	269.18
464.35	282.08
464.808	299.88
465.266	272.38
465.724	270.08
466.181	273.58
466.639	273.48
467.097	300.48
467.555	305.58
468.012	307.98
468.47	325.38
468.928	336.38
469.385	351.08
469.843	357.08
470.3	359.88
470.758	369.38
471.215	398.48
471.673	419.18
472.13	417.78
472.588	423.48
473.045	377.48
473.503	386.68
473.96	404.28
474.417	409.58
474.875	442.98
475.332	484.88
475.789	468.58
476.246	472.98
476.704	494.48
477.161	524.68
477.618	539.38
478.075	574.08
478.532	627.88
478.989	707.58
479.446	824.68
479.903	787.38
480.36	817.48
480.817	889.78
481.274	982.38
481.731	1097.08
482.188	1189.08
482.645	1326.98
483.102	1430.68
483.558	1580.48
484.015	1622.98
484.472	1611.58
484.929	1545.58
485.385	1500.78
485.842	1461.18
486.299	1392.58
486.755	1325.38
487.212	1116.18
487.668	949.28
488.125	867.78
488.582	798.48
489.038	767.38
489.494	729.08
489.951	708.98
490.407	679.38
490.864	665.38
491.32	656.58
491.776	651.48
492.233	657.28
492.689	621.18
493.145	618.88
493.602	606.48
494.058	635.78
494.514	635.68
494.97	653.28
495.426	661.58
495.882	636.98
496.338	633.88
496.794	640.38
497.251	634.68
497.707	658.18
498.163	651.58
498.618	661.48
499.074	658.38
499.53	689.18
499.986	690.08
500.442	667.28
500.898	654.08
501.354	637.58
501.809	652.88
502.265	654.68
502.721	672.28
503.177	687.08
503.632	684.18
504.088	693.18
504.543	725.88
504.999	721.28
505.455	662.18
505.91	649.38
506.366	647.78
506.821	640.58
507.277	636.18
507.732	639.68
508.187	636.98
508.643	642.98
509.098	641.98
509.553	668.88
510.009	676.68
510.464	684.28
510.919	710.78
511.375	708.58
511.83	716.78
512.285	740.48
512.74	770.68
513.195	806.58
513.65	785.88
514.105	790.58
514.56	788.88
515.015	818.48
515.47	828.88
515.925	811.48
516.38	813.88
516.835	805.08
517.29	796.88
517.745	797.58
518.2	781.58
518.655	760.38
519.109	762.48
519.564	752.68
520.019	746.48
520.474	739.38
520.928	742.58
521.383	732.18
521.838	726.78
522.292	725.88
522.747	729.18
523.201	717.08
523.656	708.18
524.11	705.58
524.565	716.08
525.019	693.08
525.474	717.48
525.928	711.88
526.382	711.78
526.837	704.18
527.291	716.98
527.745	712.38
528.2	697.38
528.654	706.28
529.108	701.48
529.562	703.18
530.016	703.88
530.47	701.48
530.925	701.68
531.379	707.88
531.833	726.08
532.287	712.08
532.741	720.68
533.195	721.28
533.649	721.18
534.103	717.38
534.556	720.18
535.01	726.98
535.464	732.08
535.918	727.68
536.372	732.08
536.826	727.68
537.279	717.58
537.733	713.38
538.187	719.68
538.64	729.18
539.094	731.88
539.548	745.88
540.001	737.18
540.455	734.48
540.908	733.08
541.362	746.68
541.815	756.48
542.269	767.58
542.722	768.28
543.175	770.78
543.629	782.88
544.082	805.18
544.536	798.68
544.989	801.58
545.442	805.98
545.895	811.88
546.349	807.68
546.802	799.68
547.255	804.68
547.708	825.88
548.161	826.98
548.614	838.38
549.067	837.78
549.52	835.28
549.973	824.88
550.426	821.68
550.879	808.58
551.332	819.78
551.785	825.08
552.238	823.48
552.691	840.48
553.144	839.48
553.596	856.48
554.049	877.38
554.502	912.48
554.955	928.18
555.407	922.48
555.86	923.78
556.313	892.58
556.765	884.88
557.218	899.68
557.67	891.18
558.123	889.38
558.576	881.18
559.028	896.58
559.48	894.38
559.933	894.58
560.385	848.08
560.838	824.28
561.29	789.38
561.742	795.38
562.195	774.98
562.647	770.88
563.099	783.28
563.551	776.98
564.004	792.28
564.456	787.78
564.908	773.68
565.36	752.58
565.812	746.38
566.264	731.68
566.716	725.68
567.168	714.48
567.62	727.28
568.072	709.18
568.524	701.48
568.976	706.78
569.428	687.18
569.88	683.68
570.332	686.28
570.784	682.08
571.235	692.28
571.687	690.78
572.139	708.48
572.59	725.78
573.042	709.88
573.494	725.28
573.945	717.88
574.397	694.68
574.849	694.38
575.3	692.78
575.752	683.58
576.203	689.38
576.655	689.68
577.106	684.68
577.557	676.18
578.009	666.48
578.46	672.48
578.912	673.78
579.363	662.58
579.814	667.28
580.265	668.38
580.717	672.58
581.168	672.28
581.619	691.88
582.07	687.08
582.521	678.38
582.972	679.08
583.423	685.48
583.875	691.88
584.326	709.18
584.777	748.68
585.227	824.88
585.678	897.48
586.129	1001.08
586.58	1064.98
587.031	1125.58
587.482	1294.08
587.933	1452.48
588.384	1285.18
588.834	966.68
589.285	803.98
589.736	789.68
590.186	783.78
590.637	777.38
591.088	740.28
591.538	739.38
591.989	732.18
592.439	730.68
592.89	730.78
593.34	715.18
593.791	713.88
594.241	704.38
594.692	714.18
595.142	710.58
595.593	703.68
596.043	709.48
596.493	722.08
596.943	716.58
597.394	730.18
597.844	715.18
598.294	732.28
598.744	765.58
599.195	772.28
599.645	822.38
600.095	857.78
600.545	913.38
600.995	965.38
601.445	1025.98
601.895	1084.48
602.345	1137.98
602.795	1113.38
603.245	1068.68
603.695	1016.88
604.145	959.08
604.594	913.68
605.044	864.28
605.494	808.68
605.944	759.78
606.393	748.08
606.843	727.48
607.293	739.18
607.743	736.28
608.192	742.78
608.642	761.48
609.091	769.08
609.541	784.88
609.99	768.38
610.44	777.28
610.889	720.98
611.339	703.88
611.788	691.08
612.238	696.18
612.687	716.68
613.136	717.28
613.586	737.58
614.035	730.08
614.484	748.28
614.933	757.48
615.383	748.28
615.832	736.88
616.281	717.58
616.73	691.08
617.179	653.78
617.628	651.88
618.077	633.28
618.526	618.88
618.975	614.38
619.424	612.98
619.873	615.18
620.322	617.38
620.771	606.58
621.22	606.88
621.669	589.88
622.118	582.68
622.567	585.98
623.015	569.38
623.464	561.98
623.913	561.48
624.361	553.78
624.81	551.48
625.259	549.18
625.707	562.18
626.156	557.18
626.604	558.28
627.053	557.98
627.501	565.78
627.95	565.28
628.398	576.58
628.847	575.48
629.295	568.68
629.744	567.58
630.192	566.28
630.64	564.98
631.089	560.48
631.537	579.58
631.985	580.08
632.433	595.38
632.881	593.78
633.33	650.18
633.778	631.88
634.226	558.18
634.674	576.78
635.122	575.58
635.57	602.18
636.018	629.58
636.466	576.88
636.914	567.98
637.362	568.68
637.81	579.88
638.258	573.88
638.705	560.78
639.153	598.48
639.601	612.78
640.049	641.28
640.497	674.08
640.944	690.48
641.392	636.98
641.84	615.68
642.287	590.88
642.735	573.28
643.182	568.38
643.63	569.18
644.078	564.68
644.525	580.08
644.973	599.88
645.42	595.88
645.867	617.08
646.315	633.78
646.762	657.38
647.21	682.08
647.657	704.68
648.104	749.38
648.551	768.88
648.999	834.98
649.446	910.38
649.893	989.98
650.34	1157.78
650.787	1377.78
651.234	1710.78
651.682	2230.98
652.129	3053.28
652.576	4381.58
653.023	6485.08
653.47	8897.58
653.917	11150.08
654.363	12890.98
654.81	14270.38
655.257	13573.58
655.704	8912.58
656.151	5274.48
656.598	3411.78
657.044	2424.08
657.491	1853.68
657.938	1481.78
658.385	1242.08
658.831	1076.08
659.278	950.28
659.724	847.38
660.171	780.48
660.618	719.18
661.064	682.38
661.511	659.78
661.957	651.58
662.404	643.28
662.85	653.08
663.296	619.78
663.743	567.98
664.189	526.78
664.635	525.48
665.082	517.28
665.528	519.38
665.974	509.38
666.42	505.58
666.867	507.08
667.313	479.28
667.759	477.38
668.205	473.38
668.651	478.68
669.097	477.68
669.543	488.68
669.989	464.28
670.435	440.68
670.881	442.88
671.327	441.18
671.773	469.98
672.219	482.48
672.665	540.28
673.11	575.48
673.556	616.48
674.002	664.08
674.448	643.08
674.893	543.68
675.339	468.38
675.785	438.08
676.23	412.38
676.676	384.38
677.122	378.18
677.567	362.18
678.013	363.08
678.458	354.28
678.904	359.78
679.349	336.98
679.794	348.78
680.24	341.88
680.685	347.58
681.131	340.78
681.576	346.38
682.021	355.08
682.466	348.28
682.912	336.38
683.357	340.98
683.802	373.78
684.247	404.18
684.692	444.68
685.137	480.28
685.583	535.28
686.028	551.18
686.473	499.68
686.918	437.58
687.363	404.68
687.807	380.58
688.252	360.68
688.697	345.78
689.142	335.48
689.587	329.48
690.032	321.18
690.477	337.28
690.921	341.88
691.366	374.48
691.811	395.88
692.255	415.78
692.7	460.68
693.145	488.38
693.589	675.08
694.034	1105.28
694.478	1499.68
694.923	1701.08
695.367	2234.78
695.812	1177.18
696.256	478.48
696.701	364.18
697.145	333.68
697.59	324.08
698.034	309.68
698.478	326.08
698.922	315.38
699.367	323.48
699.811	337.48
700.255	352.78
700.699	378.68
701.143	412.08
701.588	466.68
702.032	509.28
702.476	499.08
702.92	477.18
703.364	478.98
703.808	619.48
704.252	994.98
704.696	1402.68
705.14	1628.98
705.584	2099.28
706.027	1045.78
706.471	521.38
706.915	392.78
707.359	341.38
707.803	314.38
708.246	296.58
708.69	308.58
709.134	310.98
709.577	307.78
710.021	308.78
710.465	300.78
710.908	290.88
711.352	294.68
711.795	302.28
712.239	341.88
712.682	377.48
713.126	409.18
713.569	456.48
714.012	359.38
714.456	316.38
714.899	298.28
715.342	270.38
715.786	257.98
716.229	255.38
716.672	257.98
717.115	257.78
717.558	241.98
718.002	244.78
718.445	252.98
718.888	276.68
719.331	284.68
719.774	306.38
720.217	302.18
720.66	271.88
721.103	254.98
721.546	244.08
721.989	245.48
722.432	231.68
722.874	233.58
723.317	231.88
723.76	228.98
724.203	248.78
724.645	307.98
725.088	424.18
725.531	553.28
725.974	634.98
726.416	536.28
726.859	292.98
727.301	241.48
727.744	233.78
728.187	225.68
728.629	230.88
729.071	232.38
729.514	258.98
729.956	266.78
730.399	286.48
730.841	283.18
731.283	269.98
731.726	259.58
732.168	249.28
732.61	267.78
733.053	276.08
733.495	309.78
733.937	349.08
734.379	382.48
734.821	419.68
735.263	526.58
735.705	806.08
736.148	1511.48
736.59	2512.58
737.032	3012.78
737.474	2438.38
737.916	789.08
738.357	416.58
738.799	318.88
739.241	293.68
739.683	281.18
740.125	288.28
740.567	292.48
741.008	308.58
741.45	301.68
741.892	304.88
742.334	341.08
742.775	348.88
743.217	335.78
743.658	258.78
744.1	244.88
744.542	258.18
744.983	302.78
745.425	338.28
745.866	332.18
746.307	273.98
746.749	267.68
747.19	312.18
747.632	436.98
748.073	845.08
748.514	1792.48
748.956	2778.98
749.397	3455.78
749.838	2889.18
750.279	2893.78
750.72	1458.08
751.162	533.68
751.603	313.88
752.044	241.38
752.485	213.38
752.926	203.98
753.367	198.38
753.808	188.58
754.249	188.48
754.69	181.78
755.131	175.28
755.572	178.78
756.013	174.58
756.453	176.18
756.894	178.58
757.335	187.98
757.776	187.38
758.216	195.68
758.657	183.58
759.098	196.78
759.538	225.98
759.979	257.68
760.42	365.28
760.86	678.48
761.301	1745.18
761.741	4259.48
762.182	6305.48
762.622	4463.18
763.063	1271.08
763.503	527.38
763.943	338.48
764.384	331.88
764.824	383.98
765.264	407.78
765.705	288.98
766.145	200.48
766.585	182.18
767.025	179.48
767.465	182.18
767.906	226.08
768.346	292.98
768.786	315.18
769.226	254.78
769.666	305.98
770.106	599.68
770.546	1503.48
770.986	2601.18
771.426	2341.78
771.866	775.28
772.306	322.58
772.745	208.38
773.185	165.38
773.625	169.98
774.065	160.98
774.505	173.68
774.944	288.88
775.384	637.98
775.824	1168.38
776.263	1153.88
776.703	499.18
777.142	214.18
777.582	151.78
778.021	128.38
778.461	128.98
778.9	135.08
779.34	128.18
779.779	114.78
780.219	109.68
780.658	105.68
781.097	107.58
781.537	105.48
781.976	104.68
782.415	104.48
782.855	105.38
783.294	97.18
783.733	99.98
784.172	112.78
784.611	101.68
785.05	103.78
785.489	102.48
785.928	116.38
786.367	121.08
786.806	119.68
787.245	129.98
787.684	134.28
788.123	141.58
788.562	129.98
789.001	128.98
789.44	121.88
789.879	111.88
790.317	111.88
790.756	124.38
791.195	127.38
791.634	143.38
792.072	192.68
792.511	354.18
792.95	964.18
793.388	2069.78
793.827	1903.68
794.265	656.78
794.704	276.48
795.142	172.98
795.581	149.18
796.019	130.08
796.458	125.18
796.896	113.48
797.334	121.08
797.773	151.28
798.211	203.58
798.649	419.28
799.087	985.18
799.526	1552.28
799.964	1948.08
800.402	1979.68
800.84	745.18
801.278	288.68
801.716	180.78
802.154	146.28
802.592	143.78
803.03	131.68
803.468	131.48
803.906	137.08
804.344	144.78
804.782	129.48
805.22	131.48
805.658	122.08
806.096	145.28
806.533	155.28
806.971	161.68
807.409	211.58
807.847	305.38
808.284	638.58
808.722	1778.28
809.16	3202.78
809.597	3014.48
810.035	5243.18
810.472	5665.48
810.91	2041.68
811.347	770.58
811.785	399.88
812.222	244.08
812.66	188.18
813.097	156.08
813.535	135.88
813.972	125.48
814.409	117.08
814.846	106.98
815.284	107.88
815.721	102.58
816.158	99.18
816.595	113.78
817.032	176.58
817.47	186.78
817.907	173.08
818.344	142.68
818.781	112.68
819.218	102.98
819.655	114.38
820.092	178.88
820.529	207.88
820.966	172.78
821.403	127.88
821.839	101.58
822.276	97.08
822.713	123.58
823.15	132.38
823.587	111.98
824.023	140.08
824.46	289.88
824.897	851.28
825.333	1322.88
825.77	566.78
826.206	219.28
826.643	130.18
827.08	94.48
827.516	74.38
827.953	72.48
828.389	77.68
828.825	71.18
829.262	68.98
829.698	60.88
830.135	60.48
830.571	61.88
831.007	61.18
831.443	55.18
831.88	66.98
832.316	65.78
832.752	64.98
833.188	65.88
833.624	66.68
834.06	68.58
834.497	63.68
834.933	68.88
835.369	65.18
835.805	70.18
836.241	79.88
836.677	79.48
837.112	86.98
837.548	106.38
837.984	124.38
838.42	185.18
838.856	470.68
839.292	1445.58
839.727	2253.08
840.163	1039.28
840.599	893.48
841.034	1956.68
841.47	2080.08
841.906	763.98
842.341	324.48
842.777	227.18
843.212	301.18
843.648	302.28
844.083	148.28
844.519	98.58
844.954	80.18
845.39	58.28
845.825	57.28
846.261	59.48
846.696	57.78
847.131	56.38
847.566	60.18
848.002	49.78
848.437	53.38
848.872	55.58
849.307	60.18
849.742	83.08
850.177	173.88
850.613	541.88
851.048	861.88
851.483	378.78
851.918	147.78
852.353	81.68
852.788	55.78
853.223	51.48
853.657	51.18
854.092	48.68
854.527	38.58
854.962	38.18
855.397	40.78
855.832	44.68
856.266	41.18
856.701	37.08
857.136	31.48
857.57	40.08
858.005	49.98
858.44	55.78
858.874	44.78
859.309	51.68
859.743	38.58
860.178	46.18
860.612	39.58
861.047	47.38
861.481	67.18
861.915	73.28
862.35	47.88
862.784	33.18
863.218	40.28
863.653	31.58
864.087	44.68
864.521	49.68
864.955	65.68
865.39	152.28
865.824	167.98
866.258	109.28
866.692	159.58
867.126	171.38
867.56	98.18
867.994	52.48
868.428	38.88
868.862	41.78
869.296	46.78
869.73	58.18
870.164	56.78
870.598	45.78
871.031	36.88
871.465	28.98
871.899	26.58
872.333	11.98
872.766	23.78
873.2	25.68
873.634	29.48
874.067	26.18
874.501	23.98
874.935	36.78
875.368	31.18
875.802	30.58
876.235	20.08
876.669	24.88
877.102	17.28
877.535	22.78
877.969	24.48
878.402	16.98
878.836	20.58
879.269	22.68
879.702	23.18
880.135	18.48
880.569	24.18
881.002	25.08
881.435	24.48
881.868	13.88
882.301	29.38
882.734	12.98
883.167	28.58
883.601	19.28
884.034	17.18
884.467	17.88
884.899	18.58
885.332	21.68
885.765	10.28
886.198	15.58
886.631	18.58
887.064	22.68
887.497	19.18
887.929	24.38
888.362	16.48
888.795	10.68
889.228	18.48
889.66	22.28
890.093	19.38
890.526	15.98
890.958	10.28
891.391	19.58
891.823	19.48
892.256	15.88
892.688	13.28
893.121	19.98
893.553	15.88
893.985	23.08
894.418	16.48
894.85	9.28
895.282	16.38
895.715	14.28
896.147	18.08
896.579	7.28
897.011	10.38
897.444	20.18
897.876	11.58
898.308	14.78
898.74	13.88
899.172	15.98
899.604	25.98
900.036	25.88
900.468	18.88
900.9	13.08
901.332	15.28
901.764	15.28
902.196	15.48
902.628	12.48
903.06	15.38
903.491	25.78
903.923	20.58
904.355	15.68
904.787	26.88
905.218	24.58
905.65	20.78
906.082	15.58
906.513	9.88
906.945	15.18
907.376	10.88
907.808	14.88
908.239	18.18
908.671	19.48
909.102	21.38
909.534	22.18
909.965	46.38
910.397	87.88
910.828	310.28
911.259	469.58
911.691	211.08
912.122	105.38
912.553	51.68
912.984	33.88
913.415	24.88
913.847	18.08
914.278	16.08
914.709	14.98
915.14	13.58
915.571	19.38
916.002	9.68
916.433	20.68
916.864	17.18
917.295	12.38
917.726	21.48
918.157	20.08
918.587	28.38
919.018	21.38
919.449	24.28
919.88	22.28
920.311	31.88
920.741	49.98
921.172	164.08
921.603	149.48
922.033	66.98
922.464	43.98
922.895	24.08
923.325	20.28
923.756	14.58
924.186	15.08
924.617	24.78
925.047	41.98
925.478	53.78
925.908	43.58
926.338	22.08
926.769	14.58
927.199	24.08
927.629	10.18
928.06	16.18
928.49	15.38
928.92	12.18
929.35	10.68
929.78	10.18
930.21	8.58
930.641	15.88
931.071	8.08
931.501	4.48
931.931	8.08
932.361	8.88
932.791	3.18
933.221	7.58
933.651	7.88
934.08	16.28
934.51	28.18
934.94	6.88
935.37	9.68
935.8	14.78
936.229	3.98
936.659	5.58
937.089	2.08
937.519	11.98
937.948	24.38
938.378	13.38
938.807	1.38
939.237	3.48
939.666	2.38
940.096	-3.42
940.525	2.18
940.955	1.88
941.384	9.58
941.814	-8.52
942.243	-2.52
942.672	3.78
943.102	-0.82
943.531	3.48
943.96	4.38
944.39	1.18
944.819	-6.62
945.248	1.88
945.677	4.18
946.106	1.48
946.535	7.28
946.964	2.58
947.393	4.78
947.822	0.78
948.251	-1.52
948.68	4.58
949.109	8.28
949.538	5.18
949.967	0.38
950.396	2.98
950.825	0.08
951.254	1.18
951.682	-9.52
952.111	-0.12
952.54	5.08
952.969	2.48
953.397	-4.22
953.826	-6.22
954.254	-1.02
954.683	1.78
955.112	-5.12
955.54	-1.92
955.969	0.68
956.397	2.98
956.826	-6.22
957.254	0.38
957.682	1.78
958.111	3.88
958.539	-0.82
958.967	9.48
959.396	-4.02
959.824	5.18
960.252	4.18
960.68	-3.72
961.109	-3.42
961.537	-4.62
961.965	1.78
962.393	-2.02
962.821	1.28
963.249	-1.52
963.677	0.58
964.105	2.68
964.533	46.58
964.961	44.88
965.389	21.48
965.817	12.58
966.245	0.28
966.672	2.28
967.1	-11.72
967.528	-3.22
967.956	3.28
968.383	-0.42
968.811	-1.92
969.239	-3.92
969.666	-3.22
970.094	-5.52
970.522	1.08
970.949	-3.62
971.377	-4.02
971.804	-0.62
972.232	1.88
972.659	-1.02
973.087	-0.32
973.514	-1.52
973.941	-6.42
974.369	5.98
974.796	2.68
975.223	-0.92
975.651	-7.92
976.078	-0.42
976.505	-2.22
976.932	-0.62
977.359	19.08
977.786	12.08
978.214	-0.72
978.641	-8.32
979.068	-1.02
979.495	-6.92
979.922	-3.62
980.349	0.58
980.776	7.28
981.202	-2.42
981.629	2.28
982.056	4.78
982.483	0.48
982.91	1.88
983.337	-13.12
983.763	1.58
984.19	-0.12
984.617	-4.82
985.043	-1.82
985.47	-4.92
985.897	-9.72
986.323	-4.32
986.75	0.08
987.176	-7.72
987.603	2.78
988.029	-3.72
988.456	-4.62
988.882	3.58
989.308	-4.92
989.735	-7.12
990.161	-4.92
990.587	-10.42
991.014	1.38
991.44	7.18
991.866	0.28
992.292	-10.02
992.719	-9.52
993.145	-2.82
993.571	-7.02
993.997	-5.42
994.423	-3.32
994.849	-0.02
995.275	-0.62
995.701	0.38
996.127	-0.72
996.553	-2.12
996.979	-5.12
997.405	-3.82
997.83	-7.02
998.256	-6.92
998.682	-2.22
999.108	-14.12
999.534	0.58
999.959	-2.42
1000.385	-4.22
1000.811	-3.12
1001.236	-10.02
1001.662	-7.52
1002.087	-16.72
1002.513	3.28
1002.938	1.58
1003.364	-0.72
1003.789	-1.62
1004.215	-1.22
1004.64	-8.52
1005.066	0.68
1005.491	-0.62
1005.916	-3.42
1006.342	-2.42
1006.767	-8.32
1007.192	3.08
1007.617	0.58
1008.042	-6.52
1008.468	-1.82
1008.893	-4.92
1009.318	-7.62
1009.743	-1.72
1010.168	3.98
1010.593	-1.52
1011.018	-6.22
1011.443	-5.52
1011.868	-5.92
1012.293	-6.52
1012.718	-5.72
1013.143	1.18
1013.567	3.08
1013.992	-3.32
1014.417	-11.32
1014.842	-1.52
1015.267	-6.12
1015.691	-4.42
1016.116	1.28
1016.541	-4.62
1016.965	-1.52
1017.39	-1.02
1017.814	-6.52
1018.239	3.28
1018.663	-1.62
1019.088	-11.22
1019.512	-3.72
1019.937	-3.22
1020.361	-1.22
1020.785	-10.32
1021.21	0.78
1021.634	-4.72
1022.058	2.08
1022.483	1.88
1022.907	-3.32
1023.331	-0.92
1023.755	3.98
1024.179	-1.52
1024.604	-6.52
1025.028	-3.52
1025.452	-6.02
1025.876	-4.22
1026.3	0.68
1026.724	-8.42
1027.148	-6.32
1027.572	-6.32
1027.996	-6.32
1028.42	-4.92
1028.843	-5.72
1029.267	-6.22
1029.691	-1.32
1030.115	-3.52
1030.539	-9.62
1030.962	-4.62
1031.386	-13.02
1031.81	-1.42
1032.233	5.58
1032.657	-5.52
1033.08	-7.32
1033.504	-0.92
1033.927	-1.62
1034.351	1.78
1034.774	-2.82
1035.198	-5.82
1035.621	-6.02
1036.045	-9.82
1036.468	0.78
1036.891	-9.92
1037.315	-10.32
1037.738	-8.32
1038.161	-5.82
1038.584	-7.32
1039.008	-5.82
1039.431	-3.22
1039.854	-5.62
1040.277	-11.12
1040.7	-12.02
1041.123	-4.12
1041.546	-10.02
1041.969	-3.12
1042.392	-5.72
1042.815	3.08
1043.238	1.68
1043.661	0.38
1044.084	-11.42
1044.507	-6.32
1044.93	-9.82
1045.352	-8.42
1045.775	-3.32
1046.198	-2.32
1046.621	-0.42
1047.043	-2.92
1047.466	3.88
1047.889	-6.02
1048.311	-2.32
1048.734	-1.32
1049.156	-7.72
1049.579	-5.22
1050.001	-3.32
1050.424	2.08
1050.846	-5.02
1051.269	0.18
1051.691	-10.02
1052.113	-8.62
1052.536	-3.52
1052.958	-2.92
1053.38	-8.12
1053.802	-9.62
1054.225	2.38
1054.647	-11.32
1055.069	0.68
1055.491	2.88
1055.913	-10.52
1056.335	0.98
1056.757	-3.72
1057.179	-7.12
1057.601	-13.02
1058.023	-4.02
1058.445	-6.22
1058.867	-3.62
1059.289	-4.12
1059.711	-6.12
1060.133	-0.12
1060.555	-3.72
1060.976	-8.02
1061.398	-5.22
1061.82	-5.32
1062.241	-12.62
1062.663	-8.02
1063.085	-10.92
1063.506	0.08
1063.928	-2.12
1064.35	0.98
1064.771	-10.62
1065.193	-2.92
1065.614	-5.52
1066.035	-1.52
1066.457	-1.02
1066.878	-1.32
1067.3	-1.82
1067.721	-3.02
1068.142	-8.52
1068.564	-6.42
1068.985	-7.72
1069.406	-3.62
1069.827	-10.62
1070.248	0.08
1070.67	-11.92
1071.091	-2.22
1071.512	-5.32
1071.933	-6.12
1072.354	-7.82
1072.775	-5.82
1073.196	-9.22
1073.617	-1.02
1074.038	-6.82
1074.459	-3.72
1074.88	-8.22
1075.3	-2.22
1075.721	-5.22
1076.142	-1.92
1076.563	-5.42
1076.983	-8.92
1077.404	-11.92
1077.825	-12.02
1078.246	-4.52
1078.666	-11.92
1079.087	-3.82
1079.507	-6.02
1079.928	-2.52
1080.348	-2.02
1080.769	-3.72
1081.189	-5.52
1081.61	-2.12
1082.03	-3.92
1082.451	-9.22
1082.871	-3.82
1083.291	-3.82
1083.711	-7.12
1084.132	-8.62
1084.552	-8.02
1084.972	-4.12
1085.392	-7.72
1085.813	-10.62
1086.233	-10.62
1086.653	-8.72
1087.073	-0.92
1087.493	-9.72
1087.913	-4.72
1088.333	-9.42
1088.753	-7.02
1089.173	0.18
1089.593	-8.32
1090.013	3.08
1090.433	-1.52
1090.852	-3.22
1091.272	-2.62
1091.692	-4.92
1092.112	-6.52
1092.531	-10.02
1092.951	-5.52
1093.371	-3.42
1093.79	7.08
1094.21	-2.32
1094.63	-6.72
1095.049	-8.92
1095.469	-7.02
1095.888	0.08
1096.308	-2.12
1096.727	6.98
1097.146	-9.12
1097.566	2.58
1097.985	-3.22
1098.405	-1.02
1098.824	-6.62
1099.243	-7.02
1099.662	-7.52
1100.082	-5.82
1100.501	-2.12
1100.92	-9.72
1101.339	-1.72
1101.758	-10.62
