Data from 20171114-ORNL-Ar_H_NY_Subt18_08-06-55-402.txt Node
Date: Tue Nov 14 08:06:55 EST 2017
User: Ender
Spectrometer: HR+D1039
Trigger mode: 0
Integration Time (sec): 2.730000E-2
Scans to average: 10
Electric dark correction enabled: true
Nonlinearity correction enabled: false
Boxcar width: 0
XAxis mode: Wavelengths
Number of Pixels in Spectrum: 2048
>>>>>Begin Spectral Data<<<<<
187.836	-4.48
188.309	-4.48
188.782	-4.48
189.255	3.52
189.728	1.32
190.201	6.22
190.674	-1.78
191.147	1.62
191.619	-7.68
192.092	4.42
192.565	5.52
193.038	-1.28
193.511	-1.08
193.984	1.92
194.456	-11.28
194.929	-1.58
195.402	2.22
195.874	2.42
196.347	-1.58
196.82	-5.88
197.292	4.12
197.765	-5.68
198.237	-6.28
198.71	-3.38
199.182	-3.58
199.655	-1.38
200.127	2.62
200.6	-9.58
201.072	-3.98
201.544	-8.48
202.017	-2.98
202.489	4.42
202.961	-1.58
203.433	-4.58
203.906	-7.68
204.378	-4.18
204.85	-2.18
205.322	-12.08
205.794	-6.98
206.266	-7.98
206.739	-10.48
207.211	-2.78
207.683	-10.88
208.155	-7.98
208.627	-5.48
209.099	-5.48
209.57	-13.68
210.042	-3.08
210.514	-1.98
210.986	0.12
211.458	-9.68
211.93	3.92
212.402	0.22
212.873	-4.08
213.345	-7.18
213.817	-18.98
214.288	-2.58
214.76	-4.78
215.232	-0.48
215.703	-3.98
216.175	-4.38
216.646	-6.98
217.118	-2.38
217.589	-6.68
218.061	-2.78
218.532	-8.78
219.004	-2.18
219.475	3.62
219.946	-5.08
220.418	-6.68
220.889	-7.78
221.36	0.42
221.832	-5.38
222.303	-5.68
222.774	2.02
223.245	-10.88
223.717	-4.58
224.188	-7.68
224.659	-9.18
225.13	-10.18
225.601	0.32
226.072	1.42
226.543	-5.48
227.014	2.82
227.485	-7.28
227.956	-10.48
228.427	-5.88
228.898	2.42
229.369	-1.38
229.839	0.22
230.31	-5.98
230.781	6.02
231.252	-2.98
231.722	-3.18
232.193	-5.88
232.664	-2.98
233.135	-6.88
233.605	-2.08
234.076	-5.78
234.546	-3.98
235.017	-3.48
235.487	1.62
235.958	-5.38
236.428	-6.48
236.899	-3.18
237.369	-0.18
237.84	-9.28
238.31	3.62
238.78	-3.58
239.251	-5.98
239.721	-3.88
240.191	-5.08
240.662	-6.28
241.132	-6.58
241.602	-2.78
242.072	-3.58
242.542	5.82
243.013	-1.58
243.483	-1.98
243.953	-1.58
244.423	-0.68
244.893	-8.48
245.363	-0.08
245.833	-2.98
246.303	-5.98
246.773	1.32
247.243	0.52
247.712	2.62
248.182	-1.08
248.652	0.42
249.122	-10.88
249.592	1.32
250.061	3.32
250.531	6.62
251.001	-4.68
251.471	3.32
251.94	4.32
252.41	-2.68
252.879	-6.78
253.349	4.02
253.818	-1.08
254.288	1.72
254.757	-3.28
255.227	-5.98
255.696	-1.08
256.166	4.12
256.635	3.22
257.105	-0.58
257.574	-3.58
258.043	0.92
258.513	-7.48
258.982	2.82
259.451	-2.68
259.92	2.72
260.389	3.32
260.859	9.92
261.328	0.82
261.797	0.32
262.266	0.02
262.735	4.32
263.204	6.72
263.673	-2.58
264.142	0.62
264.611	-2.38
265.08	-6.88
265.549	-6.68
266.018	0.42
266.487	-3.28
266.955	-10.28
267.424	-6.28
267.893	1.02
268.362	5.22
268.83	4.12
269.299	1.62
269.768	1.32
270.236	2.62
270.705	-3.48
271.174	-1.08
271.642	1.82
272.111	-1.88
272.579	-1.88
273.048	2.32
273.516	6.32
273.985	4.22
274.453	10.42
274.922	9.12
275.39	0.42
275.858	-0.78
276.327	1.02
276.795	13.62
277.263	3.82
277.731	13.62
278.2	12.02
278.668	3.82
279.136	11.92
279.604	-0.18
280.072	5.82
280.54	8.72
281.008	7.22
281.477	10.02
281.945	1.02
282.413	8.02
282.881	10.92
283.348	3.42
283.816	5.82
284.284	10.92
284.752	11.72
285.22	12.52
285.688	12.12
286.156	8.32
286.623	16.02
287.091	9.12
287.559	9.02
288.026	7.72
288.494	7.32
288.962	-1.38
289.429	6.02
289.897	9.92
290.364	13.22
290.832	10.62
291.3	10.82
291.767	13.52
292.234	17.52
292.702	10.02
293.169	13.52
293.637	14.12
294.104	14.72
294.571	0.52
295.039	14.72
295.506	9.72
295.973	14.32
296.44	5.82
296.908	9.82
297.375	10.02
297.842	17.32
298.309	15.82
298.776	7.92
299.243	16.92
299.71	11.12
300.177	16.72
300.644	12.52
301.111	8.22
301.578	16.32
302.045	12.52
302.512	18.02
302.979	13.52
303.446	21.12
303.913	9.42
304.379	6.32
304.846	22.32
305.313	19.02
305.78	13.82
306.246	18.52
306.713	14.32
307.18	17.62
307.646	23.42
308.113	26.92
308.579	19.52
309.046	20.22
309.512	26.22
309.979	16.02
310.445	29.22
310.912	21.62
311.378	22.02
311.845	26.52
312.311	26.92
312.777	26.72
313.244	24.52
313.71	27.92
314.176	31.02
314.642	21.92
315.109	17.42
315.575	29.52
316.041	38.02
316.507	19.02
316.973	32.72
317.439	25.22
317.905	35.52
318.371	24.82
318.837	26.62
319.303	28.72
319.769	26.52
320.235	22.82
320.701	21.92
321.167	33.22
321.633	23.22
322.099	29.12
322.564	31.92
323.03	30.22
323.496	31.42
323.962	29.62
324.427	29.62
324.893	34.52
325.359	36.42
325.824	27.42
326.29	25.32
326.755	30.22
327.221	36.62
327.686	35.22
328.152	39.02
328.617	32.62
329.083	36.92
329.548	45.22
330.014	36.82
330.479	37.92
330.944	37.42
331.41	38.22
331.875	39.22
332.34	34.42
332.805	39.52
333.271	34.32
333.736	29.32
334.201	40.12
334.666	42.72
335.131	44.92
335.596	46.42
336.061	42.02
336.526	37.12
336.991	38.22
337.456	48.02
337.921	42.82
338.386	37.12
338.851	36.42
339.316	39.32
339.781	39.82
340.246	41.92
340.711	40.92
341.175	40.42
341.64	36.42
342.105	49.02
342.569	48.22
343.034	52.82
343.499	51.72
343.963	48.92
344.428	52.82
344.893	48.02
345.357	53.22
345.822	49.42
346.286	58.02
346.751	65.02
347.215	59.52
347.679	67.82
348.144	81.92
348.608	67.92
349.073	63.22
349.537	64.32
350.001	69.32
350.465	78.72
350.93	80.22
351.394	71.62
351.858	67.72
352.322	80.72
352.786	78.22
353.25	87.42
353.715	92.32
354.179	87.22
354.643	102.02
355.107	108.22
355.571	96.32
356.035	86.22
356.498	98.72
356.962	106.72
357.426	106.52
357.89	101.92
358.354	77.22
358.818	72.22
359.281	73.72
359.745	72.42
360.209	71.72
360.673	63.02
361.136	65.42
361.6	71.52
362.064	69.22
362.527	76.52
362.991	80.42
363.454	69.22
363.918	70.22
364.381	70.52
364.845	84.22
365.308	74.62
365.772	82.32
366.235	79.42
366.698	76.22
367.162	84.12
367.625	82.12
368.088	80.82
368.552	86.62
369.015	83.02
369.478	84.62
369.941	94.22
370.404	86.82
370.867	98.92
371.331	100.82
371.794	98.82
372.257	91.72
372.72	98.12
373.183	95.12
373.646	91.12
374.109	90.92
374.572	91.72
375.035	99.92
375.497	104.42
375.96	94.52
376.423	93.12
376.886	107.12
377.349	107.82
377.811	90.72
378.274	104.82
378.737	99.42
379.199	99.62
379.662	102.02
380.125	104.12
380.587	106.22
381.05	102.12
381.512	110.62
381.975	120.62
382.437	104.92
382.9	105.92
383.362	114.62
383.825	116.92
384.287	118.72
384.75	108.92
385.212	114.22
385.674	125.42
386.136	119.82
386.599	111.82
387.061	111.22
387.523	120.72
387.985	119.12
388.447	131.92
388.91	121.32
389.372	121.92
389.834	123.52
390.296	125.02
390.758	135.82
391.22	134.22
391.682	140.22
392.144	149.52
392.606	142.82
393.068	134.42
393.529	143.82
393.991	129.92
394.453	126.52
394.915	132.52
395.377	135.72
395.838	134.02
396.3	129.52
396.762	134.42
397.224	127.92
397.685	127.02
398.147	131.02
398.608	129.92
399.07	128.62
399.531	135.42
399.993	137.12
400.454	149.62
400.916	141.02
401.377	143.52
401.839	151.22
402.3	142.92
402.762	162.82
403.223	176.92
403.684	174.82
404.145	161.52
404.607	161.02
405.068	163.32
405.529	160.72
405.99	184.22
406.451	168.52
406.913	174.52
407.374	173.22
407.835	159.12
408.296	168.12
408.757	164.92
409.218	186.92
409.679	178.42
410.14	171.22
410.601	182.32
411.062	178.82
411.522	178.12
411.983	175.72
412.444	167.82
412.905	185.72
413.366	189.32
413.826	195.62
414.287	223.12
414.748	264.62
415.208	255.52
415.669	210.32
416.13	214.02
416.59	203.82
417.051	213.72
417.511	217.12
417.972	241.12
418.432	253.82
418.893	294.52
419.353	249.32
419.814	200.92
420.274	185.12
420.734	181.82
421.195	195.82
421.655	187.52
422.115	198.82
422.576	194.52
423.036	204.72
423.496	213.22
423.956	221.12
424.416	230.02
424.876	273.52
425.336	257.32
425.797	262.52
426.257	258.02
426.717	242.02
427.177	230.72
427.637	223.02
428.097	239.42
428.556	248.02
429.016	271.12
429.476	255.22
429.936	266.62
430.396	278.82
430.856	281.92
431.315	299.22
431.775	333.92
432.235	379.52
432.694	346.72
433.154	359.02
433.614	387.22
434.073	332.32
434.533	286.12
434.993	270.22
435.452	280.12
435.912	296.52
436.371	281.72
436.83	282.42
437.29	263.22
437.749	243.72
438.209	242.32
438.668	274.12
439.127	293.22
439.587	267.82
440.046	252.42
440.505	265.82
440.964	283.82
441.424	320.62
441.883	317.42
442.342	265.02
442.801	228.12
443.26	227.32
443.719	234.42
444.178	228.52
444.637	217.82
445.096	230.62
445.555	230.92
446.014	224.72
446.473	237.92
446.932	246.32
447.391	237.12
447.849	239.62
448.308	234.22
448.767	232.92
449.226	243.82
449.685	255.22
450.143	257.12
450.602	248.72
451.061	232.22
451.519	244.12
451.978	246.42
452.436	243.12
452.895	249.62
453.353	257.02
453.812	247.52
454.27	249.72
454.729	247.12
455.187	250.12
455.646	262.62
456.104	263.62
456.562	272.42
457.021	277.42
457.479	274.12
457.937	287.22
458.395	275.32
458.854	251.42
459.312	264.72
459.77	280.72
460.228	265.92
460.686	247.22
461.144	259.62
461.602	253.32
462.06	259.12
462.518	257.22
462.976	271.02
463.434	269.22
463.892	279.32
464.35	290.52
464.808	297.92
465.266	280.12
465.724	285.02
466.181	292.62
466.639	285.52
467.097	299.32
467.555	318.02
468.012	322.52
468.47	325.92
468.928	342.22
469.385	359.62
469.843	367.02
470.3	365.12
470.758	367.32
471.215	403.82
471.673	420.42
472.13	414.82
472.588	430.42
473.045	390.42
473.503	396.32
473.96	409.92
474.417	421.22
474.875	447.92
475.332	491.52
475.789	481.22
476.246	483.42
476.704	504.12
477.161	523.52
477.618	544.72
478.075	585.02
478.532	633.92
478.989	697.52
479.446	814.32
479.903	773.22
480.36	810.02
480.817	855.92
481.274	956.42
481.731	1047.02
482.188	1129.62
482.645	1242.32
483.102	1328.42
483.558	1454.22
484.015	1492.12
484.472	1466.32
484.929	1424.72
485.385	1380.42
485.842	1348.02
486.299	1305.12
486.755	1261.72
487.212	1070.72
487.668	931.02
488.125	862.72
488.582	792.52
489.038	761.32
489.494	728.02
489.951	703.52
490.407	684.92
490.864	668.52
491.32	664.72
491.776	669.72
492.233	668.72
492.689	627.62
493.145	636.32
493.602	628.12
494.058	640.42
494.514	636.02
494.97	664.32
495.426	676.02
495.882	650.12
496.338	644.42
496.794	653.62
497.251	645.32
497.707	657.82
498.163	662.12
498.618	670.92
499.074	674.22
499.53	706.12
499.986	695.82
500.442	668.32
500.898	656.62
501.354	640.22
501.809	647.52
502.265	649.42
502.721	663.52
503.177	667.22
503.632	669.72
504.088	674.72
504.543	705.02
504.999	728.52
505.455	684.22
505.91	663.42
506.366	664.42
506.821	660.62
507.277	670.32
507.732	671.32
508.187	664.02
508.643	675.02
509.098	671.82
509.553	695.02
510.009	711.92
510.464	717.42
510.919	722.62
511.375	734.92
511.83	746.62
512.285	766.72
512.74	791.12
513.195	826.52
513.65	808.62
514.105	805.42
514.56	803.22
515.015	829.72
515.47	849.32
515.925	827.12
516.38	829.02
516.835	828.62
517.29	822.72
517.745	822.62
518.2	809.42
518.655	789.22
519.109	784.72
519.564	780.12
520.019	772.52
520.474	764.72
520.928	769.72
521.383	757.22
521.838	759.92
522.292	754.02
522.747	752.22
523.201	739.52
523.656	730.92
524.11	729.92
524.565	736.32
525.019	727.52
525.474	736.62
525.928	737.02
526.382	732.72
526.837	736.42
527.291	753.32
527.745	735.62
528.2	725.52
528.654	725.72
529.108	722.12
529.562	730.82
530.016	732.22
530.47	721.72
530.925	729.22
531.379	726.32
531.833	740.22
532.287	734.52
532.741	734.72
533.195	741.02
533.649	745.22
534.103	748.92
534.556	742.92
535.01	740.32
535.464	741.52
535.918	747.52
536.372	747.02
536.826	755.92
537.279	738.42
537.733	740.62
538.187	745.22
538.64	751.42
539.094	761.62
539.548	768.92
540.001	767.42
540.455	761.22
540.908	777.72
541.362	782.42
541.815	786.62
542.269	806.12
542.722	812.32
543.175	816.52
543.629	815.32
544.082	818.62
544.536	834.22
544.989	837.32
545.442	843.62
545.895	844.62
546.349	826.82
546.802	838.02
547.255	835.52
547.708	850.22
548.161	870.72
548.614	867.12
549.067	884.12
549.52	867.02
549.973	862.52
550.426	850.32
550.879	845.52
551.332	846.92
551.785	869.02
552.238	849.02
552.691	880.02
553.144	886.82
553.596	897.72
554.049	906.32
554.502	952.72
554.955	966.12
555.407	967.62
555.86	967.02
556.313	939.72
556.765	925.52
557.218	928.12
557.67	932.52
558.123	926.52
558.576	928.02
559.028	932.42
559.48	939.72
559.933	924.92
560.385	896.12
560.838	869.42
561.29	826.82
561.742	833.12
562.195	812.42
562.647	812.62
563.099	823.12
563.551	818.02
564.004	825.52
564.456	811.22
564.908	805.62
565.36	787.72
565.812	772.42
566.264	764.52
566.716	758.92
567.168	748.72
567.62	749.62
568.072	739.52
568.524	732.32
568.976	732.62
569.428	712.42
569.88	711.82
570.332	721.92
570.784	722.02
571.235	719.72
571.687	725.92
572.139	754.72
572.59	753.52
573.042	751.52
573.494	748.42
573.945	755.62
574.397	721.02
574.849	731.52
575.3	729.02
575.752	715.42
576.203	726.02
576.655	726.52
577.106	705.12
577.557	697.12
578.009	708.52
578.46	702.72
578.912	698.22
579.363	699.02
579.814	701.42
580.265	702.72
580.717	706.02
581.168	709.92
581.619	711.52
582.07	719.82
582.521	717.72
582.972	711.72
583.423	710.32
583.875	716.02
584.326	713.72
584.777	733.72
585.227	753.02
585.678	770.82
586.129	777.02
586.58	810.72
587.031	828.22
587.482	859.42
587.933	884.12
588.384	875.52
588.834	823.02
589.285	813.32
589.736	811.02
590.186	804.82
590.637	801.52
591.088	789.92
591.538	773.02
591.989	770.52
592.439	760.02
592.89	751.02
593.34	742.92
593.791	730.92
594.241	725.62
594.692	729.72
595.142	729.02
595.593	726.82
596.043	742.62
596.493	739.72
596.943	747.02
597.394	756.12
597.844	752.32
598.294	768.02
598.744	796.62
599.195	823.42
599.645	862.62
600.095	911.12
600.545	964.72
600.995	1019.22
601.445	1071.42
601.895	1138.02
602.345	1186.82
602.795	1183.42
603.245	1124.32
603.695	1061.62
604.145	1002.22
604.594	965.62
605.044	918.72
605.494	850.92
605.944	800.42
606.393	790.12
606.843	759.02
607.293	767.22
607.743	764.42
608.192	781.92
608.642	790.02
609.091	801.12
609.541	804.52
609.99	795.62
610.44	783.12
610.889	741.12
611.339	729.82
611.788	710.02
612.238	717.82
612.687	730.42
613.136	728.32
613.586	741.42
614.035	735.72
614.484	740.72
614.933	733.02
615.383	732.42
615.832	736.82
616.281	725.42
616.73	703.82
617.179	682.52
617.628	677.32
618.077	655.92
618.526	653.82
618.975	644.02
619.424	646.92
619.873	635.92
620.322	627.32
620.771	627.32
621.22	632.52
621.669	624.72
622.118	608.42
622.567	608.92
623.015	596.22
623.464	606.62
623.913	582.02
624.361	579.92
624.81	580.82
625.259	578.72
625.707	580.72
626.156	574.12
626.604	593.12
627.053	587.42
627.501	591.32
627.95	602.12
628.398	608.52
628.847	603.12
629.295	594.82
629.744	607.22
630.192	588.72
630.64	581.92
631.089	569.42
631.537	563.02
631.985	558.02
632.433	556.32
632.881	549.62
633.33	551.52
633.778	550.42
634.226	537.22
634.674	564.12
635.122	566.52
635.57	563.52
636.018	578.62
636.466	581.02
636.914	579.32
637.362	595.22
637.81	609.82
638.258	613.02
638.705	603.12
639.153	631.32
639.601	640.62
640.049	670.32
640.497	696.92
640.944	724.82
641.392	682.02
641.84	650.12
642.287	615.42
642.735	588.72
643.182	589.12
643.63	585.62
644.078	580.62
644.525	603.72
644.973	605.52
645.42	604.72
645.867	639.92
646.315	650.32
646.762	678.62
647.21	712.82
647.657	732.32
648.104	761.42
648.551	783.32
648.999	828.22
649.446	914.32
649.893	996.02
650.34	1145.72
650.787	1355.32
651.234	1659.52
651.682	2145.92
652.129	2920.32
652.576	4127.32
653.023	6010.42
653.47	8125.42
653.917	10100.02
654.363	11689.32
654.81	12879.82
655.257	12190.42
655.704	8100.82
656.151	4847.82
656.598	3187.32
657.044	2299.22
657.491	1791.42
657.938	1431.72
658.385	1214.52
658.831	1067.32
659.278	950.42
659.724	852.92
660.171	788.22
660.618	729.02
661.064	690.82
661.511	685.32
661.957	656.42
662.404	655.72
662.85	670.82
663.296	630.72
663.743	574.22
664.189	548.72
664.635	550.82
665.082	547.42
665.528	550.12
665.974	532.92
666.42	531.92
666.867	532.62
667.313	496.32
667.759	490.82
668.205	478.52
668.651	463.92
669.097	469.72
669.543	466.02
669.989	465.42
670.435	460.62
670.881	461.42
671.327	471.42
671.773	491.42
672.219	513.12
672.665	566.32
673.11	611.92
673.556	659.82
674.002	694.82
674.448	677.12
674.893	579.82
675.339	496.22
675.785	460.52
676.23	438.12
676.676	412.22
677.122	399.52
677.567	386.02
678.013	384.32
678.458	381.32
678.904	372.72
679.349	358.42
679.794	377.82
680.24	370.02
680.685	370.82
681.131	359.42
681.576	363.72
682.021	368.62
682.466	371.22
682.912	367.82
683.357	376.02
683.802	396.62
684.247	433.32
684.692	472.92
685.137	523.82
685.583	565.22
686.028	581.22
686.473	545.92
686.918	472.92
687.363	436.62
687.807	408.62
688.252	379.52
688.697	376.62
689.142	357.32
689.587	348.42
690.032	337.82
690.477	362.72
690.921	367.82
691.366	405.22
691.811	423.92
692.255	448.02
692.7	466.92
693.145	524.12
693.589	729.82
694.034	1194.52
694.478	1638.12
694.923	1831.12
695.367	2388.12
695.812	1257.32
696.256	520.12
696.701	382.92
697.145	357.32
697.59	344.42
698.034	335.72
698.478	346.02
698.922	335.22
699.367	332.52
699.811	349.42
700.255	374.92
700.699	406.12
701.143	440.72
701.588	498.62
702.032	540.72
702.476	542.82
702.92	509.22
703.364	522.22
703.808	671.82
704.252	1103.32
704.696	1521.92
705.14	1767.72
705.584	2245.42
706.027	1120.92
706.471	545.22
706.915	418.72
707.359	361.72
707.803	329.42
708.246	325.82
708.69	325.32
709.134	325.72
709.577	326.42
710.021	331.22
710.465	320.72
710.908	304.42
711.352	311.22
711.795	323.22
712.239	370.62
712.682	403.32
713.126	430.32
713.569	478.82
714.012	370.12
714.456	312.42
714.899	302.02
715.342	288.72
715.786	273.62
716.229	263.42
716.672	270.72
717.115	259.52
717.558	270.02
718.002	262.22
718.445	270.32
718.888	300.12
719.331	299.72
719.774	323.72
720.217	318.32
720.66	300.72
721.103	279.42
721.546	276.82
721.989	265.92
722.432	235.72
722.874	258.02
723.317	240.62
723.76	237.02
724.203	270.82
724.645	325.72
725.088	461.62
725.531	601.62
725.974	666.72
726.416	573.72
726.859	320.32
727.301	263.82
727.744	252.02
728.187	242.72
728.629	252.82
729.071	252.02
729.514	268.32
729.956	279.02
730.399	293.92
730.841	305.92
731.283	284.62
731.726	282.62
732.168	268.42
732.61	273.72
733.053	302.82
733.495	332.92
733.937	373.72
734.379	414.72
734.821	453.72
735.263	566.82
735.705	882.22
736.148	1675.62
736.59	2727.92
737.032	3242.52
737.474	2624.82
737.916	856.02
738.357	448.22
738.799	344.42
739.241	313.72
739.683	294.92
740.125	302.32
740.567	303.52
741.008	334.32
741.45	336.42
741.892	328.72
742.334	367.42
742.775	377.92
743.217	361.82
743.658	287.82
744.1	274.62
744.542	274.92
744.983	337.22
745.425	369.22
745.866	367.32
746.307	293.52
746.749	292.02
747.19	334.32
747.632	485.62
748.073	929.92
748.514	1985.62
748.956	3037.52
749.397	3802.12
749.838	3147.12
750.279	3132.12
750.72	1590.32
751.162	586.02
751.603	338.12
752.044	264.22
752.485	228.22
752.926	216.92
753.367	213.32
753.808	202.72
754.249	198.72
754.69	199.12
755.131	195.42
755.572	181.92
756.013	185.42
756.453	182.82
756.894	185.52
757.335	201.82
757.776	202.12
758.216	206.12
758.657	200.72
759.098	212.32
759.538	234.72
759.979	279.92
760.42	392.62
760.86	757.12
761.301	1953.52
761.741	4691.92
762.182	6795.42
762.622	4802.52
763.063	1390.12
763.503	565.42
763.943	342.12
764.384	284.32
764.824	264.32
765.264	256.52
765.705	217.92
766.145	193.62
766.585	189.02
767.025	176.82
767.465	164.42
767.906	182.92
768.346	202.62
768.786	211.02
769.226	224.82
769.666	322.02
770.106	642.12
770.546	1645.12
770.986	2776.62
771.426	2480.62
771.866	836.62
772.306	346.52
772.745	209.52
773.185	176.82
773.625	165.82
774.065	162.12
774.505	172.32
774.944	213.72
775.384	379.82
775.824	627.32
776.263	597.72
776.703	291.52
777.142	165.82
777.582	138.62
778.021	125.92
778.461	128.12
778.9	130.12
779.34	125.02
779.779	113.72
780.219	106.32
780.658	115.52
781.097	116.62
781.537	116.22
781.976	114.92
782.415	105.42
782.855	105.82
783.294	105.52
783.733	108.62
784.172	104.32
784.611	105.32
785.05	109.82
785.489	118.92
785.928	120.02
786.367	124.52
786.806	129.12
787.245	132.82
787.684	137.62
788.123	152.62
788.562	137.72
789.001	129.42
789.44	123.32
789.879	121.12
790.317	121.82
790.756	130.52
791.195	124.52
791.634	150.72
792.072	216.72
792.511	378.82
792.95	1055.32
793.388	2233.82
793.827	2006.12
794.265	703.42
794.704	291.92
795.142	192.62
795.581	156.02
796.019	141.42
796.458	134.52
796.896	134.42
797.334	142.12
797.773	160.52
798.211	229.52
798.649	461.12
799.087	1076.52
799.526	1690.82
799.964	2129.32
800.402	2133.12
800.84	806.82
801.278	315.12
801.716	190.42
802.154	158.42
802.592	153.82
803.03	143.22
803.468	139.82
803.906	149.92
804.344	152.12
804.782	146.42
805.22	143.62
805.658	131.02
806.096	148.62
806.533	166.42
806.971	183.32
807.409	232.32
807.847	325.82
808.284	713.22
808.722	1985.22
809.16	3463.92
809.597	3334.32
810.035	5751.92
810.472	6073.52
810.91	2203.92
811.347	842.42
811.785	426.02
812.222	276.22
812.66	209.22
813.097	178.02
813.535	146.62
813.972	139.82
814.409	129.22
814.846	113.42
815.284	118.12
815.721	110.72
816.158	112.22
816.595	117.92
817.032	155.42
817.47	192.22
817.907	149.62
818.344	108.92
818.781	98.32
819.218	104.22
819.655	128.92
820.092	200.32
820.529	224.82
820.966	181.02
821.403	137.22
821.839	105.22
822.276	102.32
822.713	129.32
823.15	144.62
823.587	130.92
824.023	154.62
824.46	314.22
824.897	946.22
825.333	1421.42
825.77	618.22
826.206	245.62
826.643	151.22
827.08	108.12
827.516	86.32
827.953	80.22
828.389	85.72
828.825	78.52
829.262	70.22
829.698	69.92
830.135	68.52
830.571	61.12
831.007	67.22
831.443	67.02
831.88	61.22
832.316	64.52
832.752	67.12
833.188	66.32
833.624	66.82
834.06	72.32
834.497	76.72
834.933	72.32
835.369	82.72
835.805	69.82
836.241	82.12
836.677	84.12
837.112	89.82
837.548	111.52
837.984	143.82
838.42	208.92
838.856	529.72
839.292	1608.82
839.727	2443.12
840.163	1133.52
840.599	982.62
841.034	2143.32
841.47	2237.52
841.906	822.82
842.341	346.72
842.777	212.52
843.212	211.42
843.648	197.42
844.083	115.02
844.519	87.92
844.954	74.42
845.39	57.82
845.825	54.02
846.261	54.82
846.696	51.22
847.131	57.82
847.566	64.92
848.002	47.72
848.437	57.92
848.872	65.12
849.307	69.72
849.742	89.22
850.177	193.22
850.613	589.62
851.048	921.92
851.483	404.42
851.918	165.82
852.353	86.82
852.788	56.72
853.223	49.82
853.657	57.32
854.092	50.02
854.527	49.72
854.962	41.22
855.397	49.42
855.832	49.02
856.266	47.02
856.701	35.62
857.136	36.72
857.57	40.02
858.005	49.32
858.44	65.72
858.874	50.02
859.309	48.92
859.743	38.32
860.178	47.12
860.612	37.82
861.047	49.72
861.481	74.02
861.915	76.82
862.35	51.42
862.784	40.22
863.218	43.42
863.653	32.22
864.087	44.92
864.521	57.82
864.955	69.12
865.39	163.22
865.824	191.42
866.258	121.82
866.692	176.02
867.126	201.02
867.56	114.72
867.994	56.72
868.428	35.72
868.862	51.32
869.296	61.82
869.73	65.72
870.164	60.52
870.598	52.02
871.031	37.82
871.465	34.92
871.899	30.12
872.333	26.22
872.766	26.42
873.2	26.32
873.634	31.82
874.067	26.42
874.501	28.52
874.935	31.52
875.368	30.22
875.802	24.22
876.235	22.12
876.669	26.92
877.102	23.62
877.535	23.42
877.969	26.12
878.402	22.02
878.836	18.72
879.269	27.32
879.702	30.62
880.135	21.02
880.569	25.22
881.002	26.32
881.435	24.42
881.868	15.82
882.301	22.32
882.734	16.22
883.167	23.52
883.601	21.32
884.034	16.32
884.467	11.22
884.899	23.52
885.332	14.82
885.765	17.02
886.198	18.42
886.631	19.92
887.064	21.72
887.497	24.92
887.929	26.82
888.362	14.72
888.795	13.82
889.228	19.32
889.66	26.12
890.093	15.82
890.526	17.82
890.958	14.22
891.391	21.22
891.823	22.62
892.256	17.32
892.688	12.42
893.121	13.62
893.553	16.12
893.985	21.72
894.418	23.12
894.85	10.12
895.282	14.42
895.715	12.12
896.147	16.12
896.579	15.52
897.011	12.22
897.444	22.52
897.876	12.62
898.308	10.22
898.74	13.02
899.172	19.42
899.604	26.32
900.036	22.12
900.468	13.52
900.9	22.12
901.332	16.42
901.764	15.02
902.196	17.52
902.628	14.62
903.06	17.42
903.491	27.82
903.923	24.12
904.355	20.92
904.787	23.62
905.218	20.52
905.65	26.82
906.082	14.82
906.513	15.22
906.945	12.92
907.376	17.22
907.808	18.92
908.239	25.42
908.671	12.32
909.102	19.32
909.534	24.62
909.965	55.72
910.397	101.42
910.828	331.12
911.259	496.82
911.691	232.72
912.122	109.42
912.553	51.82
912.984	31.52
913.415	29.02
913.847	29.72
914.278	16.92
914.709	12.02
915.14	18.42
915.571	20.62
916.002	12.32
916.433	17.52
916.864	13.02
917.295	11.12
917.726	20.82
918.157	18.12
918.587	26.72
919.018	22.22
919.449	18.62
919.88	24.62
920.311	31.82
920.741	51.02
921.172	174.02
921.603	157.12
922.033	75.52
922.464	43.62
922.895	16.22
923.325	10.92
923.756	11.42
924.186	12.02
924.617	17.22
925.047	24.32
925.478	21.82
925.908	22.02
926.338	16.52
926.769	7.52
927.199	13.62
927.629	6.12
928.06	13.62
928.49	22.72
928.92	12.52
929.35	12.52
929.78	11.52
930.21	5.82
930.641	8.22
931.071	15.02
931.501	10.92
931.931	7.12
932.361	4.22
932.791	-2.28
933.221	7.52
933.651	5.52
934.08	11.92
934.51	30.72
934.94	10.32
935.37	4.32
935.8	5.62
936.229	5.92
936.659	11.32
937.089	1.22
937.519	15.32
937.948	22.02
938.378	14.62
938.807	-0.58
939.237	-1.58
939.666	9.92
940.096	-9.18
940.525	3.12
940.955	-3.88
941.384	1.92
941.814	-2.88
942.243	-0.98
942.672	8.12
943.102	-4.48
943.531	3.92
943.96	4.72
944.39	5.62
944.819	2.82
945.248	5.12
945.677	3.42
946.106	13.02
946.535	8.82
946.964	0.32
947.393	5.62
947.822	3.22
948.251	-2.28
948.68	-4.28
949.109	6.42
949.538	7.62
949.967	-1.58
950.396	-3.88
950.825	-1.58
951.254	-4.68
951.682	-7.68
952.111	-1.88
952.54	-3.68
952.969	-5.28
953.397	-6.88
953.826	-3.88
954.254	-5.28
954.683	7.52
955.112	-1.28
955.54	5.82
955.969	-2.78
956.397	2.02
956.826	-3.88
957.254	6.22
957.682	-0.88
958.111	4.92
958.539	-8.08
958.967	1.92
959.396	-2.78
959.824	0.22
960.252	3.42
960.68	-3.48
961.109	-3.48
961.537	-8.28
961.965	-2.28
962.393	0.32
962.821	-3.08
963.249	6.32
963.677	3.82
964.105	4.12
964.533	45.32
964.961	43.52
965.389	16.42
965.817	5.32
966.245	6.22
966.672	-1.08
967.1	-5.98
967.528	1.02
967.956	-1.68
968.383	1.12
968.811	-3.18
969.239	-1.58
969.666	-4.28
970.094	1.82
970.522	-2.58
970.949	-2.28
971.377	-4.28
971.804	-6.18
972.232	2.82
972.659	-0.08
973.087	-0.98
973.514	0.22
973.941	-5.58
974.369	3.52
974.796	-0.88
975.223	-2.38
975.651	-0.18
976.078	2.92
976.505	-3.88
976.932	0.12
977.359	10.62
977.786	15.12
978.214	1.12
978.641	-4.88
979.068	-4.48
979.495	-4.68
979.922	-0.58
980.349	-3.58
980.776	4.12
981.202	2.52
981.629	6.32
982.056	2.82
982.483	1.52
982.91	2.22
983.337	-5.88
983.763	-0.98
984.19	-3.38
984.617	-2.18
985.043	-5.58
985.47	-4.48
985.897	-4.68
986.323	-5.58
986.75	-2.78
987.176	-0.98
987.603	-4.08
988.029	-3.58
988.456	-5.98
988.882	1.82
989.308	-4.48
989.735	-9.38
990.161	-3.78
990.587	-5.88
991.014	-3.18
991.44	8.72
991.866	-5.08
992.292	-3.18
992.719	-8.78
993.145	-2.58
993.571	-12.28
993.997	-9.08
994.423	-5.38
994.849	-1.48
995.275	1.62
995.701	2.32
996.127	-0.68
996.553	4.52
996.979	-3.38
997.405	-3.18
997.83	-5.68
998.256	-6.18
998.682	-5.68
999.108	-9.38
999.534	-1.78
999.959	-1.38
1000.385	-5.98
1000.811	-2.78
1001.236	-11.48
1001.662	-7.48
1002.087	-10.38
1002.513	-1.48
1002.938	-0.88
1003.364	0.02
1003.789	-0.48
1004.215	2.12
1004.64	-0.18
1005.066	6.22
1005.491	0.52
1005.916	-2.28
1006.342	-6.88
1006.767	-6.08
1007.192	4.02
1007.617	-9.18
1008.042	-8.58
1008.468	-10.48
1008.893	-5.48
1009.318	-2.98
1009.743	1.72
1010.168	1.52
1010.593	2.62
1011.018	-10.38
1011.443	-3.48
1011.868	0.42
1012.293	-4.38
1012.718	-9.28
1013.143	-0.48
1013.567	0.12
1013.992	-1.28
1014.417	-7.98
1014.842	0.32
1015.267	-1.28
1015.691	-6.08
1016.116	2.62
1016.541	-0.08
1016.965	4.42
1017.39	-0.88
1017.814	-2.48
1018.239	-3.78
1018.663	-14.68
1019.088	-13.78
1019.512	-2.88
1019.937	-3.18
1020.361	-6.88
1020.785	-8.18
1021.21	-5.48
1021.634	-1.58
1022.058	-0.98
1022.483	1.82
1022.907	-6.58
1023.331	-4.98
1023.755	-5.08
1024.179	-5.28
1024.604	-12.38
1025.028	-8.08
1025.452	-7.48
1025.876	-1.18
1026.3	2.42
1026.724	-10.88
1027.148	-8.18
1027.572	-8.48
1027.996	-5.28
1028.42	-0.48
1028.843	-4.78
1029.267	-7.18
1029.691	-2.18
1030.115	-5.58
1030.539	-8.98
1030.962	-7.68
1031.386	-5.38
1031.81	0.02
1032.233	-3.68
1032.657	-9.68
1033.08	0.62
1033.504	-3.48
1033.927	-4.28
1034.351	-1.98
1034.774	-3.58
1035.198	-1.58
1035.621	-8.88
1036.045	-10.28
1036.468	-3.38
1036.891	-16.68
1037.315	-13.08
1037.738	-5.58
1038.161	1.12
1038.584	-7.78
1039.008	-7.38
1039.431	-2.18
1039.854	-1.28
1040.277	-8.08
1040.7	-11.58
1041.123	-4.28
1041.546	-8.98
1041.969	-5.58
1042.392	-4.18
1042.815	0.02
1043.238	-3.58
1043.661	4.02
1044.084	-7.68
1044.507	-7.08
1044.93	-6.98
1045.352	-4.28
1045.775	-2.58
1046.198	-9.98
1046.621	-2.28
1047.043	-0.48
1047.466	3.82
1047.889	-1.08
1048.311	-3.88
1048.734	-5.68
1049.156	-1.58
1049.579	-2.38
1050.001	-2.68
1050.424	3.92
1050.846	4.52
1051.269	-2.98
1051.691	-4.38
1052.113	-1.58
1052.536	-2.58
1052.958	-9.88
1053.38	-4.28
1053.802	-14.48
1054.225	-2.58
1054.647	-9.18
1055.069	-9.48
1055.491	5.22
1055.913	-8.88
1056.335	3.22
1056.757	-7.58
1057.179	-5.28
1057.601	-12.18
1058.023	-4.68
1058.445	-5.48
1058.867	-3.78
1059.289	-8.68
1059.711	-7.18
1060.133	-0.18
1060.555	-8.08
1060.976	-5.48
1061.398	-5.48
1061.82	-5.18
1062.241	-5.38
1062.663	-8.78
1063.085	-1.78
1063.506	4.22
1063.928	-10.38
1064.35	-2.28
1064.771	-19.78
1065.193	-3.08
1065.614	-8.48
1066.035	-9.38
1066.457	-8.18
1066.878	-0.68
1067.3	-9.18
1067.721	-5.48
1068.142	-6.38
1068.564	-3.98
1068.985	-5.68
1069.406	-7.88
1069.827	-4.68
1070.248	0.32
1070.67	-12.18
1071.091	-5.38
1071.512	-4.08
1071.933	-3.68
1072.354	-8.88
1072.775	-10.38
1073.196	-7.48
1073.617	-4.68
1074.038	-6.88
1074.459	3.12
1074.88	-10.38
1075.3	-2.48
1075.721	-12.78
1076.142	-0.58
1076.563	-3.48
1076.983	-5.58
1077.404	-4.18
1077.825	-13.38
1078.246	-3.88
1078.666	-14.58
1079.087	-10.08
1079.507	-5.88
1079.928	-4.28
1080.348	-4.58
1080.769	-9.08
1081.189	-2.18
1081.61	-1.58
1082.03	-7.18
1082.451	-8.18
1082.871	-10.78
1083.291	-9.98
1083.711	-12.68
1084.132	-5.28
1084.552	-9.08
1084.972	-8.08
1085.392	-12.18
1085.813	-12.78
1086.233	-7.68
1086.653	-6.68
1087.073	-4.18
1087.493	-4.98
1087.913	-4.38
1088.333	-10.18
1088.753	-5.18
1089.173	-2.68
1089.593	-10.88
1090.013	1.72
1090.433	0.12
1090.852	-1.78
1091.272	-3.58
1091.692	-3.68
1092.112	-3.78
1092.531	-9.98
1092.951	-7.48
1093.371	-6.78
1093.79	-1.18
1094.21	-4.88
1094.63	-4.88
1095.049	-5.98
1095.469	-7.08
1095.888	-4.08
1096.308	0.02
1096.727	6.12
1097.146	-9.68
1097.566	-2.78
1097.985	-4.88
1098.405	-5.08
1098.824	-5.98
1099.243	-10.38
1099.662	-9.38
1100.082	-8.28
1100.501	-2.08
1100.92	-10.78
1101.339	-8.58
1101.758	-7.18
