Data from 20171114-ORNL-Ar_H_NY_Subt18_08-08-59-665.txt Node
Date: Tue Nov 14 08:08:59 EST 2017
User: Ender
Spectrometer: HR+D1039
Trigger mode: 0
Integration Time (sec): 2.730000E-2
Scans to average: 10
Electric dark correction enabled: true
Nonlinearity correction enabled: false
Boxcar width: 0
XAxis mode: Wavelengths
Number of Pixels in Spectrum: 2048
>>>>>Begin Spectral Data<<<<<
187.836	-4.63
188.309	-4.63
188.782	-4.63
189.255	-3.03
189.728	3.27
190.201	8.97
190.674	0.57
191.147	1.67
191.619	-8.73
192.092	1.17
192.565	3.97
193.038	-3.33
193.511	4.27
193.984	2.27
194.456	-4.33
194.929	-3.53
195.402	-2.83
195.874	4.27
196.347	-4.73
196.82	-0.23
197.292	8.17
197.765	1.27
198.237	-4.93
198.71	6.17
199.182	-0.63
199.655	-1.63
200.127	1.17
200.6	3.07
201.072	3.27
201.544	-5.63
202.017	-1.83
202.489	5.17
202.961	-7.03
203.433	-7.33
203.906	-9.43
204.378	-5.83
204.85	-7.33
205.322	-7.33
205.794	-5.43
206.266	0.47
206.739	-5.13
207.211	-1.03
207.683	-8.83
208.155	-7.53
208.627	-3.23
209.099	-7.33
209.57	-5.53
210.042	-10.23
210.514	-2.03
210.986	-4.53
211.458	-8.93
211.93	-2.23
212.402	2.07
212.873	-8.13
213.345	-14.23
213.817	-15.03
214.288	-3.03
214.76	-12.03
215.232	-3.03
215.703	-2.23
216.175	-0.93
216.646	-7.33
217.118	-8.63
217.589	1.67
218.061	-6.43
218.532	-8.53
219.004	-5.63
219.475	-1.93
219.946	-1.83
220.418	-9.23
220.889	3.87
221.36	3.57
221.832	-7.43
222.303	-9.63
222.774	-3.53
223.245	-7.43
223.717	-4.93
224.188	-3.73
224.659	-3.73
225.13	-3.93
225.601	-2.23
226.072	2.27
226.543	-3.63
227.014	-2.83
227.485	-3.73
227.956	-8.33
228.427	-4.73
228.898	5.67
229.369	3.37
229.839	-4.43
230.31	-6.83
230.781	0.47
231.252	-3.23
231.722	-4.73
232.193	-1.83
232.664	5.37
233.135	-3.13
233.605	-0.23
234.076	-7.83
234.546	0.47
235.017	2.17
235.487	-3.33
235.958	-2.13
236.428	-7.03
236.899	-3.13
237.369	-6.63
237.84	2.47
238.31	4.17
238.78	-4.03
239.251	-6.03
239.721	-1.73
240.191	-0.23
240.662	-4.63
241.132	0.27
241.602	-1.93
242.072	-7.03
242.542	-0.83
243.013	-3.03
243.483	-0.03
243.953	-0.63
244.423	-2.13
244.893	-6.73
245.363	-0.93
245.833	0.77
246.303	-4.53
246.773	1.97
247.243	0.97
247.712	4.77
248.182	3.77
248.652	2.07
249.122	-0.03
249.592	2.87
250.061	4.97
250.531	11.37
251.001	4.67
251.471	4.87
251.94	7.57
252.41	-6.93
252.879	-4.53
253.349	4.57
253.818	5.17
254.288	2.67
254.757	4.87
255.227	-3.63
255.696	1.57
256.166	1.37
256.635	5.57
257.105	1.37
257.574	1.47
258.043	1.47
258.513	-3.33
258.982	7.17
259.451	0.57
259.92	2.07
260.389	2.97
260.859	6.77
261.328	-2.83
261.797	4.27
262.266	-0.53
262.735	1.37
263.204	1.67
263.673	-5.73
264.142	2.67
264.611	-2.43
265.08	-6.13
265.549	0.27
266.018	2.17
266.487	-1.73
266.955	-5.13
267.424	-0.73
267.893	2.07
268.362	-0.43
268.83	-0.53
269.299	3.77
269.768	3.37
270.236	7.77
270.705	-3.73
271.174	2.97
271.642	-0.13
272.111	-1.63
272.579	3.07
273.048	1.87
273.516	7.97
273.985	7.57
274.453	8.17
274.922	10.27
275.39	2.87
275.858	-2.73
276.327	4.97
276.795	17.97
277.263	8.57
277.731	16.17
278.2	20.37
278.668	13.67
279.136	20.77
279.604	4.47
280.072	6.87
280.54	4.07
281.008	0.77
281.477	9.17
281.945	5.37
282.413	5.67
282.881	5.97
283.348	1.27
283.816	11.27
284.284	8.87
284.752	15.57
285.22	6.37
285.688	10.07
286.156	9.07
286.623	20.07
287.091	11.47
287.559	10.87
288.026	8.97
288.494	12.97
288.962	0.87
289.429	4.77
289.897	12.17
290.364	11.37
290.832	10.87
291.3	8.37
291.767	13.97
292.234	11.07
292.702	7.17
293.169	10.87
293.637	9.47
294.104	13.87
294.571	4.37
295.039	4.77
295.506	5.57
295.973	11.07
296.44	3.67
296.908	10.77
297.375	6.47
297.842	13.17
298.309	17.67
298.776	11.17
299.243	13.97
299.71	5.37
300.177	16.47
300.644	10.07
301.111	10.87
301.578	15.87
302.045	18.37
302.512	14.07
302.979	14.77
303.446	16.27
303.913	11.67
304.379	11.57
304.846	18.97
305.313	19.97
305.78	10.87
306.246	19.37
306.713	17.47
307.18	17.67
307.646	16.37
308.113	14.87
308.579	15.47
309.046	18.37
309.512	15.97
309.979	3.17
310.445	16.57
310.912	14.27
311.378	22.67
311.845	18.47
312.311	19.17
312.777	26.77
313.244	24.47
313.71	27.87
314.176	22.67
314.642	23.67
315.109	21.27
315.575	32.47
316.041	28.97
316.507	21.27
316.973	30.17
317.439	19.37
317.905	31.77
318.371	22.27
318.837	23.27
319.303	23.87
319.769	27.77
320.235	26.87
320.701	29.87
321.167	22.67
321.633	17.17
322.099	31.77
322.564	29.97
323.03	27.27
323.496	28.87
323.962	27.27
324.427	23.17
324.893	30.07
325.359	32.07
325.824	24.77
326.29	27.87
326.755	29.27
327.221	31.57
327.686	30.97
328.152	39.27
328.617	37.07
329.083	40.77
329.548	42.67
330.014	35.57
330.479	33.37
330.944	31.57
331.41	33.97
331.875	32.27
332.34	30.87
332.805	31.37
333.271	29.97
333.736	30.37
334.201	45.37
334.666	37.57
335.131	45.17
335.596	39.67
336.061	41.37
336.526	31.27
336.991	32.37
337.456	39.57
337.921	43.57
338.386	33.47
338.851	35.67
339.316	36.57
339.781	34.27
340.246	42.57
340.711	35.77
341.175	40.37
341.64	31.87
342.105	43.97
342.569	42.67
343.034	49.37
343.499	44.17
343.963	41.07
344.428	50.77
344.893	52.57
345.357	50.77
345.822	48.97
346.286	56.17
346.751	56.37
347.215	52.97
347.679	58.47
348.144	73.17
348.608	61.67
349.073	58.17
349.537	56.67
350.001	69.77
350.465	69.97
350.93	62.57
351.394	75.27
351.858	54.57
352.322	76.07
352.786	67.87
353.25	84.77
353.715	88.17
354.179	78.17
354.643	94.27
355.107	93.67
355.571	85.77
356.035	78.57
356.498	92.67
356.962	95.77
357.426	100.57
357.89	93.07
358.354	69.57
358.818	63.17
359.281	66.67
359.745	67.37
360.209	59.87
360.673	71.77
361.136	71.77
361.6	70.57
362.064	65.47
362.527	66.97
362.991	75.07
363.454	63.17
363.918	64.87
364.381	63.57
364.845	67.27
365.308	73.97
365.772	72.67
366.235	79.57
366.698	73.47
367.162	79.47
367.625	78.47
368.088	78.77
368.552	72.07
369.015	75.17
369.478	82.07
369.941	81.57
370.404	73.37
370.867	85.87
371.331	88.37
371.794	91.77
372.257	81.87
372.72	91.77
373.183	91.67
373.646	87.17
374.109	85.87
374.572	95.77
375.035	86.17
375.497	96.47
375.96	92.27
376.423	95.27
376.886	97.77
377.349	87.67
377.811	86.57
378.274	92.17
378.737	97.07
379.199	105.07
379.662	92.17
380.125	103.47
380.587	94.37
381.05	98.97
381.512	101.77
381.975	112.87
382.437	110.47
382.9	105.17
383.362	112.37
383.825	119.47
384.287	117.77
384.75	113.37
385.212	113.17
385.674	117.47
386.136	114.97
386.599	106.47
387.061	117.07
387.523	110.67
387.985	114.67
388.447	121.17
388.91	117.07
389.372	122.17
389.834	125.67
390.296	123.07
390.758	123.87
391.22	128.67
391.682	149.17
392.144	183.77
392.606	154.17
393.068	137.47
393.529	138.07
393.991	130.87
394.453	130.37
394.915	125.37
395.377	137.77
395.838	142.27
396.3	133.07
396.762	125.67
397.224	121.57
397.685	120.07
398.147	120.27
398.608	118.47
399.07	124.37
399.531	125.67
399.993	131.27
400.454	143.97
400.916	140.97
401.377	137.17
401.839	138.07
402.3	142.47
402.762	149.97
403.223	166.27
403.684	159.87
404.145	151.47
404.607	148.87
405.068	156.97
405.529	156.27
405.99	167.67
406.451	161.77
406.913	159.07
407.374	155.87
407.835	157.37
408.296	162.87
408.757	156.57
409.218	178.47
409.679	160.87
410.14	166.37
410.601	170.07
411.062	165.87
411.522	176.67
411.983	164.97
412.444	164.97
412.905	176.37
413.366	177.57
413.826	180.87
414.287	207.67
414.748	257.57
415.208	239.47
415.669	207.17
416.13	197.77
416.59	190.77
417.051	203.57
417.511	213.57
417.972	234.07
418.432	237.57
418.893	282.17
419.353	245.97
419.814	197.27
420.274	174.97
420.734	178.07
421.195	188.17
421.655	192.07
422.115	185.97
422.576	186.67
423.036	186.67
423.496	194.37
423.956	211.17
424.416	223.67
424.876	259.87
425.336	246.07
425.797	252.07
426.257	240.87
426.717	232.07
427.177	221.97
427.637	211.77
428.097	220.37
428.556	231.47
429.016	260.07
429.476	250.77
429.936	259.77
430.396	268.37
430.856	271.07
431.315	302.27
431.775	331.37
432.235	364.17
432.694	328.27
433.154	345.67
433.614	374.17
434.073	324.77
434.533	264.07
434.993	253.27
435.452	271.07
435.912	269.57
436.371	270.87
436.83	270.67
437.29	259.37
437.749	242.37
438.209	238.97
438.668	264.07
439.127	273.27
439.587	250.57
440.046	235.47
440.505	253.37
440.964	263.07
441.424	310.67
441.883	298.67
442.342	251.17
442.801	223.67
443.26	215.67
443.719	220.97
444.178	220.47
444.637	210.87
445.096	217.77
445.555	226.67
446.014	224.97
446.473	218.77
446.932	226.57
447.391	218.27
447.849	229.67
448.308	218.07
448.767	222.57
449.226	237.77
449.685	243.37
450.143	243.07
450.602	235.67
451.061	223.17
451.519	227.87
451.978	232.47
452.436	230.47
452.895	232.87
453.353	246.37
453.812	235.67
454.27	234.77
454.729	241.37
455.187	238.17
455.646	247.77
456.104	247.57
456.562	256.47
457.021	262.47
457.479	256.87
457.937	270.87
458.395	258.07
458.854	253.97
459.312	248.07
459.77	272.27
460.228	257.87
460.686	240.97
461.144	250.07
461.602	240.97
462.06	244.17
462.518	258.77
462.976	257.57
463.434	256.77
463.892	259.37
464.35	270.57
464.808	284.17
465.266	272.37
465.724	267.97
466.181	271.67
466.639	265.57
467.097	285.87
467.555	301.27
468.012	299.27
468.47	308.67
468.928	323.97
469.385	334.67
469.843	343.17
470.3	344.57
470.758	361.17
471.215	378.77
471.673	406.37
472.13	394.07
472.588	420.57
473.045	367.97
473.503	379.97
473.96	400.07
474.417	397.57
474.875	428.67
475.332	463.87
475.789	448.67
476.246	463.57
476.704	478.47
477.161	504.27
477.618	521.87
478.075	552.77
478.532	596.57
478.989	672.37
479.446	774.27
479.903	737.17
480.36	775.07
480.817	822.57
481.274	907.97
481.731	996.27
482.188	1064.97
482.645	1193.37
483.102	1279.77
483.558	1393.47
484.015	1449.87
484.472	1430.17
484.929	1377.27
485.385	1336.57
485.842	1295.57
486.299	1245.97
486.755	1211.67
487.212	1029.37
487.668	879.07
488.125	818.17
488.582	747.07
489.038	715.57
489.494	687.27
489.951	670.77
490.407	649.57
490.864	628.17
491.32	625.07
491.776	629.87
492.233	629.77
492.689	602.77
493.145	597.37
493.602	592.67
494.058	609.97
494.514	598.57
494.97	619.17
495.426	631.77
495.882	616.07
496.338	601.87
496.794	607.47
497.251	604.97
497.707	624.87
498.163	622.07
498.618	628.17
499.074	628.27
499.53	657.67
499.986	671.27
500.442	637.27
500.898	610.57
501.354	603.57
501.809	620.87
502.265	626.87
502.721	640.77
503.177	651.47
503.632	647.57
504.088	655.77
504.543	676.27
504.999	693.07
505.455	651.17
505.91	633.37
506.366	621.77
506.821	635.87
507.277	622.07
507.732	621.07
508.187	620.97
508.643	636.47
509.098	633.57
509.553	662.47
510.009	666.87
510.464	676.57
510.919	681.47
511.375	682.77
511.83	713.47
512.285	716.17
512.74	752.17
513.195	784.87
513.65	767.97
514.105	760.07
514.56	767.57
515.015	784.87
515.47	800.97
515.925	787.77
516.38	795.37
516.835	788.67
517.29	772.17
517.745	774.67
518.2	754.07
518.655	744.97
519.109	737.17
519.564	743.77
520.019	735.37
520.474	725.07
520.928	724.77
521.383	722.87
521.838	710.07
522.292	699.37
522.747	708.07
523.201	708.47
523.656	695.07
524.11	688.87
524.565	694.07
525.019	684.97
525.474	697.87
525.928	697.47
526.382	692.77
526.837	700.37
527.291	696.27
527.745	701.77
528.2	694.47
528.654	683.67
529.108	686.17
529.562	697.77
530.016	685.47
530.47	691.87
530.925	695.87
531.379	700.27
531.833	702.37
532.287	698.97
532.741	692.67
533.195	692.47
533.649	707.37
534.103	713.27
534.556	701.07
535.01	711.97
535.464	694.87
535.918	717.57
536.372	713.57
536.826	715.97
537.279	700.07
537.733	709.97
538.187	716.37
538.64	715.37
539.094	722.07
539.548	735.97
540.001	726.27
540.455	730.37
540.908	732.67
541.362	740.87
541.815	750.07
542.269	769.07
542.722	765.77
543.175	769.07
543.629	769.87
544.082	784.87
544.536	783.67
544.989	792.37
545.442	789.67
545.895	799.67
546.349	797.67
546.802	802.07
547.255	802.27
547.708	811.47
548.161	829.97
548.614	826.07
549.067	836.67
549.52	826.47
549.973	821.77
550.426	826.77
550.879	795.17
551.332	812.27
551.785	815.97
552.238	812.47
552.691	820.17
553.144	839.27
553.596	849.67
554.049	858.57
554.502	895.27
554.955	911.07
555.407	912.37
555.86	908.07
556.313	894.17
556.765	888.47
557.218	892.67
557.67	900.77
558.123	880.57
558.576	885.57
559.028	887.57
559.48	894.37
559.933	884.07
560.385	850.37
560.838	822.67
561.29	791.07
561.742	794.97
562.195	778.27
562.647	784.27
563.099	790.77
563.551	782.87
564.004	778.37
564.456	778.97
564.908	768.77
565.36	749.97
565.812	734.87
566.264	729.17
566.716	729.77
567.168	716.77
567.62	719.07
568.072	710.57
568.524	705.57
568.976	695.77
569.428	682.47
569.88	680.77
570.332	693.17
570.784	693.07
571.235	698.87
571.687	706.57
572.139	717.27
572.59	720.07
573.042	720.47
573.494	724.37
573.945	717.97
574.397	702.27
574.849	696.57
575.3	705.57
575.752	694.37
576.203	694.47
576.655	699.57
577.106	683.47
577.557	678.97
578.009	680.67
578.46	674.67
578.912	671.77
579.363	676.17
579.814	674.77
580.265	676.07
580.717	678.07
581.168	683.47
581.619	685.87
582.07	701.17
582.521	687.07
582.972	676.27
583.423	687.57
583.875	686.57
584.326	698.27
584.777	721.97
585.227	752.47
585.678	796.27
586.129	832.37
586.58	857.17
587.031	886.27
587.482	950.97
587.933	1021.07
588.384	957.87
588.834	851.57
589.285	793.97
589.736	786.97
590.186	781.57
590.637	768.07
591.088	753.67
591.538	754.27
591.989	748.17
592.439	743.47
592.89	732.37
593.34	722.67
593.791	718.77
594.241	700.87
594.692	720.07
595.142	706.67
595.593	701.67
596.043	712.27
596.493	719.87
596.943	715.87
597.394	731.77
597.844	736.87
598.294	746.87
598.744	766.97
599.195	791.77
599.645	844.27
600.095	879.17
600.545	941.17
600.995	993.37
601.445	1047.17
601.895	1111.47
602.345	1145.37
602.795	1131.17
603.245	1087.67
603.695	1036.37
604.145	979.67
604.594	930.27
605.044	883.77
605.494	808.47
605.944	774.17
606.393	760.37
606.843	746.37
607.293	749.87
607.743	741.57
608.192	764.47
608.642	765.47
609.091	777.07
609.541	777.07
609.99	786.67
610.44	777.47
610.889	731.27
611.339	704.37
611.788	697.27
612.238	708.27
612.687	723.07
613.136	714.97
613.586	726.87
614.035	725.97
614.484	721.17
614.933	732.87
615.383	725.57
615.832	724.47
616.281	720.87
616.73	696.27
617.179	660.87
617.628	654.67
618.077	652.47
618.526	629.37
618.975	638.97
619.424	621.47
619.873	625.97
620.322	636.57
620.771	635.17
621.22	619.07
621.669	603.37
622.118	601.97
622.567	596.37
623.015	580.27
623.464	576.37
623.913	576.57
624.361	562.77
624.81	565.87
625.259	566.27
625.707	566.07
626.156	573.27
626.604	575.17
627.053	583.27
627.501	575.27
627.95	578.27
628.398	588.67
628.847	582.97
629.295	580.17
629.744	586.47
630.192	575.37
630.64	577.97
631.089	568.47
631.537	567.27
631.985	562.37
632.433	555.27
632.881	563.97
633.33	578.27
633.778	564.87
634.226	547.87
634.674	559.17
635.122	566.47
635.57	577.57
636.018	591.77
636.466	576.37
636.914	573.27
637.362	583.97
637.81	593.87
638.258	600.87
638.705	600.97
639.153	632.97
639.601	635.47
640.049	655.27
640.497	694.67
640.944	715.87
641.392	656.17
641.84	631.17
642.287	592.77
642.735	581.77
643.182	579.17
643.63	571.47
644.078	578.87
644.525	594.07
644.973	608.17
645.42	611.57
645.867	623.97
646.315	648.97
646.762	668.47
647.21	691.17
647.657	720.97
648.104	758.47
648.551	772.07
648.999	829.97
649.446	919.47
649.893	1001.27
650.34	1147.07
650.787	1361.47
651.234	1692.17
651.682	2178.67
652.129	2960.17
652.576	4224.47
653.023	6181.27
653.47	8335.67
653.917	10293.27
654.363	11755.47
654.81	12855.57
655.257	12206.57
655.704	8097.97
656.151	4875.07
656.598	3182.17
657.044	2275.67
657.491	1763.67
657.938	1435.87
658.385	1216.87
658.831	1058.07
659.278	941.57
659.724	836.37
660.171	780.67
660.618	717.27
661.064	686.57
661.511	667.37
661.957	649.27
662.404	653.97
662.85	656.17
663.296	640.77
663.743	572.97
664.189	551.47
664.635	545.87
665.082	534.57
665.528	538.97
665.974	532.97
666.42	530.57
666.867	509.27
667.313	494.67
667.759	487.37
668.205	470.77
668.651	476.57
669.097	469.27
669.543	471.47
669.989	455.57
670.435	455.77
670.881	455.97
671.327	465.77
671.773	483.17
672.219	506.17
672.665	565.47
673.11	611.67
673.556	653.77
674.002	690.37
674.448	680.47
674.893	572.77
675.339	493.57
675.785	455.37
676.23	433.97
676.676	414.17
677.122	393.47
677.567	391.07
678.013	384.77
678.458	365.87
678.904	367.07
679.349	362.27
679.794	363.57
680.24	368.87
680.685	353.07
681.131	356.47
681.576	366.07
682.021	369.27
682.466	355.97
682.912	358.97
683.357	362.57
683.802	389.67
684.247	435.17
684.692	477.57
685.137	520.17
685.583	555.17
686.028	571.17
686.473	537.87
686.918	467.47
687.363	428.17
687.807	407.77
688.252	378.07
688.697	364.37
689.142	353.27
689.587	340.97
690.032	339.67
690.477	356.97
690.921	363.57
691.366	388.37
691.811	416.27
692.255	446.37
692.7	480.67
693.145	524.57
693.589	755.67
694.034	1238.67
694.478	1626.27
694.923	1786.77
695.367	2326.87
695.812	1243.07
696.256	516.47
696.701	384.17
697.145	356.87
697.59	325.57
698.034	323.17
698.478	336.17
698.922	334.67
699.367	337.07
699.811	345.97
700.255	370.57
700.699	396.37
701.143	449.37
701.588	495.47
702.032	526.57
702.476	531.17
702.92	511.77
703.364	515.07
703.808	684.97
704.252	1125.47
704.696	1541.77
705.14	1717.27
705.584	2201.37
706.027	1108.17
706.471	546.57
706.915	417.67
707.359	361.07
707.803	333.57
708.246	321.97
708.69	330.07
709.134	320.27
709.577	317.97
710.021	318.37
710.465	305.87
710.908	305.97
711.352	309.77
711.795	329.27
712.239	367.17
712.682	399.37
713.126	437.17
713.569	473.07
714.012	381.87
714.456	327.07
714.899	302.77
715.342	284.47
715.786	272.47
716.229	262.07
716.672	261.27
717.115	258.17
717.558	255.27
718.002	257.97
718.445	271.67
718.888	300.27
719.331	302.37
719.774	320.67
720.217	314.77
720.66	302.07
721.103	280.17
721.546	264.87
721.989	259.57
722.432	238.07
722.874	246.67
723.317	235.17
723.76	245.07
724.203	270.17
724.645	334.17
725.088	473.87
725.531	594.97
725.974	666.07
726.416	557.47
726.859	318.47
727.301	255.87
727.744	243.87
728.187	246.17
728.629	252.97
729.071	258.37
729.514	261.37
729.956	279.97
730.399	291.37
730.841	297.77
731.283	287.07
731.726	281.17
732.168	275.87
732.61	283.07
733.053	299.37
733.495	327.67
733.937	368.27
734.379	417.27
734.821	459.27
735.263	585.87
735.705	910.77
736.148	1729.47
736.59	2746.07
737.032	3128.57
737.474	2563.07
737.916	855.67
738.357	454.67
738.799	348.47
739.241	314.97
739.683	300.37
740.125	310.07
740.567	306.57
741.008	330.47
741.45	324.27
741.892	334.97
742.334	362.07
742.775	378.67
743.217	352.37
743.658	285.07
744.1	265.87
744.542	267.87
744.983	334.07
745.425	362.37
745.866	368.37
746.307	286.57
746.749	289.37
747.19	351.97
747.632	489.67
748.073	985.77
748.514	2016.27
748.956	2986.17
749.397	3786.47
749.838	3131.97
750.279	3033.97
750.72	1548.27
751.162	566.97
751.603	334.37
752.044	262.57
752.485	224.07
752.926	223.47
753.367	203.37
753.808	210.47
754.249	201.27
754.69	198.87
755.131	195.67
755.572	184.17
756.013	186.87
756.453	191.47
756.894	199.37
757.335	201.77
757.776	207.67
758.216	204.07
758.657	205.87
759.098	210.67
759.538	242.47
759.979	286.07
760.42	408.57
760.86	787.47
761.301	2045.07
761.741	4782.37
762.182	6581.47
762.622	4670.47
763.063	1382.07
763.503	570.17
763.943	354.17
764.384	304.87
764.824	302.47
765.264	296.57
765.705	243.37
766.145	201.87
766.585	183.97
767.025	185.97
767.465	182.17
767.906	209.07
768.346	235.27
768.786	246.07
769.226	237.67
769.666	329.87
770.106	691.87
770.546	1705.77
770.986	2756.07
771.426	2432.07
771.866	830.47
772.306	336.47
772.745	218.17
773.185	177.87
773.625	169.07
774.065	160.07
774.505	171.67
774.944	242.77
775.384	450.97
775.824	739.17
776.263	702.37
776.703	332.17
777.142	179.37
777.582	145.07
778.021	133.67
778.461	136.17
778.9	129.77
779.34	138.37
779.779	127.17
780.219	115.57
780.658	111.17
781.097	105.67
781.537	118.27
781.976	106.37
782.415	116.57
782.855	108.17
783.294	105.77
783.733	107.17
784.172	109.47
784.611	103.47
785.05	110.07
785.489	111.07
785.928	118.57
786.367	130.17
786.806	122.37
787.245	137.87
787.684	141.67
788.123	153.57
788.562	139.57
789.001	138.87
789.44	129.17
789.879	119.67
790.317	131.87
790.756	127.37
791.195	132.27
791.634	156.57
792.072	220.07
792.511	400.07
792.95	1112.97
793.388	2225.77
793.827	1968.07
794.265	696.77
794.704	295.07
795.142	193.87
795.581	160.27
796.019	143.97
796.458	139.47
796.896	129.07
797.334	144.17
797.773	164.77
798.211	233.77
798.649	481.47
799.087	1102.57
799.526	1702.97
799.964	2132.87
800.402	2052.07
800.84	791.07
801.278	318.87
801.716	189.87
802.154	162.97
802.592	154.07
803.03	152.17
803.468	141.37
803.906	152.87
804.344	157.47
804.782	148.07
805.22	138.67
805.658	134.87
806.096	157.17
806.533	164.67
806.971	191.27
807.409	227.17
807.847	343.87
808.284	731.97
808.722	2038.87
809.16	3466.47
809.597	3413.27
810.035	5794.77
810.472	5889.27
810.91	2170.27
811.347	838.77
811.785	426.47
812.222	274.57
812.66	203.47
813.097	170.37
813.535	146.27
813.972	140.67
814.409	125.47
814.846	115.87
815.284	115.97
815.721	102.37
816.158	114.17
816.595	115.47
817.032	165.57
817.47	187.67
817.907	142.57
818.344	115.77
818.781	103.37
819.218	101.47
819.655	131.17
820.092	194.67
820.529	222.77
820.966	181.67
821.403	134.47
821.839	109.27
822.276	103.47
822.713	136.87
823.15	138.27
823.587	124.37
824.023	161.87
824.46	335.77
824.897	967.37
825.333	1397.27
825.77	601.87
826.206	242.57
826.643	136.77
827.08	106.77
827.516	84.77
827.953	84.37
828.389	84.67
828.825	82.77
829.262	73.07
829.698	64.87
830.135	65.77
830.571	60.27
831.007	56.17
831.443	65.97
831.88	67.87
832.316	65.47
832.752	62.97
833.188	57.67
833.624	67.37
834.06	66.17
834.497	71.17
834.933	73.47
835.369	76.87
835.805	70.27
836.241	78.87
836.677	83.67
837.112	92.87
837.548	112.77
837.984	141.37
838.42	218.37
838.856	549.27
839.292	1646.87
839.727	2372.47
840.163	1122.97
840.599	1019.87
841.034	2163.57
841.47	2175.47
841.906	806.77
842.341	347.17
842.777	212.37
843.212	239.07
843.648	214.27
844.083	125.97
844.519	88.97
844.954	70.27
845.39	59.57
845.825	54.87
846.261	57.97
846.696	53.87
847.131	53.77
847.566	60.77
848.002	48.87
848.437	56.77
848.872	61.17
849.307	67.27
849.742	92.97
850.177	201.67
850.613	602.67
851.048	903.27
851.483	399.47
851.918	162.97
852.353	89.47
852.788	53.97
853.223	51.67
853.657	50.87
854.092	51.67
854.527	45.57
854.962	40.47
855.397	45.37
855.832	52.27
856.266	42.67
856.701	42.97
857.136	35.47
857.57	42.67
858.005	56.37
858.44	53.77
858.874	44.17
859.309	57.47
859.743	40.17
860.178	50.37
860.612	43.27
861.047	57.47
861.481	70.07
861.915	75.47
862.35	49.67
862.784	40.07
863.218	37.37
863.653	33.87
864.087	43.57
864.521	53.07
864.955	72.27
865.39	164.37
865.824	186.07
866.258	124.57
866.692	180.07
867.126	184.47
867.56	112.27
867.994	57.87
868.428	40.27
868.862	51.97
869.296	55.77
869.73	68.87
870.164	62.67
870.598	51.17
871.031	39.77
871.465	35.27
871.899	37.87
872.333	23.97
872.766	24.57
873.2	24.77
873.634	30.67
874.067	31.57
874.501	26.47
874.935	37.87
875.368	26.07
875.802	27.37
876.235	28.47
876.669	26.07
877.102	18.07
877.535	29.57
877.969	22.67
878.402	29.57
878.836	21.17
879.269	22.77
879.702	27.77
880.135	22.77
880.569	21.77
881.002	22.57
881.435	27.47
881.868	23.07
882.301	25.17
882.734	13.67
883.167	20.27
883.601	24.27
884.034	22.77
884.467	15.57
884.899	19.47
885.332	21.07
885.765	12.17
886.198	15.87
886.631	21.27
887.064	17.17
887.497	15.87
887.929	26.37
888.362	14.37
888.795	18.87
889.228	18.47
889.66	23.37
890.093	17.67
890.526	18.77
890.958	16.97
891.391	20.07
891.823	19.07
892.256	12.37
892.688	10.27
893.121	18.17
893.553	13.27
893.985	29.07
894.418	20.07
894.85	9.27
895.282	19.47
895.715	18.27
896.147	20.77
896.579	16.07
897.011	14.77
897.444	16.47
897.876	13.27
898.308	15.77
898.74	18.27
899.172	13.57
899.604	23.37
900.036	22.17
900.468	12.17
900.9	16.47
901.332	11.57
901.764	12.47
902.196	20.77
902.628	16.27
903.06	15.27
903.491	32.07
903.923	20.07
904.355	18.67
904.787	27.77
905.218	21.07
905.65	22.87
906.082	17.07
906.513	20.57
906.945	17.17
907.376	15.17
907.808	16.47
908.239	18.27
908.671	23.07
909.102	21.57
909.534	24.97
909.965	48.17
910.397	100.87
910.828	333.47
911.259	498.07
911.691	225.87
912.122	110.67
912.553	52.17
912.984	32.07
913.415	21.47
913.847	28.47
914.278	18.57
914.709	17.77
915.14	15.77
915.571	20.87
916.002	7.87
916.433	21.57
916.864	12.87
917.295	13.37
917.726	21.87
918.157	14.77
918.587	28.97
919.018	28.57
919.449	22.47
919.88	26.27
920.311	32.47
920.741	48.97
921.172	183.07
921.603	154.87
922.033	77.27
922.464	48.07
922.895	26.37
923.325	21.77
923.756	13.47
924.186	14.27
924.617	17.17
925.047	25.07
925.478	29.67
925.908	26.17
926.338	18.17
926.769	7.77
927.199	21.57
927.629	11.77
928.06	16.27
928.49	13.37
928.92	16.37
929.35	7.97
929.78	10.47
930.21	8.07
930.641	4.37
931.071	6.37
931.501	1.17
931.931	13.77
932.361	6.77
932.791	6.27
933.221	5.87
933.651	1.37
934.08	17.97
934.51	28.47
934.94	7.17
935.37	7.87
935.8	16.87
936.229	-0.63
936.659	13.17
937.089	3.27
937.519	18.27
937.948	25.97
938.378	15.07
938.807	6.77
939.237	7.77
939.666	9.77
940.096	-4.83
940.525	1.37
940.955	-1.63
941.384	3.27
941.814	-3.13
942.243	-2.23
942.672	2.77
943.102	-6.13
943.531	-2.93
943.96	3.57
944.39	3.57
944.819	1.57
945.248	1.17
945.677	2.97
946.106	6.37
946.535	6.97
946.964	0.77
947.393	4.17
947.822	-1.43
948.251	-0.93
948.68	-0.23
949.109	1.07
949.538	4.97
949.967	3.47
950.396	-1.33
950.825	2.17
951.254	-0.53
951.682	-8.33
952.111	4.47
952.54	8.07
952.969	-4.33
953.397	-3.13
953.826	-1.83
954.254	-8.03
954.683	1.67
955.112	-2.13
955.54	-1.93
955.969	3.57
956.397	0.27
956.826	-1.63
957.254	1.57
957.682	-0.13
958.111	7.87
958.539	1.57
958.967	2.77
959.396	1.17
959.824	6.47
960.252	-1.53
960.68	-4.83
961.109	-2.63
961.537	-5.13
961.965	4.37
962.393	3.07
962.821	-2.03
963.249	-5.63
963.677	5.87
964.105	9.47
964.533	46.37
964.961	44.87
965.389	24.37
965.817	12.87
966.245	3.07
966.672	0.37
967.1	-11.33
967.528	0.07
967.956	-2.03
968.383	3.57
968.811	0.67
969.239	-4.13
969.666	-8.23
970.094	-0.03
970.522	5.67
970.949	-0.03
971.377	-3.93
971.804	-1.23
972.232	3.07
972.659	-1.93
973.087	2.07
973.514	-1.43
973.941	-5.63
974.369	5.77
974.796	2.37
975.223	-1.63
975.651	-4.63
976.078	2.87
976.505	-5.63
976.932	6.77
977.359	18.57
977.786	14.47
978.214	1.07
978.641	-5.73
979.068	-2.93
979.495	-4.03
979.922	-0.73
980.349	-4.93
980.776	4.37
981.202	-7.73
981.629	1.77
982.056	0.67
982.483	3.07
982.91	4.37
983.337	-10.93
983.763	-1.43
984.19	-9.93
984.617	-11.03
985.043	-9.03
985.47	-3.53
985.897	-7.03
986.323	-6.03
986.75	4.67
987.176	-2.43
987.603	5.17
988.029	-0.73
988.456	-4.83
988.882	-2.33
989.308	-6.13
989.735	-3.93
990.161	-3.23
990.587	-9.13
991.014	-5.83
991.44	5.17
991.866	-5.33
992.292	-7.33
992.719	2.97
993.145	5.47
993.571	-10.43
993.997	-11.13
994.423	-0.93
994.849	-7.23
995.275	2.17
995.701	1.17
996.127	-2.53
996.553	-1.33
996.979	-5.03
997.405	-4.43
997.83	-7.13
998.256	-6.33
998.682	-6.73
999.108	-2.63
999.534	-4.93
999.959	-2.23
1000.385	-5.33
1000.811	-2.63
1001.236	-8.23
1001.662	-12.73
1002.087	-8.23
1002.513	-2.73
1002.938	3.77
1003.364	-7.43
1003.789	0.57
1004.215	2.67
1004.64	-2.93
1005.066	4.17
1005.491	7.77
1005.916	-2.03
1006.342	-9.83
1006.767	-4.73
1007.192	4.97
1007.617	-1.73
1008.042	-8.43
1008.468	-11.53
1008.893	-5.43
1009.318	-2.53
1009.743	-3.83
1010.168	-0.63
1010.593	2.67
1011.018	-7.23
1011.443	0.47
1011.868	0.97
1012.293	-4.63
1012.718	-4.93
1013.143	-3.63
1013.567	-0.03
1013.992	-5.93
1014.417	-11.93
1014.842	-2.13
1015.267	-7.33
1015.691	-3.33
1016.116	2.17
1016.541	-1.53
1016.965	2.17
1017.39	1.17
1017.814	3.27
1018.239	-0.03
1018.663	-11.43
1019.088	-14.13
1019.512	-0.33
1019.937	-2.43
1020.361	-7.63
1020.785	-8.93
1021.21	-7.43
1021.634	-5.13
1022.058	-0.93
1022.483	-0.03
1022.907	-5.13
1023.331	-4.93
1023.755	-2.73
1024.179	-6.23
1024.604	-5.13
1025.028	-8.33
1025.452	-6.13
1025.876	0.87
1026.3	-4.53
1026.724	-9.73
1027.148	-8.43
1027.572	-14.83
1027.996	-1.93
1028.42	-2.73
1028.843	-2.63
1029.267	-5.83
1029.691	3.27
1030.115	-3.73
1030.539	-5.83
1030.962	-6.33
1031.386	-7.33
1031.81	0.97
1032.233	2.37
1032.657	-4.13
1033.08	-0.83
1033.504	-2.43
1033.927	-6.83
1034.351	-0.73
1034.774	-3.53
1035.198	-3.33
1035.621	-8.73
1036.045	-4.33
1036.468	3.47
1036.891	-9.73
1037.315	-8.13
1037.738	-8.63
1038.161	1.67
1038.584	-8.33
1039.008	-5.13
1039.431	-8.23
1039.854	-4.53
1040.277	-6.33
1040.7	-9.83
1041.123	-3.73
1041.546	-10.33
1041.969	-9.73
1042.392	-10.53
1042.815	-9.43
1043.238	-1.13
1043.661	0.07
1044.084	-8.13
1044.507	-6.13
1044.93	-7.73
1045.352	-9.33
1045.775	-4.73
1046.198	-6.53
1046.621	-1.63
1047.043	-1.93
1047.466	6.47
1047.889	-4.33
1048.311	-8.03
1048.734	-1.73
1049.156	-4.03
1049.579	-3.63
1050.001	-2.53
1050.424	0.37
1050.846	-6.33
1051.269	-6.23
1051.691	-9.93
1052.113	-6.13
1052.536	-0.03
1052.958	-3.93
1053.38	-5.83
1053.802	-17.93
1054.225	1.27
1054.647	-6.23
1055.069	-13.63
1055.491	4.27
1055.913	-4.33
1056.335	-2.73
1056.757	-1.23
1057.179	-8.53
1057.601	-2.33
1058.023	-4.13
1058.445	-11.73
1058.867	-4.63
1059.289	-2.33
1059.711	-4.43
1060.133	-2.23
1060.555	-9.03
1060.976	-6.23
1061.398	-3.23
1061.82	-8.03
1062.241	-6.93
1062.663	-11.13
1063.085	-10.73
1063.506	-7.13
1063.928	-0.93
1064.35	-1.23
1064.771	-9.83
1065.193	-1.63
1065.614	-9.93
1066.035	-2.53
1066.457	1.47
1066.878	-6.53
1067.3	-7.63
1067.721	-0.73
1068.142	-8.03
1068.564	-3.93
1068.985	-7.53
1069.406	-7.43
1069.827	-8.93
1070.248	-3.03
1070.67	-4.03
1071.091	-9.63
1071.512	-2.83
1071.933	-4.53
1072.354	-6.23
1072.775	-5.73
1073.196	-12.13
1073.617	-6.33
1074.038	-8.53
1074.459	-2.33
1074.88	-12.33
1075.3	-0.13
1075.721	-6.93
1076.142	-4.63
1076.563	-6.13
1076.983	-12.03
1077.404	-4.83
1077.825	-5.73
1078.246	-6.73
1078.666	-10.83
1079.087	-7.93
1079.507	-6.93
1079.928	-2.53
1080.348	1.97
1080.769	-8.43
1081.189	-2.83
1081.61	0.27
1082.03	-4.13
1082.451	-4.43
1082.871	-5.73
1083.291	-0.33
1083.711	-8.23
1084.132	-12.43
1084.552	-2.53
1084.972	-0.93
1085.392	-4.23
1085.813	-12.13
1086.233	-10.33
1086.653	-5.33
1087.073	-6.23
1087.493	-3.83
1087.913	-12.03
1088.333	-3.93
1088.753	-0.23
1089.173	0.17
1089.593	-3.73
1090.013	2.07
1090.433	3.17
1090.852	-3.93
1091.272	-6.03
1091.692	-0.83
1092.112	0.97
1092.531	-10.13
1092.951	-11.63
1093.371	-2.03
1093.79	0.97
1094.21	-4.83
1094.63	-8.93
1095.049	-5.73
1095.469	-7.03
1095.888	-5.33
1096.308	-1.33
1096.727	-0.63
1097.146	-10.93
1097.566	2.77
1097.985	-9.63
1098.405	-0.13
1098.824	-8.13
1099.243	-9.03
1099.662	-11.53
1100.082	-10.93
1100.501	-1.73
1100.92	-4.93
1101.339	-4.83
1101.758	-8.93
