Data from 20171114-ORNL-Ar_H_NY_Subt18_08-05-22-863.txt Node
Date: Tue Nov 14 08:05:22 EST 2017
User: Ender
Spectrometer: HR+D1039
Trigger mode: 0
Integration Time (sec): 2.730000E-2
Scans to average: 10
Electric dark correction enabled: true
Nonlinearity correction enabled: false
Boxcar width: 0
XAxis mode: Wavelengths
Number of Pixels in Spectrum: 2048
>>>>>Begin Spectral Data<<<<<
187.836	-3.68
188.309	-3.68
188.782	-3.68
189.255	-2.88
189.728	2.02
190.201	4.02
190.674	-0.68
191.147	3.42
191.619	-4.78
192.092	0.82
192.565	1.92
193.038	1.22
193.511	1.82
193.984	0.42
194.456	-2.68
194.929	-0.78
195.402	-3.58
195.874	3.42
196.347	-3.88
196.82	-6.78
197.292	2.82
197.765	-0.38
198.237	-2.28
198.71	-1.18
199.182	-2.68
199.655	-0.28
200.127	0.12
200.6	-1.78
201.072	-5.68
201.544	-5.18
202.017	0.82
202.489	-0.08
202.961	-3.78
203.433	-0.48
203.906	-7.98
204.378	-3.38
204.85	-2.08
205.322	-4.68
205.794	-8.48
206.266	-0.48
206.739	-11.38
207.211	7.82
207.683	-9.88
208.155	-8.08
208.627	-9.58
209.099	-1.48
209.57	-6.08
210.042	-2.18
210.514	-1.78
210.986	-7.08
211.458	-10.78
211.93	-1.48
212.402	2.92
212.873	-1.08
213.345	-9.48
213.817	-11.68
214.288	-1.78
214.76	-9.18
215.232	-4.38
215.703	-6.68
216.175	-1.08
216.646	-1.58
217.118	-8.48
217.589	-5.18
218.061	-6.68
218.532	-1.08
219.004	-3.38
219.475	-0.68
219.946	-2.28
220.418	-3.48
220.889	1.12
221.36	0.32
221.832	-2.08
222.303	-7.48
222.774	-5.98
223.245	-10.68
223.717	-11.28
224.188	-5.58
224.659	-11.48
225.13	-3.58
225.601	-2.78
226.072	2.62
226.543	-1.38
227.014	-0.98
227.485	-3.48
227.956	-1.18
228.427	-3.18
228.898	6.22
229.369	2.92
229.839	-3.58
230.31	-4.18
230.781	2.42
231.252	-4.28
231.722	-2.48
232.193	-1.88
232.664	-0.78
233.135	2.02
233.605	1.52
234.076	-3.98
234.546	2.32
235.017	4.32
235.487	-2.28
235.958	-0.98
236.428	-2.28
236.899	3.42
237.369	10.52
237.84	-0.88
238.31	7.42
238.78	8.22
239.251	0.62
239.721	0.12
240.191	3.72
240.662	-4.88
241.132	-4.18
241.602	-4.18
242.072	5.52
242.542	7.42
243.013	-2.28
243.483	2.92
243.953	3.02
244.423	1.22
244.893	-9.38
245.363	-1.08
245.833	-1.98
246.303	3.52
246.773	6.32
247.243	7.52
247.712	3.12
248.182	8.02
248.652	13.42
249.122	2.12
249.592	14.32
250.061	22.92
250.531	30.22
251.001	19.22
251.471	20.62
251.94	18.52
252.41	13.02
252.879	5.22
253.349	8.52
253.818	12.82
254.288	2.42
254.757	9.42
255.227	1.92
255.696	1.62
256.166	11.12
256.635	9.52
257.105	8.82
257.574	4.42
258.043	13.02
258.513	9.92
258.982	21.72
259.451	9.22
259.92	14.12
260.389	14.02
260.859	20.32
261.328	19.22
261.797	18.82
262.266	8.52
262.735	14.82
263.204	9.12
263.673	3.22
264.142	1.92
264.611	-5.78
265.08	-0.28
265.549	-0.68
266.018	2.22
266.487	0.92
266.955	-1.08
267.424	1.52
267.893	10.92
268.362	0.82
268.83	4.32
269.299	6.92
269.768	8.92
270.236	3.62
270.705	4.52
271.174	5.62
271.642	6.42
272.111	6.32
272.579	18.32
273.048	27.32
273.516	31.52
273.985	23.72
274.453	29.12
274.922	17.12
275.39	9.32
275.858	9.22
276.327	13.32
276.795	23.12
277.263	14.52
277.731	30.02
278.2	53.12
278.668	63.02
279.136	45.22
279.604	22.02
280.072	19.12
280.54	8.72
281.008	16.02
281.477	11.82
281.945	15.12
282.413	15.92
282.881	23.22
283.348	13.52
283.816	16.92
284.284	16.32
284.752	25.32
285.22	15.12
285.688	21.52
286.156	12.92
286.623	45.72
287.091	54.12
287.559	32.52
288.026	22.32
288.494	13.52
288.962	5.82
289.429	14.02
289.897	19.82
290.364	15.62
290.832	19.42
291.3	18.52
291.767	18.32
292.234	22.82
292.702	12.22
293.169	18.82
293.637	20.82
294.104	23.22
294.571	15.22
295.039	11.82
295.506	19.82
295.973	19.32
296.44	15.52
296.908	16.62
297.375	27.32
297.842	17.62
298.309	18.82
298.776	17.92
299.243	18.52
299.71	9.32
300.177	22.32
300.644	21.82
301.111	21.62
301.578	25.42
302.045	14.92
302.512	21.52
302.979	28.02
303.446	23.92
303.913	19.82
304.379	19.22
304.846	28.32
305.313	26.32
305.78	26.12
306.246	28.22
306.713	29.32
307.18	34.72
307.646	27.12
308.113	32.02
308.579	28.82
309.046	28.42
309.512	27.02
309.979	21.82
310.445	31.82
310.912	31.72
311.378	35.52
311.845	32.22
312.311	32.82
312.777	34.02
313.244	34.02
313.71	37.62
314.176	36.82
314.642	36.62
315.109	32.92
315.575	35.22
316.041	37.12
316.507	26.02
316.973	37.92
317.439	34.32
317.905	33.52
318.371	35.52
318.837	40.02
319.303	33.02
319.769	39.72
320.235	34.52
320.701	45.72
321.167	43.92
321.633	33.72
322.099	42.92
322.564	42.72
323.03	48.42
323.496	38.02
323.962	40.02
324.427	40.62
324.893	49.92
325.359	36.42
325.824	40.42
326.29	43.82
326.755	48.52
327.221	39.32
327.686	40.22
328.152	46.72
328.617	43.82
329.083	51.82
329.548	60.52
330.014	48.22
330.479	41.12
330.944	47.42
331.41	48.82
331.875	46.12
332.34	47.52
332.805	46.92
333.271	50.82
333.736	47.02
334.201	54.42
334.666	60.72
335.131	54.42
335.596	56.52
336.061	53.32
336.526	42.52
336.991	49.52
337.456	58.42
337.921	55.12
338.386	43.22
338.851	45.02
339.316	50.42
339.781	42.52
340.246	51.22
340.711	52.52
341.175	52.02
341.64	45.12
342.105	56.22
342.569	57.72
343.034	57.02
343.499	63.22
343.963	50.82
344.428	64.32
344.893	69.12
345.357	60.02
345.822	69.42
346.286	69.32
346.751	77.12
347.215	64.32
347.679	75.22
348.144	101.22
348.608	90.12
349.073	75.72
349.537	76.32
350.001	84.92
350.465	93.32
350.93	89.32
351.394	85.52
351.858	73.42
352.322	89.12
352.786	84.02
353.25	95.72
353.715	110.02
354.179	105.02
354.643	122.62
355.107	124.62
355.571	106.12
356.035	109.12
356.498	116.22
356.962	127.12
357.426	131.92
357.89	118.32
358.354	92.02
358.818	82.82
359.281	82.32
359.745	75.72
360.209	72.42
360.673	80.12
361.136	82.72
361.6	85.82
362.064	91.52
362.527	85.52
362.991	90.12
363.454	79.22
363.918	76.52
364.381	78.22
364.845	82.42
365.308	88.92
365.772	85.02
366.235	87.62
366.698	83.32
367.162	87.12
367.625	91.42
368.088	90.22
368.552	88.82
369.015	91.12
369.478	94.72
369.941	100.72
370.404	91.22
370.867	105.32
371.331	109.22
371.794	118.52
372.257	109.12
372.72	115.72
373.183	117.32
373.646	104.32
374.109	111.42
374.572	111.92
375.035	111.52
375.497	108.32
375.96	104.52
376.423	101.82
376.886	118.72
377.349	110.72
377.811	103.12
378.274	106.12
378.737	108.82
379.199	111.42
379.662	118.02
380.125	119.22
380.587	119.52
381.05	124.82
381.512	127.52
381.975	135.72
382.437	130.12
382.9	123.12
383.362	134.52
383.825	145.82
384.287	148.42
384.75	133.62
385.212	137.02
385.674	139.12
386.136	137.62
386.599	128.92
387.061	131.02
387.523	131.32
387.985	137.72
388.447	149.72
388.91	142.52
389.372	158.92
389.834	149.92
390.296	151.42
390.758	155.52
391.22	169.72
391.682	207.72
392.144	287.02
392.606	227.42
393.068	165.32
393.529	168.82
393.991	157.62
394.453	144.62
394.915	159.32
395.377	191.32
395.838	202.12
396.3	156.82
396.762	142.72
397.224	137.72
397.685	133.92
398.147	132.22
398.608	130.72
399.07	135.02
399.531	134.82
399.993	145.62
400.454	155.42
400.916	146.32
401.377	144.52
401.839	152.92
402.3	154.42
402.762	169.52
403.223	181.12
403.684	168.12
404.145	162.92
404.607	169.42
405.068	165.42
405.529	169.52
405.99	189.22
406.451	176.02
406.913	177.62
407.374	162.72
407.835	166.62
408.296	173.12
408.757	175.42
409.218	191.72
409.679	175.92
410.14	178.22
410.601	184.72
411.062	181.82
411.522	187.42
411.983	187.02
412.444	173.92
412.905	179.72
413.366	182.42
413.826	196.52
414.287	216.02
414.748	266.22
415.208	246.32
415.669	214.92
416.13	211.52
416.59	200.22
417.051	208.22
417.511	215.72
417.972	234.32
418.432	252.22
418.893	285.32
419.353	253.32
419.814	200.52
420.274	183.52
420.734	181.22
421.195	202.22
421.655	200.52
422.115	200.12
422.576	195.72
423.036	191.92
423.496	210.62
423.956	216.82
424.416	228.72
424.876	265.62
425.336	263.52
425.797	264.32
426.257	255.62
426.717	239.32
427.177	230.32
427.637	223.42
428.097	233.62
428.556	247.02
429.016	267.92
429.476	263.42
429.936	272.12
430.396	285.92
430.856	289.52
431.315	314.42
431.775	354.82
432.235	382.82
432.694	359.62
433.154	362.62
433.614	388.02
434.073	345.52
434.533	289.32
434.993	265.52
435.452	285.12
435.912	302.42
436.371	279.82
436.83	287.52
437.29	276.32
437.749	247.52
438.209	244.92
438.668	278.72
439.127	286.72
439.587	268.52
440.046	248.12
440.505	269.52
440.964	281.82
441.424	321.82
441.883	320.72
442.342	257.52
442.801	231.02
443.26	220.62
443.719	224.62
444.178	218.62
444.637	210.82
445.096	217.62
445.555	224.12
446.014	218.92
446.473	226.62
446.932	238.32
447.391	227.22
447.849	229.12
448.308	222.62
448.767	222.82
449.226	239.62
449.685	235.12
450.143	250.12
450.602	234.52
451.061	230.62
451.519	238.22
451.978	239.62
452.436	234.62
452.895	235.42
453.353	254.22
453.812	241.92
454.27	235.42
454.729	237.12
455.187	238.32
455.646	248.32
456.104	250.82
456.562	257.42
457.021	272.42
457.479	269.22
457.937	276.62
458.395	264.42
458.854	245.62
459.312	253.22
459.77	277.82
460.228	259.22
460.686	244.82
461.144	252.02
461.602	243.02
462.06	252.52
462.518	251.32
462.976	259.82
463.434	259.52
463.892	263.62
464.35	277.62
464.808	289.22
465.266	271.72
465.724	274.92
466.181	275.82
466.639	277.12
467.097	298.22
467.555	302.42
468.012	313.42
468.47	318.02
468.928	340.22
469.385	340.92
469.843	349.42
470.3	349.82
470.758	366.62
471.215	392.62
471.673	417.32
472.13	414.02
472.588	416.92
473.045	374.82
473.503	382.72
473.96	398.82
474.417	409.12
474.875	435.02
475.332	479.92
475.789	470.22
476.246	468.02
476.704	492.02
477.161	507.22
477.618	519.42
478.075	563.12
478.532	618.22
478.989	692.82
479.446	805.62
479.903	781.52
480.36	822.12
480.817	876.42
481.274	977.92
481.731	1083.62
482.188	1179.52
482.645	1308.22
483.102	1421.62
483.558	1557.82
484.015	1613.32
484.472	1586.72
484.929	1534.32
485.385	1481.92
485.842	1427.12
486.299	1371.92
486.755	1304.02
487.212	1109.32
487.668	925.12
488.125	859.82
488.582	798.82
489.038	749.92
489.494	717.72
489.951	695.32
490.407	675.52
490.864	661.22
491.32	655.92
491.776	640.92
492.233	651.32
492.689	617.92
493.145	595.22
493.602	604.72
494.058	619.62
494.514	615.42
494.97	647.72
495.426	664.52
495.882	625.12
496.338	625.62
496.794	644.52
497.251	629.42
497.707	648.82
498.163	641.12
498.618	647.72
499.074	656.52
499.53	683.92
499.986	680.32
500.442	662.62
500.898	644.82
501.354	641.22
501.809	644.52
502.265	643.32
502.721	657.82
503.177	671.82
503.632	664.72
504.088	682.02
504.543	731.12
504.999	718.02
505.455	656.52
505.91	644.22
506.366	643.72
506.821	638.12
507.277	626.92
507.732	629.22
508.187	626.42
508.643	637.52
509.098	654.12
509.553	660.62
510.009	674.72
510.464	678.82
510.919	688.92
511.375	701.52
511.83	724.82
512.285	737.42
512.74	754.32
513.195	792.22
513.65	777.72
514.105	776.62
514.56	777.52
515.015	805.12
515.47	814.62
515.925	807.22
516.38	800.82
516.835	804.72
517.29	796.12
517.745	787.22
518.2	774.72
518.655	752.62
519.109	755.62
519.564	758.42
520.019	748.12
520.474	754.72
520.928	732.62
521.383	726.62
521.838	721.42
522.292	717.02
522.747	714.12
523.201	715.22
523.656	710.92
524.11	696.92
524.565	699.32
525.019	694.02
525.474	709.92
525.928	713.92
526.382	710.32
526.837	702.12
527.291	708.72
527.745	704.12
528.2	704.02
528.654	699.62
529.108	698.92
529.562	700.02
530.016	699.62
530.47	692.62
530.925	699.32
531.379	702.92
531.833	707.92
532.287	708.82
532.741	705.82
533.195	715.62
533.649	718.42
534.103	725.32
534.556	715.22
535.01	723.42
535.464	716.32
535.918	725.22
536.372	731.42
536.826	717.42
537.279	702.32
537.733	717.72
538.187	719.12
538.64	709.82
539.094	728.22
539.548	728.22
540.001	724.32
540.455	717.42
540.908	739.42
541.362	745.52
541.815	744.62
542.269	763.42
542.722	760.82
543.175	772.22
543.629	769.02
544.082	790.32
544.536	790.52
544.989	785.72
545.442	803.02
545.895	796.32
546.349	785.42
546.802	791.32
547.255	793.72
547.708	790.32
548.161	813.82
548.614	830.72
549.067	832.92
549.52	812.92
549.973	801.72
550.426	798.82
550.879	788.12
551.332	800.62
551.785	808.52
552.238	811.12
552.691	818.42
553.144	833.02
553.596	857.72
554.049	872.22
554.502	901.22
554.955	908.92
555.407	901.62
555.86	903.32
556.313	899.32
556.765	880.82
557.218	880.72
557.67	874.02
558.123	879.52
558.576	874.72
559.028	878.02
559.48	883.92
559.933	877.12
560.385	834.82
560.838	805.82
561.29	777.12
561.742	777.82
562.195	762.92
562.647	763.22
563.099	768.82
563.551	767.52
564.004	780.62
564.456	780.02
564.908	752.92
565.36	738.92
565.812	736.42
566.264	728.02
566.716	726.22
567.168	712.62
567.62	719.92
568.072	705.42
568.524	685.02
568.976	687.72
569.428	669.32
569.88	669.62
570.332	674.82
570.784	683.92
571.235	686.72
571.687	687.62
572.139	689.72
572.59	714.42
573.042	721.02
573.494	703.62
573.945	708.42
574.397	690.92
574.849	681.32
575.3	689.42
575.752	683.22
576.203	672.82
576.655	683.12
577.106	664.82
577.557	662.02
578.009	661.82
578.46	659.52
578.912	658.22
579.363	660.02
579.814	667.42
580.265	658.52
580.717	665.92
581.168	658.62
581.619	669.12
582.07	665.62
582.521	665.52
582.972	661.82
583.423	670.42
583.875	670.12
584.326	687.32
584.777	734.22
585.227	798.52
585.678	888.42
586.129	968.72
586.58	1030.62
587.031	1106.02
587.482	1244.82
587.933	1425.22
588.384	1246.02
588.834	945.82
589.285	788.42
589.736	770.02
590.186	761.02
590.637	757.32
591.088	738.02
591.538	724.42
591.989	722.82
592.439	722.32
592.89	710.92
593.34	696.52
593.791	707.62
594.241	694.32
594.692	694.82
595.142	691.02
595.593	685.92
596.043	699.72
596.493	705.52
596.943	702.42
597.394	715.22
597.844	702.22
598.294	717.12
598.744	743.92
599.195	754.92
599.645	799.12
600.095	837.52
600.545	894.32
600.995	950.52
601.445	1022.72
601.895	1069.72
602.345	1103.12
602.795	1100.02
603.245	1051.42
603.695	997.32
604.145	941.12
604.594	889.12
605.044	835.92
605.494	774.42
605.944	739.72
606.393	730.82
606.843	715.52
607.293	725.52
607.743	720.12
608.192	723.12
608.642	736.22
609.091	740.42
609.541	746.52
609.99	750.92
610.44	743.42
610.889	711.32
611.339	677.32
611.788	668.62
612.238	693.42
612.687	694.72
613.136	703.62
613.586	719.72
614.035	710.82
614.484	736.72
614.933	739.02
615.383	735.42
615.832	715.32
616.281	708.82
616.73	670.52
617.179	646.52
617.628	639.32
618.077	616.32
618.526	604.02
618.975	598.72
619.424	595.52
619.873	601.72
620.322	606.92
620.771	593.12
621.22	586.12
621.669	580.32
622.118	569.72
622.567	565.52
623.015	560.92
623.464	553.32
623.913	548.32
624.361	537.82
624.81	537.02
625.259	530.72
625.707	540.22
626.156	541.82
626.604	547.52
627.053	551.12
627.501	547.12
627.95	557.22
628.398	559.72
628.847	556.12
629.295	549.32
629.744	550.02
630.192	550.22
630.64	555.92
631.089	539.62
631.537	548.12
631.985	566.12
632.433	583.82
632.881	578.72
633.33	627.62
633.778	612.52
634.226	555.52
634.674	550.02
635.122	563.02
635.57	569.12
636.018	601.52
636.466	563.02
636.914	538.82
637.362	553.72
637.81	554.52
638.258	564.72
638.705	556.82
639.153	586.02
639.601	590.62
640.049	627.12
640.497	657.22
640.944	671.72
641.392	618.72
641.84	598.02
642.287	560.02
642.735	545.82
643.182	547.22
643.63	560.42
644.078	557.42
644.525	566.92
644.973	576.62
645.42	582.62
645.867	598.42
646.315	611.62
646.762	632.82
647.21	667.52
647.657	690.62
648.104	721.72
648.551	743.02
648.999	801.82
649.446	884.02
649.893	961.02
650.34	1104.92
650.787	1318.42
651.234	1652.22
651.682	2138.32
652.129	2920.02
652.576	4188.22
653.023	6218.62
653.47	8545.52
653.917	10752.72
654.363	12480.22
654.81	13897.32
655.257	13204.72
655.704	8597.72
656.151	5085.92
656.598	3287.12
657.044	2342.62
657.491	1793.62
657.938	1431.12
658.385	1198.62
658.831	1040.72
659.278	928.82
659.724	830.92
660.171	760.12
660.618	696.52
661.064	660.52
661.511	629.82
661.957	629.02
662.404	622.62
662.85	627.02
663.296	594.72
663.743	530.32
664.189	513.92
664.635	517.32
665.082	500.62
665.528	495.42
665.974	494.32
666.42	488.62
666.867	486.52
667.313	470.02
667.759	467.92
668.205	456.52
668.651	463.22
669.097	465.02
669.543	474.72
669.989	449.62
670.435	428.42
670.881	428.02
671.327	437.22
671.773	442.42
672.219	467.32
672.665	519.22
673.11	548.22
673.556	591.42
674.002	639.02
674.448	627.02
674.893	523.52
675.339	454.12
675.785	423.32
676.23	397.52
676.676	366.82
677.122	365.42
677.567	355.92
678.013	349.32
678.458	344.82
678.904	346.72
679.349	330.52
679.794	339.32
680.24	326.32
680.685	328.62
681.131	333.42
681.576	335.82
682.021	330.02
682.466	325.12
682.912	329.42
683.357	334.22
683.802	361.92
684.247	384.62
684.692	436.32
685.137	470.72
685.583	509.32
686.028	527.72
686.473	491.32
686.918	420.22
687.363	400.32
687.807	378.12
688.252	348.32
688.697	342.02
689.142	323.12
689.587	319.32
690.032	313.52
690.477	330.82
690.921	331.02
691.366	361.92
691.811	375.72
692.255	412.02
692.7	440.72
693.145	476.02
693.589	639.12
694.034	1050.72
694.478	1437.42
694.923	1656.32
695.367	2164.52
695.812	1148.02
696.256	467.62
696.701	353.82
697.145	325.72
697.59	307.82
698.034	300.32
698.478	313.72
698.922	314.32
699.367	313.82
699.811	315.42
700.255	332.32
700.699	368.82
701.143	400.02
701.588	445.92
702.032	481.82
702.476	481.02
702.92	460.12
703.364	468.72
703.808	597.82
704.252	971.02
704.696	1371.92
705.14	1598.52
705.584	2035.92
706.027	1012.22
706.471	492.22
706.915	371.02
707.359	329.12
707.803	301.02
708.246	292.02
708.69	293.62
709.134	294.82
709.577	294.92
710.021	294.62
710.465	288.12
710.908	286.42
711.352	287.32
711.795	291.02
712.239	322.72
712.682	366.12
713.126	392.02
713.569	443.72
714.012	348.62
714.456	311.62
714.899	285.22
715.342	261.92
715.786	247.72
716.229	251.42
716.672	247.12
717.115	247.02
717.558	234.72
718.002	233.62
718.445	238.72
718.888	269.62
719.331	275.12
719.774	283.92
720.217	281.72
720.66	269.02
721.103	255.02
721.546	234.62
721.989	240.02
722.432	215.32
722.874	226.82
723.317	211.82
723.76	219.82
724.203	246.02
724.645	301.42
725.088	409.82
725.531	534.22
725.974	617.02
726.416	519.92
726.859	293.32
727.301	230.82
727.744	229.02
728.187	221.62
728.629	219.02
729.071	228.72
729.514	251.72
729.956	260.32
730.399	268.32
730.841	267.12
731.283	251.72
731.726	245.62
732.168	244.32
732.61	243.42
733.053	269.62
733.495	293.02
733.937	337.22
734.379	371.52
734.821	419.12
735.263	506.42
735.705	780.12
736.148	1454.52
736.59	2405.02
737.032	2920.82
737.474	2389.52
737.916	769.22
738.357	409.12
738.799	310.12
739.241	278.62
739.683	266.72
740.125	281.22
740.567	285.32
741.008	296.42
741.45	292.92
741.892	287.22
742.334	321.62
742.775	339.52
743.217	323.32
743.658	257.42
744.1	240.72
744.542	242.72
744.983	287.52
745.425	322.72
745.866	331.22
746.307	269.72
746.749	271.92
747.19	301.12
747.632	420.82
748.073	798.72
748.514	1723.82
748.956	2704.62
749.397	3361.02
749.838	2818.52
750.279	2818.62
750.72	1426.42
751.162	519.12
751.603	301.52
752.044	239.32
752.485	199.72
752.926	205.02
753.367	187.42
753.808	181.02
754.249	180.42
754.69	178.22
755.131	166.72
755.572	170.82
756.013	166.82
756.453	177.32
756.894	175.52
757.335	182.92
757.776	180.02
758.216	179.02
758.657	181.52
759.098	192.62
759.538	208.02
759.979	251.52
760.42	339.42
760.86	644.12
761.301	1673.02
761.741	4096.72
762.182	6189.02
762.622	4336.82
763.063	1243.82
763.503	504.62
763.943	323.52
764.384	314.22
764.824	361.22
765.264	401.72
765.705	283.02
766.145	189.32
766.585	180.52
767.025	168.32
767.465	173.82
767.906	214.92
768.346	293.82
768.786	310.02
769.226	239.02
769.666	292.82
770.106	572.82
770.546	1414.92
770.986	2526.32
771.426	2270.42
771.866	755.42
772.306	305.92
772.745	189.52
773.185	165.82
773.625	159.12
774.065	159.42
774.505	182.32
774.944	277.02
775.384	602.92
775.824	1111.22
776.263	1104.62
776.703	469.32
777.142	202.52
777.582	142.42
778.021	126.42
778.461	128.82
778.9	126.72
779.34	127.32
779.779	109.52
780.219	103.42
780.658	96.42
781.097	96.32
781.537	105.72
781.976	101.22
782.415	102.42
782.855	103.42
783.294	103.12
783.733	103.22
784.172	102.82
784.611	103.82
785.05	100.32
785.489	102.42
785.928	110.92
786.367	114.02
786.806	108.72
787.245	122.82
787.684	130.22
788.123	144.32
788.562	123.62
789.001	119.92
789.44	111.72
789.879	112.32
790.317	111.12
790.756	119.02
791.195	114.62
791.634	140.42
792.072	193.12
792.511	331.82
792.95	914.12
793.388	2009.52
793.827	1863.12
794.265	638.32
794.704	263.82
795.142	169.12
795.581	134.52
796.019	121.32
796.458	123.12
796.896	115.52
797.334	121.62
797.773	143.02
798.211	198.72
798.649	395.42
799.087	943.12
799.526	1497.02
799.964	1872.42
800.402	1934.32
800.84	722.22
801.278	286.92
801.716	172.62
802.154	148.02
802.592	140.02
803.03	126.72
803.468	122.82
803.906	134.72
804.344	136.72
804.782	129.22
805.22	121.02
805.658	126.02
806.096	136.42
806.533	144.72
806.971	157.22
807.409	206.32
807.847	287.12
808.284	595.32
808.722	1712.92
809.16	3113.12
809.597	2898.72
810.035	5056.62
810.472	5548.72
810.91	1989.32
811.347	749.02
811.785	377.12
812.222	243.62
812.66	188.22
813.097	158.12
813.535	128.82
813.972	123.22
814.409	114.12
814.846	106.32
815.284	99.42
815.721	95.62
816.158	97.72
816.595	108.52
817.032	164.22
817.47	191.42
817.907	156.12
818.344	138.02
818.781	110.62
819.218	99.22
819.655	118.02
820.092	184.32
820.529	208.62
820.966	174.32
821.403	130.62
821.839	99.82
822.276	93.92
822.713	111.72
823.15	129.22
823.587	113.92
824.023	134.92
824.46	272.42
824.897	826.42
825.333	1292.22
825.77	557.22
826.206	215.72
826.643	129.12
827.08	97.52
827.516	79.92
827.953	73.62
828.389	71.62
828.825	65.12
829.262	63.32
829.698	58.22
830.135	61.62
830.571	57.42
831.007	56.82
831.443	53.82
831.88	59.32
832.316	56.72
832.752	59.02
833.188	63.02
833.624	55.22
834.06	64.42
834.497	64.42
834.933	66.42
835.369	72.02
835.805	61.12
836.241	71.72
836.677	71.92
837.112	87.02
837.548	100.82
837.984	120.22
838.42	187.62
838.856	450.92
839.292	1407.32
839.727	2208.12
840.163	1015.02
840.599	851.32
841.034	1899.52
841.47	2052.62
841.906	751.92
842.341	314.32
842.777	208.72
843.212	283.72
843.648	291.42
844.083	143.52
844.519	88.52
844.954	71.62
845.39	54.62
845.825	43.72
846.261	59.12
846.696	56.02
847.131	52.02
847.566	52.02
848.002	51.02
848.437	48.62
848.872	61.22
849.307	60.92
849.742	80.52
850.177	169.62
850.613	518.22
851.048	828.32
851.483	357.42
851.918	147.82
852.353	80.22
852.788	57.92
853.223	47.62
853.657	53.72
854.092	40.62
854.527	38.42
854.962	40.72
855.397	39.72
855.832	44.52
856.266	37.72
856.701	38.32
857.136	32.72
857.57	43.42
858.005	48.32
858.44	65.22
858.874	42.52
859.309	52.42
859.743	37.22
860.178	43.52
860.612	32.52
861.047	48.32
861.481	63.52
861.915	62.02
862.35	46.12
862.784	34.42
863.218	34.42
863.653	33.52
864.087	39.62
864.521	48.22
864.955	60.12
865.39	147.62
865.824	162.32
866.258	107.42
866.692	152.02
867.126	172.12
867.56	96.72
867.994	51.22
868.428	29.12
868.862	39.32
869.296	55.02
869.73	51.52
870.164	52.82
870.598	49.42
871.031	33.52
871.465	31.22
871.899	29.82
872.333	21.32
872.766	21.72
873.2	21.72
873.634	25.72
874.067	26.82
874.501	26.72
874.935	33.12
875.368	26.52
875.802	26.32
876.235	23.42
876.669	22.92
877.102	24.22
877.535	21.52
877.969	24.52
878.402	25.22
878.836	18.82
879.269	25.12
879.702	26.42
880.135	20.72
880.569	20.02
881.002	21.62
881.435	15.62
881.868	16.62
882.301	19.42
882.734	10.72
883.167	18.32
883.601	16.82
884.034	17.42
884.467	13.52
884.899	15.32
885.332	13.82
885.765	18.62
886.198	13.72
886.631	18.32
887.064	14.22
887.497	18.22
887.929	21.32
888.362	11.62
888.795	8.32
889.228	14.82
889.66	18.32
890.093	16.42
890.526	15.32
890.958	12.92
891.391	19.42
891.823	18.22
892.256	9.12
892.688	10.42
893.121	14.32
893.553	15.32
893.985	11.12
894.418	19.02
894.85	3.42
895.282	11.92
895.715	14.42
896.147	15.72
896.579	17.12
897.011	14.22
897.444	12.72
897.876	8.72
898.308	13.82
898.74	16.22
899.172	14.62
899.604	21.02
900.036	17.92
900.468	19.32
900.9	18.12
901.332	15.42
901.764	9.82
902.196	14.42
902.628	18.22
903.06	21.72
903.491	27.92
903.923	17.72
904.355	18.32
904.787	27.22
905.218	23.72
905.65	20.92
906.082	10.32
906.513	9.92
906.945	15.12
907.376	9.52
907.808	22.82
908.239	23.72
908.671	18.72
909.102	19.82
909.534	23.62
909.965	35.62
910.397	90.12
910.828	294.22
911.259	451.32
911.691	211.32
912.122	103.02
912.553	47.52
912.984	37.12
913.415	25.12
913.847	23.62
914.278	11.32
914.709	14.02
915.14	16.82
915.571	16.62
916.002	9.52
916.433	18.02
916.864	18.22
917.295	14.52
917.726	15.42
918.157	11.22
918.587	23.22
919.018	16.72
919.449	20.42
919.88	22.42
920.311	29.82
920.741	43.72
921.172	155.82
921.603	138.32
922.033	67.32
922.464	41.42
922.895	23.72
923.325	15.12
923.756	9.22
924.186	9.92
924.617	21.42
925.047	41.12
925.478	46.02
925.908	47.72
926.338	30.32
926.769	14.62
927.199	21.22
927.629	11.42
928.06	12.52
928.49	13.02
928.92	16.92
929.35	11.02
929.78	13.92
930.21	10.42
930.641	12.12
931.071	9.92
931.501	2.12
931.931	8.62
932.361	12.32
932.791	3.22
933.221	4.22
933.651	5.92
934.08	11.62
934.51	28.02
934.94	9.62
935.37	4.22
935.8	7.32
936.229	6.22
936.659	9.22
937.089	4.02
937.519	18.72
937.948	27.92
938.378	15.92
938.807	3.32
939.237	-0.58
939.666	7.42
940.096	-1.08
940.525	-1.28
940.955	0.22
941.384	5.92
941.814	-4.88
942.243	2.02
942.672	1.42
943.102	-0.88
943.531	-4.58
943.96	5.82
944.39	-0.38
944.819	1.42
945.248	6.32
945.677	8.52
946.106	8.72
946.535	6.22
946.964	-1.78
947.393	9.02
947.822	2.62
948.251	-2.28
948.68	3.42
949.109	2.42
949.538	5.12
949.967	-1.98
950.396	1.42
950.825	-4.48
951.254	1.82
951.682	-6.68
952.111	8.02
952.54	3.42
952.969	-4.58
953.397	-4.08
953.826	-1.48
954.254	-5.78
954.683	0.42
955.112	-3.08
955.54	0.02
955.969	1.62
956.397	-6.38
956.826	-2.38
957.254	2.82
957.682	4.02
958.111	7.92
958.539	0.92
958.967	3.92
959.396	-1.28
959.824	2.52
960.252	-2.58
960.68	-3.68
961.109	-0.78
961.537	-2.38
961.965	3.02
962.393	-2.18
962.821	-2.88
963.249	-2.38
963.677	6.02
964.105	6.92
964.533	38.32
964.961	40.22
965.389	14.92
965.817	8.52
966.245	-1.38
966.672	-1.18
967.1	-10.98
967.528	-1.38
967.956	-9.28
968.383	2.52
968.811	-3.18
969.239	-4.88
969.666	-5.48
970.094	4.32
970.522	3.02
970.949	0.92
971.377	-6.88
971.804	-8.48
972.232	-1.88
972.659	0.12
973.087	-3.08
973.514	-3.28
973.941	-3.98
974.369	7.42
974.796	0.42
975.223	-0.18
975.651	-3.98
976.078	0.32
976.505	1.62
976.932	-0.68
977.359	15.02
977.786	14.22
978.214	0.92
978.641	-6.28
979.068	-1.48
979.495	-4.08
979.922	5.52
980.349	-1.88
980.776	2.32
981.202	0.72
981.629	4.82
982.056	4.12
982.483	-3.48
982.91	3.22
983.337	-6.28
983.763	2.22
984.19	-7.38
984.617	-5.18
985.043	-6.28
985.47	-3.78
985.897	-5.28
986.323	-7.58
986.75	6.92
987.176	-3.28
987.603	4.62
988.029	-6.28
988.456	-2.08
988.882	-2.28
989.308	-5.18
989.735	-2.18
990.161	0.82
990.587	-5.88
991.014	1.02
991.44	2.62
991.866	-3.28
992.292	-2.28
992.719	-6.18
993.145	-0.18
993.571	-7.08
993.997	-7.38
994.423	2.22
994.849	-5.28
995.275	-0.58
995.701	-3.58
996.127	-10.78
996.553	0.72
996.979	-6.48
997.405	-0.28
997.83	-8.88
998.256	-5.88
998.682	-11.38
999.108	-8.48
999.534	-2.28
999.959	0.12
1000.385	-5.88
1000.811	4.92
1001.236	-9.98
1001.662	-6.78
1002.087	-3.88
1002.513	1.62
1002.938	2.42
1003.364	-6.78
1003.789	1.92
1004.215	0.62
1004.64	-6.18
1005.066	1.12
1005.491	-1.58
1005.916	1.62
1006.342	-6.18
1006.767	-9.18
1007.192	7.32
1007.617	-4.18
1008.042	-3.88
1008.468	-9.18
1008.893	-3.78
1009.318	-0.98
1009.743	-2.48
1010.168	-2.38
1010.593	-0.98
1011.018	-9.88
1011.443	0.92
1011.868	-6.58
1012.293	-3.98
1012.718	-4.28
1013.143	2.32
1013.567	-0.28
1013.992	-0.68
1014.417	-13.98
1014.842	-1.48
1015.267	-3.18
1015.691	-2.38
1016.116	4.72
1016.541	-0.48
1016.965	2.42
1017.39	-0.18
1017.814	-2.18
1018.239	-3.28
1018.663	-7.58
1019.088	-8.28
1019.512	-0.58
1019.937	-2.28
1020.361	-7.88
1020.785	-11.18
1021.21	-4.68
1021.634	-7.28
1022.058	-2.98
1022.483	-0.48
1022.907	1.42
1023.331	-3.18
1023.755	-0.98
1024.179	-9.28
1024.604	-4.48
1025.028	-4.08
1025.452	-5.38
1025.876	-5.28
1026.3	0.52
1026.724	-5.88
1027.148	-6.78
1027.572	-5.48
1027.996	-6.88
1028.42	-1.58
1028.843	-5.28
1029.267	-0.08
1029.691	-1.78
1030.115	-9.48
1030.539	-8.18
1030.962	-9.48
1031.386	-7.58
1031.81	-8.28
1032.233	0.52
1032.657	-2.58
1033.08	1.52
1033.504	-5.18
1033.927	-1.68
1034.351	-1.68
1034.774	-5.78
1035.198	-4.58
1035.621	-10.78
1036.045	-9.18
1036.468	-2.48
1036.891	-14.68
1037.315	-9.28
1037.738	-12.88
1038.161	-1.58
1038.584	-3.28
1039.008	-3.78
1039.431	-3.58
1039.854	-0.28
1040.277	-9.98
1040.7	-11.98
1041.123	1.22
1041.546	0.32
1041.969	-8.18
1042.392	-7.68
1042.815	5.22
1043.238	4.32
1043.661	4.52
1044.084	-3.48
1044.507	-5.18
1044.93	-1.88
1045.352	-3.08
1045.775	0.22
1046.198	-8.38
1046.621	1.92
1047.043	-2.28
1047.466	6.52
1047.889	0.82
1048.311	0.12
1048.734	-3.08
1049.156	-4.48
1049.579	0.42
1050.001	-3.58
1050.424	1.42
1050.846	-9.18
1051.269	-2.98
1051.691	-6.98
1052.113	-6.88
1052.536	-6.48
1052.958	0.22
1053.38	-0.68
1053.802	-7.88
1054.225	4.12
1054.647	-6.88
1055.069	-0.88
1055.491	0.72
1055.913	-7.98
1056.335	-0.58
1056.757	-5.28
1057.179	-8.48
1057.601	-10.58
1058.023	-10.88
1058.445	-7.68
1058.867	1.62
1059.289	-3.38
1059.711	-7.88
1060.133	1.52
1060.555	-5.58
1060.976	-2.48
1061.398	-1.48
1061.82	-10.68
1062.241	-8.88
1062.663	-3.08
1063.085	-2.08
1063.506	-2.28
1063.928	-8.18
1064.35	-0.98
1064.771	-11.38
1065.193	-6.68
1065.614	-5.88
1066.035	-5.98
1066.457	-6.98
1066.878	0.82
1067.3	-6.78
1067.721	0.92
1068.142	-1.08
1068.564	-5.68
1068.985	-6.48
1069.406	-2.98
1069.827	-5.98
1070.248	-4.38
1070.67	-8.28
1071.091	-6.38
1071.512	-8.98
1071.933	-6.88
1072.354	-11.08
1072.775	-8.48
1073.196	-10.78
1073.617	-8.08
1074.038	-9.08
1074.459	-1.48
1074.88	-7.88
1075.3	-2.58
1075.721	-9.08
1076.142	-2.38
1076.563	-3.48
1076.983	-10.08
1077.404	-3.58
1077.825	-11.88
1078.246	-6.78
1078.666	-12.58
1079.087	-7.48
1079.507	-8.68
1079.928	0.52
1080.348	2.42
1080.769	-3.38
1081.189	-1.08
1081.61	-2.18
1082.03	-3.58
1082.451	-3.38
1082.871	-0.78
1083.291	-9.18
1083.711	-9.78
1084.132	-0.38
1084.552	-5.78
1084.972	-3.18
1085.392	-12.08
1085.813	-10.38
1086.233	-8.68
1086.653	-5.08
1087.073	1.82
1087.493	-4.88
1087.913	-4.28
1088.333	-10.78
1088.753	-4.68
1089.173	4.72
1089.593	-2.08
1090.013	3.82
1090.433	2.02
1090.852	-2.18
1091.272	0.62
1091.692	-3.48
1092.112	-3.58
1092.531	-13.48
1092.951	-13.58
1093.371	-2.98
1093.79	1.42
1094.21	-2.88
1094.63	-0.68
1095.049	-7.48
1095.469	-1.18
1095.888	-7.18
1096.308	-0.68
1096.727	4.42
1097.146	-4.18
1097.566	-0.48
1097.985	-12.28
1098.405	-4.08
1098.824	-7.58
1099.243	-4.88
1099.662	-10.38
1100.082	-5.78
1100.501	1.52
1100.92	-13.98
1101.339	1.12
1101.758	-3.38
