Data from 20171114-ORNL-Ar_H_NY_Subt18_08-06-11-180.txt Node
Date: Tue Nov 14 08:06:11 EST 2017
User: Ender
Spectrometer: HR+D1039
Trigger mode: 0
Integration Time (sec): 2.730000E-2
Scans to average: 10
Electric dark correction enabled: true
Nonlinearity correction enabled: false
Boxcar width: 0
XAxis mode: Wavelengths
Number of Pixels in Spectrum: 2048
>>>>>Begin Spectral Data<<<<<
187.836	-5.63
188.309	-5.63
188.782	-5.63
189.255	0.07
189.728	-3.23
190.201	2.77
190.674	-3.53
191.147	1.07
191.619	-1.03
192.092	0.57
192.565	2.17
193.038	-0.43
193.511	5.47
193.984	-6.13
194.456	5.17
194.929	2.27
195.402	-2.53
195.874	2.97
196.347	0.97
196.82	-5.63
197.292	8.67
197.765	-1.53
198.237	-6.73
198.71	3.17
199.182	2.77
199.655	8.67
200.127	2.97
200.6	-1.13
201.072	-2.23
201.544	-0.73
202.017	3.87
202.489	4.77
202.961	-0.33
203.433	-2.53
203.906	-0.73
204.378	-8.93
204.85	2.67
205.322	-4.53
205.794	2.87
206.266	-0.53
206.739	-4.63
207.211	5.57
207.683	-4.43
208.155	-5.93
208.627	-3.93
209.099	-4.73
209.57	-5.13
210.042	-6.53
210.514	-7.13
210.986	-3.03
211.458	-8.33
211.93	-5.53
212.402	-0.93
212.873	-3.63
213.345	-9.13
213.817	-10.53
214.288	-6.53
214.76	-7.03
215.232	-0.83
215.703	-9.23
216.175	-2.93
216.646	-3.03
217.118	-8.23
217.589	-1.43
218.061	-0.33
218.532	-4.73
219.004	2.27
219.475	-1.53
219.946	-2.93
220.418	-4.13
220.889	4.37
221.36	2.67
221.832	-0.13
222.303	-8.13
222.774	-0.53
223.245	-5.43
223.717	-1.53
224.188	0.47
224.659	-2.43
225.13	-4.83
225.601	-0.73
226.072	2.87
226.543	-0.33
227.014	3.57
227.485	-4.83
227.956	-6.43
228.427	5.77
228.898	2.57
229.369	8.07
229.839	-0.53
230.31	-0.93
230.781	3.27
231.252	1.37
231.722	-0.63
232.193	-3.43
232.664	-0.03
233.135	3.57
233.605	3.67
234.076	-7.43
234.546	5.87
235.017	7.27
235.487	5.67
235.958	-0.03
236.428	2.27
236.899	5.87
237.369	1.47
237.84	2.17
238.31	3.97
238.78	2.77
239.251	-3.43
239.721	7.17
240.191	0.37
240.662	-4.13
241.132	0.57
241.602	2.97
242.072	3.47
242.542	12.37
243.013	11.47
243.483	2.07
243.953	5.97
244.423	4.07
244.893	2.97
245.363	7.17
245.833	0.17
246.303	1.57
246.773	7.47
247.243	7.37
247.712	4.77
248.182	13.17
248.652	6.67
249.122	-2.63
249.592	14.17
250.061	20.67
250.531	38.37
251.001	13.87
251.471	23.27
251.94	16.77
252.41	12.17
252.879	2.07
253.349	13.27
253.818	14.17
254.288	5.07
254.757	1.37
255.227	-0.83
255.696	10.47
256.166	3.17
256.635	10.37
257.105	11.47
257.574	10.97
258.043	18.47
258.513	14.97
258.982	18.17
259.451	6.37
259.92	18.47
260.389	11.17
260.859	20.77
261.328	14.37
261.797	21.57
262.266	6.67
262.735	11.07
263.204	8.57
263.673	4.47
264.142	12.47
264.611	-0.83
265.08	3.37
265.549	3.97
266.018	9.37
266.487	2.17
266.955	2.27
267.424	7.37
267.893	7.97
268.362	6.67
268.83	7.57
269.299	13.47
269.768	5.27
270.236	10.17
270.705	3.47
271.174	7.07
271.642	15.07
272.111	5.57
272.579	20.07
273.048	20.77
273.516	35.27
273.985	25.57
274.453	32.47
274.922	18.67
275.39	16.67
275.858	5.97
276.327	6.67
276.795	17.07
277.263	12.57
277.731	30.67
278.2	58.17
278.668	61.17
279.136	55.37
279.604	20.47
280.072	22.57
280.54	13.77
281.008	14.37
281.477	18.67
281.945	14.47
282.413	14.37
282.881	17.27
283.348	13.17
283.816	16.87
284.284	22.97
284.752	19.47
285.22	15.37
285.688	16.07
286.156	22.07
286.623	49.17
287.091	57.87
287.559	30.97
288.026	15.57
288.494	18.27
288.962	8.87
289.429	14.47
289.897	19.77
290.364	16.17
290.832	16.77
291.3	21.27
291.767	22.07
292.234	20.17
292.702	16.67
293.169	16.37
293.637	26.67
294.104	18.27
294.571	9.77
295.039	12.87
295.506	14.27
295.973	16.97
296.44	16.17
296.908	22.17
297.375	16.17
297.842	23.97
298.309	19.37
298.776	21.97
299.243	21.97
299.71	16.87
300.177	21.37
300.644	17.17
301.111	23.07
301.578	29.47
302.045	21.37
302.512	27.67
302.979	28.47
303.446	28.57
303.913	19.27
304.379	17.17
304.846	34.87
305.313	27.77
305.78	23.47
306.246	22.07
306.713	28.87
307.18	30.27
307.646	28.07
308.113	27.87
308.579	30.57
309.046	33.77
309.512	30.57
309.979	22.87
310.445	29.87
310.912	29.27
311.378	37.37
311.845	35.67
312.311	39.37
312.777	34.97
313.244	34.37
313.71	37.77
314.176	31.77
314.642	33.37
315.109	30.27
315.575	37.17
316.041	39.97
316.507	36.47
316.973	37.97
317.439	39.57
317.905	36.67
318.371	41.87
318.837	38.27
319.303	37.87
319.769	35.07
320.235	30.77
320.701	42.77
321.167	32.17
321.633	43.17
322.099	39.57
322.564	48.97
323.03	45.77
323.496	39.67
323.962	47.17
324.427	35.87
324.893	46.67
325.359	37.67
325.824	40.07
326.29	31.87
326.755	42.27
327.221	43.27
327.686	38.37
328.152	55.97
328.617	44.77
329.083	52.37
329.548	56.57
330.014	44.27
330.479	38.97
330.944	46.27
331.41	38.27
331.875	46.87
332.34	46.37
332.805	39.57
333.271	49.47
333.736	47.07
334.201	56.97
334.666	54.77
335.131	57.47
335.596	56.67
336.061	55.77
336.526	44.17
336.991	51.47
337.456	61.97
337.921	49.97
338.386	46.87
338.851	46.57
339.316	48.77
339.781	48.37
340.246	53.17
340.711	43.17
341.175	56.17
341.64	46.47
342.105	49.87
342.569	59.47
343.034	60.07
343.499	63.67
343.963	50.87
344.428	64.37
344.893	61.17
345.357	61.37
345.822	68.87
346.286	70.37
346.751	81.67
347.215	69.97
347.679	76.77
348.144	98.57
348.608	89.87
349.073	76.97
349.537	71.87
350.001	79.87
350.465	90.47
350.93	78.97
351.394	83.97
351.858	78.87
352.322	89.77
352.786	89.67
353.25	100.57
353.715	117.77
354.179	102.97
354.643	126.77
355.107	133.47
355.571	111.47
356.035	104.37
356.498	114.37
356.962	125.67
357.426	137.07
357.89	111.97
358.354	91.17
358.818	81.97
359.281	85.47
359.745	80.27
360.209	82.17
360.673	80.07
361.136	84.47
361.6	81.97
362.064	86.67
362.527	88.57
362.991	91.97
363.454	83.77
363.918	78.97
364.381	78.27
364.845	82.67
365.308	93.17
365.772	95.67
366.235	88.87
366.698	88.77
367.162	87.97
367.625	87.87
368.088	90.97
368.552	90.87
369.015	83.77
369.478	101.47
369.941	104.67
370.404	105.97
370.867	111.07
371.331	108.67
371.794	121.27
372.257	119.17
372.72	122.67
373.183	118.57
373.646	113.27
374.109	103.47
374.572	117.77
375.035	110.67
375.497	113.77
375.96	113.07
376.423	107.37
376.886	120.27
377.349	116.37
377.811	103.97
378.274	109.17
378.737	112.47
379.199	108.57
379.662	116.17
380.125	117.77
380.587	124.47
381.05	135.07
381.512	133.87
381.975	144.47
382.437	132.97
382.9	127.97
383.362	133.77
383.825	144.37
384.287	157.87
384.75	149.67
385.212	142.67
385.674	139.57
386.136	137.17
386.599	132.67
387.061	136.07
387.523	131.47
387.985	133.27
388.447	146.27
388.91	151.37
389.372	159.17
389.834	158.37
390.296	149.57
390.758	161.47
391.22	172.57
391.682	211.27
392.144	301.37
392.606	232.87
393.068	166.57
393.529	172.77
393.991	157.77
394.453	148.77
394.915	161.67
395.377	196.47
395.838	212.37
396.3	159.57
396.762	145.37
397.224	138.87
397.685	133.37
398.147	135.47
398.608	131.27
399.07	133.67
399.531	141.07
399.993	146.67
400.454	162.77
400.916	147.37
401.377	148.87
401.839	152.47
402.3	163.07
402.762	174.87
403.223	187.07
403.684	172.27
404.145	165.07
404.607	168.77
405.068	170.47
405.529	172.97
405.99	195.27
406.451	176.47
406.913	178.17
407.374	172.17
407.835	169.17
408.296	168.37
408.757	173.57
409.218	194.77
409.679	179.17
410.14	178.77
410.601	179.87
411.062	185.97
411.522	200.27
411.983	202.27
412.444	178.57
412.905	183.27
413.366	181.57
413.826	196.17
414.287	224.77
414.748	270.67
415.208	258.67
415.669	219.27
416.13	213.87
416.59	203.67
417.051	216.97
417.511	221.57
417.972	246.27
418.432	250.57
418.893	283.97
419.353	252.27
419.814	202.67
420.274	182.67
420.734	180.37
421.195	208.17
421.655	196.17
422.115	193.17
422.576	196.37
423.036	207.77
423.496	208.67
423.956	215.87
424.416	238.97
424.876	265.97
425.336	267.07
425.797	270.77
426.257	257.47
426.717	245.37
427.177	244.47
427.637	229.17
428.097	236.57
428.556	251.27
429.016	280.27
429.476	276.37
429.936	275.97
430.396	285.17
430.856	299.27
431.315	317.27
431.775	364.17
432.235	385.67
432.694	362.37
433.154	372.77
433.614	401.27
434.073	341.77
434.533	295.27
434.993	276.97
435.452	290.17
435.912	301.37
436.371	297.37
436.83	289.87
437.29	274.77
437.749	258.07
438.209	255.57
438.668	285.67
439.127	294.07
439.587	267.37
440.046	244.97
440.505	269.07
440.964	289.47
441.424	328.67
441.883	328.47
442.342	266.27
442.801	227.07
443.26	226.77
443.719	226.77
444.178	223.37
444.637	217.67
445.096	231.67
445.555	226.97
446.014	226.87
446.473	229.77
446.932	249.47
447.391	236.37
447.849	232.17
448.308	223.17
448.767	228.27
449.226	242.37
449.685	241.27
450.143	258.57
450.602	237.77
451.061	230.17
451.519	236.87
451.978	239.47
452.436	245.57
452.895	245.07
453.353	256.47
453.812	240.77
454.27	243.67
454.729	244.07
455.187	242.97
455.646	247.57
456.104	256.47
456.562	264.37
457.021	266.67
457.479	268.87
457.937	274.17
458.395	274.07
458.854	253.27
459.312	250.87
459.77	288.87
460.228	268.07
460.686	245.27
461.144	250.67
461.602	244.07
462.06	243.97
462.518	262.17
462.976	257.67
463.434	263.77
463.892	260.87
464.35	284.97
464.808	287.17
465.266	267.27
465.724	266.37
466.181	276.37
466.639	280.97
467.097	293.17
467.555	304.57
468.012	305.67
468.47	318.17
468.928	338.27
469.385	347.77
469.843	348.97
470.3	355.17
470.758	370.67
471.215	392.17
471.673	415.67
472.13	416.17
472.588	422.77
473.045	370.77
473.503	383.77
473.96	399.57
474.417	412.07
474.875	445.27
475.332	485.27
475.789	472.57
476.246	481.37
476.704	499.77
477.161	517.47
477.618	534.97
478.075	572.57
478.532	626.77
478.989	703.07
479.446	817.37
479.903	782.37
480.36	819.37
480.817	873.17
481.274	983.27
481.731	1093.57
482.188	1187.97
482.645	1325.47
483.102	1444.47
483.558	1576.07
484.015	1641.17
484.472	1622.77
484.929	1561.77
485.385	1504.67
485.842	1458.57
486.299	1398.27
486.755	1325.57
487.212	1119.17
487.668	939.27
488.125	861.97
488.582	792.17
489.038	762.07
489.494	721.47
489.951	696.37
490.407	677.77
490.864	666.97
491.32	650.87
491.776	648.77
492.233	656.27
492.689	626.27
493.145	620.37
493.602	610.97
494.058	627.37
494.514	625.67
494.97	651.87
495.426	658.57
495.882	618.47
496.338	623.37
496.794	632.67
497.251	626.67
497.707	647.27
498.163	649.37
498.618	652.27
499.074	658.87
499.53	679.17
499.986	689.87
500.442	667.57
500.898	635.47
501.354	630.47
501.809	637.47
502.265	657.17
502.721	669.77
503.177	684.47
503.632	672.47
504.088	685.97
504.543	718.97
504.999	717.17
505.455	675.47
505.91	640.47
506.366	637.17
506.821	625.77
507.277	633.77
507.732	639.07
508.187	627.77
508.643	648.07
509.098	638.77
509.553	665.87
510.009	670.87
510.464	683.97
510.919	690.67
511.375	701.97
511.83	715.87
512.285	731.47
512.74	771.57
513.195	800.47
513.65	774.47
514.105	782.07
514.56	778.87
515.015	802.77
515.47	824.57
515.925	795.27
516.38	811.97
516.835	807.57
517.29	791.17
517.745	791.17
518.2	769.77
518.655	755.77
519.109	767.27
519.564	751.77
520.019	741.97
520.474	732.57
520.928	742.57
521.383	732.37
521.838	726.77
522.292	709.17
522.747	726.87
523.201	707.47
523.656	707.87
524.11	708.67
524.565	711.97
525.019	693.77
525.474	708.67
525.928	713.17
526.382	705.17
526.837	707.87
527.291	710.07
527.745	706.37
528.2	709.07
528.654	693.27
529.108	696.57
529.562	703.47
530.016	701.57
530.47	704.47
530.925	699.57
531.379	703.47
531.833	713.57
532.287	711.97
532.741	711.27
533.195	705.57
533.649	722.47
534.103	730.37
534.556	711.57
535.01	723.57
535.464	713.57
535.918	725.67
536.372	727.17
536.826	731.97
537.279	714.47
537.733	718.57
538.187	729.97
538.64	722.67
539.094	733.37
539.548	741.97
540.001	735.27
540.455	721.37
540.908	735.97
541.362	741.57
541.815	749.87
542.269	760.27
542.722	765.07
543.175	775.37
543.629	781.27
544.082	798.67
544.536	794.37
544.989	799.37
545.442	802.77
545.895	800.37
546.349	797.97
546.802	803.57
547.255	792.97
547.708	816.37
548.161	814.77
548.614	829.27
549.067	832.37
549.52	827.27
549.973	820.57
550.426	815.77
550.879	800.87
551.332	810.97
551.785	806.37
552.238	812.87
552.691	824.87
553.144	837.27
553.596	859.97
554.049	876.37
554.502	906.67
554.955	921.67
555.407	919.87
555.86	903.07
556.313	903.47
556.765	891.27
557.218	889.47
557.67	895.37
558.123	882.17
558.576	890.67
559.028	885.57
559.48	896.77
559.933	877.47
560.385	851.27
560.838	814.47
561.29	784.37
561.742	789.17
562.195	771.57
562.647	779.57
563.099	779.47
563.551	776.67
564.004	801.27
564.456	770.27
564.908	770.47
565.36	763.97
565.812	736.87
566.264	731.67
566.716	729.57
567.168	721.47
567.62	728.27
568.072	713.87
568.524	698.07
568.976	694.07
569.428	681.97
569.88	681.87
570.332	693.37
570.784	697.57
571.235	688.77
571.687	697.87
572.139	709.77
572.59	720.57
573.042	712.57
573.494	708.27
573.945	709.37
574.397	699.57
574.849	701.07
575.3	691.07
575.752	691.37
576.203	679.87
576.655	697.37
577.106	673.27
577.557	670.77
578.009	676.87
578.46	668.07
578.912	670.67
579.363	679.17
579.814	672.57
580.265	667.17
580.717	672.17
581.168	674.77
581.619	675.97
582.07	686.47
582.521	688.37
582.972	679.07
583.423	684.97
583.875	691.37
584.326	709.57
584.777	757.97
585.227	820.47
585.678	915.87
586.129	1002.97
586.58	1086.87
587.031	1168.97
587.482	1323.27
587.933	1523.17
588.384	1309.17
588.834	976.27
589.285	814.27
589.736	790.37
590.186	782.37
590.637	758.37
591.088	750.17
591.538	736.37
591.989	734.17
592.439	735.27
592.89	723.27
593.34	705.87
593.791	709.57
594.241	705.97
594.692	712.87
595.142	700.77
595.593	699.57
596.043	711.17
596.493	716.57
596.943	720.47
597.394	725.77
597.844	712.97
598.294	737.07
598.744	754.67
599.195	773.07
599.645	814.67
600.095	850.87
600.545	908.27
600.995	968.37
601.445	1029.77
601.895	1089.87
602.345	1130.57
602.795	1122.57
603.245	1065.87
603.695	1011.27
604.145	958.77
604.594	906.17
605.044	850.57
605.494	800.27
605.944	756.07
606.393	748.77
606.843	730.67
607.293	742.57
607.743	731.27
608.192	751.57
608.642	766.97
609.091	766.87
609.541	768.07
609.99	780.97
610.44	767.57
610.889	723.17
611.339	705.77
611.788	676.07
612.238	706.17
612.687	718.97
613.136	722.47
613.586	742.67
614.035	743.67
614.484	755.47
614.933	762.57
615.383	746.07
615.832	744.17
616.281	720.67
616.73	684.87
617.179	670.87
617.628	650.87
618.077	625.97
618.526	617.57
618.975	616.07
619.424	610.27
619.873	608.47
620.322	620.67
620.771	605.47
621.22	606.07
621.669	591.07
622.118	591.07
622.567	584.47
623.015	570.07
623.464	568.77
623.913	565.87
624.361	552.27
624.81	558.07
625.259	545.87
625.707	558.17
626.156	553.47
626.604	569.87
627.053	557.97
627.501	560.17
627.95	563.87
628.398	574.67
628.847	570.27
629.295	566.07
629.744	576.27
630.192	568.17
630.64	567.87
631.089	572.77
631.537	576.67
631.985	589.97
632.433	602.77
632.881	610.17
633.33	654.47
633.778	637.87
634.226	584.57
634.674	577.87
635.122	582.47
635.57	587.07
636.018	629.97
636.466	583.97
636.914	556.17
637.362	569.67
637.81	575.07
638.258	576.37
638.705	580.07
639.153	610.17
639.601	609.47
640.049	632.67
640.497	662.67
640.944	686.97
641.392	635.97
641.84	613.37
642.287	582.17
642.735	566.47
643.182	572.17
643.63	573.47
644.078	574.67
644.525	580.17
644.973	596.17
645.42	597.07
645.867	618.77
646.315	638.97
646.762	659.77
647.21	692.27
647.657	712.67
648.104	750.97
648.551	769.77
648.999	835.27
649.446	919.17
649.893	1006.77
650.34	1155.97
650.787	1392.17
651.234	1718.57
651.682	2235.77
652.129	3087.37
652.576	4481.67
653.023	6576.17
653.47	9018.47
653.917	11295.57
654.363	13071.97
654.81	14449.07
655.257	13751.57
655.704	8997.47
656.151	5329.17
656.598	3423.17
657.044	2444.77
657.491	1878.27
657.938	1482.07
658.385	1241.37
658.831	1078.57
659.278	967.17
659.724	859.17
660.171	786.27
660.618	724.07
661.064	688.87
661.511	666.07
661.957	657.97
662.404	641.37
662.85	650.07
663.296	619.97
663.743	555.07
664.189	536.17
664.635	527.57
665.082	532.97
665.528	520.57
665.974	518.07
666.42	508.57
666.867	504.97
667.313	490.77
667.759	479.67
668.205	481.77
668.651	485.17
669.097	483.67
669.543	497.47
669.989	467.07
670.435	446.57
670.881	441.47
671.327	447.57
671.773	459.47
672.219	487.97
672.665	542.47
673.11	578.47
673.556	628.67
674.002	660.47
674.448	653.27
674.893	545.87
675.339	475.57
675.785	432.57
676.23	417.27
676.676	391.77
677.122	374.17
677.567	367.27
678.013	361.67
678.458	356.17
678.904	359.67
679.349	344.07
679.794	352.97
680.24	354.27
680.685	350.67
681.131	350.27
681.576	339.57
682.021	358.57
682.466	341.17
682.912	338.47
683.357	347.47
683.802	376.27
684.247	408.97
684.692	451.57
685.137	486.57
685.583	523.97
686.028	557.07
686.473	509.77
686.918	438.67
687.363	412.47
687.807	386.27
688.252	364.57
688.697	348.37
689.142	332.27
689.587	334.37
690.032	324.67
690.477	340.47
690.921	350.37
691.366	373.27
691.811	398.67
692.255	430.47
692.7	455.97
693.145	498.97
693.589	676.47
694.034	1098.87
694.478	1499.97
694.923	1715.77
695.367	2240.27
695.812	1167.87
696.256	499.47
696.701	362.77
697.145	339.97
697.59	328.47
698.034	320.87
698.478	322.57
698.922	321.37
699.367	319.77
699.811	339.37
700.255	351.27
700.699	379.67
701.143	420.77
701.588	469.97
702.032	510.07
702.476	498.87
702.92	489.07
703.364	477.77
703.808	618.17
704.252	1001.97
704.696	1423.87
705.14	1643.77
705.584	2087.57
706.027	1039.87
706.471	506.47
706.915	397.77
707.359	352.17
707.803	316.57
708.246	304.97
708.69	307.07
709.134	316.57
709.577	310.07
710.021	307.97
710.465	304.67
710.908	299.17
711.352	295.17
711.795	304.37
712.239	345.17
712.682	375.47
713.126	412.07
713.569	458.57
714.012	370.87
714.456	322.87
714.899	296.77
715.342	274.97
715.786	258.67
716.229	254.67
716.672	256.77
717.115	248.47
717.558	244.57
718.002	246.97
718.445	259.17
718.888	284.47
719.331	290.97
719.774	308.87
720.217	299.37
720.66	278.17
721.103	260.97
721.546	251.07
721.989	245.37
722.432	234.27
722.874	236.37
723.317	224.47
723.76	231.67
724.203	253.97
724.645	318.27
725.088	432.77
725.531	556.77
725.974	636.87
726.416	539.77
726.859	300.57
727.301	241.47
727.744	234.47
728.187	230.27
728.629	234.47
729.071	239.67
729.514	257.97
729.956	269.47
730.399	277.97
730.841	285.97
731.283	263.77
731.726	260.67
732.168	248.77
732.61	263.97
733.053	276.37
733.495	314.07
733.937	354.37
734.379	382.67
734.821	428.77
735.263	532.37
735.705	813.47
736.148	1528.97
736.59	2506.87
737.032	2997.27
737.474	2417.17
737.916	788.97
738.357	417.87
738.799	319.57
739.241	291.07
739.683	286.27
740.125	290.17
740.567	296.77
741.008	308.87
741.45	308.37
741.892	313.07
742.334	341.27
742.775	360.97
743.217	337.57
743.658	268.27
744.1	248.57
744.542	260.87
744.983	303.27
745.425	337.77
745.866	336.47
746.307	278.37
746.749	279.27
747.19	319.67
747.632	442.77
748.073	854.07
748.514	1808.67
748.956	2788.57
749.397	3466.47
749.838	2903.17
750.279	2903.57
750.72	1463.47
751.162	533.97
751.603	310.97
752.044	253.67
752.485	215.07
752.926	209.47
753.367	198.77
753.808	192.37
754.249	185.37
754.69	179.37
755.131	181.57
755.572	180.87
756.013	169.77
756.453	178.67
756.894	189.27
757.335	193.97
757.776	188.47
758.216	198.77
758.657	194.67
759.098	196.37
759.538	222.47
759.979	257.67
760.42	372.47
760.86	687.17
761.301	1762.57
761.741	4279.47
762.182	6306.67
762.622	4463.07
763.063	1274.77
763.503	522.57
763.943	336.87
764.384	334.17
764.824	404.57
765.264	440.17
765.705	307.67
766.145	208.37
766.585	187.07
767.025	172.77
767.465	186.37
767.906	236.77
768.346	317.67
768.786	338.57
769.226	258.47
769.666	305.47
770.106	601.67
770.546	1500.37
770.986	2581.27
771.426	2322.17
771.866	773.07
772.306	320.47
772.745	202.67
773.185	171.67
773.625	170.07
774.065	168.47
774.505	193.17
774.944	311.17
775.384	677.67
775.824	1231.97
776.263	1203.97
776.703	513.47
777.142	225.07
777.582	158.17
778.021	138.97
778.461	134.27
778.9	147.87
779.34	127.37
779.779	117.27
780.219	104.57
780.658	106.07
781.097	113.87
781.537	113.57
781.976	110.27
782.415	103.57
782.855	107.07
783.294	107.57
783.733	104.17
784.172	108.87
784.611	105.37
785.05	115.67
785.489	105.97
785.928	120.77
786.367	119.57
786.806	117.67
787.245	132.77
787.684	135.37
788.123	150.57
788.562	137.97
789.001	134.27
789.44	120.37
789.879	116.77
790.317	119.97
790.756	127.07
791.195	129.77
791.634	137.37
792.072	198.67
792.511	344.57
792.95	974.77
793.388	2075.87
793.827	1896.37
794.265	669.57
794.704	272.37
795.142	183.57
795.581	148.37
796.019	136.67
796.458	120.07
796.896	125.87
797.334	128.57
797.773	156.77
798.211	215.67
798.649	430.27
799.087	981.17
799.526	1556.97
799.964	1948.67
800.402	1975.67
800.84	739.87
801.278	296.17
801.716	184.47
802.154	152.37
802.592	145.37
803.03	138.97
803.468	127.17
803.906	137.97
804.344	142.97
804.782	138.27
805.22	135.07
805.658	132.97
806.096	151.77
806.533	163.37
806.971	177.87
807.409	210.97
807.847	315.17
808.284	633.87
808.722	1801.77
809.16	3218.57
809.597	2996.07
810.035	5236.37
810.472	5639.87
810.91	2027.37
811.347	768.17
811.785	392.77
812.222	251.27
812.66	201.37
813.097	156.97
813.535	146.47
813.972	129.57
814.409	117.37
814.846	105.37
815.284	118.47
815.721	101.67
816.158	106.87
816.595	120.97
817.032	176.37
817.47	195.87
817.907	170.47
818.344	151.67
818.781	118.57
819.218	101.67
819.655	115.67
820.092	185.67
820.529	205.57
820.966	175.37
821.403	138.47
821.839	108.77
822.276	104.87
822.713	116.97
823.15	131.07
823.587	108.87
824.023	144.67
824.46	290.37
824.897	859.77
825.333	1336.27
825.77	563.47
826.206	227.17
826.643	133.27
827.08	100.57
827.516	85.37
827.953	72.87
828.389	85.77
828.825	67.67
829.262	73.87
829.698	57.77
830.135	63.77
830.571	59.57
831.007	68.77
831.443	63.97
831.88	60.07
832.316	63.77
832.752	73.07
833.188	71.07
833.624	64.57
834.06	67.27
834.497	65.47
834.933	75.37
835.369	77.97
835.805	66.07
836.241	81.57
836.677	79.67
837.112	87.27
837.548	97.17
837.984	136.67
838.42	199.27
838.856	476.77
839.292	1475.17
839.727	2254.17
840.163	1040.07
840.599	880.07
841.034	1974.97
841.47	2082.07
841.906	759.57
842.341	321.87
842.777	230.87
843.212	323.47
843.648	315.37
844.083	153.17
844.519	96.47
844.954	71.87
845.39	59.27
845.825	61.57
846.261	59.17
846.696	54.87
847.131	54.47
847.566	57.57
848.002	57.67
848.437	51.87
848.872	61.37
849.307	58.67
849.742	83.47
850.177	173.87
850.613	540.47
851.048	857.77
851.483	376.27
851.918	145.87
852.353	91.57
852.788	66.27
853.223	52.87
853.657	55.87
854.092	51.17
854.527	43.67
854.962	44.07
855.397	42.67
855.832	47.37
856.266	45.27
856.701	43.47
857.136	29.87
857.57	41.37
858.005	49.87
858.44	62.87
858.874	47.27
859.309	60.57
859.743	44.97
860.178	47.67
860.612	42.57
861.047	55.07
861.481	67.57
861.915	68.97
862.35	50.07
862.784	33.37
863.218	35.87
863.653	35.37
864.087	49.67
864.521	54.27
864.955	74.37
865.39	156.67
865.824	171.47
866.258	119.77
866.692	156.87
867.126	172.07
867.56	103.57
867.994	54.87
868.428	37.37
868.862	43.07
869.296	61.07
869.73	53.27
870.164	59.67
870.598	45.87
871.031	39.97
871.465	33.87
871.899	32.07
872.333	24.87
872.766	24.67
873.2	26.67
873.634	28.87
874.067	33.57
874.501	28.57
874.935	30.57
875.368	27.07
875.802	31.87
876.235	29.47
876.669	27.37
877.102	23.07
877.535	26.27
877.969	27.17
878.402	21.37
878.836	18.77
879.269	24.17
879.702	25.17
880.135	20.77
880.569	24.27
881.002	29.37
881.435	23.57
881.868	21.07
882.301	25.37
882.734	17.87
883.167	20.47
883.601	19.47
884.034	29.47
884.467	15.77
884.899	27.67
885.332	17.37
885.765	19.37
886.198	18.97
886.631	19.37
887.064	16.97
887.497	20.47
887.929	25.67
888.362	16.77
888.795	19.57
889.228	15.37
889.66	24.47
890.093	16.07
890.526	21.87
890.958	19.77
891.391	21.67
891.823	26.57
892.256	15.57
892.688	17.47
893.121	14.37
893.553	20.77
893.985	24.27
894.418	22.77
894.85	15.37
895.282	15.07
895.715	16.17
896.147	25.67
896.579	16.77
897.011	10.57
897.444	14.17
897.876	12.27
898.308	15.47
898.74	17.07
899.172	13.57
899.604	25.07
900.036	19.67
900.468	10.67
900.9	17.97
901.332	15.87
901.764	13.47
902.196	19.67
902.628	22.37
903.06	21.17
903.491	30.37
903.923	22.37
904.355	22.57
904.787	22.67
905.218	23.57
905.65	15.37
906.082	14.47
906.513	14.37
906.945	17.47
907.376	17.87
907.808	22.67
908.239	20.27
908.671	19.87
909.102	23.37
909.534	29.37
909.965	49.27
910.397	93.77
910.828	304.77
911.259	467.57
911.691	211.77
912.122	109.67
912.553	47.07
912.984	32.37
913.415	23.87
913.847	27.27
914.278	12.77
914.709	19.97
915.14	21.97
915.571	22.87
916.002	14.77
916.433	20.57
916.864	17.17
917.295	12.97
917.726	23.17
918.157	16.97
918.587	27.07
919.018	19.57
919.449	22.97
919.88	19.47
920.311	36.17
920.741	45.67
921.172	166.77
921.603	156.87
922.033	72.87
922.464	53.17
922.895	23.77
923.325	25.27
923.756	16.77
924.186	15.97
924.617	32.77
925.047	48.77
925.478	58.57
925.908	46.67
926.338	28.77
926.769	22.27
927.199	21.87
927.629	10.77
928.06	22.37
928.49	12.47
928.92	14.47
929.35	13.17
929.78	9.67
930.21	7.27
930.641	7.57
931.071	12.67
931.501	5.17
931.931	14.07
932.361	11.77
932.791	9.97
933.221	7.07
933.651	7.37
934.08	18.17
934.51	30.27
934.94	12.57
935.37	8.77
935.8	9.37
936.229	10.07
936.659	13.37
937.089	5.27
937.519	16.07
937.948	26.77
938.378	17.07
938.807	11.57
939.237	5.27
939.666	9.07
940.096	-2.03
940.525	7.67
940.955	4.37
941.384	9.87
941.814	-5.13
942.243	0.17
942.672	2.87
943.102	-3.23
943.531	4.57
943.96	-0.13
944.39	0.07
944.819	5.47
945.248	9.07
945.677	7.07
946.106	6.57
946.535	8.27
946.964	3.57
947.393	8.27
947.822	2.17
948.251	0.87
948.68	4.57
949.109	5.97
949.538	8.97
949.967	3.77
950.396	7.87
950.825	5.07
951.254	10.07
951.682	-4.53
952.111	8.87
952.54	5.47
952.969	1.07
953.397	-4.43
953.826	4.07
954.254	-2.53
954.683	5.57
955.112	-2.53
955.54	6.77
955.969	2.37
956.397	5.07
956.826	-4.93
957.254	10.47
957.682	6.07
958.111	6.97
958.539	0.57
958.967	5.97
959.396	-1.43
959.824	3.97
960.252	5.37
960.68	1.47
961.109	1.07
961.537	-8.43
961.965	4.37
962.393	5.67
962.821	-1.43
963.249	-1.33
963.677	6.67
964.105	1.67
964.533	44.67
964.961	48.37
965.389	21.27
965.817	10.27
966.245	1.97
966.672	3.07
967.1	-8.03
967.528	1.27
967.956	3.77
968.383	2.77
968.811	5.47
969.239	-3.73
969.666	-3.83
970.094	0.47
970.522	2.17
970.949	-1.63
971.377	-0.73
971.804	-3.83
972.232	-7.23
972.659	-0.53
973.087	-0.63
973.514	0.57
973.941	-5.73
974.369	7.97
974.796	-1.73
975.223	2.47
975.651	-2.03
976.078	4.07
976.505	1.97
976.932	9.47
977.359	14.27
977.786	14.47
978.214	7.67
978.641	-2.33
979.068	3.07
979.495	-7.53
979.922	-2.73
980.349	-1.83
980.776	9.57
981.202	3.07
981.629	3.17
982.056	3.17
982.483	1.17
982.91	9.97
983.337	-1.63
983.763	3.57
984.19	-1.33
984.617	-5.43
985.043	-1.23
985.47	-0.33
985.897	-2.13
986.323	-1.93
986.75	3.47
987.176	5.87
987.603	0.97
988.029	3.07
988.456	-0.43
988.882	3.57
989.308	-8.33
989.735	0.37
990.161	-4.63
990.587	-9.03
991.014	3.57
991.44	9.07
991.866	-1.93
992.292	-2.63
992.719	5.27
993.145	4.27
993.571	-8.63
993.997	-0.83
994.423	2.77
994.849	-5.93
995.275	1.67
995.701	3.67
996.127	1.17
996.553	3.17
996.979	-4.23
997.405	3.07
997.83	-7.13
998.256	-0.93
998.682	-3.43
999.108	-5.53
999.534	-3.33
999.959	-4.43
1000.385	-4.53
1000.811	-2.43
1001.236	-8.93
1001.662	-7.33
1002.087	-8.43
1002.513	0.27
1002.938	6.77
1003.364	-4.03
1003.789	1.97
1004.215	7.97
1004.64	6.47
1005.066	2.77
1005.491	3.47
1005.916	3.77
1006.342	-1.63
1006.767	-1.93
1007.192	1.77
1007.617	-7.63
1008.042	1.07
1008.468	-7.73
1008.893	1.07
1009.318	-5.03
1009.743	-4.33
1010.168	3.97
1010.593	1.97
1011.018	-6.33
1011.443	1.77
1011.868	0.77
1012.293	-0.93
1012.718	-4.63
1013.143	-2.33
1013.567	-4.43
1013.992	0.47
1014.417	-12.53
1014.842	1.57
1015.267	-3.73
1015.691	-0.33
1016.116	2.77
1016.541	-1.23
1016.965	2.77
1017.39	2.07
1017.814	-2.03
1018.239	-0.63
1018.663	-6.33
1019.088	-4.83
1019.512	-9.23
1019.937	2.17
1020.361	-3.33
1020.785	-13.83
1021.21	3.87
1021.634	2.27
1022.058	-2.43
1022.483	2.07
1022.907	1.77
1023.331	-0.73
1023.755	0.77
1024.179	-3.03
1024.604	-3.63
1025.028	-7.53
1025.452	-5.83
1025.876	2.37
1026.3	0.37
1026.724	-13.73
1027.148	-4.23
1027.572	-6.23
1027.996	-1.33
1028.42	-2.73
1028.843	1.47
1029.267	-8.13
1029.691	4.17
1030.115	-6.43
1030.539	0.67
1030.962	-4.33
1031.386	-8.03
1031.81	7.17
1032.233	-1.23
1032.657	0.37
1033.08	4.67
1033.504	-0.83
1033.927	-0.13
1034.351	3.47
1034.774	-1.73
1035.198	1.27
1035.621	-3.03
1036.045	-2.53
1036.468	3.47
1036.891	-14.73
1037.315	-6.93
1037.738	-12.63
1038.161	0.47
1038.584	-4.93
1039.008	-2.73
1039.431	-1.93
1039.854	-5.63
1040.277	-6.03
1040.7	-12.93
1041.123	0.87
1041.546	-4.43
1041.969	1.17
1042.392	-2.23
1042.815	-0.83
1043.238	-0.43
1043.661	3.07
1044.084	-2.23
1044.507	-7.53
1044.93	-3.03
1045.352	0.67
1045.775	1.87
1046.198	-0.33
1046.621	1.07
1047.043	3.87
1047.466	10.47
1047.889	0.07
1048.311	-6.03
1048.734	2.37
1049.156	-10.13
1049.579	-0.23
1050.001	-5.93
1050.424	2.17
1050.846	0.57
1051.269	-1.93
1051.691	1.07
1052.113	0.27
1052.536	1.37
1052.958	1.87
1053.38	1.87
1053.802	-10.83
1054.225	4.97
1054.647	-8.13
1055.069	-0.43
1055.491	7.07
1055.913	-2.33
1056.335	-2.03
1056.757	-5.43
1057.179	-9.53
1057.601	-7.03
1058.023	-4.43
1058.445	-4.23
1058.867	-5.73
1059.289	-2.53
1059.711	-8.03
1060.133	0.57
1060.555	-5.63
1060.976	-10.03
1061.398	-7.23
1061.82	-6.63
1062.241	-3.23
1062.663	-7.03
1063.085	-5.93
1063.506	-5.73
1063.928	-4.83
1064.35	-1.53
1064.771	-10.03
1065.193	-1.93
1065.614	-3.13
1066.035	-0.33
1066.457	-6.63
1066.878	2.97
1067.3	-6.13
1067.721	-2.83
1068.142	-5.63
1068.564	-2.63
1068.985	-6.33
1069.406	-5.73
1069.827	-4.03
1070.248	1.27
1070.67	-8.73
1071.091	-3.23
1071.512	-3.53
1071.933	-8.53
1072.354	-3.63
1072.775	-5.93
1073.196	-4.03
1073.617	-6.03
1074.038	-5.13
1074.459	-3.03
1074.88	-7.53
1075.3	2.77
1075.721	-4.43
1076.142	-1.53
1076.563	-4.23
1076.983	-11.83
1077.404	-11.93
1077.825	-13.03
1078.246	2.27
1078.666	-9.73
1079.087	-6.83
1079.507	-3.83
1079.928	0.97
1080.348	-2.93
1080.769	3.37
1081.189	-2.33
1081.61	-2.83
1082.03	-4.43
1082.451	-9.63
1082.871	-3.93
1083.291	-8.63
1083.711	-9.93
1084.132	-7.73
1084.552	-5.63
1084.972	-0.83
1085.392	-10.13
1085.813	-6.23
1086.233	-5.43
1086.653	-6.43
1087.073	0.77
1087.493	-7.03
1087.913	-3.93
1088.333	-2.13
1088.753	-4.53
1089.173	8.47
1089.593	-4.03
1090.013	4.27
1090.433	1.77
1090.852	0.07
1091.272	1.67
1091.692	-1.33
1092.112	1.27
1092.531	-10.63
1092.951	-9.03
1093.371	-5.03
1093.79	1.97
1094.21	-6.63
1094.63	0.67
1095.049	-7.53
1095.469	0.97
1095.888	-2.23
1096.308	0.07
1096.727	3.37
1097.146	-2.53
1097.566	-1.43
1097.985	-4.03
1098.405	-2.43
1098.824	-5.33
1099.243	-8.43
1099.662	-5.13
1100.082	-6.13
1100.501	1.27
1100.92	-3.63
1101.339	-1.53
1101.758	-6.73
