Data from 20171114-ORNL-Ar_H_NY_Subt18_08-03-55-784.txt Node
Date: Tue Nov 14 08:03:55 EST 2017
User: Ender
Spectrometer: HR+D1039
Trigger mode: 0
Integration Time (sec): 2.730000E-2
Scans to average: 10
Electric dark correction enabled: true
Nonlinearity correction enabled: false
Boxcar width: 0
XAxis mode: Wavelengths
Number of Pixels in Spectrum: 2048
>>>>>Begin Spectral Data<<<<<
187.836	-4.49
188.309	-4.49
188.782	-4.49
189.255	-0.29
189.728	-0.89
190.201	2.81
190.674	1.21
191.147	5.11
191.619	-4.49
192.092	1.81
192.565	5.41
193.038	1.31
193.511	-0.69
193.984	-4.59
194.456	-1.59
194.929	3.31
195.402	-4.99
195.874	1.01
196.347	-4.29
196.82	-7.29
197.292	3.81
197.765	-3.49
198.237	-5.79
198.71	-0.89
199.182	-8.39
199.655	-0.39
200.127	1.31
200.6	0.61
201.072	-3.89
201.544	-5.79
202.017	-5.29
202.489	-2.79
202.961	-2.89
203.433	-1.49
203.906	-4.29
204.378	-7.39
204.85	-5.49
205.322	-4.59
205.794	-4.19
206.266	-8.79
206.739	-4.69
207.211	2.51
207.683	-9.89
208.155	-5.19
208.627	-8.39
209.099	-4.89
209.57	-13.19
210.042	-7.59
210.514	0.41
210.986	-4.39
211.458	-12.59
211.93	-3.39
212.402	3.21
212.873	-5.29
213.345	-10.89
213.817	-13.09
214.288	-5.79
214.76	-11.29
215.232	-4.99
215.703	-5.39
216.175	-7.59
216.646	-2.39
217.118	-5.89
217.589	-4.39
218.061	-0.89
218.532	-6.39
219.004	-1.29
219.475	-3.99
219.946	-2.69
220.418	-7.49
220.889	0.61
221.36	-0.89
221.832	-12.09
222.303	-13.09
222.774	-2.39
223.245	-10.59
223.717	-3.69
224.188	-7.69
224.659	-10.79
225.13	-10.99
225.601	-6.49
226.072	-1.59
226.543	-2.89
227.014	0.01
227.485	-2.99
227.956	-10.69
228.427	-4.79
228.898	-3.19
229.369	-2.29
229.839	-1.99
230.31	-7.99
230.781	4.71
231.252	-9.79
231.722	-4.69
232.193	-8.49
232.664	1.51
233.135	0.01
233.605	-6.29
234.076	-8.59
234.546	-5.19
235.017	-0.29
235.487	-2.09
235.958	-4.99
236.428	0.01
236.899	-3.59
237.369	-6.39
237.84	-8.09
238.31	2.91
238.78	0.81
239.251	-6.79
239.721	-2.59
240.191	-5.19
240.662	-3.99
241.132	-2.39
241.602	-2.39
242.072	-2.29
242.542	3.01
243.013	-2.89
243.483	-3.49
243.953	3.51
244.423	-7.09
244.893	-2.49
245.363	2.51
245.833	-4.19
246.303	-8.09
246.773	-0.09
247.243	-3.09
247.712	-2.99
248.182	0.71
248.652	0.91
249.122	-4.49
249.592	-6.39
250.061	1.01
250.531	10.81
251.001	-8.39
251.471	1.61
251.94	5.91
252.41	-9.99
252.879	-7.09
253.349	5.41
253.818	7.31
254.288	-0.99
254.757	-4.49
255.227	-7.59
255.696	-3.59
256.166	-0.09
256.635	-1.59
257.105	1.61
257.574	-2.89
258.043	0.61
258.513	-6.69
258.982	-0.89
259.451	-1.69
259.92	0.31
260.389	0.71
260.859	3.81
261.328	-3.69
261.797	-0.79
262.266	3.11
262.735	3.01
263.204	-0.79
263.673	-1.79
264.142	4.71
264.611	-4.49
265.08	-7.79
265.549	-6.69
266.018	7.61
266.487	-8.49
266.955	-4.79
267.424	-7.19
267.893	5.01
268.362	-0.89
268.83	0.11
269.299	8.21
269.768	0.71
270.236	2.81
270.705	-4.89
271.174	-1.39
271.642	-2.39
272.111	3.01
272.579	6.81
273.048	-1.49
273.516	-0.59
273.985	-2.09
274.453	1.61
274.922	8.51
275.39	5.71
275.858	-5.49
276.327	6.61
276.795	13.41
277.263	3.61
277.731	2.01
278.2	2.71
278.668	2.81
279.136	2.11
279.604	1.51
280.072	5.01
280.54	0.11
281.008	-0.09
281.477	6.41
281.945	2.61
282.413	7.31
282.881	6.91
283.348	0.91
283.816	4.21
284.284	5.91
284.752	20.41
285.22	8.01
285.688	9.21
286.156	5.91
286.623	11.21
287.091	6.61
287.559	14.31
288.026	11.11
288.494	5.11
288.962	-3.89
289.429	-0.39
289.897	12.11
290.364	4.11
290.832	6.31
291.3	9.91
291.767	12.51
292.234	10.11
292.702	0.71
293.169	5.91
293.637	17.41
294.104	9.91
294.571	-4.79
295.039	-1.29
295.506	2.51
295.973	16.01
296.44	3.41
296.908	9.01
297.375	6.21
297.842	13.91
298.309	4.11
298.776	6.21
299.243	5.51
299.71	1.11
300.177	17.41
300.644	9.91
301.111	10.41
301.578	12.71
302.045	13.71
302.512	16.31
302.979	17.61
303.446	13.01
303.913	7.91
304.379	12.61
304.846	15.41
305.313	20.51
305.78	6.41
306.246	17.91
306.713	14.01
307.18	22.81
307.646	17.21
308.113	15.31
308.579	20.41
309.046	9.81
309.512	15.61
309.979	8.71
310.445	13.11
310.912	17.11
311.378	23.41
311.845	22.51
312.311	20.11
312.777	23.61
313.244	23.31
313.71	27.11
314.176	18.91
314.642	19.01
315.109	19.01
315.575	24.31
316.041	26.21
316.507	25.21
316.973	24.81
317.439	20.91
317.905	24.01
318.371	25.01
318.837	26.61
319.303	23.41
319.769	22.41
320.235	23.61
320.701	29.41
321.167	29.11
321.633	24.41
322.099	24.01
322.564	32.31
323.03	31.81
323.496	27.41
323.962	26.21
324.427	24.31
324.893	28.71
325.359	23.41
325.824	26.81
326.29	29.41
326.755	25.81
327.221	28.01
327.686	36.81
328.152	35.21
328.617	29.61
329.083	33.81
329.548	39.71
330.014	38.11
330.479	27.71
330.944	30.61
331.41	29.91
331.875	39.11
332.34	37.11
332.805	34.51
333.271	29.51
333.736	31.91
334.201	46.21
334.666	41.51
335.131	42.21
335.596	42.91
336.061	39.41
336.526	29.01
336.991	39.31
337.456	47.21
337.921	35.61
338.386	34.11
338.851	35.61
339.316	34.41
339.781	39.41
340.246	41.91
340.711	33.31
341.175	41.41
341.64	33.81
342.105	42.51
342.569	48.51
343.034	51.61
343.499	45.81
343.963	43.41
344.428	54.61
344.893	47.21
345.357	42.51
345.822	47.11
346.286	52.21
346.751	56.31
347.215	55.21
347.679	64.11
348.144	73.61
348.608	64.71
349.073	59.31
349.537	61.21
350.001	67.71
350.465	71.21
350.93	65.61
351.394	67.01
351.858	59.61
352.322	74.61
352.786	69.71
353.25	77.61
353.715	87.41
354.179	77.91
354.643	87.91
355.107	90.61
355.571	80.41
356.035	78.31
356.498	89.01
356.962	92.01
357.426	90.81
357.89	88.41
358.354	82.61
358.818	75.91
359.281	66.61
359.745	64.61
360.209	65.11
360.673	63.01
361.136	65.01
361.6	78.71
362.064	68.51
362.527	71.21
362.991	77.21
363.454	70.61
363.918	67.81
364.381	72.51
364.845	73.61
365.308	73.81
365.772	69.51
366.235	79.31
366.698	76.21
367.162	74.91
367.625	74.21
368.088	75.91
368.552	75.81
369.015	83.01
369.478	84.41
369.941	87.21
370.404	78.91
370.867	94.91
371.331	90.51
371.794	101.11
372.257	88.21
372.72	95.61
373.183	96.41
373.646	86.21
374.109	82.71
374.572	87.91
375.035	91.71
375.497	99.11
375.96	90.81
376.423	91.21
376.886	99.71
377.349	96.91
377.811	94.81
378.274	88.61
378.737	96.11
379.199	95.01
379.662	100.61
380.125	100.01
380.587	100.11
381.05	105.11
381.512	106.01
381.975	111.61
382.437	105.61
382.9	108.81
383.362	112.81
383.825	112.61
384.287	119.91
384.75	112.81
385.212	116.11
385.674	118.61
386.136	122.61
386.599	110.11
387.061	116.81
387.523	112.31
387.985	116.71
388.447	117.61
388.91	115.81
389.372	122.61
389.834	122.31
390.296	111.31
390.758	123.21
391.22	123.71
391.682	132.61
392.144	128.51
392.606	131.81
393.068	131.61
393.529	146.51
393.991	135.21
394.453	122.41
394.915	123.61
395.377	122.71
395.838	128.31
396.3	126.71
396.762	130.71
397.224	124.91
397.685	129.21
398.147	124.11
398.608	124.21
399.07	128.41
399.531	130.21
399.993	140.21
400.454	143.71
400.916	147.21
401.377	134.41
401.839	142.61
402.3	150.61
402.762	158.91
403.223	172.71
403.684	159.41
404.145	153.41
404.607	154.61
405.068	154.71
405.529	158.71
405.99	162.41
406.451	159.81
406.913	167.21
407.374	162.91
407.835	154.21
408.296	157.41
408.757	162.51
409.218	164.41
409.679	161.21
410.14	166.51
410.601	158.11
411.062	175.21
411.522	168.71
411.983	164.21
412.444	166.81
412.905	176.41
413.366	177.61
413.826	195.01
414.287	215.81
414.748	263.51
415.208	247.51
415.669	210.31
416.13	204.21
416.59	199.01
417.051	213.71
417.511	219.21
417.972	245.71
418.432	246.21
418.893	297.51
419.353	258.21
419.814	199.11
420.274	187.11
420.734	176.01
421.195	189.31
421.655	187.61
422.115	191.51
422.576	193.71
423.036	200.81
423.496	206.41
423.956	217.51
424.416	230.61
424.876	264.41
425.336	259.51
425.797	249.81
426.257	250.91
426.717	232.71
427.177	220.21
427.637	210.91
428.097	216.31
428.556	223.31
429.016	254.81
429.476	249.01
429.936	256.31
430.396	257.11
430.856	275.31
431.315	295.71
431.775	314.61
432.235	348.61
432.694	327.31
433.154	332.31
433.614	353.41
434.073	299.01
434.533	263.21
434.993	254.11
435.452	262.51
435.912	267.21
436.371	259.11
436.83	267.11
437.29	243.41
437.749	233.31
438.209	234.21
438.668	242.11
439.127	249.01
439.587	241.61
440.046	232.81
440.505	241.31
440.964	250.01
441.424	284.81
441.883	281.11
442.342	242.11
442.801	216.01
443.26	213.41
443.719	218.21
444.178	216.51
444.637	201.21
445.096	216.41
445.555	216.01
446.014	217.71
446.473	225.51
446.932	225.71
447.391	226.01
447.849	230.41
448.308	218.51
448.767	217.21
449.226	233.81
449.685	234.31
450.143	243.01
450.602	238.31
451.061	222.21
451.519	222.41
451.978	221.91
452.436	227.51
452.895	223.41
453.353	235.81
453.812	231.41
454.27	229.41
454.729	231.31
455.187	227.21
455.646	227.31
456.104	230.41
456.562	240.81
457.021	248.01
457.479	242.81
457.937	247.31
458.395	250.51
458.854	241.31
459.312	236.81
459.77	256.11
460.228	246.01
460.686	231.21
461.144	245.31
461.602	233.41
462.06	242.41
462.518	255.41
462.976	238.71
463.434	246.51
463.892	254.21
464.35	263.01
464.808	268.31
465.266	261.21
465.724	266.11
466.181	263.81
466.639	263.31
467.097	282.81
467.555	292.51
468.012	290.31
468.47	287.81
468.928	313.81
469.385	317.81
469.843	322.11
470.3	328.51
470.758	344.01
471.215	352.61
471.673	367.71
472.13	368.31
472.588	383.01
473.045	354.51
473.503	364.01
473.96	379.01
474.417	376.01
474.875	406.71
475.332	432.31
475.789	434.01
476.246	433.51
476.704	447.41
477.161	459.51
477.618	476.91
478.075	515.91
478.532	549.91
478.989	612.81
479.446	692.81
479.903	686.71
480.36	707.11
480.817	753.71
481.274	837.81
481.731	932.81
482.188	1002.81
482.645	1106.61
483.102	1196.21
483.558	1286.21
484.015	1343.51
484.472	1321.31
484.929	1279.61
485.385	1248.31
485.842	1221.71
486.299	1177.41
486.755	1115.91
487.212	962.21
487.668	842.41
488.125	768.41
488.582	720.21
489.038	687.81
489.494	658.61
489.951	627.81
490.407	624.31
490.864	605.81
491.32	594.21
491.776	581.91
492.233	588.61
492.689	553.91
493.145	557.61
493.602	561.61
494.058	562.41
494.514	561.61
494.97	584.71
495.426	579.31
495.882	562.21
496.338	557.51
496.794	565.41
497.251	553.11
497.707	581.21
498.163	577.61
498.618	582.11
499.074	580.41
499.53	607.81
499.986	607.61
500.442	580.61
500.898	569.31
501.354	568.11
501.809	571.71
502.265	576.21
502.721	578.61
503.177	584.31
503.632	578.61
504.088	587.11
504.543	607.71
504.999	619.61
505.455	596.91
505.91	581.01
506.366	578.51
506.821	578.11
507.277	577.71
507.732	588.91
508.187	581.11
508.643	592.91
509.098	591.41
509.553	599.51
510.009	602.41
510.464	606.81
510.919	628.01
511.375	623.91
511.83	644.11
512.285	652.31
512.74	680.71
513.195	693.61
513.65	687.61
514.105	686.41
514.56	684.61
515.015	710.01
515.47	713.11
515.925	707.31
516.38	717.91
516.835	720.21
517.29	699.41
517.745	701.81
518.2	692.81
518.655	683.61
519.109	671.81
519.564	667.81
520.019	650.41
520.474	644.01
520.928	654.71
521.383	648.91
521.838	633.91
522.292	638.41
522.747	632.21
523.201	634.61
523.656	632.01
524.11	621.01
524.565	620.91
525.019	608.91
525.474	616.61
525.928	619.81
526.382	617.81
526.837	621.11
527.291	617.61
527.745	625.71
528.2	620.01
528.654	603.01
529.108	604.51
529.562	614.51
530.016	612.41
530.47	605.41
530.925	601.41
531.379	611.51
531.833	620.31
532.287	607.71
532.741	613.31
533.195	613.91
533.649	619.81
534.103	627.61
534.556	608.81
535.01	614.81
535.464	613.71
535.918	627.41
536.372	632.61
536.826	622.91
537.279	614.81
537.733	609.61
538.187	624.21
538.64	616.21
539.094	626.91
539.548	634.71
540.001	624.81
540.455	626.81
540.908	634.51
541.362	636.31
541.815	640.91
542.269	653.31
542.722	654.21
543.175	658.51
543.629	659.01
544.082	681.11
544.536	680.71
544.989	672.91
545.442	682.91
545.895	691.91
546.349	684.21
546.802	680.61
547.255	685.01
547.708	695.51
548.161	699.11
548.614	709.01
549.067	713.81
549.52	706.51
549.973	692.21
550.426	699.81
550.879	687.41
551.332	686.61
551.785	687.11
552.238	681.71
552.691	695.91
553.144	710.91
553.596	723.71
554.049	727.61
554.502	753.01
554.955	766.11
555.407	774.81
555.86	761.41
556.313	755.31
556.765	740.01
557.218	739.11
557.67	745.91
558.123	747.21
558.576	735.81
559.028	739.71
559.48	742.81
559.933	734.91
560.385	715.81
560.838	690.01
561.29	667.81
561.742	663.01
562.195	643.01
562.647	657.21
563.099	650.51
563.551	654.51
564.004	654.61
564.456	636.01
564.908	629.31
565.36	630.61
565.812	598.71
566.264	600.61
566.716	594.71
567.168	581.91
567.62	592.91
568.072	574.41
568.524	576.61
568.976	575.31
569.428	557.51
569.88	559.71
570.332	568.91
570.784	571.51
571.235	568.61
571.687	573.61
572.139	575.81
572.59	586.81
573.042	588.21
573.494	578.31
573.945	571.71
574.397	551.81
574.849	560.11
575.3	566.71
575.752	566.71
576.203	551.01
576.655	556.41
577.106	537.81
577.557	539.71
578.009	539.21
578.46	534.01
578.912	541.51
579.363	536.11
579.814	539.91
580.265	540.51
580.717	534.01
581.168	537.71
581.619	540.61
582.07	548.51
582.521	534.71
582.972	539.91
583.423	544.81
583.875	538.91
584.326	539.91
584.777	555.81
585.227	570.51
585.678	577.61
586.129	594.81
586.58	623.91
587.031	634.01
587.482	669.21
587.933	684.71
588.384	658.31
588.834	634.11
589.285	614.91
589.736	617.11
590.186	611.01
590.637	610.91
591.088	591.01
591.538	581.61
591.989	577.11
592.439	579.11
592.89	563.91
593.34	550.31
593.791	553.41
594.241	550.71
594.692	547.11
595.142	547.11
595.593	535.01
596.043	548.81
596.493	551.91
596.943	548.81
597.394	565.01
597.844	563.91
598.294	572.31
598.744	595.31
599.195	605.61
599.645	638.41
600.095	665.11
600.545	709.71
600.995	738.61
601.445	797.11
601.895	837.51
602.345	887.61
602.795	876.51
603.245	840.41
603.695	790.11
604.145	747.11
604.594	724.71
605.044	682.81
605.494	627.01
605.944	584.31
606.393	572.21
606.843	557.61
607.293	562.61
607.743	554.61
608.192	555.81
608.642	579.71
609.091	577.71
609.541	591.01
609.99	579.11
610.44	579.21
610.889	552.11
611.339	533.21
611.788	520.51
612.238	526.91
612.687	532.91
613.136	529.71
613.586	542.31
614.035	522.51
614.484	539.01
614.933	539.51
615.383	537.31
615.832	538.01
616.281	534.41
616.73	509.01
617.179	503.31
617.628	482.41
618.077	472.61
618.526	473.61
618.975	474.41
619.424	471.81
619.873	467.81
620.322	459.31
620.771	453.71
621.22	454.71
621.669	444.91
622.118	444.11
622.567	440.41
623.015	428.51
623.464	425.71
623.913	427.81
624.361	412.61
624.81	410.51
625.259	413.31
625.707	419.31
626.156	417.51
626.604	425.61
627.053	410.81
627.501	415.21
627.95	427.31
628.398	433.81
628.847	424.81
629.295	419.21
629.744	427.81
630.192	419.01
630.64	426.71
631.089	407.41
631.537	400.81
631.985	394.11
632.433	394.01
632.881	393.11
633.33	391.71
633.778	379.91
634.226	384.41
634.674	401.21
635.122	392.51
635.57	410.01
636.018	409.01
636.466	419.91
636.914	409.81
637.362	423.71
637.81	426.61
638.258	430.41
638.705	422.41
639.153	447.21
639.601	453.41
640.049	463.31
640.497	496.61
640.944	511.01
641.392	474.11
641.84	456.01
642.287	442.01
642.735	411.51
643.182	414.71
643.63	420.11
644.078	412.21
644.525	421.21
644.973	417.71
645.42	431.01
645.867	443.91
646.315	459.11
646.762	478.11
647.21	485.61
647.657	515.31
648.104	528.71
648.551	534.51
648.999	580.81
649.446	631.71
649.893	690.51
650.34	779.91
650.787	926.11
651.234	1135.71
651.682	1455.91
652.129	1950.31
652.576	2738.61
653.023	4005.71
653.47	5545.01
653.917	7015.91
654.363	8204.11
654.81	9278.31
655.257	8824.01
655.704	5822.81
656.151	3484.61
656.598	2267.01
657.044	1637.21
657.491	1259.31
657.938	1017.31
658.385	846.01
658.831	737.91
659.278	672.91
659.724	595.01
660.171	559.01
660.618	501.41
661.064	481.01
661.511	468.31
661.957	442.31
662.404	436.61
662.85	432.91
663.296	426.71
663.743	399.61
664.189	385.41
664.635	382.31
665.082	373.01
665.528	374.11
665.974	368.71
666.42	352.21
666.867	358.91
667.313	338.11
667.759	332.51
668.205	320.51
668.651	326.61
669.097	322.41
669.543	317.91
669.989	318.01
670.435	320.61
670.881	325.11
671.327	317.51
671.773	336.51
672.219	355.71
672.665	393.21
673.11	419.51
673.556	458.11
674.002	492.81
674.448	487.11
674.893	406.91
675.339	356.11
675.785	319.61
676.23	306.71
676.676	284.11
677.122	283.41
677.567	273.61
678.013	259.31
678.458	262.41
678.904	253.31
679.349	251.61
679.794	256.21
680.24	253.11
680.685	250.51
681.131	239.51
681.576	252.21
682.021	257.91
682.466	250.11
682.912	244.71
683.357	244.61
683.802	268.91
684.247	290.31
684.692	319.61
685.137	364.41
685.583	394.31
686.028	412.41
686.473	377.91
686.918	320.41
687.363	307.01
687.807	289.11
688.252	267.81
688.697	253.61
689.142	237.31
689.587	238.01
690.032	234.71
690.477	244.71
690.921	251.41
691.366	272.61
691.811	290.61
692.255	308.51
692.7	332.21
693.145	355.61
693.589	484.71
694.034	787.01
694.478	1108.31
694.923	1295.71
695.367	1731.41
695.812	907.21
696.256	370.41
696.701	267.11
697.145	244.81
697.59	226.51
698.034	226.01
698.478	239.81
698.922	233.81
699.367	227.91
699.811	235.51
700.255	249.01
700.699	262.11
701.143	297.71
701.588	340.01
702.032	372.51
702.476	370.01
702.92	352.91
703.364	354.91
703.808	438.31
704.252	715.81
704.696	1031.91
705.14	1247.21
705.584	1613.71
706.027	794.61
706.471	378.21
706.915	289.11
707.359	259.01
707.803	225.11
708.246	222.61
708.69	227.31
709.134	229.11
709.577	220.81
710.021	229.71
710.465	217.41
710.908	208.51
711.352	207.11
711.795	219.11
712.239	243.71
712.682	271.41
713.126	291.41
713.569	339.21
714.012	256.81
714.456	223.91
714.899	206.91
715.342	193.21
715.786	185.21
716.229	189.31
716.672	184.81
717.115	172.11
717.558	185.11
718.002	173.61
718.445	185.71
718.888	204.01
719.331	210.11
719.774	216.91
720.217	217.21
720.66	203.11
721.103	186.11
721.546	183.91
721.989	174.21
722.432	160.51
722.874	176.91
723.317	158.01
723.76	163.91
724.203	178.91
724.645	222.31
725.088	297.71
725.531	401.11
725.974	474.71
726.416	401.01
726.859	216.01
727.301	175.81
727.744	170.11
728.187	162.31
728.629	174.21
729.071	164.31
729.514	180.21
729.956	196.21
730.399	203.11
730.841	202.11
731.283	196.81
731.726	187.81
732.168	185.81
732.61	189.41
733.053	199.31
733.495	217.91
733.937	244.41
734.379	278.71
734.821	306.31
735.263	375.81
735.705	572.71
736.148	1098.51
736.59	1854.81
737.032	2332.11
737.474	1892.01
737.916	595.91
738.357	307.81
738.799	232.41
739.241	218.41
739.683	201.51
740.125	208.31
740.567	219.41
741.008	231.81
741.45	220.91
741.892	227.91
742.334	251.61
742.775	266.41
743.217	258.81
743.658	189.61
744.1	184.21
744.542	186.71
744.983	230.61
745.425	259.81
745.866	264.71
746.307	207.81
746.749	196.71
747.19	223.81
747.632	314.51
748.073	591.01
748.514	1290.11
748.956	2089.41
749.397	2635.31
749.838	2168.61
750.279	2261.91
750.72	1138.81
751.162	408.71
751.603	232.31
752.044	180.21
752.485	150.01
752.926	150.71
753.367	143.61
753.808	140.71
754.249	132.61
754.69	130.91
755.131	129.81
755.572	120.51
756.013	128.51
756.453	131.21
756.894	128.61
757.335	133.01
757.776	133.91
758.216	137.51
758.657	139.61
759.098	146.11
759.538	155.01
759.979	184.91
760.42	256.51
760.86	497.21
761.301	1278.61
761.741	3188.21
762.182	5060.81
762.622	3578.81
763.063	1001.81
763.503	400.11
763.943	235.21
764.384	198.61
764.824	181.71
765.264	171.11
765.705	147.11
766.145	129.71
766.585	126.11
767.025	113.11
767.465	104.81
767.906	124.41
768.346	144.21
768.786	145.91
769.226	146.11
769.666	214.51
770.106	410.91
770.546	1070.51
770.986	1963.01
771.426	1835.81
771.866	588.81
772.306	229.11
772.745	150.61
773.185	114.41
773.625	112.91
774.065	104.01
774.505	113.11
774.944	145.81
775.384	262.31
775.824	462.71
776.263	453.91
776.703	206.61
777.142	116.71
777.582	90.61
778.021	86.61
778.461	86.41
778.9	90.11
779.34	90.91
779.779	74.71
780.219	75.01
780.658	71.91
781.097	71.31
781.537	80.01
781.976	70.11
782.415	69.71
782.855	64.81
783.294	71.41
783.733	75.01
784.172	73.11
784.611	68.51
785.05	70.91
785.489	71.41
785.928	79.11
786.367	77.31
786.806	80.41
787.245	85.31
787.684	91.91
788.123	102.41
788.562	89.31
789.001	95.31
789.44	81.71
789.879	81.41
790.317	74.01
790.756	89.51
791.195	88.71
791.634	101.91
792.072	140.01
792.511	243.51
792.95	673.61
793.388	1577.21
793.827	1488.11
794.265	497.11
794.704	198.81
795.142	131.01
795.581	108.61
796.019	94.81
796.458	94.31
796.896	86.31
797.334	92.51
797.773	106.01
798.211	156.21
798.649	296.11
799.087	724.41
799.526	1163.21
799.964	1474.61
800.402	1568.61
800.84	570.71
801.278	219.01
801.716	137.61
802.154	107.71
802.592	104.51
803.03	99.71
803.468	93.01
803.906	105.31
804.344	106.91
804.782	101.61
805.22	91.71
805.658	88.11
806.096	102.81
806.533	109.41
806.971	124.81
807.409	160.51
807.847	217.21
808.284	454.91
808.722	1331.81
809.16	2504.31
809.597	2313.21
810.035	4108.21
810.472	4677.31
810.91	1663.51
811.347	599.51
811.785	298.21
812.222	194.61
812.66	142.01
813.097	117.71
813.535	99.01
813.972	92.11
814.409	82.81
814.846	80.11
815.284	79.41
815.721	71.61
816.158	74.61
816.595	75.21
817.032	112.71
817.47	138.91
817.907	109.01
818.344	64.71
818.781	72.01
819.218	73.01
819.655	85.91
820.092	144.51
820.529	172.11
820.966	129.71
821.403	101.01
821.839	66.71
822.276	72.41
822.713	90.91
823.15	95.31
823.587	86.21
824.023	99.71
824.46	201.21
824.897	638.61
825.333	1036.51
825.77	443.61
826.206	163.01
826.643	96.31
827.08	66.41
827.516	56.11
827.953	54.41
828.389	54.11
828.825	47.01
829.262	44.81
829.698	39.01
830.135	38.81
830.571	40.01
831.007	43.61
831.443	38.71
831.88	36.41
832.316	39.21
832.752	41.61
833.188	49.11
833.624	40.81
834.06	46.31
834.497	50.01
834.933	47.21
835.369	56.71
835.805	46.61
836.241	54.41
836.677	52.41
837.112	56.31
837.548	74.01
837.984	95.51
838.42	141.81
838.856	339.01
839.292	1118.61
839.727	1806.01
840.163	836.01
840.599	671.21
841.034	1513.21
841.47	1695.71
841.906	591.71
842.341	242.61
842.777	140.31
843.212	148.01
843.648	142.31
844.083	79.71
844.519	58.41
844.954	40.81
845.39	32.21
845.825	35.91
846.261	41.71
846.696	33.51
847.131	33.51
847.566	44.71
848.002	40.01
848.437	40.01
848.872	38.11
849.307	37.01
849.742	56.71
850.177	123.31
850.613	398.91
851.048	669.01
851.483	285.01
851.918	105.51
852.353	55.91
852.788	38.91
853.223	36.31
853.657	39.41
854.092	34.41
854.527	26.71
854.962	22.81
855.397	28.31
855.832	35.51
856.266	29.81
856.701	31.01
857.136	25.01
857.57	22.41
858.005	34.61
858.44	44.11
858.874	26.21
859.309	42.61
859.743	25.21
860.178	32.91
860.612	21.71
861.047	38.21
861.481	51.11
861.915	52.01
862.35	33.01
862.784	24.31
863.218	25.61
863.653	19.51
864.087	28.61
864.521	32.51
864.955	42.71
865.39	111.11
865.824	129.61
866.258	89.71
866.692	136.41
867.126	146.81
867.56	89.31
867.994	42.91
868.428	32.01
868.862	35.21
869.296	44.61
869.73	44.21
870.164	44.41
870.598	30.21
871.031	29.51
871.465	18.71
871.899	18.41
872.333	15.51
872.766	18.21
873.2	20.01
873.634	24.41
874.067	21.71
874.501	15.51
874.935	20.71
875.368	26.91
875.802	22.71
876.235	12.11
876.669	16.91
877.102	13.41
877.535	21.21
877.969	11.61
878.402	18.21
878.836	13.61
879.269	19.71
879.702	17.61
880.135	9.11
880.569	11.31
881.002	18.51
881.435	10.31
881.868	12.91
882.301	16.51
882.734	7.21
883.167	12.61
883.601	10.61
884.034	14.21
884.467	9.21
884.899	14.01
885.332	9.21
885.765	10.41
886.198	12.91
886.631	11.01
887.064	13.81
887.497	9.41
887.929	23.21
888.362	3.81
888.795	3.01
889.228	8.01
889.66	16.91
890.093	9.21
890.526	8.21
890.958	11.81
891.391	12.51
891.823	18.21
892.256	7.21
892.688	9.81
893.121	4.81
893.553	1.61
893.985	11.11
894.418	12.21
894.85	7.31
895.282	14.11
895.715	8.11
896.147	8.41
896.579	6.81
897.011	7.31
897.444	8.01
897.876	6.91
898.308	8.11
898.74	2.31
899.172	4.51
899.604	23.01
900.036	11.91
900.468	10.31
900.9	6.21
901.332	16.01
901.764	5.51
902.196	10.21
902.628	12.41
903.06	11.91
903.491	26.51
903.923	19.41
904.355	13.91
904.787	16.11
905.218	14.21
905.65	13.41
906.082	8.01
906.513	6.01
906.945	8.91
907.376	6.51
907.808	8.41
908.239	12.61
908.671	6.81
909.102	12.01
909.534	14.61
909.965	30.51
910.397	64.61
910.828	228.51
911.259	365.91
911.691	168.01
912.122	68.21
912.553	33.11
912.984	22.61
913.415	15.71
913.847	16.41
914.278	8.51
914.709	13.01
915.14	13.61
915.571	3.81
916.002	6.71
916.433	15.51
916.864	9.31
917.295	5.21
917.726	15.71
918.157	10.11
918.587	21.11
919.018	12.71
919.449	15.51
919.88	20.41
920.311	19.91
920.741	35.71
921.172	118.91
921.603	116.81
922.033	55.11
922.464	38.41
922.895	14.41
923.325	11.01
923.756	5.81
924.186	9.41
924.617	7.91
925.047	12.21
925.478	17.11
925.908	8.91
926.338	11.71
926.769	8.51
927.199	11.71
927.629	4.41
928.06	10.61
928.49	7.31
928.92	4.81
929.35	9.31
929.78	7.71
930.21	4.91
930.641	10.81
931.071	3.81
931.501	-0.49
931.931	10.01
932.361	6.31
932.791	2.71
933.221	8.11
933.651	-0.39
934.08	11.51
934.51	24.31
934.94	5.81
935.37	6.81
935.8	7.31
936.229	1.41
936.659	-1.29
937.089	2.31
937.519	9.71
937.948	16.11
938.378	13.21
938.807	0.81
939.237	2.01
939.666	7.51
940.096	-7.09
940.525	0.91
940.955	3.51
941.384	-3.99
941.814	-8.09
942.243	-5.99
942.672	7.81
943.102	-3.39
943.531	-1.89
943.96	8.11
944.39	3.81
944.819	-5.59
945.248	2.61
945.677	-0.59
946.106	-1.79
946.535	2.51
946.964	-1.89
947.393	0.61
947.822	-0.79
948.251	-6.79
948.68	1.11
949.109	4.51
949.538	-0.29
949.967	-3.79
950.396	-0.19
950.825	-1.39
951.254	-0.49
951.682	-6.59
952.111	1.31
952.54	2.51
952.969	-7.29
953.397	-6.89
953.826	2.91
954.254	-6.79
954.683	0.11
955.112	-3.79
955.54	-3.19
955.969	-1.49
956.397	-5.69
956.826	-8.29
957.254	3.11
957.682	-4.19
958.111	1.91
958.539	-6.79
958.967	0.81
959.396	-7.59
959.824	-4.59
960.252	-0.39
960.68	-14.09
961.109	-7.39
961.537	-6.79
961.965	-0.89
962.393	-7.09
962.821	-9.59
963.249	5.61
963.677	4.21
964.105	1.11
964.533	34.81
964.961	28.51
965.389	14.31
965.817	4.11
966.245	-5.09
966.672	-2.89
967.1	-8.29
967.528	-2.39
967.956	-4.09
968.383	0.01
968.811	-5.69
969.239	-4.59
969.666	-6.59
970.094	-4.19
970.522	-0.49
970.949	-7.39
971.377	-8.19
971.804	-3.69
972.232	-6.49
972.659	-8.99
973.087	-3.19
973.514	-4.59
973.941	-8.99
974.369	-5.69
974.796	-6.59
975.223	-4.39
975.651	-2.69
976.078	-1.39
976.505	-6.29
976.932	-0.49
977.359	11.01
977.786	8.81
978.214	-3.59
978.641	-8.29
979.068	-8.19
979.495	-8.19
979.922	0.51
980.349	-6.59
980.776	2.81
981.202	-4.99
981.629	1.31
982.056	0.81
982.483	3.71
982.91	-0.69
983.337	-5.79
983.763	1.91
984.19	-2.19
984.617	-10.39
985.043	-5.19
985.47	-4.59
985.897	-2.09
986.323	-4.49
986.75	3.21
987.176	-1.79
987.603	-3.79
988.029	-2.09
988.456	-5.79
988.882	2.31
989.308	0.01
989.735	-3.69
990.161	-0.49
990.587	-2.89
991.014	-3.19
991.44	3.71
991.866	-10.99
992.292	-4.59
992.719	-3.69
993.145	3.31
993.571	-10.29
993.997	-6.39
994.423	-7.49
994.849	-3.69
995.275	-2.09
995.701	-0.49
996.127	-7.19
996.553	-5.69
996.979	-7.29
997.405	-2.99
997.83	-7.89
998.256	-3.59
998.682	-5.39
999.108	-8.19
999.534	0.91
999.959	-3.19
1000.385	-8.79
1000.811	-1.79
1001.236	-4.19
1001.662	-9.59
1002.087	-12.29
1002.513	4.51
1002.938	-1.29
1003.364	0.81
1003.789	-4.09
1004.215	1.21
1004.64	-5.69
1005.066	-0.99
1005.491	-5.49
1005.916	-2.59
1006.342	-5.99
1006.767	-8.29
1007.192	8.31
1007.617	-4.59
1008.042	-9.99
1008.468	-7.29
1008.893	-6.89
1009.318	-2.29
1009.743	-7.49
1010.168	2.61
1010.593	-2.89
1011.018	-13.99
1011.443	-0.69
1011.868	-1.49
1012.293	-8.29
1012.718	-4.19
1013.143	5.21
1013.567	0.71
1013.992	-5.89
1014.417	-9.59
1014.842	1.21
1015.267	-6.29
1015.691	-1.89
1016.116	2.21
1016.541	-3.49
1016.965	-1.99
1017.39	-2.79
1017.814	1.01
1018.239	2.61
1018.663	-2.89
1019.088	-10.99
1019.512	-5.79
1019.937	-1.89
1020.361	-4.19
1020.785	-7.79
1021.21	0.01
1021.634	1.31
1022.058	0.41
1022.483	-2.69
1022.907	-7.49
1023.331	-2.29
1023.755	-2.69
1024.179	-2.89
1024.604	-2.69
1025.028	-3.89
1025.452	-9.39
1025.876	-4.29
1026.3	-4.59
1026.724	-16.19
1027.148	-5.69
1027.572	-8.49
1027.996	-1.79
1028.42	-3.59
1028.843	-3.99
1029.267	-7.29
1029.691	0.11
1030.115	-9.19
1030.539	-10.39
1030.962	-5.39
1031.386	-8.89
1031.81	-2.19
1032.233	0.21
1032.657	-3.39
1033.08	-1.49
1033.504	-10.79
1033.927	-2.99
1034.351	-7.19
1034.774	-3.69
1035.198	-4.99
1035.621	-4.59
1036.045	-4.89
1036.468	0.11
1036.891	-13.59
1037.315	-15.49
1037.738	-6.99
1038.161	0.71
1038.584	-4.59
1039.008	-10.19
1039.431	3.41
1039.854	-1.89
1040.277	-4.09
1040.7	-6.59
1041.123	3.61
1041.546	-14.89
1041.969	-3.09
1042.392	-5.19
1042.815	-7.19
1043.238	2.61
1043.661	1.91
1044.084	-11.89
1044.507	-5.89
1044.93	-6.69
1045.352	-9.69
1045.775	-0.49
1046.198	-9.39
1046.621	-4.69
1047.043	0.41
1047.466	2.91
1047.889	-1.99
1048.311	-3.69
1048.734	1.71
1049.156	-5.49
1049.579	-3.59
1050.001	-3.29
1050.424	-10.49
1050.846	-6.79
1051.269	-7.99
1051.691	-14.99
1052.113	-7.09
1052.536	1.01
1052.958	-5.59
1053.38	-4.89
1053.802	-10.79
1054.225	-4.09
1054.647	-7.19
1055.069	-7.99
1055.491	-4.19
1055.913	-9.09
1056.335	-6.19
1056.757	-3.99
1057.179	-4.09
1057.601	-7.79
1058.023	-1.29
1058.445	-6.29
1058.867	-3.89
1059.289	-5.49
1059.711	-6.49
1060.133	-3.69
1060.555	-2.39
1060.976	-7.69
1061.398	-5.09
1061.82	-9.69
1062.241	-5.19
1062.663	-7.49
1063.085	-8.89
1063.506	-6.99
1063.928	-6.49
1064.35	0.21
1064.771	-16.49
1065.193	-5.39
1065.614	-7.99
1066.035	-8.99
1066.457	-0.19
1066.878	-0.69
1067.3	-3.99
1067.721	-2.39
1068.142	-8.59
1068.564	-5.69
1068.985	-9.99
1069.406	-7.59
1069.827	-6.89
1070.248	4.71
1070.67	-9.59
1071.091	-5.99
1071.512	-10.29
1071.933	-12.39
1072.354	-8.09
1072.775	-10.39
1073.196	-12.49
1073.617	-4.59
1074.038	-9.49
1074.459	0.31
1074.88	-8.49
1075.3	3.61
1075.721	-9.29
1076.142	1.01
1076.563	-7.69
1076.983	-10.39
1077.404	-3.99
1077.825	-13.49
1078.246	-5.59
1078.666	-13.79
1079.087	-6.49
1079.507	-7.59
1079.928	3.51
1080.348	1.31
1080.769	-12.69
1081.189	-4.59
1081.61	-1.89
1082.03	-4.99
1082.451	-10.29
1082.871	-4.69
1083.291	-9.89
1083.711	-3.99
1084.132	-6.19
1084.552	-10.69
1084.972	-8.89
1085.392	-13.79
1085.813	-13.89
1086.233	-8.39
1086.653	-10.89
1087.073	-9.89
1087.493	-7.29
1087.913	-8.79
1088.333	-14.09
1088.753	-6.89
1089.173	-3.89
1089.593	-6.49
1090.013	-2.79
1090.433	-4.19
1090.852	-4.19
1091.272	-2.59
1091.692	-3.29
1092.112	-0.99
1092.531	-11.79
1092.951	-18.79
1093.371	-6.09
1093.79	-4.29
1094.21	-5.19
1094.63	-4.69
1095.049	-5.09
1095.469	-1.69
1095.888	-1.19
1096.308	-1.39
1096.727	3.61
1097.146	-8.59
1097.566	-2.79
1097.985	-3.59
1098.405	-5.69
1098.824	-6.89
1099.243	-10.49
1099.662	-5.69
1100.082	-13.79
1100.501	-6.89
1100.92	-8.69
1101.339	-2.09
1101.758	-8.79
