Data from 20171114-ORNL-Ar_H_NY_Subt18_08-09-15-225.txt Node
Date: Tue Nov 14 08:09:15 EST 2017
User: Ender
Spectrometer: HR+D1039
Trigger mode: 0
Integration Time (sec): 2.730000E-2
Scans to average: 10
Electric dark correction enabled: true
Nonlinearity correction enabled: false
Boxcar width: 0
XAxis mode: Wavelengths
Number of Pixels in Spectrum: 2048
>>>>>Begin Spectral Data<<<<<
187.836	-1.92
188.309	-1.92
188.782	-1.92
189.255	-3.72
189.728	-2.32
190.201	2.28
190.674	-0.92
191.147	10.28
191.619	-10.12
192.092	3.68
192.565	8.58
193.038	0.58
193.511	0.78
193.984	-0.82
194.456	-2.32
194.929	-0.62
195.402	-4.22
195.874	0.78
196.347	0.98
196.82	-9.02
197.292	1.88
197.765	-6.52
198.237	-2.02
198.71	2.38
199.182	0.28
199.655	4.28
200.127	7.28
200.6	-3.72
201.072	-3.22
201.544	-4.62
202.017	-0.72
202.489	2.58
202.961	-4.32
203.433	-8.52
203.906	-8.62
204.378	-4.32
204.85	2.98
205.322	-9.72
205.794	-6.22
206.266	-4.22
206.739	-9.32
207.211	-0.82
207.683	-13.32
208.155	-5.62
208.627	-7.02
209.099	-4.92
209.57	-13.12
210.042	-7.72
210.514	-4.52
210.986	-2.12
211.458	-5.02
211.93	3.28
212.402	0.28
212.873	-10.22
213.345	-12.92
213.817	-17.32
214.288	-7.42
214.76	-12.12
215.232	-7.82
215.703	-2.62
216.175	-6.62
216.646	-3.52
217.118	-8.22
217.589	-0.22
218.061	-0.02
218.532	-11.82
219.004	-8.32
219.475	-5.72
219.946	-6.52
220.418	-7.62
220.889	6.48
221.36	1.58
221.832	-8.42
222.303	-11.02
222.774	-0.32
223.245	-7.62
223.717	-6.62
224.188	-6.92
224.659	-13.82
225.13	-7.82
225.601	-1.22
226.072	2.88
226.543	-4.92
227.014	-4.52
227.485	-4.82
227.956	-6.92
228.427	-3.32
228.898	1.08
229.369	-0.52
229.839	-10.02
230.31	-6.42
230.781	-0.72
231.252	-5.52
231.722	-10.62
232.193	-4.42
232.664	-3.12
233.135	-2.02
233.605	-6.42
234.076	-13.62
234.546	1.28
235.017	0.08
235.487	-6.52
235.958	-7.32
236.428	-8.92
236.899	-4.82
237.369	-6.92
237.84	-8.82
238.31	-0.32
238.78	-7.92
239.251	-6.32
239.721	-9.42
240.191	-6.02
240.662	-3.12
241.132	-7.02
241.602	-9.32
242.072	3.78
242.542	10.48
243.013	-7.22
243.483	0.28
243.953	-7.02
244.423	-2.52
244.893	-7.92
245.363	7.18
245.833	-2.22
246.303	-5.42
246.773	-2.42
247.243	1.78
247.712	-6.92
248.182	0.88
248.652	-2.12
249.122	-8.32
249.592	-3.02
250.061	2.48
250.531	4.28
251.001	-9.82
251.471	4.78
251.94	6.58
252.41	-7.42
252.879	-4.52
253.349	7.48
253.818	4.48
254.288	-4.42
254.757	0.18
255.227	-3.62
255.696	5.18
256.166	1.28
256.635	4.38
257.105	-0.92
257.574	-4.22
258.043	1.18
258.513	-6.52
258.982	0.88
259.451	-10.02
259.92	1.38
260.389	-8.52
260.859	-1.22
261.328	-0.72
261.797	0.98
262.266	1.68
262.735	0.68
263.204	4.68
263.673	-6.62
264.142	1.28
264.611	-11.82
265.08	-4.12
265.549	0.68
266.018	-0.52
266.487	-0.82
266.955	-10.82
267.424	-2.22
267.893	4.38
268.362	-4.52
268.83	-3.62
269.299	7.18
269.768	-2.12
270.236	1.88
270.705	-2.82
271.174	-5.92
271.642	2.98
272.111	-2.32
272.579	6.58
273.048	-6.02
273.516	-1.52
273.985	2.78
274.453	0.28
274.922	5.98
275.39	-2.62
275.858	-1.82
276.327	0.28
276.795	12.48
277.263	-1.72
277.731	5.98
278.2	2.98
278.668	2.48
279.136	5.28
279.604	2.18
280.072	6.98
280.54	1.28
281.008	6.18
281.477	4.08
281.945	1.08
282.413	0.38
282.881	7.28
283.348	-0.72
283.816	5.78
284.284	10.48
284.752	10.48
285.22	3.68
285.688	10.58
286.156	4.98
286.623	8.78
287.091	11.08
287.559	7.38
288.026	2.98
288.494	3.98
288.962	-0.62
289.429	3.58
289.897	7.98
290.364	6.48
290.832	7.48
291.3	11.08
291.767	9.18
292.234	7.58
292.702	7.68
293.169	6.78
293.637	9.38
294.104	10.08
294.571	-0.92
295.039	1.78
295.506	5.88
295.973	8.88
296.44	2.88
296.908	10.98
297.375	6.48
297.842	9.98
298.309	10.48
298.776	6.68
299.243	7.28
299.71	3.58
300.177	12.18
300.644	12.28
301.111	10.88
301.578	12.88
302.045	8.28
302.512	13.48
302.979	13.68
303.446	8.78
303.913	9.18
304.379	10.48
304.846	19.28
305.313	18.38
305.78	15.58
306.246	19.98
306.713	13.58
307.18	14.38
307.646	17.48
308.113	17.58
308.579	13.48
309.046	17.08
309.512	15.08
309.979	7.38
310.445	19.38
310.912	17.18
311.378	21.38
311.845	28.38
312.311	24.28
312.777	20.98
313.244	22.78
313.71	25.88
314.176	15.88
314.642	15.78
315.109	20.48
315.575	30.88
316.041	28.18
316.507	13.58
316.973	18.28
317.439	18.58
317.905	26.38
318.371	27.08
318.837	22.68
319.303	24.28
319.769	23.48
320.235	21.18
320.701	25.58
321.167	33.68
321.633	20.98
322.099	20.28
322.564	36.38
323.03	22.08
323.496	23.28
323.962	30.68
324.427	29.38
324.893	32.88
325.359	26.98
325.824	25.08
326.29	27.78
326.755	30.58
327.221	25.88
327.686	28.88
328.152	37.38
328.617	26.38
329.083	33.28
329.548	41.48
330.014	34.38
330.479	28.28
330.944	31.58
331.41	36.88
331.875	32.88
332.34	27.48
332.805	29.08
333.271	33.28
333.736	25.08
334.201	39.08
334.666	39.08
335.131	40.38
335.596	43.18
336.061	31.48
336.526	26.58
336.991	35.28
337.456	43.38
337.921	37.18
338.386	33.38
338.851	35.78
339.316	36.98
339.781	38.28
340.246	41.78
340.711	35.58
341.175	42.48
341.64	33.68
342.105	42.08
342.569	42.18
343.034	47.58
343.499	48.38
343.963	43.88
344.428	49.28
344.893	44.38
345.357	43.98
345.822	49.88
346.286	47.98
346.751	51.38
347.215	48.18
347.679	58.58
348.144	70.28
348.608	58.88
349.073	52.88
349.537	55.88
350.001	61.38
350.465	66.28
350.93	59.18
351.394	58.58
351.858	57.98
352.322	70.28
352.786	61.98
353.25	79.88
353.715	79.68
354.179	71.78
354.643	96.78
355.107	93.58
355.571	79.88
356.035	75.48
356.498	86.88
356.962	82.28
357.426	96.38
357.89	87.68
358.354	72.88
358.818	70.18
359.281	64.88
359.745	63.38
360.209	60.98
360.673	65.98
361.136	69.98
361.6	68.58
362.064	65.18
362.527	70.58
362.991	74.68
363.454	61.58
363.918	58.88
364.381	65.98
364.845	70.08
365.308	71.98
365.772	73.98
366.235	81.78
366.698	67.18
367.162	73.38
367.625	72.38
368.088	71.38
368.552	73.08
369.015	76.48
369.478	75.98
369.941	88.18
370.404	77.08
370.867	86.58
371.331	87.48
371.794	88.98
372.257	80.48
372.72	84.08
373.183	87.68
373.646	80.38
374.109	75.08
374.572	84.48
375.035	84.78
375.497	91.68
375.96	91.18
376.423	86.78
376.886	100.68
377.349	92.88
377.811	87.08
378.274	90.38
378.737	91.08
379.199	92.48
379.662	98.68
380.125	98.98
380.587	93.48
381.05	95.18
381.512	100.58
381.975	115.88
382.437	107.28
382.9	98.08
383.362	109.48
383.825	107.28
384.287	113.38
384.75	111.68
385.212	112.88
385.674	118.78
386.136	119.38
386.599	105.28
387.061	112.78
387.523	106.48
387.985	111.88
388.447	122.58
388.91	110.08
389.372	117.18
389.834	117.08
390.296	118.78
390.758	125.18
391.22	117.98
391.682	132.58
392.144	133.38
392.606	133.58
393.068	127.48
393.529	132.58
393.991	124.78
394.453	118.38
394.915	122.98
395.377	123.88
395.838	123.98
396.3	129.18
396.762	135.68
397.224	123.88
397.685	125.28
398.147	118.28
398.608	127.38
399.07	121.68
399.531	125.98
399.993	133.18
400.454	145.68
400.916	141.48
401.377	138.18
401.839	144.08
402.3	136.38
402.762	149.18
403.223	163.18
403.684	154.88
404.145	155.68
404.607	143.78
405.068	152.58
405.529	157.78
405.99	168.78
406.451	158.48
406.913	153.28
407.374	151.88
407.835	156.18
408.296	159.08
408.757	156.88
409.218	169.78
409.679	163.18
410.14	162.78
410.601	166.18
411.062	167.08
411.522	170.08
411.983	165.68
412.444	162.98
412.905	168.18
413.366	180.28
413.826	185.18
414.287	214.68
414.748	252.48
415.208	238.68
415.669	206.98
416.13	204.28
416.59	207.08
417.051	209.18
417.511	219.78
417.972	229.68
418.432	239.98
418.893	278.38
419.353	244.68
419.814	201.08
420.274	175.38
420.734	181.18
421.195	188.08
421.655	187.38
422.115	192.88
422.576	189.28
423.036	193.78
423.496	202.58
423.956	210.98
424.416	221.28
424.876	260.98
425.336	246.68
425.797	247.78
426.257	242.98
426.717	228.08
427.177	219.68
427.637	217.68
428.097	226.88
428.556	237.18
429.016	255.58
429.476	250.88
429.936	265.88
430.396	268.78
430.856	271.38
431.315	293.78
431.775	319.28
432.235	357.08
432.694	330.68
433.154	342.78
433.614	359.98
434.073	316.08
434.533	271.88
434.993	256.98
435.452	267.78
435.912	278.68
436.371	276.88
436.83	263.78
437.29	253.78
437.749	237.98
438.209	239.28
438.668	262.68
439.127	275.58
439.587	252.18
440.046	247.28
440.505	249.68
440.964	266.38
441.424	304.08
441.883	291.38
442.342	257.18
442.801	223.68
443.26	222.28
443.719	219.38
444.178	214.58
444.637	210.18
445.096	221.58
445.555	222.88
446.014	223.18
446.473	230.18
446.932	239.38
447.391	226.98
447.849	228.68
448.308	222.68
448.767	220.68
449.226	237.28
449.685	235.98
450.143	243.78
450.602	236.88
451.061	223.08
451.519	237.28
451.978	233.68
452.436	238.48
452.895	235.08
453.353	250.48
453.812	244.38
454.27	242.58
454.729	242.78
455.187	234.58
455.646	242.68
456.104	244.78
456.562	259.88
457.021	269.68
457.479	256.28
457.937	274.08
458.395	268.78
458.854	250.18
459.312	260.58
459.77	268.48
460.228	264.28
460.686	241.28
461.144	257.68
461.602	247.08
462.06	252.28
462.518	260.98
462.976	259.98
463.434	253.68
463.892	267.48
464.35	270.28
464.808	291.88
465.266	264.48
465.724	274.18
466.181	275.78
466.639	271.68
467.097	296.78
467.555	298.58
468.012	302.28
468.47	308.48
468.928	326.38
469.385	340.88
469.843	338.28
470.3	348.58
470.758	356.18
471.215	382.68
471.673	400.28
472.13	405.58
472.588	414.78
473.045	385.28
473.503	379.68
473.96	399.38
474.417	403.38
474.875	425.58
475.332	468.28
475.789	447.78
476.246	466.48
476.704	483.08
477.161	504.18
477.618	523.88
478.075	556.08
478.532	603.38
478.989	668.18
479.446	778.18
479.903	749.08
480.36	776.88
480.817	825.38
481.274	906.48
481.731	988.38
482.188	1066.18
482.645	1197.18
483.102	1271.08
483.558	1404.28
484.015	1415.18
484.472	1407.18
484.929	1354.28
485.385	1309.58
485.842	1282.68
486.299	1243.48
486.755	1217.58
487.212	1037.28
487.668	894.88
488.125	828.78
488.582	750.68
489.038	727.48
489.494	697.38
489.951	672.28
490.407	660.48
490.864	635.88
491.32	626.98
491.776	633.18
492.233	635.58
492.689	612.38
493.145	605.18
493.602	603.08
494.058	607.78
494.514	610.68
494.97	630.38
495.426	635.08
495.882	623.58
496.338	613.28
496.794	621.78
497.251	601.98
497.707	628.18
498.163	623.18
498.618	638.68
499.074	629.28
499.53	664.88
499.986	668.98
500.442	644.08
500.898	628.38
501.354	615.18
501.809	618.68
502.265	631.48
502.721	635.58
503.177	646.78
503.632	652.58
504.088	650.48
504.543	672.48
504.999	684.88
505.455	661.78
505.91	637.48
506.366	642.38
506.821	637.48
507.277	641.78
507.732	635.38
508.187	642.68
508.643	655.18
509.098	639.98
509.553	661.28
510.009	680.28
510.464	688.88
510.919	691.18
511.375	698.98
511.83	717.28
512.285	730.08
512.74	763.38
513.195	786.78
513.65	770.48
514.105	765.08
514.56	774.48
515.015	780.88
515.47	793.98
515.925	781.88
516.38	781.18
516.835	795.58
517.29	788.18
517.745	777.78
518.2	766.08
518.655	756.88
519.109	746.88
519.564	741.18
520.019	736.38
520.474	734.78
520.928	732.18
521.383	738.88
521.838	714.78
522.292	731.58
522.747	718.78
523.201	722.68
523.656	709.78
524.11	708.68
524.565	710.98
525.019	701.28
525.474	698.78
525.928	696.88
526.382	696.98
526.837	698.18
527.291	704.18
527.745	706.88
528.2	706.78
528.654	707.38
529.108	690.78
529.562	697.78
530.016	691.68
530.47	691.68
530.925	710.68
531.379	701.68
531.833	702.48
532.287	706.08
532.741	703.48
533.195	710.18
533.649	717.58
534.103	719.48
534.556	723.78
535.01	712.38
535.464	706.58
535.918	714.08
536.372	731.48
536.826	721.98
537.279	709.28
537.733	716.28
538.187	723.08
538.64	722.08
539.094	731.68
539.548	739.18
540.001	733.88
540.455	732.38
540.908	746.18
541.362	754.38
541.815	762.98
542.269	763.68
542.722	761.38
543.175	782.18
543.629	795.38
544.082	794.48
544.536	796.08
544.989	802.68
545.442	806.58
545.895	806.18
546.349	799.98
546.802	806.18
547.255	817.58
547.708	822.58
548.161	831.38
548.614	840.08
549.067	855.88
549.52	825.08
549.973	831.28
550.426	820.08
550.879	813.58
551.332	821.18
551.785	828.68
552.238	823.58
552.691	835.38
553.144	843.78
553.596	863.28
554.049	876.28
554.502	904.78
554.955	934.58
555.407	925.48
555.86	924.88
556.313	904.98
556.765	898.98
557.218	891.38
557.67	884.88
558.123	885.98
558.576	884.38
559.028	888.18
559.48	891.08
559.933	887.78
560.385	856.78
560.838	831.58
561.29	806.18
561.742	796.28
562.195	780.08
562.647	790.28
563.099	795.08
563.551	784.78
564.004	809.58
564.456	792.98
564.908	772.88
565.36	751.38
565.812	738.88
566.264	735.98
566.716	730.38
567.168	712.28
567.62	732.28
568.072	704.48
568.524	716.68
568.976	708.08
569.428	699.38
569.88	694.38
570.332	699.28
570.784	702.58
571.235	710.38
571.687	716.88
572.139	719.68
572.59	730.18
573.042	730.38
573.494	729.98
573.945	718.78
574.397	694.38
574.849	705.28
575.3	706.38
575.752	696.28
576.203	699.58
576.655	703.28
577.106	693.08
577.557	681.88
578.009	685.38
578.46	677.68
578.912	675.58
579.363	671.48
579.814	682.08
580.265	675.78
580.717	678.48
581.168	682.68
581.619	701.28
582.07	695.68
582.521	693.38
582.972	693.58
583.423	697.68
583.875	684.78
584.326	696.98
584.777	721.48
585.227	726.88
585.678	746.38
586.129	759.98
586.58	785.28
587.031	801.58
587.482	820.08
587.933	854.18
588.384	844.58
588.834	799.58
589.285	796.78
589.736	791.18
590.186	793.28
590.637	786.48
591.088	760.28
591.538	754.18
591.989	743.68
592.439	751.88
592.89	732.48
593.34	716.88
593.791	726.08
594.241	707.28
594.692	710.88
595.142	711.18
595.593	705.58
596.043	718.78
596.493	727.48
596.943	720.48
597.394	738.58
597.844	735.78
598.294	750.18
598.744	776.98
599.195	805.28
599.645	849.48
600.095	887.38
600.545	948.08
600.995	995.18
601.445	1059.08
601.895	1119.78
602.345	1168.38
602.795	1146.88
603.245	1103.88
603.695	1053.48
604.145	988.78
604.594	943.68
605.044	885.48
605.494	822.88
605.944	776.78
606.393	767.98
606.843	739.38
607.293	737.28
607.743	745.58
608.192	763.08
608.642	768.88
609.091	776.78
609.541	779.28
609.99	779.28
610.44	778.48
610.889	737.18
611.339	716.68
611.788	695.08
612.238	712.38
612.687	714.38
613.136	713.88
613.586	727.88
614.035	711.38
614.484	729.98
614.933	732.08
615.383	719.08
615.832	716.38
616.281	714.18
616.73	684.68
617.179	677.28
617.628	667.58
618.077	654.28
618.526	636.48
618.975	635.08
619.424	626.18
619.873	628.28
620.322	635.88
620.771	618.38
621.22	627.88
621.669	605.08
622.118	595.88
622.567	596.08
623.015	588.08
623.464	581.78
623.913	579.08
624.361	562.58
624.81	568.68
625.259	569.28
625.707	565.78
626.156	567.48
626.604	584.28
627.053	592.88
627.501	582.98
627.95	584.58
628.398	591.78
628.847	587.28
629.295	578.08
629.744	582.48
630.192	575.28
630.64	586.48
631.089	559.88
631.537	557.38
631.985	543.08
632.433	549.48
632.881	537.48
633.33	547.38
633.778	540.28
634.226	539.28
634.674	552.78
635.122	559.68
635.57	559.58
636.018	581.98
636.466	575.88
636.914	576.18
637.362	574.88
637.81	585.38
638.258	596.78
638.705	598.28
639.153	633.38
639.601	649.58
640.049	663.28
640.497	694.68
640.944	708.98
641.392	657.28
641.84	627.68
642.287	596.88
642.735	573.18
643.182	577.28
643.63	571.88
644.078	579.88
644.525	584.78
644.973	595.48
645.42	602.08
645.867	633.78
646.315	650.98
646.762	666.68
647.21	694.48
647.657	722.78
648.104	752.68
648.551	770.58
648.999	829.38
649.446	903.28
649.893	992.58
650.34	1136.58
650.787	1358.58
651.234	1676.78
651.682	2153.38
652.129	2919.98
652.576	4154.78
653.023	6057.18
653.47	8176.68
653.917	10044.48
654.363	11496.58
654.81	12624.78
655.257	11956.78
655.704	7909.98
656.151	4777.18
656.598	3131.38
657.044	2246.08
657.491	1743.18
657.938	1415.98
658.385	1192.78
658.831	1050.88
659.278	943.08
659.724	837.48
660.171	777.88
660.618	715.28
661.064	683.98
661.511	655.58
661.957	669.48
662.404	651.58
662.85	662.58
663.296	633.68
663.743	558.28
664.189	550.98
664.635	545.88
665.082	542.28
665.528	539.88
665.974	524.68
666.42	517.38
666.867	514.88
667.313	497.68
667.759	479.58
668.205	474.98
668.651	465.28
669.097	460.48
669.543	443.68
669.989	456.28
670.435	460.98
670.881	465.98
671.327	465.18
671.773	485.68
672.219	509.38
672.665	564.08
673.11	614.18
673.556	654.08
674.002	687.68
674.448	692.78
674.893	569.28
675.339	498.18
675.785	457.88
676.23	435.78
676.676	402.98
677.122	395.08
677.567	394.88
678.013	383.68
678.458	372.18
678.904	373.38
679.349	365.08
679.794	372.48
680.24	357.38
680.685	365.28
681.131	358.78
681.576	361.78
682.021	372.88
682.466	373.68
682.912	362.08
683.357	362.28
683.802	400.08
684.247	434.78
684.692	476.48
685.137	517.18
685.583	559.18
686.028	584.38
686.473	540.58
686.918	472.08
687.363	436.48
687.807	406.58
688.252	380.78
688.697	374.58
689.142	347.98
689.587	347.88
690.032	347.38
690.477	358.58
690.921	363.48
691.366	402.58
691.811	422.78
692.255	446.88
692.7	479.98
693.145	539.48
693.589	765.88
694.034	1224.38
694.478	1640.58
694.923	1812.08
695.367	2361.88
695.812	1251.18
696.256	524.88
696.701	389.98
697.145	362.28
697.59	345.48
698.034	334.48
698.478	345.88
698.922	327.58
699.367	331.78
699.811	340.88
700.255	369.08
700.699	399.58
701.143	447.18
701.588	493.38
702.032	539.38
702.476	530.88
702.92	516.28
703.364	528.68
703.808	706.38
704.252	1143.58
704.696	1570.88
705.14	1758.38
705.584	2219.48
706.027	1129.18
706.471	550.88
706.915	426.38
707.359	375.88
707.803	333.88
708.246	331.48
708.69	323.68
709.134	323.38
709.577	320.48
710.021	332.48
710.465	326.68
710.908	317.58
711.352	309.48
711.795	334.38
712.239	377.68
712.682	409.28
713.126	433.38
713.569	471.78
714.012	376.08
714.456	321.08
714.899	298.58
715.342	280.78
715.786	269.38
716.229	270.38
716.672	276.68
717.115	259.18
717.558	262.38
718.002	258.68
718.445	278.28
718.888	299.88
719.331	306.88
719.774	320.18
720.217	323.48
720.66	296.38
721.103	277.88
721.546	260.08
721.989	262.28
722.432	240.18
722.874	250.98
723.317	234.38
723.76	249.68
724.203	271.08
724.645	339.38
725.088	483.68
725.531	606.68
725.974	666.48
726.416	565.68
726.859	331.18
727.301	265.98
727.744	249.78
728.187	237.58
728.629	238.18
729.071	251.28
729.514	272.88
729.956	280.08
730.399	295.58
730.841	299.38
731.283	285.78
731.726	274.28
732.168	283.38
732.61	278.98
733.053	306.78
733.495	330.58
733.937	374.38
734.379	420.58
734.821	470.18
735.263	588.88
735.705	926.68
736.148	1755.08
736.59	2788.08
737.032	3175.68
737.474	2591.88
737.916	869.88
738.357	468.98
738.799	352.58
739.241	307.48
739.683	302.18
740.125	314.68
740.567	319.28
741.008	333.38
741.45	334.58
741.892	339.08
742.334	370.68
742.775	375.18
743.217	363.78
743.658	287.38
744.1	266.58
744.542	271.28
744.983	339.88
745.425	363.18
745.866	370.78
746.307	293.18
746.749	299.08
747.19	353.18
747.632	510.58
748.073	991.48
748.514	2072.68
748.956	3035.28
749.397	3839.78
749.838	3189.18
750.279	3093.78
750.72	1592.98
751.162	584.28
751.603	341.88
752.044	267.58
752.485	223.38
752.926	218.98
753.367	212.48
753.808	204.08
754.249	195.98
754.69	195.08
755.131	192.08
755.572	194.38
756.013	190.58
756.453	196.58
756.894	196.78
757.335	204.08
757.776	208.78
758.216	207.18
758.657	205.08
759.098	209.08
759.538	238.28
759.979	279.28
760.42	408.48
760.86	801.38
761.301	2096.98
761.741	4886.58
762.182	6688.08
762.622	4749.28
763.063	1402.38
763.503	577.48
763.943	355.68
764.384	279.38
764.824	258.58
765.264	238.58
765.705	218.58
766.145	198.18
766.585	183.38
767.025	178.38
767.465	163.58
767.906	187.98
768.346	200.58
768.786	211.98
769.226	230.98
769.666	331.98
770.106	702.08
770.546	1728.28
770.986	2784.28
771.426	2464.08
771.866	840.18
772.306	347.38
772.745	214.08
773.185	177.08
773.625	172.38
774.065	148.68
774.505	167.48
774.944	222.28
775.384	380.98
775.824	591.48
776.263	578.08
776.703	291.78
777.142	165.88
777.582	141.28
778.021	124.58
778.461	133.78
778.9	127.68
779.34	132.68
779.779	124.58
780.219	116.58
780.658	111.28
781.097	112.88
781.537	116.08
781.976	107.28
782.415	110.38
782.855	107.08
783.294	105.28
783.733	107.48
784.172	109.08
784.611	115.18
785.05	106.58
785.489	116.08
785.928	120.08
786.367	124.68
786.806	126.98
787.245	143.28
787.684	147.48
788.123	158.78
788.562	141.68
789.001	125.28
789.44	128.88
789.879	117.78
790.317	130.58
790.756	130.18
791.195	139.48
791.634	159.38
792.072	227.78
792.511	402.88
792.95	1126.98
793.388	2244.48
793.827	1983.88
794.265	714.88
794.704	295.08
795.142	197.08
795.581	161.28
796.019	144.38
796.458	131.98
796.896	127.28
797.334	146.78
797.773	168.28
798.211	236.38
798.649	495.68
799.087	1131.48
799.526	1716.78
799.964	2169.38
800.402	2088.48
800.84	801.88
801.278	329.18
801.716	196.48
802.154	170.18
802.592	155.58
803.03	152.88
803.468	139.48
803.906	150.28
804.344	155.38
804.782	146.68
805.22	144.78
805.658	145.08
806.096	156.98
806.533	166.78
806.971	181.18
807.409	233.38
807.847	348.88
808.284	754.58
808.722	2089.38
809.16	3501.28
809.597	3465.48
810.035	5893.58
810.472	5988.48
810.91	2207.68
811.347	862.88
811.785	429.78
812.222	273.78
812.66	206.28
813.097	174.88
813.535	145.58
813.972	138.18
814.409	122.78
814.846	113.78
815.284	114.28
815.721	108.78
816.158	111.08
816.595	117.38
817.032	161.68
817.47	179.58
817.907	131.38
818.344	102.18
818.781	104.08
819.218	98.58
819.655	128.88
820.092	201.88
820.529	218.58
820.966	174.48
821.403	134.18
821.839	97.08
822.276	97.78
822.713	138.48
823.15	141.58
823.587	127.98
824.023	163.78
824.46	346.78
824.897	980.18
825.333	1407.58
825.77	621.58
826.206	249.48
826.643	148.58
827.08	104.08
827.516	85.28
827.953	79.18
828.389	80.18
828.825	78.68
829.262	67.58
829.698	69.28
830.135	65.48
830.571	63.28
831.007	65.58
831.443	66.38
831.88	61.18
832.316	64.48
832.752	73.98
833.188	69.98
833.624	66.98
834.06	68.68
834.497	72.98
834.933	72.28
835.369	80.58
835.805	68.68
836.241	82.08
836.677	82.38
837.112	96.58
837.548	112.88
837.984	139.18
838.42	221.18
838.856	561.18
839.292	1662.78
839.727	2412.38
840.163	1148.38
840.599	1044.68
841.034	2197.58
841.47	2197.58
841.906	815.78
842.341	354.68
842.777	215.48
843.212	205.38
843.648	189.18
844.083	112.58
844.519	85.18
844.954	74.58
845.39	55.98
845.825	55.08
846.261	59.38
846.696	57.48
847.131	53.88
847.566	59.68
848.002	51.58
848.437	54.58
848.872	61.68
849.307	72.98
849.742	85.58
850.177	208.78
850.613	603.58
851.048	919.98
851.483	401.28
851.918	164.38
852.353	90.18
852.788	57.68
853.223	58.28
853.657	56.08
854.092	49.68
854.527	44.28
854.962	43.88
855.397	51.08
855.832	55.28
856.266	42.58
856.701	35.98
857.136	35.58
857.57	42.48
858.005	52.48
858.44	62.88
858.874	46.48
859.309	50.78
859.743	42.78
860.178	51.98
860.612	50.18
861.047	59.78
861.481	69.18
861.915	73.58
862.35	45.28
862.784	33.78
863.218	31.88
863.653	40.68
864.087	51.18
864.521	54.88
864.955	68.48
865.39	167.28
865.824	182.38
866.258	118.08
866.692	180.18
867.126	187.48
867.56	106.38
867.994	56.08
868.428	46.68
868.862	53.98
869.296	56.88
869.73	62.28
870.164	56.28
870.598	51.38
871.031	37.28
871.465	33.38
871.899	35.48
872.333	28.78
872.766	23.28
873.2	19.68
873.634	34.38
874.067	28.68
874.501	30.28
874.935	30.98
875.368	28.28
875.802	30.68
876.235	29.48
876.669	27.38
877.102	21.18
877.535	25.28
877.969	21.28
878.402	27.98
878.836	15.68
879.269	19.08
879.702	27.68
880.135	16.78
880.569	26.28
881.002	24.68
881.435	21.78
881.868	17.68
882.301	26.18
882.734	14.58
883.167	21.18
883.601	22.78
884.034	24.78
884.467	19.08
884.899	16.08
885.332	23.98
885.765	12.38
886.198	16.18
886.631	17.58
887.064	17.58
887.497	21.58
887.929	27.08
888.362	17.68
888.795	18.28
889.228	16.78
889.66	17.38
890.093	19.08
890.526	18.88
890.958	19.68
891.391	17.18
891.823	19.48
892.256	16.58
892.688	11.78
893.121	20.28
893.553	14.38
893.985	25.28
894.418	25.58
894.85	13.28
895.282	17.78
895.715	14.08
896.147	20.68
896.579	17.98
897.011	13.08
897.444	15.38
897.876	13.58
898.308	15.08
898.74	18.98
899.172	19.98
899.604	25.48
900.036	21.78
900.468	10.68
900.9	17.28
901.332	18.48
901.764	11.68
902.196	14.38
902.628	19.48
903.06	16.58
903.491	24.98
903.923	26.88
904.355	25.58
904.787	29.78
905.218	21.58
905.65	25.88
906.082	14.08
906.513	10.38
906.945	14.58
907.376	10.88
907.808	18.18
908.239	18.18
908.671	22.08
909.102	21.08
909.534	28.28
909.965	54.48
910.397	98.58
910.828	338.78
911.259	494.68
911.691	226.18
912.122	117.58
912.553	55.38
912.984	35.38
913.415	29.88
913.847	25.78
914.278	19.68
914.709	16.38
915.14	20.58
915.571	19.28
916.002	7.48
916.433	13.78
916.864	16.18
917.295	17.08
917.726	25.08
918.157	25.28
918.587	25.98
919.018	21.48
919.449	26.48
919.88	20.98
920.311	29.18
920.741	50.88
921.172	178.68
921.603	156.68
922.033	73.38
922.464	42.98
922.895	20.98
923.325	20.68
923.756	13.48
924.186	15.68
924.617	14.08
925.047	21.18
925.478	30.08
925.908	24.88
926.338	10.48
926.769	9.88
927.199	18.08
927.629	6.48
928.06	14.48
928.49	14.58
928.92	15.98
929.35	5.08
929.78	13.98
930.21	5.18
930.641	13.18
931.071	4.08
931.501	3.28
931.931	12.48
932.361	4.38
932.791	3.18
933.221	7.48
933.651	5.78
934.08	21.08
934.51	33.28
934.94	14.08
935.37	5.68
935.8	15.58
936.229	5.18
936.659	9.48
937.089	4.78
937.519	15.78
937.948	19.08
938.378	19.08
938.807	5.98
939.237	3.68
939.666	7.48
940.096	-8.82
940.525	1.88
940.955	3.88
941.384	0.98
941.814	-3.12
942.243	-2.92
942.672	3.48
943.102	-5.82
943.531	2.38
943.96	1.88
944.39	1.68
944.819	0.98
945.248	4.08
945.677	3.38
946.106	1.38
946.535	1.48
946.964	-2.22
947.393	0.48
947.822	2.78
948.251	-5.22
948.68	0.58
949.109	4.58
949.538	-2.22
949.967	5.28
950.396	1.18
950.825	-0.12
951.254	1.08
951.682	-5.32
952.111	-0.12
952.54	6.18
952.969	-3.72
953.397	-5.82
953.826	1.18
954.254	-7.62
954.683	4.78
955.112	-0.82
955.54	0.68
955.969	3.68
956.397	-3.82
956.826	-1.12
957.254	-6.12
957.682	6.58
958.111	5.58
958.539	-3.12
958.967	4.78
959.396	-8.82
959.824	1.98
960.252	1.28
960.68	-2.22
961.109	-1.72
961.537	-2.42
961.965	3.18
962.393	1.48
962.821	0.08
963.249	1.28
963.677	5.48
964.105	7.58
964.533	52.48
964.961	41.38
965.389	26.48
965.817	9.58
966.245	5.58
966.672	5.18
967.1	-10.72
967.528	-2.22
967.956	-1.72
968.383	-1.02
968.811	-8.62
969.239	-2.32
969.666	-6.72
970.094	-0.72
970.522	9.18
970.949	-2.82
971.377	-5.02
971.804	-6.22
972.232	-5.32
972.659	-7.92
973.087	-7.52
973.514	-1.82
973.941	-1.52
974.369	-0.22
974.796	-2.42
975.223	2.38
975.651	-6.62
976.078	4.98
976.505	-1.42
976.932	3.38
977.359	18.88
977.786	18.28
978.214	2.08
978.641	-5.42
979.068	-4.02
979.495	1.38
979.922	-0.92
980.349	-8.32
980.776	3.28
981.202	0.88
981.629	2.28
982.056	1.68
982.483	-5.92
982.91	2.88
983.337	-6.52
983.763	3.78
984.19	-5.12
984.617	-1.22
985.043	-4.42
985.47	-0.22
985.897	-5.22
986.323	-8.62
986.75	-0.32
987.176	-5.92
987.603	8.28
988.029	-4.52
988.456	0.08
988.882	3.48
989.308	-5.92
989.735	-1.62
990.161	-5.12
990.587	-3.52
991.014	1.48
991.44	5.68
991.866	-3.32
992.292	-8.72
992.719	-7.22
993.145	3.78
993.571	-13.02
993.997	0.18
994.423	2.18
994.849	-0.92
995.275	4.88
995.701	-3.52
996.127	-2.62
996.553	3.78
996.979	1.88
997.405	-1.92
997.83	-3.32
998.256	-9.02
998.682	-6.32
999.108	-4.42
999.534	-3.72
999.959	-6.32
1000.385	-6.52
1000.811	2.68
1001.236	-6.42
1001.662	-13.42
1002.087	-9.12
1002.513	-1.52
1002.938	1.78
1003.364	-1.92
1003.789	0.28
1004.215	1.08
1004.64	5.08
1005.066	4.28
1005.491	-3.72
1005.916	-0.82
1006.342	-1.52
1006.767	-3.22
1007.192	1.78
1007.617	-5.82
1008.042	-11.22
1008.468	-0.52
1008.893	-3.62
1009.318	-4.12
1009.743	-3.72
1010.168	1.18
1010.593	-0.12
1011.018	-6.92
1011.443	-5.62
1011.868	1.68
1012.293	-9.22
1012.718	-5.92
1013.143	1.88
1013.567	-0.22
1013.992	1.98
1014.417	-8.22
1014.842	-1.72
1015.267	-1.92
1015.691	-4.82
1016.116	5.28
1016.541	-3.42
1016.965	1.28
1017.39	5.58
1017.814	-1.72
1018.239	-1.92
1018.663	-7.62
1019.088	-6.52
1019.512	-5.32
1019.937	-2.72
1020.361	-5.42
1020.785	-14.92
1021.21	-2.72
1021.634	0.98
1022.058	1.08
1022.483	2.48
1022.907	-3.12
1023.331	-9.62
1023.755	-3.92
1024.179	0.68
1024.604	-6.52
1025.028	-5.62
1025.452	-3.92
1025.876	-0.92
1026.3	-0.82
1026.724	-10.32
1027.148	1.08
1027.572	-7.42
1027.996	-4.42
1028.42	-3.62
1028.843	-5.82
1029.267	-8.32
1029.691	-2.52
1030.115	-10.72
1030.539	-8.82
1030.962	-5.72
1031.386	-9.22
1031.81	-0.22
1032.233	-0.22
1032.657	0.38
1033.08	-5.52
1033.504	-3.22
1033.927	-9.52
1034.351	-4.62
1034.774	-8.22
1035.198	-5.12
1035.621	-6.72
1036.045	-6.82
1036.468	-3.92
1036.891	-9.72
1037.315	-10.22
1037.738	-15.32
1038.161	-3.82
1038.584	-8.12
1039.008	-4.32
1039.431	-5.02
1039.854	-2.12
1040.277	-9.52
1040.7	-12.42
1041.123	-0.02
1041.546	-10.12
1041.969	0.38
1042.392	-10.72
1042.815	-1.72
1043.238	-4.52
1043.661	0.78
1044.084	1.78
1044.507	-7.12
1044.93	-2.42
1045.352	-1.22
1045.775	-4.42
1046.198	-4.12
1046.621	-2.22
1047.043	-3.02
1047.466	0.88
1047.889	-8.22
1048.311	-2.52
1048.734	-4.02
1049.156	0.88
1049.579	-2.82
1050.001	-7.72
1050.424	-2.62
1050.846	-6.72
1051.269	-6.92
1051.691	-4.12
1052.113	-7.92
1052.536	-1.22
1052.958	-6.52
1053.38	-8.92
1053.802	-7.52
1054.225	1.38
1054.647	-12.72
1055.069	-1.82
1055.491	-3.12
1055.913	-6.22
1056.335	2.28
1056.757	-4.42
1057.179	-8.02
1057.601	-4.72
1058.023	-3.12
1058.445	-2.12
1058.867	-1.62
1059.289	1.58
1059.711	-6.42
1060.133	-0.52
1060.555	0.48
1060.976	-5.72
1061.398	-3.72
1061.82	-6.82
1062.241	-5.82
1062.663	-8.82
1063.085	-0.92
1063.506	-9.12
1063.928	-4.22
1064.35	-4.62
1064.771	-10.42
1065.193	-5.52
1065.614	-9.12
1066.035	-5.42
1066.457	-7.92
1066.878	6.78
1067.3	-9.42
1067.721	-4.82
1068.142	-6.92
1068.564	-12.12
1068.985	-11.82
1069.406	-7.02
1069.827	-11.12
1070.248	-2.62
1070.67	-7.82
1071.091	-7.92
1071.512	2.98
1071.933	-5.12
1072.354	-8.42
1072.775	-8.22
1073.196	-3.82
1073.617	-5.92
1074.038	-8.12
1074.459	-3.52
1074.88	-11.92
1075.3	3.28
1075.721	-8.42
1076.142	1.68
1076.563	-1.32
1076.983	-12.22
1077.404	-12.12
1077.825	-13.62
1078.246	-5.92
1078.666	-11.32
1079.087	-9.02
1079.507	-7.42
1079.928	-2.12
1080.348	-3.12
1080.769	-3.92
1081.189	-0.52
1081.61	-6.62
1082.03	-7.82
1082.451	-6.82
1082.871	-4.92
1083.291	-9.32
1083.711	-9.72
1084.132	-4.32
1084.552	-5.82
1084.972	-5.72
1085.392	-11.22
1085.813	-15.22
1086.233	-14.02
1086.653	-2.52
1087.073	-9.72
1087.493	-6.82
1087.913	-8.92
1088.333	-5.72
1088.753	-10.72
1089.173	3.48
1089.593	-8.82
1090.013	-1.62
1090.433	0.18
1090.852	-4.92
1091.272	-1.72
1091.692	-2.22
1092.112	-2.32
1092.531	-12.12
1092.951	-9.52
1093.371	-4.42
1093.79	2.38
1094.21	-5.52
1094.63	-7.52
1095.049	-8.92
1095.469	-5.72
1095.888	-0.72
1096.308	-1.82
1096.727	2.08
1097.146	-5.72
1097.566	-3.62
1097.985	-1.02
1098.405	-1.32
1098.824	-6.42
1099.243	-9.82
1099.662	-11.02
1100.082	-5.92
1100.501	2.88
1100.92	-10.22
1101.339	-3.72
1101.758	-6.42
