Data from 20171114-ORNL-Ar_H_NY_Subt18_08-06-22-372.txt Node
Date: Tue Nov 14 08:06:22 EST 2017
User: Ender
Spectrometer: HR+D1039
Trigger mode: 0
Integration Time (sec): 2.730000E-2
Scans to average: 10
Electric dark correction enabled: true
Nonlinearity correction enabled: false
Boxcar width: 0
XAxis mode: Wavelengths
Number of Pixels in Spectrum: 2048
>>>>>Begin Spectral Data<<<<<
187.836	-0.54
188.309	-0.54
188.782	-0.54
189.255	-2.44
189.728	-0.14
190.201	3.46
190.674	-1.74
191.147	3.26
191.619	-7.34
192.092	0.26
192.565	-0.14
193.038	-0.34
193.511	2.26
193.984	3.36
194.456	0.36
194.929	0.36
195.402	-2.14
195.874	1.46
196.347	-4.24
196.82	-5.84
197.292	9.26
197.765	-0.04
198.237	-5.64
198.71	4.86
199.182	-1.54
199.655	8.46
200.127	3.56
200.6	3.86
201.072	7.96
201.544	-1.94
202.017	-3.54
202.489	5.36
202.961	0.66
203.433	0.86
203.906	-2.64
204.378	-6.64
204.85	1.06
205.322	-5.94
205.794	-1.34
206.266	-0.54
206.739	-9.34
207.211	2.06
207.683	-9.14
208.155	-2.14
208.627	-9.14
209.099	-4.44
209.57	-5.94
210.042	-1.64
210.514	-4.64
210.986	-1.34
211.458	-8.04
211.93	-0.64
212.402	-0.34
212.873	-2.94
213.345	-8.24
213.817	-7.34
214.288	-7.14
214.76	-7.44
215.232	-5.64
215.703	-4.04
216.175	-6.14
216.646	-2.44
217.118	-9.34
217.589	-2.14
218.061	-4.94
218.532	-3.04
219.004	-0.34
219.475	-3.94
219.946	-2.34
220.418	0.56
220.889	5.06
221.36	-0.84
221.832	-5.44
222.303	-5.14
222.774	0.36
223.245	-10.64
223.717	1.76
224.188	-4.44
224.659	-7.14
225.13	-7.04
225.601	-1.04
226.072	0.96
226.543	-4.54
227.014	1.06
227.485	0.36
227.956	-13.64
228.427	-0.04
228.898	-2.44
229.369	3.66
229.839	-5.24
230.31	-1.34
230.781	2.76
231.252	-2.84
231.722	-4.84
232.193	1.16
232.664	0.66
233.135	7.96
233.605	0.96
234.076	-2.04
234.546	1.76
235.017	4.76
235.487	4.56
235.958	0.16
236.428	2.96
236.899	5.26
237.369	5.26
237.84	2.26
238.31	8.16
238.78	9.76
239.251	5.26
239.721	6.46
240.191	1.36
240.662	1.86
241.132	2.06
241.602	-3.54
242.072	-2.04
242.542	9.76
243.013	3.46
243.483	5.26
243.953	4.16
244.423	-0.74
244.893	-3.34
245.363	3.26
245.833	6.56
246.303	0.96
246.773	8.06
247.243	4.96
247.712	4.56
248.182	8.66
248.652	10.16
249.122	2.76
249.592	9.36
250.061	24.66
250.531	34.86
251.001	22.16
251.471	20.16
251.94	23.56
252.41	11.86
252.879	-0.94
253.349	13.26
253.818	6.66
254.288	8.06
254.757	5.66
255.227	2.66
255.696	6.56
256.166	10.66
256.635	12.76
257.105	11.26
257.574	7.16
258.043	10.86
258.513	7.86
258.982	12.36
259.451	10.16
259.92	13.16
260.389	8.76
260.859	19.16
261.328	13.16
261.797	16.86
262.266	7.96
262.735	11.06
263.204	8.26
263.673	0.16
264.142	4.66
264.611	1.56
265.08	4.56
265.549	0.36
266.018	7.96
266.487	3.36
266.955	-1.14
267.424	1.56
267.893	5.76
268.362	0.56
268.83	6.76
269.299	11.06
269.768	8.86
270.236	12.36
270.705	7.66
271.174	15.66
271.642	7.56
272.111	9.46
272.579	15.86
273.048	22.56
273.516	29.16
273.985	30.36
274.453	27.06
274.922	20.16
275.39	14.66
275.858	5.36
276.327	15.56
276.795	20.96
277.263	9.66
277.731	35.76
278.2	59.16
278.668	58.46
279.136	50.26
279.604	18.26
280.072	13.86
280.54	18.86
281.008	12.46
281.477	15.06
281.945	15.76
282.413	16.96
282.881	12.76
283.348	8.96
283.816	18.56
284.284	17.76
284.752	23.76
285.22	17.56
285.688	16.86
286.156	14.76
286.623	42.76
287.091	54.26
287.559	24.86
288.026	20.26
288.494	21.56
288.962	10.66
289.429	11.46
289.897	19.56
290.364	16.76
290.832	13.96
291.3	14.66
291.767	19.56
292.234	22.76
292.702	15.66
293.169	19.66
293.637	21.16
294.104	27.76
294.571	12.96
295.039	19.76
295.506	14.36
295.973	19.56
296.44	17.06
296.908	16.76
297.375	22.66
297.842	21.36
298.309	15.16
298.776	14.76
299.243	24.46
299.71	17.76
300.177	21.26
300.644	26.16
301.111	19.66
301.578	25.46
302.045	16.56
302.512	27.06
302.979	28.36
303.446	21.66
303.913	21.56
304.379	16.96
304.846	33.86
305.313	31.46
305.78	25.46
306.246	29.66
306.713	32.36
307.18	26.26
307.646	28.06
308.113	29.76
308.579	29.66
309.046	23.96
309.512	26.46
309.979	18.06
310.445	28.36
310.912	35.56
311.378	33.66
311.845	25.16
312.311	34.46
312.777	34.06
313.244	38.36
313.71	33.06
314.176	32.76
314.642	32.26
315.109	35.16
315.575	36.96
316.041	48.06
316.507	36.96
316.973	40.86
317.439	39.06
317.905	38.56
318.371	34.66
318.837	29.06
319.303	37.16
319.769	36.96
320.235	36.36
320.701	42.76
321.167	39.86
321.633	37.86
322.099	47.46
322.564	51.86
323.03	41.86
323.496	47.26
323.962	44.86
324.427	42.96
324.893	46.06
325.359	39.96
325.824	42.26
326.29	42.76
326.755	40.86
327.221	40.46
327.686	50.86
328.152	49.76
328.617	50.66
329.083	50.76
329.548	55.96
330.014	47.56
330.479	45.36
330.944	49.26
331.41	46.46
331.875	49.16
332.34	48.96
332.805	42.96
333.271	47.06
333.736	44.16
334.201	54.76
334.666	48.06
335.131	62.96
335.596	57.76
336.061	51.56
336.526	48.56
336.991	48.16
337.456	57.86
337.921	49.66
338.386	49.46
338.851	48.26
339.316	56.46
339.781	48.26
340.246	51.66
340.711	50.16
341.175	52.26
341.64	42.26
342.105	46.76
342.569	55.86
343.034	62.16
343.499	56.66
343.963	57.86
344.428	70.66
344.893	67.16
345.357	56.96
345.822	61.76
346.286	75.36
346.751	71.86
347.215	71.06
347.679	75.76
348.144	101.96
348.608	83.16
349.073	73.76
349.537	79.86
350.001	84.46
350.465	94.26
350.93	80.66
351.394	84.86
351.858	74.66
352.322	89.16
352.786	85.26
353.25	103.76
353.715	115.96
354.179	106.86
354.643	125.36
355.107	128.56
355.571	110.46
356.035	107.86
356.498	123.46
356.962	128.16
357.426	135.06
357.89	120.86
358.354	96.26
358.818	90.06
359.281	88.16
359.745	76.26
360.209	75.66
360.673	78.26
361.136	78.16
361.6	85.16
362.064	88.36
362.527	88.96
362.991	89.26
363.454	82.46
363.918	75.66
364.381	84.16
364.845	89.46
365.308	91.26
365.772	90.96
366.235	90.36
366.698	83.96
367.162	98.36
367.625	95.16
368.088	88.56
368.552	96.96
369.015	93.86
369.478	104.76
369.941	108.26
370.404	100.36
370.867	110.36
371.331	114.76
371.794	118.86
372.257	111.96
372.72	116.96
373.183	113.96
373.646	116.86
374.109	104.06
374.572	109.96
375.035	110.56
375.497	116.46
375.96	113.66
376.423	107.46
376.886	120.96
377.349	111.66
377.811	109.06
378.274	111.76
378.737	110.76
379.199	113.46
379.662	118.86
380.125	120.46
380.587	122.56
381.05	127.86
381.512	134.56
381.975	141.46
382.437	131.86
382.9	136.66
383.362	133.06
383.825	148.36
384.287	151.16
384.75	141.26
385.212	151.66
385.674	145.16
386.136	143.96
386.599	126.36
387.061	127.86
387.523	132.26
387.985	135.26
388.447	154.36
388.91	150.46
389.372	159.76
389.834	154.66
390.296	145.96
390.758	165.76
391.22	171.86
391.682	218.66
392.144	309.76
392.606	241.76
393.068	173.06
393.529	175.96
393.991	152.16
394.453	152.26
394.915	159.76
395.377	198.66
395.838	224.76
396.3	163.86
396.762	151.16
397.224	133.26
397.685	136.16
398.147	139.76
398.608	133.56
399.07	132.16
399.531	133.76
399.993	145.16
400.454	158.36
400.916	150.96
401.377	152.66
401.839	161.96
402.3	152.26
402.762	174.06
403.223	182.26
403.684	176.16
404.145	166.76
404.607	164.86
405.068	173.26
405.529	174.96
405.99	198.06
406.451	174.96
406.913	180.96
407.374	171.36
407.835	169.46
408.296	168.36
408.757	182.46
409.218	192.96
409.679	191.96
410.14	184.76
410.601	186.16
411.062	191.96
411.522	196.76
411.983	200.96
412.444	189.26
412.905	185.56
413.366	187.86
413.826	204.26
414.287	222.96
414.748	269.66
415.208	249.66
415.669	217.16
416.13	211.76
416.59	205.66
417.051	219.56
417.511	220.46
417.972	242.96
418.432	260.26
418.893	296.46
419.353	253.76
419.814	205.66
420.274	189.66
420.734	187.26
421.195	206.66
421.655	207.26
422.115	202.96
422.576	192.06
423.036	212.56
423.496	210.96
423.956	225.36
424.416	235.66
424.876	268.76
425.336	265.66
425.797	275.06
426.257	267.26
426.717	246.16
427.177	246.56
427.637	231.36
428.097	241.46
428.556	247.36
429.016	281.66
429.476	267.46
429.936	284.36
430.396	295.06
430.856	307.96
431.315	319.66
431.775	365.36
432.235	393.56
432.694	361.06
433.154	377.06
433.614	401.46
434.073	346.16
434.533	294.16
434.993	273.06
435.452	289.06
435.912	308.26
436.371	297.76
436.83	289.66
437.29	279.86
437.749	254.26
438.209	251.36
438.668	287.86
439.127	303.66
439.587	275.56
440.046	261.76
440.505	272.66
440.964	291.16
441.424	330.46
441.883	323.66
442.342	271.06
442.801	237.86
443.26	231.16
443.719	232.06
444.178	228.66
444.637	217.96
445.096	225.96
445.555	226.26
446.014	227.36
446.473	231.46
446.932	239.76
447.391	229.06
447.849	236.46
448.308	216.26
448.767	228.86
449.226	239.86
449.685	243.96
450.143	252.46
450.602	242.96
451.061	229.96
451.519	245.16
451.978	240.96
452.436	242.36
452.895	245.36
453.353	261.86
453.812	245.56
454.27	243.66
454.729	246.36
455.187	247.86
455.646	255.46
456.104	251.36
456.562	269.06
457.021	276.86
457.479	267.56
457.937	286.86
458.395	279.06
458.854	256.26
459.312	274.16
459.77	290.36
460.228	263.86
460.686	255.26
461.144	256.86
461.602	250.26
462.06	247.76
462.518	267.46
462.976	258.16
463.434	261.16
463.892	274.46
464.35	281.16
464.808	296.06
465.266	262.66
465.724	278.16
466.181	277.66
466.639	281.46
467.097	304.16
467.555	309.56
468.012	314.26
468.47	319.86
468.928	351.96
469.385	359.86
469.843	358.56
470.3	363.36
470.758	380.76
471.215	400.16
471.673	430.26
472.13	423.06
472.588	435.16
473.045	381.66
473.503	387.46
473.96	409.56
474.417	413.26
474.875	438.66
475.332	488.86
475.789	475.36
476.246	474.86
476.704	503.86
477.161	526.46
477.618	550.46
478.075	577.36
478.532	630.56
478.989	718.46
479.446	837.06
479.903	801.56
480.36	825.46
480.817	896.36
481.274	993.86
481.731	1110.56
482.188	1192.76
482.645	1329.96
483.102	1450.36
483.558	1592.46
484.015	1648.56
484.472	1623.66
484.929	1573.96
485.385	1520.66
485.842	1477.26
486.299	1412.76
486.755	1347.76
487.212	1128.56
487.668	957.26
488.125	873.86
488.582	806.86
489.038	771.16
489.494	726.96
489.951	702.46
490.407	685.46
490.864	675.16
491.32	655.96
491.776	661.46
492.233	673.56
492.689	634.06
493.145	630.36
493.602	613.86
494.058	625.06
494.514	640.06
494.97	668.86
495.426	665.86
495.882	644.56
496.338	636.46
496.794	647.76
497.251	634.46
497.707	649.06
498.163	657.76
498.618	665.96
499.074	678.06
499.53	695.36
499.986	698.66
500.442	662.46
500.898	658.16
501.354	652.66
501.809	660.26
502.265	667.06
502.721	685.86
503.177	696.06
503.632	689.46
504.088	704.86
504.543	732.26
504.999	725.06
505.455	675.46
505.91	639.76
506.366	656.86
506.821	651.36
507.277	647.16
507.732	647.66
508.187	641.56
508.643	651.06
509.098	652.26
509.553	677.26
510.009	679.06
510.464	688.86
510.919	703.16
511.375	705.86
511.83	724.36
512.285	742.86
512.74	791.66
513.195	803.16
513.65	784.76
514.105	788.56
514.56	790.56
515.015	822.36
515.47	834.96
515.925	812.66
516.38	805.26
516.835	816.66
517.29	808.86
517.745	802.76
518.2	788.86
518.655	770.46
519.109	752.06
519.564	761.06
520.019	747.36
520.474	742.56
520.928	734.96
521.383	743.06
521.838	728.46
522.292	733.26
522.747	729.56
523.201	723.86
523.656	715.46
524.11	711.96
524.565	719.26
525.019	718.26
525.474	720.66
525.928	709.86
526.382	715.16
526.837	706.96
527.291	717.06
527.745	717.56
528.2	716.86
528.654	719.26
529.108	709.56
529.562	701.16
530.016	708.46
530.47	710.56
530.925	711.36
531.379	714.96
531.833	732.56
532.287	723.56
532.741	720.56
533.195	733.56
533.649	738.36
534.103	740.46
534.556	730.16
535.01	739.26
535.464	723.46
535.918	736.06
536.372	740.26
536.826	737.66
537.279	725.76
537.733	729.76
538.187	734.16
538.64	731.76
539.094	741.76
539.548	751.46
540.001	745.76
540.455	738.06
540.908	748.46
541.362	765.56
541.815	768.36
542.269	776.36
542.722	780.66
543.175	780.76
543.629	796.36
544.082	811.46
544.536	807.56
544.989	807.66
545.442	800.06
545.895	806.66
546.349	806.76
546.802	822.46
547.255	828.66
547.708	822.66
548.161	831.36
548.614	848.16
549.067	857.36
549.52	829.46
549.973	829.66
550.426	823.56
550.879	816.56
551.332	821.06
551.785	825.46
552.238	828.56
552.691	833.66
553.144	852.96
553.596	868.06
554.049	876.96
554.502	903.06
554.955	932.56
555.407	938.76
555.86	927.36
556.313	917.86
556.765	904.06
557.218	909.36
557.67	902.36
558.123	895.96
558.576	899.96
559.028	905.66
559.48	910.56
559.933	903.26
560.385	865.36
560.838	838.96
561.29	811.86
561.742	796.56
562.195	783.86
562.647	783.16
563.099	796.26
563.551	794.96
564.004	813.26
564.456	792.06
564.908	787.86
565.36	765.36
565.812	755.86
566.264	741.76
566.716	741.96
567.168	736.36
567.62	731.36
568.072	724.36
568.524	709.46
568.976	706.56
569.428	691.96
569.88	694.76
570.332	696.86
570.784	698.36
571.235	708.36
571.687	702.16
572.139	718.66
572.59	728.26
573.042	729.86
573.494	735.16
573.945	719.16
574.397	703.76
574.849	703.36
575.3	705.26
575.752	692.36
576.203	699.16
576.655	709.36
577.106	681.76
577.557	680.96
578.009	689.76
578.46	688.36
578.912	671.96
579.363	678.26
579.814	685.26
580.265	686.36
580.717	683.66
581.168	677.96
581.619	690.96
582.07	706.86
582.521	690.86
582.972	691.06
583.423	705.66
583.875	701.26
584.326	716.96
584.777	761.96
585.227	838.66
585.678	928.76
586.129	1024.66
586.58	1091.86
587.031	1169.86
587.482	1326.66
587.933	1518.86
588.384	1322.16
588.834	984.26
589.285	822.36
589.736	803.56
590.186	797.26
590.637	786.06
591.088	760.06
591.538	759.16
591.989	747.86
592.439	740.26
592.89	742.26
593.34	722.46
593.791	729.16
594.241	713.46
594.692	728.06
595.142	717.76
595.593	708.36
596.043	718.46
596.493	736.66
596.943	736.76
597.394	739.86
597.844	734.66
598.294	739.06
598.744	769.46
599.195	795.66
599.645	825.96
600.095	878.16
600.545	934.76
600.995	986.36
601.445	1043.26
601.895	1108.16
602.345	1149.06
602.795	1137.06
603.245	1089.96
603.695	1030.46
604.145	969.36
604.594	922.56
605.044	875.56
605.494	812.76
605.944	765.16
606.393	752.96
606.843	737.26
607.293	748.56
607.743	750.76
608.192	763.16
608.642	773.36
609.091	777.56
609.541	786.46
609.99	781.86
610.44	780.16
610.889	735.16
611.339	715.56
611.788	710.56
612.238	721.76
612.687	742.46
613.136	730.26
613.586	751.46
614.035	754.86
614.484	774.96
614.933	770.26
615.383	763.96
615.832	755.26
616.281	754.66
616.73	702.46
617.179	685.76
617.628	661.36
618.077	645.66
618.526	637.06
618.975	628.56
619.424	624.16
619.873	625.66
620.322	627.86
620.771	620.06
621.22	619.76
621.669	607.66
622.118	600.46
622.567	594.16
623.015	580.06
623.464	583.26
623.913	574.66
624.361	564.06
624.81	562.26
625.259	565.56
625.707	565.36
626.156	566.96
626.604	582.06
627.053	583.06
627.501	582.76
627.95	576.36
628.398	585.26
628.847	574.56
629.295	582.86
629.744	586.96
630.192	578.66
630.64	580.36
631.089	584.36
631.537	589.66
631.985	595.16
632.433	610.46
632.881	618.86
633.33	661.56
633.778	652.56
634.226	587.46
634.674	590.96
635.122	595.86
635.57	613.76
636.018	630.86
636.466	587.86
636.914	566.86
637.362	591.56
637.81	580.86
638.258	589.96
638.705	585.36
639.153	615.86
639.601	621.26
640.049	655.46
640.497	689.86
640.944	709.26
641.392	657.16
641.84	623.66
642.287	592.56
642.735	574.06
643.182	587.66
643.63	589.06
644.078	593.36
644.525	600.06
644.973	600.06
645.42	620.86
645.867	638.86
646.315	656.56
646.762	666.96
647.21	701.96
647.657	723.96
648.104	767.66
648.551	781.26
648.999	860.06
649.446	933.56
649.893	1026.46
650.34	1177.66
650.787	1418.16
651.234	1758.86
651.682	2276.46
652.129	3121.86
652.576	4527.76
653.023	6680.96
653.47	9176.36
653.917	11455.16
654.363	13223.76
654.81	14596.36
655.257	13897.76
655.704	9094.86
656.151	5373.86
656.598	3462.06
657.044	2454.96
657.491	1889.96
657.938	1519.66
658.385	1276.36
658.831	1095.06
659.278	980.46
659.724	866.96
660.171	811.06
660.618	725.46
661.064	702.26
661.511	666.96
661.957	670.96
662.404	652.56
662.85	671.36
663.296	625.46
663.743	563.96
664.189	547.46
664.635	546.26
665.082	537.56
665.528	532.06
665.974	521.96
666.42	517.86
666.867	515.16
667.313	497.86
667.759	489.16
668.205	482.76
668.651	485.36
669.097	487.46
669.543	497.76
669.989	477.16
670.435	449.46
670.881	457.26
671.327	454.26
671.773	468.86
672.219	494.46
672.665	546.46
673.11	593.06
673.556	638.56
674.002	676.26
674.448	656.16
674.893	549.36
675.339	478.76
675.785	443.56
676.23	416.66
676.676	400.96
677.122	385.66
677.567	378.56
678.013	368.76
678.458	370.26
678.904	362.56
679.349	350.16
679.794	361.06
680.24	354.86
680.685	361.36
681.131	350.56
681.576	351.46
682.021	357.26
682.466	358.46
682.912	351.76
683.357	357.96
683.802	384.96
684.247	411.96
684.692	458.76
685.137	499.36
685.583	543.96
686.028	567.76
686.473	526.96
686.918	444.96
687.363	422.26
687.807	394.96
688.252	369.16
688.697	369.56
689.142	345.86
689.587	333.56
690.032	328.76
690.477	346.46
690.921	351.86
691.366	380.66
691.811	413.86
692.255	434.96
692.7	468.16
693.145	498.46
693.589	695.46
694.034	1129.96
694.478	1531.66
694.923	1745.26
695.367	2268.66
695.812	1195.66
696.256	501.06
696.701	365.66
697.145	340.26
697.59	334.96
698.034	324.66
698.478	333.56
698.922	328.76
699.367	330.96
699.811	347.56
700.255	357.66
700.699	391.66
701.143	428.96
701.588	480.76
702.032	519.36
702.476	513.56
702.92	500.16
703.364	496.16
703.808	635.66
704.252	1034.86
704.696	1463.96
705.14	1679.76
705.584	2145.06
706.027	1061.36
706.471	525.06
706.915	397.36
707.359	351.56
707.803	323.86
708.246	310.76
708.69	317.26
709.134	310.86
709.577	319.96
710.021	316.16
710.465	308.46
710.908	307.46
711.352	298.66
711.795	311.16
712.239	360.26
712.682	391.06
713.126	424.36
713.569	465.56
714.012	371.96
714.456	320.86
714.899	303.16
715.342	280.16
715.786	266.36
716.229	256.66
716.672	261.76
717.115	247.76
717.558	256.86
718.002	257.06
718.445	267.06
718.888	290.96
719.331	301.06
719.774	317.96
720.217	307.96
720.66	288.16
721.103	267.26
721.546	259.36
721.989	252.46
722.432	244.96
722.874	242.96
723.317	230.26
723.76	233.76
724.203	259.56
724.645	322.36
725.088	444.86
725.531	559.26
725.974	646.16
726.416	549.46
726.859	309.26
727.301	247.36
727.744	235.56
728.187	226.76
728.629	237.86
729.071	243.76
729.514	255.96
729.956	273.56
730.399	277.06
730.841	289.66
731.283	275.96
731.726	273.36
732.168	262.06
732.61	269.96
733.053	287.66
733.495	323.66
733.937	356.46
734.379	403.16
734.821	438.36
735.263	540.46
735.705	832.96
736.148	1564.16
736.59	2592.36
737.032	3067.06
737.474	2487.06
737.916	811.66
738.357	433.76
738.799	326.06
739.241	303.96
739.683	288.26
740.125	297.76
740.567	301.76
741.008	317.56
741.45	317.06
741.892	310.66
742.334	355.86
742.775	362.36
743.217	343.56
743.658	271.86
744.1	249.96
744.542	259.06
744.983	318.06
745.425	342.46
745.866	340.66
746.307	285.06
746.749	287.76
747.19	331.76
747.632	454.66
748.073	885.36
748.514	1847.76
748.956	2836.66
749.397	3570.66
749.838	2967.36
750.279	2963.16
750.72	1489.26
751.162	538.86
751.603	321.76
752.044	249.86
752.485	220.96
752.926	213.76
753.367	199.36
753.808	200.66
754.249	196.06
754.69	187.46
755.131	183.86
755.572	181.26
756.013	183.26
756.453	181.06
756.894	189.16
757.335	191.96
757.776	202.36
758.216	191.16
758.657	204.36
759.098	197.86
759.538	222.06
759.979	266.46
760.42	378.16
760.86	693.56
761.301	1808.06
761.741	4416.96
762.182	6435.06
762.622	4491.36
763.063	1296.46
763.503	534.86
763.943	346.36
764.384	338.86
764.824	400.86
765.264	435.56
765.705	304.56
766.145	212.56
766.585	189.76
767.025	184.46
767.465	192.66
767.906	236.76
768.346	313.06
768.786	338.56
769.226	261.76
769.666	314.16
770.106	610.16
770.546	1555.86
770.986	2664.46
771.426	2372.76
771.866	802.46
772.306	336.46
772.745	211.36
773.185	179.16
773.625	168.46
774.065	172.96
774.505	208.06
774.944	317.06
775.384	671.56
775.824	1230.36
776.263	1203.36
776.703	508.26
777.142	222.06
777.582	156.46
778.021	136.36
778.461	143.36
778.9	142.56
779.34	136.06
779.779	119.26
780.219	111.66
780.658	112.46
781.097	112.46
781.537	111.36
781.976	113.16
782.415	114.96
782.855	110.96
783.294	104.26
783.733	113.46
784.172	117.66
784.611	115.26
785.05	119.46
785.489	115.86
785.928	126.76
786.367	118.46
786.806	119.36
787.245	133.56
787.684	134.76
788.123	150.56
788.562	136.46
789.001	129.96
789.44	125.46
789.879	115.86
790.317	123.56
790.756	126.96
791.195	128.26
791.634	140.96
792.072	202.76
792.511	366.96
792.95	1001.36
793.388	2149.66
793.827	1953.26
794.265	679.06
794.704	274.66
795.142	180.96
795.581	151.86
796.019	137.56
796.458	126.86
796.896	125.26
797.334	136.56
797.773	165.76
798.211	218.16
798.649	428.66
799.087	1017.06
799.526	1588.06
799.964	2009.46
800.402	2014.36
800.84	752.36
801.278	298.86
801.716	192.36
802.154	152.96
802.592	149.56
803.03	142.86
803.468	137.86
803.906	152.36
804.344	148.06
804.782	145.76
805.22	132.66
805.658	135.76
806.096	147.66
806.533	157.96
806.971	179.86
807.409	225.96
807.847	322.76
808.284	655.36
808.722	1849.46
809.16	3277.56
809.597	3115.26
810.035	5388.26
810.472	5788.46
810.91	2089.66
811.347	790.76
811.785	399.86
812.222	254.46
812.66	197.66
813.097	172.66
813.535	146.46
813.972	128.76
814.409	127.76
814.846	110.46
815.284	113.06
815.721	98.56
816.158	107.76
816.595	122.86
817.032	180.76
817.47	201.26
817.907	178.76
818.344	161.86
818.781	118.06
819.218	103.76
819.655	120.96
820.092	187.26
820.529	218.46
820.966	173.76
821.403	128.46
821.839	109.36
822.276	102.16
822.713	121.16
823.15	132.86
823.587	121.66
824.023	150.66
824.46	303.26
824.897	887.56
825.333	1343.66
825.77	576.56
826.206	230.26
826.643	140.46
827.08	101.66
827.516	85.26
827.953	76.96
828.389	84.76
828.825	72.36
829.262	71.26
829.698	63.96
830.135	66.56
830.571	65.76
831.007	69.26
831.443	63.66
831.88	61.46
832.316	65.46
832.752	68.66
833.188	62.36
833.624	62.96
834.06	72.06
834.497	67.86
834.933	71.06
835.369	74.66
835.805	73.36
836.241	77.56
836.677	82.56
837.112	90.86
837.548	110.46
837.984	136.26
838.42	203.06
838.856	502.16
839.292	1499.66
839.727	2293.46
840.163	1078.76
840.599	917.76
841.034	2021.16
841.47	2129.86
841.906	779.76
842.341	341.36
842.777	230.26
843.212	321.76
843.648	317.06
844.083	148.56
844.519	98.76
844.954	80.56
845.39	62.26
845.825	63.26
846.261	54.86
846.696	58.56
847.131	55.36
847.566	67.16
848.002	51.16
848.437	57.16
848.872	61.06
849.307	65.26
849.742	86.86
850.177	181.06
850.613	555.66
851.048	877.66
851.483	382.26
851.918	155.36
852.353	87.86
852.788	60.06
853.223	54.36
853.657	58.66
854.092	50.76
854.527	47.86
854.962	44.56
855.397	49.36
855.832	46.96
856.266	45.06
856.701	40.46
857.136	43.86
857.57	39.16
858.005	46.06
858.44	58.66
858.874	44.26
859.309	53.26
859.743	42.06
860.178	53.16
860.612	40.96
861.047	54.46
861.481	63.86
861.915	66.06
862.35	48.96
862.784	39.66
863.218	40.46
863.653	34.86
864.087	44.56
864.521	56.16
864.955	79.06
865.39	157.06
865.824	177.26
866.258	118.26
866.692	165.46
867.126	174.76
867.56	103.26
867.994	59.16
868.428	35.26
868.862	47.86
869.296	58.86
869.73	58.76
870.164	57.16
870.598	44.36
871.031	38.06
871.465	32.76
871.899	34.96
872.333	27.96
872.766	25.26
873.2	25.26
873.634	29.36
874.067	30.56
874.501	28.96
874.935	34.96
875.368	29.96
875.802	29.76
876.235	26.76
876.669	26.06
877.102	22.66
877.535	29.16
877.969	28.66
878.402	21.36
878.836	20.56
879.269	18.26
879.702	24.56
880.135	21.56
880.569	24.16
881.002	31.26
881.435	24.76
881.868	19.36
882.301	22.06
882.734	17.56
883.167	22.86
883.601	22.56
884.034	25.36
884.467	18.66
884.899	18.56
885.332	20.56
885.765	21.86
886.198	20.36
886.631	20.06
887.064	15.46
887.497	22.16
887.929	28.36
888.362	14.96
888.795	14.06
889.228	23.86
889.66	21.06
890.093	17.16
890.526	21.06
890.958	16.66
891.391	16.96
891.823	20.06
892.256	18.16
892.688	15.66
893.121	20.86
893.553	21.46
893.985	21.96
894.418	18.76
894.85	13.26
895.282	20.96
895.715	21.16
896.147	17.66
896.579	18.86
897.011	20.16
897.444	23.16
897.876	20.86
898.308	16.26
898.74	16.76
899.172	12.96
899.604	20.36
900.036	21.16
900.468	19.76
900.9	19.86
901.332	24.46
901.764	18.56
902.196	16.36
902.628	15.46
903.06	16.56
903.491	26.56
903.923	20.86
904.355	21.76
904.787	29.56
905.218	24.16
905.65	23.46
906.082	17.36
906.513	13.26
906.945	15.66
907.376	16.26
907.808	23.66
908.239	28.36
908.671	20.16
909.102	24.06
909.534	28.06
909.965	54.16
910.397	90.16
910.828	315.86
911.259	475.16
911.691	213.56
912.122	105.26
912.553	49.06
912.984	34.96
913.415	27.96
913.847	22.16
914.278	18.66
914.709	13.96
915.14	19.66
915.571	23.46
916.002	13.06
916.433	19.76
916.864	22.26
917.295	14.66
917.726	27.26
918.157	21.36
918.587	28.26
919.018	24.56
919.449	21.96
919.88	20.06
920.311	29.36
920.741	52.16
921.172	168.66
921.603	149.46
922.033	69.06
922.464	52.16
922.895	25.56
923.325	25.96
923.756	12.56
924.186	20.16
924.617	28.86
925.047	49.56
925.478	59.96
925.908	48.26
926.338	29.86
926.769	19.26
927.199	25.46
927.629	8.86
928.06	16.56
928.49	11.56
928.92	18.36
929.35	12.76
929.78	9.56
930.21	5.06
930.641	10.96
931.071	16.16
931.501	3.46
931.931	11.86
932.361	10.66
932.791	7.36
933.221	7.06
933.651	3.96
934.08	14.86
934.51	33.76
934.94	10.66
935.37	12.06
935.8	12.76
936.229	7.26
936.659	10.26
937.089	2.56
937.519	14.06
937.948	22.96
938.378	14.06
938.807	9.06
939.237	4.16
939.666	8.36
940.096	-8.14
940.525	5.96
940.955	1.36
941.384	3.26
941.814	-12.64
942.243	2.56
942.672	4.36
943.102	1.66
943.531	1.56
943.96	8.66
944.39	5.86
944.819	2.66
945.248	5.36
945.677	5.16
946.106	4.46
946.535	11.36
946.964	-1.94
947.393	-0.44
947.822	4.76
948.251	-1.24
948.68	8.46
949.109	8.46
949.538	-2.64
949.967	9.76
950.396	1.26
950.825	-6.64
951.254	1.86
951.682	-8.74
952.111	6.06
952.54	8.56
952.969	-5.14
953.397	-5.94
953.826	4.86
954.254	-5.14
954.683	7.66
955.112	-2.54
955.54	5.16
955.969	-3.94
956.397	3.66
956.826	-2.14
957.254	-0.44
957.682	8.16
958.111	7.16
958.539	0.76
958.967	5.86
959.396	-3.14
959.824	1.26
960.252	10.26
960.68	-1.94
961.109	-6.74
961.537	-2.44
961.965	1.56
962.393	3.56
962.821	0.26
963.249	2.16
963.677	3.86
964.105	3.96
964.533	41.56
964.961	36.66
965.389	23.26
965.817	13.96
966.245	6.16
966.672	2.96
967.1	-10.24
967.528	4.96
967.956	-0.94
968.383	1.86
968.811	1.36
969.239	-2.74
969.666	-5.54
970.094	2.36
970.522	-2.64
970.949	1.86
971.377	-7.44
971.804	2.86
972.232	0.46
972.659	0.16
973.087	1.36
973.514	1.96
973.941	-6.84
974.369	8.96
974.796	1.46
975.223	-4.44
975.651	-0.24
976.078	2.46
976.505	-0.84
976.932	4.06
977.359	18.06
977.786	16.26
978.214	4.06
978.641	-4.24
979.068	2.56
979.495	-5.64
979.922	-1.84
980.349	-4.24
980.776	6.56
981.202	2.56
981.629	7.96
982.056	7.16
982.483	3.36
982.91	5.16
983.337	-7.04
983.763	7.86
984.19	-4.14
984.617	-1.64
985.043	-5.14
985.47	-0.44
985.897	-1.24
986.323	-3.84
986.75	6.26
987.176	-2.54
987.603	1.86
988.029	5.96
988.456	3.26
988.882	4.96
989.308	2.96
989.735	-5.04
990.161	2.66
990.587	-7.24
991.014	0.56
991.44	5.06
991.866	2.76
992.292	-6.04
992.719	-1.74
993.145	-0.94
993.571	-9.34
993.997	-1.94
994.423	1.56
994.849	-0.04
995.275	3.16
995.701	0.06
996.127	0.26
996.553	1.46
996.979	-1.14
997.405	-2.04
997.83	-3.24
998.256	3.66
998.682	-0.34
999.108	-9.04
999.534	-0.94
999.959	1.36
1000.385	-6.84
1000.811	2.66
1001.236	-7.34
1001.662	-4.14
1002.087	-4.24
1002.513	-0.84
1002.938	0.76
1003.364	-2.84
1003.789	-2.44
1004.215	4.56
1004.64	1.86
1005.066	5.06
1005.491	10.36
1005.916	3.36
1006.342	0.86
1006.767	-5.04
1007.192	8.46
1007.617	-0.64
1008.042	-6.84
1008.468	-2.64
1008.893	-5.14
1009.318	-0.84
1009.743	-8.24
1010.168	2.76
1010.593	3.26
1011.018	-6.74
1011.443	-8.64
1011.868	0.76
1012.293	-1.44
1012.718	-5.14
1013.143	4.16
1013.567	0.76
1013.992	-4.84
1014.417	-17.54
1014.842	1.66
1015.267	-5.44
1015.691	-8.34
1016.116	6.86
1016.541	6.56
1016.965	2.96
1017.39	4.96
1017.814	2.26
1018.239	4.86
1018.663	-1.94
1019.088	-5.64
1019.512	0.26
1019.937	-0.74
1020.361	-5.54
1020.785	-10.24
1021.21	0.66
1021.634	-4.74
1022.058	1.26
1022.483	7.66
1022.907	-2.74
1023.331	-5.04
1023.755	-0.94
1024.179	-1.74
1024.604	-2.64
1025.028	-6.14
1025.452	-5.14
1025.876	-0.24
1026.3	5.06
1026.724	-4.74
1027.148	1.76
1027.572	-7.04
1027.996	-8.14
1028.42	-3.04
1028.843	-4.44
1029.267	-8.04
1029.691	2.76
1030.115	-5.44
1030.539	-3.24
1030.962	-6.24
1031.386	-13.04
1031.81	-1.74
1032.233	4.66
1032.657	-5.94
1033.08	-1.44
1033.504	-1.24
1033.927	-4.64
1034.351	-1.14
1034.774	-4.24
1035.198	-1.74
1035.621	-2.94
1036.045	-7.24
1036.468	0.76
1036.891	-10.34
1037.315	-5.94
1037.738	-8.94
1038.161	2.46
1038.584	-7.64
1039.008	2.26
1039.431	-4.94
1039.854	-5.04
1040.277	-8.94
1040.7	-5.04
1041.123	4.16
1041.546	-8.74
1041.969	-3.44
1042.392	-6.54
1042.815	0.76
1043.238	0.36
1043.661	-0.34
1044.084	-4.94
1044.507	-4.44
1044.93	-3.94
1045.352	-1.04
1045.775	-4.14
1046.198	0.76
1046.621	0.36
1047.043	1.86
1047.466	10.26
1047.889	0.66
1048.311	-4.14
1048.734	-3.14
1049.156	-2.54
1049.579	-0.14
1050.001	1.56
1050.424	1.26
1050.846	-9.84
1051.269	-4.84
1051.691	-4.94
1052.113	-3.84
1052.536	-3.04
1052.958	-3.24
1053.38	-2.04
1053.802	-9.34
1054.225	-0.24
1054.647	-14.14
1055.069	-9.64
1055.491	0.96
1055.913	-0.54
1056.335	2.36
1056.757	2.76
1057.179	0.46
1057.601	-1.44
1058.023	-3.74
1058.445	-3.54
1058.867	-0.44
1059.289	-0.34
1059.711	-8.14
1060.133	-2.94
1060.555	-0.34
1060.976	-2.54
1061.398	-0.94
1061.82	-0.34
1062.241	-5.84
1062.663	-2.74
1063.085	-0.94
1063.506	2.96
1063.928	-10.34
1064.35	3.86
1064.771	-11.14
1065.193	2.66
1065.614	-7.44
1066.035	0.66
1066.457	-2.34
1066.878	0.16
1067.3	-0.14
1067.721	-1.04
1068.142	-8.04
1068.564	-3.44
1068.985	-4.54
1069.406	-1.94
1069.827	-4.04
1070.248	-0.84
1070.67	-8.04
1071.091	-4.64
1071.512	-5.74
1071.933	-4.84
1072.354	-6.84
1072.775	-6.14
1073.196	-8.64
1073.617	1.86
1074.038	-5.44
1074.459	-1.24
1074.88	-7.94
1075.3	0.36
1075.721	-0.04
1076.142	4.86
1076.563	-1.64
1076.983	-9.94
1077.404	0.56
1077.825	-9.74
1078.246	-5.64
1078.666	-6.44
1079.087	-5.74
1079.507	-5.74
1079.928	2.26
1080.348	-1.84
1080.769	2.46
1081.189	-2.94
1081.61	-2.14
1082.03	-8.14
1082.451	-7.84
1082.871	-5.84
1083.291	-5.04
1083.711	-9.84
1084.132	-1.24
1084.552	0.56
1084.972	-2.24
1085.392	-6.14
1085.813	-10.24
1086.233	-6.24
1086.653	-1.54
1087.073	4.26
1087.493	-2.74
1087.913	-3.04
1088.333	-9.04
1088.753	-0.74
1089.173	3.16
1089.593	-2.64
1090.013	-1.04
1090.433	-0.64
1090.852	4.66
1091.272	4.06
1091.692	-5.74
1092.112	-0.34
1092.531	-9.04
1092.951	-7.34
1093.371	-3.64
1093.79	4.46
1094.21	-4.34
1094.63	-12.64
1095.049	-2.64
1095.469	-1.74
1095.888	-1.34
1096.308	2.36
1096.727	5.56
1097.146	-2.74
1097.566	1.16
1097.985	-6.54
1098.405	-3.04
1098.824	-5.04
1099.243	-7.94
1099.662	-5.94
1100.082	1.26
1100.501	4.76
1100.92	-7.24
1101.339	-6.74
1101.758	-4.94
