Data from 20171114-ORNL-Ar_H_NY_Subt18_08-08-11-835.txt Node
Date: Tue Nov 14 08:08:11 EST 2017
User: Ender
Spectrometer: HR+D1039
Trigger mode: 0
Integration Time (sec): 2.730000E-2
Scans to average: 10
Electric dark correction enabled: true
Nonlinearity correction enabled: false
Boxcar width: 0
XAxis mode: Wavelengths
Number of Pixels in Spectrum: 2048
>>>>>Begin Spectral Data<<<<<
187.836	-1.19
188.309	-1.19
188.782	-1.19
189.255	-0.19
189.728	2.31
190.201	3.41
190.674	0.31
191.147	1.21
191.619	-6.49
192.092	-1.19
192.565	3.01
193.038	0.21
193.511	-0.19
193.984	1.11
194.456	-4.09
194.929	2.91
195.402	0.01
195.874	-1.19
196.347	-1.79
196.82	-5.89
197.292	4.51
197.765	-5.19
198.237	-6.29
198.71	4.91
199.182	-2.19
199.655	5.71
200.127	-1.39
200.6	-4.69
201.072	-5.69
201.544	-0.49
202.017	-0.89
202.489	5.71
202.961	1.81
203.433	-0.59
203.906	-8.39
204.378	-1.99
204.85	-0.89
205.322	-10.99
205.794	-0.79
206.266	-1.19
206.739	-6.99
207.211	1.61
207.683	-8.59
208.155	-5.89
208.627	-6.89
209.099	-3.19
209.57	-11.49
210.042	-3.59
210.514	-5.59
210.986	-2.39
211.458	-5.19
211.93	-1.29
212.402	-1.29
212.873	-2.69
213.345	-10.69
213.817	-8.59
214.288	-5.99
214.76	-6.19
215.232	-2.79
215.703	-5.19
216.175	-8.89
216.646	-11.09
217.118	-9.49
217.589	-5.99
218.061	-6.89
218.532	-1.29
219.004	-2.39
219.475	-6.49
219.946	-1.59
220.418	-5.09
220.889	5.11
221.36	4.71
221.832	-5.99
222.303	-5.69
222.774	1.51
223.245	-13.79
223.717	-6.69
224.188	-3.29
224.659	-6.89
225.13	-9.89
225.601	-1.19
226.072	1.51
226.543	-6.69
227.014	-3.39
227.485	3.21
227.956	-5.89
228.427	-0.09
228.898	-0.09
229.369	0.41
229.839	1.01
230.31	-2.59
230.781	5.11
231.252	-3.19
231.722	-1.09
232.193	-2.99
232.664	0.11
233.135	-3.19
233.605	-0.79
234.076	-4.99
234.546	-0.49
235.017	-2.29
235.487	-0.59
235.958	1.11
236.428	-6.29
236.899	3.81
237.369	8.31
237.84	1.61
238.31	1.81
238.78	1.81
239.251	5.21
239.721	1.31
240.191	0.01
240.662	-1.59
241.132	-0.99
241.602	-3.19
242.072	3.51
242.542	7.61
243.013	3.81
243.483	4.41
243.953	1.91
244.423	-1.99
244.893	-3.89
245.363	-1.29
245.833	-0.79
246.303	-3.99
246.773	0.21
247.243	7.41
247.712	5.51
248.182	6.11
248.652	8.91
249.122	-0.89
249.592	10.61
250.061	22.81
250.531	31.11
251.001	15.01
251.471	23.71
251.94	21.21
252.41	8.31
252.879	1.01
253.349	13.91
253.818	11.31
254.288	2.51
254.757	7.01
255.227	4.51
255.696	9.21
256.166	4.81
256.635	8.71
257.105	8.71
257.574	5.31
258.043	12.11
258.513	13.21
258.982	18.61
259.451	7.91
259.92	16.91
260.389	15.41
260.859	16.21
261.328	8.21
261.797	17.01
262.266	10.91
262.735	8.31
263.204	0.31
263.673	1.51
264.142	8.41
264.611	-6.59
265.08	-0.79
265.549	5.41
266.018	2.11
266.487	-0.89
266.955	-2.29
267.424	0.91
267.893	1.41
268.362	3.61
268.83	2.81
269.299	10.71
269.768	7.11
270.236	5.71
270.705	1.51
271.174	7.71
271.642	14.11
272.111	9.31
272.579	15.51
273.048	20.51
273.516	24.51
273.985	26.61
274.453	19.61
274.922	24.31
275.39	10.31
275.858	1.11
276.327	12.61
276.795	16.21
277.263	7.21
277.731	29.91
278.2	57.81
278.668	57.51
279.136	44.91
279.604	18.21
280.072	15.11
280.54	9.51
281.008	12.61
281.477	17.51
281.945	12.41
282.413	15.71
282.881	15.51
283.348	10.01
283.816	13.61
284.284	11.71
284.752	16.41
285.22	11.91
285.688	18.71
286.156	16.81
286.623	42.61
287.091	50.51
287.559	29.61
288.026	20.31
288.494	17.61
288.962	8.51
289.429	7.01
289.897	22.41
290.364	18.91
290.832	14.91
291.3	10.21
291.767	11.91
292.234	19.01
292.702	9.41
293.169	13.41
293.637	23.61
294.104	20.41
294.571	13.01
295.039	11.11
295.506	20.11
295.973	16.21
296.44	12.51
296.908	14.71
297.375	16.41
297.842	16.61
298.309	17.81
298.776	10.41
299.243	19.21
299.71	12.31
300.177	14.51
300.644	22.81
301.111	21.61
301.578	18.31
302.045	13.41
302.512	25.21
302.979	24.91
303.446	22.31
303.913	18.91
304.379	20.31
304.846	24.91
305.313	31.11
305.78	19.11
306.246	22.21
306.713	23.11
307.18	23.11
307.646	26.31
308.113	26.81
308.579	23.91
309.046	22.31
309.512	26.91
309.979	11.61
310.445	23.31
310.912	26.81
311.378	27.71
311.845	28.01
312.311	31.21
312.777	35.31
313.244	28.11
313.71	41.91
314.176	29.01
314.642	29.31
315.109	28.31
315.575	32.31
316.041	36.91
316.507	30.81
316.973	39.41
317.439	34.01
317.905	31.51
318.371	29.51
318.837	36.31
319.303	27.21
319.769	35.11
320.235	27.61
320.701	28.61
321.167	32.11
321.633	30.21
322.099	34.01
322.564	41.91
323.03	34.01
323.496	34.01
323.962	37.21
324.427	30.21
324.893	38.71
325.359	36.91
325.824	29.91
326.29	35.81
326.755	33.31
327.221	36.11
327.686	42.41
328.152	44.91
328.617	43.81
329.083	43.61
329.548	50.51
330.014	46.41
330.479	35.81
330.944	41.01
331.41	40.71
331.875	37.21
332.34	46.41
332.805	48.51
333.271	46.61
333.736	46.01
334.201	47.01
334.666	50.01
335.131	50.31
335.596	50.61
336.061	47.11
336.526	45.81
336.991	49.21
337.456	58.11
337.921	48.71
338.386	39.71
338.851	42.71
339.316	48.01
339.781	42.61
340.246	47.51
340.711	44.31
341.175	51.51
341.64	36.61
342.105	46.41
342.569	47.21
343.034	62.81
343.499	53.51
343.963	48.31
344.428	61.01
344.893	56.71
345.357	58.41
345.822	58.41
346.286	63.11
346.751	70.41
347.215	69.51
347.679	71.71
348.144	97.51
348.608	77.11
349.073	68.31
349.537	72.41
350.001	74.91
350.465	92.21
350.93	82.71
351.394	84.01
351.858	69.41
352.322	90.41
352.786	82.51
353.25	100.01
353.715	114.31
354.179	98.81
354.643	128.31
355.107	125.11
355.571	103.01
356.035	107.81
356.498	113.41
356.962	129.01
357.426	123.81
357.89	123.51
358.354	92.31
358.818	80.01
359.281	76.01
359.745	70.81
360.209	72.51
360.673	72.41
361.136	74.11
361.6	81.81
362.064	74.41
362.527	82.71
362.991	88.21
363.454	80.71
363.918	78.61
364.381	74.61
364.845	78.41
365.308	88.41
365.772	77.61
366.235	82.81
366.698	82.11
367.162	92.51
367.625	82.81
368.088	82.11
368.552	84.51
369.015	88.01
369.478	94.01
369.941	97.41
370.404	93.31
370.867	108.81
371.331	111.11
371.794	112.91
372.257	106.81
372.72	114.91
373.183	105.41
373.646	102.31
374.109	104.01
374.572	107.51
375.035	108.81
375.497	110.61
375.96	107.01
376.423	102.41
376.886	113.61
377.349	112.21
377.811	103.71
378.274	105.91
378.737	103.01
379.199	111.11
379.662	108.11
380.125	117.51
380.587	119.41
381.05	120.71
381.512	131.71
381.975	130.11
382.437	135.71
382.9	127.61
383.362	134.11
383.825	147.01
384.287	151.91
384.75	142.51
385.212	142.51
385.674	139.91
386.136	134.21
386.599	124.41
387.061	120.11
387.523	127.91
387.985	134.71
388.447	141.21
388.91	144.81
389.372	159.91
389.834	158.61
390.296	143.11
390.758	159.81
391.22	169.51
391.682	212.21
392.144	305.21
392.606	230.91
393.068	170.11
393.529	171.41
393.991	147.71
394.453	156.31
394.915	155.51
395.377	196.21
395.838	215.01
396.3	155.31
396.762	137.01
397.224	132.11
397.685	128.01
398.147	130.01
398.608	127.61
399.07	128.41
399.531	135.41
399.993	137.41
400.454	151.01
400.916	148.81
401.377	148.41
401.839	151.31
402.3	153.11
402.762	163.81
403.223	174.51
403.684	173.81
404.145	160.61
404.607	160.51
405.068	164.31
405.529	176.71
405.99	178.21
406.451	178.81
406.913	174.41
407.374	168.61
407.835	155.01
408.296	159.01
408.757	178.11
409.218	192.41
409.679	177.91
410.14	174.31
410.601	175.51
411.062	179.61
411.522	195.81
411.983	192.11
412.444	171.61
412.905	175.81
413.366	179.71
413.826	192.51
414.287	213.91
414.748	253.01
415.208	243.81
415.669	217.01
416.13	202.11
416.59	207.41
417.051	207.51
417.511	213.61
417.972	240.11
418.432	242.01
418.893	279.61
419.353	243.91
419.814	191.71
420.274	181.01
420.734	182.21
421.195	200.91
421.655	195.91
422.115	195.21
422.576	188.41
423.036	204.61
423.496	206.51
423.956	215.11
424.416	230.81
424.876	269.31
425.336	259.81
425.797	258.21
426.257	252.31
426.717	240.51
427.177	235.51
427.637	224.71
428.097	230.61
428.556	246.51
429.016	278.51
429.476	271.11
429.936	277.51
430.396	282.71
430.856	289.41
431.315	310.61
431.775	352.41
432.235	380.91
432.694	353.01
433.154	359.61
433.614	395.31
434.073	342.91
434.533	283.81
434.993	268.91
435.452	284.91
435.912	300.41
436.371	287.71
436.83	290.41
437.29	274.91
437.749	254.91
438.209	247.31
438.668	280.91
439.127	293.31
439.587	264.81
440.046	255.41
440.505	257.11
440.964	273.71
441.424	323.11
441.883	307.31
442.342	264.31
442.801	228.31
443.26	218.21
443.719	222.71
444.178	217.61
444.637	217.21
445.096	221.91
445.555	223.81
446.014	218.71
446.473	220.71
446.932	234.31
447.391	229.11
447.849	226.91
448.308	222.01
448.767	228.01
449.226	233.61
449.685	236.01
450.143	238.31
450.602	234.11
451.061	227.61
451.519	229.61
451.978	235.91
452.436	227.11
452.895	235.71
453.353	242.81
453.812	238.91
454.27	237.01
454.729	232.71
455.187	237.71
455.646	241.41
456.104	247.31
456.562	257.21
457.021	262.61
457.479	250.81
457.937	270.31
458.395	260.91
458.854	244.71
459.312	254.61
459.77	277.01
460.228	250.91
460.686	242.61
461.144	251.71
461.602	244.51
462.06	247.41
462.518	244.21
462.976	252.31
463.434	251.71
463.892	260.91
464.35	284.21
464.808	289.51
465.266	262.41
465.724	264.01
466.181	269.61
466.639	276.61
467.097	283.81
467.555	302.21
468.012	301.01
468.47	305.41
468.928	328.01
469.385	340.81
469.843	344.01
470.3	350.31
470.758	362.61
471.215	390.61
471.673	409.91
472.13	407.61
472.588	423.61
473.045	365.81
473.503	376.61
473.96	391.11
474.417	396.01
474.875	427.91
475.332	473.31
475.789	464.41
476.246	461.41
476.704	478.51
477.161	507.41
477.618	521.61
478.075	563.01
478.532	603.01
478.989	689.71
479.446	810.21
479.903	762.91
480.36	796.71
480.817	855.01
481.274	964.71
481.731	1064.81
482.188	1158.41
482.645	1291.41
483.102	1404.41
483.558	1518.41
484.015	1591.91
484.472	1545.91
484.929	1515.41
485.385	1462.61
485.842	1407.31
486.299	1350.61
486.755	1297.11
487.212	1085.31
487.668	915.31
488.125	837.01
488.582	766.31
489.038	735.61
489.494	697.61
489.951	676.61
490.407	654.81
490.864	643.51
491.32	636.21
491.776	637.91
492.233	639.81
492.689	610.31
493.145	594.41
493.602	589.01
494.058	610.71
494.514	607.61
494.97	623.31
495.426	646.31
495.882	615.61
496.338	602.31
496.794	609.71
497.251	602.91
497.707	625.91
498.163	633.61
498.618	630.31
499.074	634.71
499.53	669.71
499.986	670.81
500.442	639.31
500.898	628.41
501.354	621.91
501.809	632.91
502.265	637.01
502.721	651.61
503.177	666.81
503.632	662.51
504.088	668.21
504.543	704.31
504.999	697.61
505.455	650.71
505.91	619.71
506.366	621.21
506.821	609.61
507.277	622.41
507.732	614.91
508.187	608.61
508.643	630.51
509.098	627.41
509.553	649.41
510.009	644.41
510.464	660.61
510.919	675.91
511.375	679.91
511.83	695.31
512.285	709.71
512.74	745.31
513.195	768.71
513.65	761.81
514.105	758.61
514.56	756.41
515.015	772.51
515.47	797.31
515.925	775.81
516.38	781.41
516.835	775.71
517.29	765.11
517.745	746.91
518.2	745.31
518.655	719.81
519.109	719.31
519.564	718.71
520.019	721.51
520.474	709.41
520.928	718.71
521.383	715.61
521.838	692.61
522.292	702.11
522.747	702.51
523.201	699.31
523.656	683.41
524.11	680.51
524.565	687.21
525.019	679.71
525.474	685.21
525.928	695.41
526.382	686.01
526.837	676.01
527.291	682.41
527.745	683.81
528.2	689.61
528.654	679.71
529.108	670.51
529.562	674.71
530.016	677.51
530.47	676.71
530.925	673.41
531.379	690.91
531.833	691.51
532.287	689.81
532.741	681.41
533.195	695.61
533.649	701.41
534.103	699.51
534.556	698.31
535.01	689.71
535.464	690.31
535.918	710.51
536.372	703.61
536.826	708.51
537.279	698.11
537.733	706.31
538.187	703.11
538.64	703.01
539.094	705.41
539.548	724.51
540.001	710.51
540.455	716.91
540.908	721.61
541.362	726.21
541.815	724.51
542.269	734.51
542.722	740.51
543.175	764.41
543.629	763.21
544.082	782.91
544.536	778.11
544.989	770.21
545.442	782.71
545.895	778.91
546.349	777.41
546.802	784.91
547.255	786.11
547.708	796.51
548.161	795.41
548.614	791.81
549.067	815.21
549.52	803.21
549.973	797.11
550.426	799.61
550.879	776.01
551.332	787.31
551.785	785.81
552.238	799.51
552.691	807.11
553.144	818.81
553.596	832.31
554.049	835.11
554.502	871.91
554.955	889.41
555.407	888.51
555.86	875.31
556.313	875.71
556.765	869.01
557.218	860.81
557.67	863.61
558.123	865.81
558.576	863.41
559.028	863.61
559.48	870.01
559.933	863.31
560.385	818.51
560.838	788.01
561.29	773.21
561.742	770.81
562.195	761.01
562.647	749.01
563.099	744.71
563.551	764.01
564.004	768.21
564.456	762.41
564.908	743.71
565.36	733.71
565.812	730.41
566.264	716.31
566.716	722.41
567.168	712.21
567.62	719.91
568.072	704.11
568.524	693.81
568.976	679.21
569.428	662.51
569.88	661.41
570.332	681.81
570.784	672.21
571.235	676.51
571.687	678.41
572.139	698.11
572.59	701.31
573.042	699.61
573.494	699.41
573.945	688.91
574.397	669.71
574.849	682.51
575.3	683.81
575.752	676.41
576.203	672.91
576.655	666.01
577.106	657.91
577.557	650.31
578.009	659.31
578.46	660.01
578.912	639.01
579.363	653.41
579.814	655.61
580.265	650.41
580.717	667.51
581.168	656.41
581.619	673.21
582.07	671.11
582.521	670.21
582.972	663.01
583.423	669.31
583.875	674.11
584.326	687.01
584.777	741.71
585.227	828.01
585.678	929.31
586.129	1011.81
586.58	1090.11
587.031	1170.91
587.482	1326.71
587.933	1507.91
588.384	1307.81
588.834	978.11
589.285	796.61
589.736	762.01
590.186	763.11
590.637	758.41
591.088	736.51
591.538	725.31
591.989	732.21
592.439	724.31
592.89	715.81
593.34	700.51
593.791	712.61
594.241	693.71
594.692	709.91
595.142	689.51
595.593	694.81
596.043	695.51
596.493	707.01
596.943	706.61
597.394	720.21
597.844	712.01
598.294	718.51
598.744	739.21
599.195	768.41
599.645	804.21
600.095	859.81
600.545	918.41
600.995	954.91
601.445	1006.91
601.895	1078.61
602.345	1127.31
602.795	1097.91
603.245	1045.01
603.695	990.01
604.145	938.71
604.594	898.91
605.044	843.51
605.494	791.41
605.944	747.81
606.393	735.21
606.843	720.81
607.293	725.81
607.743	723.01
608.192	742.21
608.642	753.01
609.091	770.91
609.541	766.91
609.99	755.01
610.44	756.01
610.889	721.11
611.339	697.91
611.788	685.71
612.238	695.91
612.687	712.31
613.136	717.41
613.586	749.21
614.035	738.71
614.484	754.71
614.933	757.91
615.383	744.81
615.832	722.31
616.281	727.81
616.73	687.11
617.179	659.31
617.628	645.01
618.077	633.61
618.526	613.91
618.975	607.71
619.424	613.61
619.873	612.81
620.322	613.11
620.771	607.11
621.22	610.11
621.669	591.21
622.118	582.01
622.567	581.31
623.015	561.31
623.464	562.91
623.913	559.91
624.361	560.11
624.81	546.61
625.259	550.71
625.707	551.91
626.156	561.31
626.604	557.91
627.053	564.11
627.501	561.21
627.95	568.31
628.398	576.01
628.847	581.61
629.295	562.71
629.744	578.31
630.192	564.81
630.64	565.81
631.089	562.31
631.537	588.21
631.985	586.71
632.433	601.11
632.881	613.01
633.33	668.51
633.778	648.21
634.226	566.41
634.674	565.01
635.122	574.61
635.57	597.51
636.018	638.81
636.466	567.81
636.914	550.61
637.362	576.31
637.81	561.21
638.258	567.11
638.705	578.91
639.153	609.61
639.601	610.81
640.049	631.21
640.497	674.81
640.944	685.21
641.392	637.81
641.84	613.51
642.287	581.51
642.735	565.51
643.182	565.61
643.63	569.91
644.078	568.81
644.525	589.11
644.973	592.61
645.42	600.91
645.867	615.71
646.315	640.61
646.762	659.41
647.21	690.71
647.657	706.71
648.104	757.91
648.551	762.71
648.999	843.21
649.446	922.21
649.893	1014.41
650.34	1153.61
650.787	1399.51
651.234	1756.01
651.682	2282.61
652.129	3155.61
652.576	4556.11
653.023	6718.91
653.47	9162.01
653.917	11379.91
654.363	13043.91
654.81	14353.41
655.257	13645.21
655.704	8909.01
656.151	5260.01
656.598	3409.41
657.044	2408.11
657.491	1854.31
657.938	1482.21
658.385	1237.81
658.831	1073.41
659.278	954.61
659.724	851.81
660.171	782.81
660.618	721.91
661.064	683.91
661.511	668.01
661.957	662.51
662.404	636.51
662.85	645.81
663.296	618.11
663.743	561.41
664.189	539.11
664.635	532.31
665.082	520.81
665.528	530.51
665.974	519.01
666.42	504.41
666.867	511.81
667.313	491.71
667.759	482.91
668.205	475.11
668.651	486.81
669.097	484.11
669.543	510.11
669.989	475.81
670.435	449.11
670.881	438.91
671.327	438.11
671.773	467.31
672.219	490.31
672.665	548.31
673.11	589.81
673.556	619.31
674.002	663.31
674.448	651.01
674.893	552.81
675.339	475.71
675.785	438.71
676.23	422.31
676.676	386.51
677.122	377.81
677.567	370.51
678.013	364.01
678.458	362.41
678.904	357.61
679.349	343.21
679.794	350.11
680.24	343.81
680.685	348.81
681.131	342.31
681.576	353.41
682.021	352.21
682.466	346.31
682.912	348.21
683.357	342.21
683.802	376.21
684.247	408.31
684.692	455.61
685.137	491.91
685.583	536.71
686.028	563.91
686.473	517.51
686.918	436.11
687.363	416.91
687.807	383.31
688.252	357.81
688.697	351.71
689.142	335.91
689.587	327.91
690.032	324.21
690.477	337.11
690.921	357.61
691.366	382.71
691.811	400.91
692.255	428.11
692.7	460.31
693.145	495.31
693.589	700.91
694.034	1143.91
694.478	1531.11
694.923	1701.21
695.367	2223.21
695.812	1168.51
696.256	493.51
696.701	359.71
697.145	342.41
697.59	330.81
698.034	325.91
698.478	328.91
698.922	335.51
699.367	317.31
699.811	345.11
700.255	350.31
700.699	385.41
701.143	425.91
701.588	476.91
702.032	507.91
702.476	516.61
702.92	490.81
703.364	492.01
703.808	653.51
704.252	1057.71
704.696	1456.11
705.14	1653.91
705.584	2078.81
706.027	1050.81
706.471	513.71
706.915	389.01
707.359	348.41
707.803	317.71
708.246	313.61
708.69	309.41
709.134	317.51
709.577	304.01
710.021	319.11
710.465	305.81
710.908	299.91
711.352	302.01
711.795	312.41
712.239	359.61
712.682	387.11
713.126	416.61
713.569	461.61
714.012	368.91
714.456	314.71
714.899	298.61
715.342	281.51
715.786	263.31
716.229	253.71
716.672	256.21
717.115	249.31
717.558	249.31
718.002	257.31
718.445	266.81
718.888	279.21
719.331	292.01
719.774	309.01
720.217	302.01
720.66	286.61
721.103	271.41
721.546	253.11
721.989	246.51
722.432	232.51
722.874	237.41
723.317	226.71
723.76	232.51
724.203	250.11
724.645	322.41
725.088	451.01
725.531	563.31
725.974	630.21
726.416	538.31
726.859	302.41
727.301	242.51
727.744	244.51
728.187	232.71
728.629	244.71
729.071	242.71
729.514	256.51
729.956	278.31
730.399	280.51
730.841	277.61
731.283	269.41
731.726	261.51
732.168	256.11
732.61	265.11
733.053	288.51
733.495	321.01
733.937	353.21
734.379	395.51
734.821	437.61
735.263	546.51
735.705	861.11
736.148	1610.01
736.59	2573.01
737.032	2986.11
737.474	2433.11
737.916	804.21
738.357	423.91
738.799	324.61
739.241	295.61
739.683	288.21
740.125	286.71
740.567	300.31
741.008	307.31
741.45	302.91
741.892	311.31
742.334	339.51
742.775	354.91
743.217	341.41
743.658	269.91
744.1	250.71
744.542	266.01
744.983	308.11
745.425	340.21
745.866	336.31
746.307	285.11
746.749	282.11
747.19	330.91
747.632	458.61
748.073	901.91
748.514	1892.41
748.956	2821.81
749.397	3556.91
749.838	2945.41
750.279	2872.71
750.72	1460.31
751.162	544.61
751.603	316.41
752.044	247.81
752.485	216.91
752.926	206.01
753.367	206.81
753.808	198.91
754.249	188.51
754.69	183.91
755.131	185.81
755.572	181.01
756.013	178.31
756.453	186.51
756.894	186.71
757.335	191.21
757.776	199.31
758.216	190.41
758.657	193.41
759.098	201.51
759.538	222.11
759.979	262.21
760.42	378.41
760.86	726.81
761.301	1877.71
761.741	4462.71
762.182	6220.81
762.622	4379.81
763.063	1285.71
763.503	531.51
763.943	343.81
764.384	343.71
764.824	406.61
765.264	441.61
765.705	304.51
766.145	212.51
766.585	191.71
767.025	178.91
767.465	184.91
767.906	240.41
768.346	326.91
768.786	348.51
769.226	265.11
769.666	321.71
770.106	644.61
770.546	1582.51
770.986	2589.21
771.426	2293.21
771.866	788.61
772.306	329.61
772.745	209.81
773.185	178.01
773.625	172.51
774.065	172.51
774.505	207.81
774.944	329.11
775.384	714.71
775.824	1256.81
776.263	1192.61
776.703	522.61
777.142	228.01
777.582	159.31
778.021	139.11
778.461	137.81
778.9	137.71
779.34	135.21
779.779	113.11
780.219	108.21
780.658	107.41
781.097	109.41
781.537	120.11
781.976	110.61
782.415	109.01
782.855	96.61
783.294	109.01
783.733	107.21
784.172	108.31
784.611	100.91
785.05	106.01
785.489	113.51
785.928	118.71
786.367	122.51
786.806	121.31
787.245	131.91
787.684	137.11
788.123	148.11
788.562	131.11
789.001	128.91
789.44	120.31
789.879	117.51
790.317	116.51
790.756	136.11
791.195	125.11
791.634	148.11
792.072	206.81
792.511	373.31
792.95	1038.01
793.388	2127.11
793.827	1868.31
794.265	667.61
794.704	272.91
795.142	178.11
795.581	150.11
796.019	133.01
796.458	125.91
796.896	118.01
797.334	130.51
797.773	164.71
798.211	223.41
798.649	447.91
799.087	1027.31
799.526	1589.71
799.964	1995.51
800.402	1952.61
800.84	745.71
801.278	297.41
801.716	188.11
802.154	153.21
802.592	147.41
803.03	137.81
803.468	131.11
803.906	144.61
804.344	159.11
804.782	142.51
805.22	139.91
805.658	126.71
806.096	148.01
806.533	160.31
806.971	172.71
807.409	209.81
807.847	325.41
808.284	677.91
808.722	1886.91
809.16	3233.91
809.597	3122.81
810.035	5349.51
810.472	5553.51
810.91	2030.31
811.347	790.51
811.785	397.01
812.222	255.61
812.66	194.41
813.097	156.41
813.535	137.71
813.972	127.31
814.409	121.11
814.846	107.81
815.284	116.71
815.721	101.61
816.158	108.31
816.595	126.01
817.032	185.41
817.47	198.51
817.907	170.11
818.344	160.81
818.781	122.31
819.218	105.61
819.655	122.21
820.092	174.51
820.529	210.61
820.966	176.11
821.403	135.51
821.839	107.31
822.276	97.51
822.713	122.71
823.15	130.91
823.587	111.41
824.023	143.01
824.46	313.71
824.897	900.41
825.333	1312.11
825.77	573.81
826.206	234.71
826.643	136.61
827.08	105.71
827.516	76.61
827.953	77.21
828.389	86.51
828.825	66.11
829.262	66.01
829.698	62.81
830.135	66.91
830.571	63.61
831.007	63.21
831.443	68.31
831.88	63.51
832.316	62.01
832.752	64.41
833.188	60.21
833.624	67.11
834.06	66.61
834.497	72.71
834.933	66.81
835.369	74.71
835.805	67.51
836.241	77.91
836.677	85.11
837.112	93.21
837.548	108.41
837.984	134.21
838.42	200.61
838.856	505.71
839.292	1523.21
839.727	2241.91
840.163	1059.51
840.599	936.31
841.034	2000.51
841.47	2043.71
841.906	760.01
842.341	330.91
842.777	231.31
843.212	322.61
843.648	317.81
844.083	150.51
844.519	97.91
844.954	73.61
845.39	62.61
845.825	59.31
846.261	56.91
846.696	59.31
847.131	53.21
847.566	60.91
848.002	53.21
848.437	63.31
848.872	64.91
849.307	61.41
849.742	87.51
850.177	180.51
850.613	552.61
851.048	854.31
851.483	374.21
851.918	154.11
852.353	99.91
852.788	55.71
853.223	56.61
853.657	57.01
854.092	52.51
854.527	41.61
854.962	44.81
855.397	38.11
855.832	48.71
856.266	35.11
856.701	42.01
857.136	43.21
857.57	37.81
858.005	49.31
858.44	57.31
858.874	48.01
859.309	54.31
859.743	35.51
860.178	41.21
860.612	41.21
861.047	46.11
861.481	66.61
861.915	65.91
862.35	45.81
862.784	32.71
863.218	34.91
863.653	33.31
864.087	45.71
864.521	55.71
864.955	73.41
865.39	152.51
865.824	167.71
866.258	115.41
866.692	160.71
867.126	168.51
867.56	103.71
867.994	47.21
868.428	39.31
868.862	42.21
869.296	50.51
869.73	58.11
870.164	48.31
870.598	43.21
871.031	31.61
871.465	32.11
871.899	34.21
872.333	25.71
872.766	25.61
873.2	23.11
873.634	32.91
874.067	28.61
874.501	27.81
874.935	39.61
875.368	25.71
875.802	25.41
876.235	30.71
876.669	24.21
877.102	20.11
877.535	27.91
877.969	22.91
878.402	25.11
878.836	18.21
879.269	24.21
879.702	26.11
880.135	25.01
880.569	25.81
881.002	25.71
881.435	22.71
881.868	15.71
882.301	21.61
882.734	14.81
883.167	23.51
883.601	21.21
884.034	18.51
884.467	14.21
884.899	18.21
885.332	23.51
885.765	17.01
886.198	16.11
886.631	20.11
887.064	23.51
887.497	23.01
887.929	20.21
888.362	15.31
888.795	12.61
889.228	21.61
889.66	24.41
890.093	19.11
890.526	16.81
890.958	9.21
891.391	19.21
891.823	22.71
892.256	18.31
892.688	8.51
893.121	18.91
893.553	14.11
893.985	23.01
894.418	17.81
894.85	16.11
895.282	17.31
895.715	10.01
896.147	16.91
896.579	14.71
897.011	11.21
897.444	13.01
897.876	12.51
898.308	16.11
898.74	12.31
899.172	15.71
899.604	26.31
900.036	18.31
900.468	12.91
900.9	14.81
901.332	13.51
901.764	11.41
902.196	24.31
902.628	18.21
903.06	14.91
903.491	31.31
903.923	25.41
904.355	24.81
904.787	27.51
905.218	21.11
905.65	18.51
906.082	13.91
906.513	12.01
906.945	21.71
907.376	12.81
907.808	16.91
908.239	21.71
908.671	21.71
909.102	20.61
909.534	33.41
909.965	49.91
910.397	94.21
910.828	312.21
911.259	452.81
911.691	215.81
912.122	101.41
912.553	52.41
912.984	34.81
913.415	30.81
913.847	28.61
914.278	12.01
914.709	12.21
915.14	17.81
915.571	17.01
916.002	11.61
916.433	18.11
916.864	20.81
917.295	10.11
917.726	23.41
918.157	12.71
918.587	34.91
919.018	21.31
919.449	22.01
919.88	23.71
920.311	33.51
920.741	44.41
921.172	169.21
921.603	152.81
922.033	66.41
922.464	50.21
922.895	23.11
923.325	21.21
923.756	14.41
924.186	12.61
924.617	19.21
925.047	46.41
925.478	50.71
925.908	45.61
926.338	25.01
926.769	16.91
927.199	17.01
927.629	9.31
928.06	15.11
928.49	18.61
928.92	12.71
929.35	13.11
929.78	15.61
930.21	7.91
930.641	16.51
931.071	9.71
931.501	5.21
931.931	11.31
932.361	9.41
932.791	11.61
933.221	10.31
933.651	6.31
934.08	15.51
934.51	29.81
934.94	7.91
935.37	18.91
935.8	14.61
936.229	6.61
936.659	6.61
937.089	3.61
937.519	11.61
937.948	28.31
938.378	18.41
938.807	2.61
939.237	7.81
939.666	10.01
940.096	-2.09
940.525	1.31
940.955	-0.39
941.384	0.51
941.814	-6.19
942.243	-5.89
942.672	8.11
943.102	3.91
943.531	-4.79
943.96	-1.39
944.39	4.61
944.819	-5.29
945.248	6.01
945.677	3.01
946.106	6.21
946.535	11.91
946.964	-0.79
947.393	2.61
947.822	2.61
948.251	-6.59
948.68	2.31
949.109	9.01
949.538	8.31
949.967	-0.29
950.396	0.11
950.825	-1.19
951.254	0.11
951.682	-3.09
952.111	3.31
952.54	9.41
952.969	-4.99
953.397	-7.19
953.826	-2.49
954.254	-8.09
954.683	6.21
955.112	-0.39
955.54	-0.89
955.969	-0.29
956.397	1.51
956.826	-4.39
957.254	2.61
957.682	2.41
958.111	8.51
958.539	-5.89
958.967	3.81
959.396	-4.89
959.824	-1.19
960.252	-0.99
960.68	-2.59
961.109	-1.99
961.537	-2.09
961.965	-2.49
962.393	1.61
962.821	-7.89
963.249	-2.19
963.677	4.91
964.105	4.81
964.533	41.31
964.961	37.81
965.389	23.61
965.817	6.31
966.245	0.71
966.672	1.71
967.1	-12.39
967.528	-6.89
967.956	-2.69
968.383	-4.79
968.811	-2.59
969.239	-3.19
969.666	-3.89
970.094	-1.29
970.522	3.51
970.949	1.21
971.377	-4.29
971.804	-5.69
972.232	-0.59
972.659	-3.79
973.087	-3.59
973.514	1.21
973.941	-2.79
974.369	1.71
974.796	-1.99
975.223	-0.49
975.651	-2.89
976.078	4.51
976.505	-1.09
976.932	6.01
977.359	17.31
977.786	19.41
978.214	5.21
978.641	-2.79
979.068	-3.39
979.495	-6.99
979.922	2.01
980.349	-6.09
980.776	4.51
981.202	-4.29
981.629	0.31
982.056	-0.79
982.483	-5.09
982.91	2.11
983.337	-0.89
983.763	1.81
984.19	-4.09
984.617	0.11
985.043	-4.89
985.47	-8.39
985.897	-0.89
986.323	-7.69
986.75	0.31
987.176	2.91
987.603	2.41
988.029	-2.59
988.456	-4.49
988.882	4.71
989.308	-7.59
989.735	-7.89
990.161	1.21
990.587	-7.89
991.014	-4.69
991.44	11.41
991.866	-2.89
992.292	-3.39
992.719	-2.79
993.145	5.41
993.571	-11.09
993.997	-7.69
994.423	-0.89
994.849	-3.49
995.275	-1.39
995.701	-4.59
996.127	-7.09
996.553	-2.39
996.979	-4.49
997.405	-4.39
997.83	-2.29
998.256	-8.29
998.682	-3.39
999.108	-9.69
999.534	4.31
999.959	-4.09
1000.385	-5.39
1000.811	2.11
1001.236	-10.59
1001.662	-10.09
1002.087	-11.69
1002.513	2.21
1002.938	-0.29
1003.364	-5.59
1003.789	-2.59
1004.215	7.51
1004.64	2.21
1005.066	-0.19
1005.491	-4.99
1005.916	-1.29
1006.342	-10.29
1006.767	-7.39
1007.192	0.51
1007.617	-3.29
1008.042	-5.79
1008.468	-10.59
1008.893	-9.79
1009.318	-1.99
1009.743	1.51
1010.168	5.61
1010.593	0.11
1011.018	-7.59
1011.443	-10.49
1011.868	1.51
1012.293	-1.59
1012.718	-10.49
1013.143	-1.19
1013.567	-4.29
1013.992	-1.99
1014.417	-12.19
1014.842	1.81
1015.267	-1.79
1015.691	-2.69
1016.116	2.21
1016.541	-5.09
1016.965	1.31
1017.39	-0.19
1017.814	-5.49
1018.239	-4.59
1018.663	-2.79
1019.088	-10.49
1019.512	-1.99
1019.937	7.41
1020.361	-2.69
1020.785	-11.99
1021.21	-5.09
1021.634	-2.19
1022.058	4.21
1022.483	10.21
1022.907	-6.39
1023.331	-2.69
1023.755	-1.89
1024.179	0.21
1024.604	-6.39
1025.028	-7.69
1025.452	-8.89
1025.876	-3.19
1026.3	-6.19
1026.724	-12.79
1027.148	-2.69
1027.572	-6.49
1027.996	-7.29
1028.42	-2.59
1028.843	-2.19
1029.267	-8.49
1029.691	-4.29
1030.115	-6.39
1030.539	-4.79
1030.962	-12.59
1031.386	-7.99
1031.81	0.41
1032.233	-1.99
1032.657	-0.89
1033.08	-3.89
1033.504	-6.19
1033.927	-10.49
1034.351	-0.29
1034.774	-8.39
1035.198	-0.69
1035.621	-6.89
1036.045	-4.79
1036.468	2.41
1036.891	-9.49
1037.315	-7.49
1037.738	-9.69
1038.161	0.01
1038.584	-6.99
1039.008	-10.19
1039.431	-3.39
1039.854	2.51
1040.277	-10.99
1040.7	-10.29
1041.123	0.31
1041.546	-9.19
1041.969	-7.49
1042.392	-6.49
1042.815	-3.79
1043.238	-1.39
1043.661	-4.19
1044.084	-7.29
1044.507	-2.59
1044.93	-5.79
1045.352	-5.29
1045.775	-1.99
1046.198	2.81
1046.621	-4.89
1047.043	-3.89
1047.466	-3.19
1047.889	-1.09
1048.311	-6.79
1048.734	-8.29
1049.156	-3.49
1049.579	-3.79
1050.001	-4.99
1050.424	-4.29
1050.846	-7.39
1051.269	-2.49
1051.691	-1.69
1052.113	-4.49
1052.536	-3.19
1052.958	-2.49
1053.38	-5.99
1053.802	-11.49
1054.225	-0.39
1054.647	-10.19
1055.069	-4.19
1055.491	0.61
1055.913	-0.29
1056.335	-3.79
1056.757	-5.79
1057.179	-3.89
1057.601	-5.59
1058.023	-6.79
1058.445	-5.49
1058.867	-6.29
1059.289	1.01
1059.711	-8.49
1060.133	-3.09
1060.555	-5.69
1060.976	-4.39
1061.398	-8.39
1061.82	-9.39
1062.241	-9.99
1062.663	-5.39
1063.085	-7.79
1063.506	-7.59
1063.928	-4.99
1064.35	-2.29
1064.771	-14.29
1065.193	-2.69
1065.614	-7.59
1066.035	-7.29
1066.457	-5.09
1066.878	-0.19
1067.3	-0.79
1067.721	-5.09
1068.142	-10.19
1068.564	-4.49
1068.985	-6.89
1069.406	-4.69
1069.827	-7.69
1070.248	-2.69
1070.67	-8.29
1071.091	-8.79
1071.512	-5.39
1071.933	-5.49
1072.354	-12.19
1072.775	-6.59
1073.196	-6.39
1073.617	-6.89
1074.038	-11.19
1074.459	-2.49
1074.88	-6.49
1075.3	-2.69
1075.721	-7.69
1076.142	1.21
1076.563	0.11
1076.983	-9.69
1077.404	-8.69
1077.825	-13.69
1078.246	-4.39
1078.666	-15.89
1079.087	-5.89
1079.507	-4.49
1079.928	2.01
1080.348	-5.79
1080.769	-6.19
1081.189	-1.69
1081.61	0.31
1082.03	-6.29
1082.451	-9.79
1082.871	-0.89
1083.291	-7.59
1083.711	-10.19
1084.132	-5.59
1084.552	-5.19
1084.972	-4.19
1085.392	-10.09
1085.813	-15.19
1086.233	-9.49
1086.653	-9.59
1087.073	-2.59
1087.493	-10.09
1087.913	-8.99
1088.333	-6.59
1088.753	-3.79
1089.173	1.81
1089.593	-2.09
1090.013	-6.89
1090.433	-0.39
1090.852	-2.99
1091.272	-6.79
1091.692	-5.09
1092.112	-7.39
1092.531	-10.19
1092.951	-13.59
1093.371	-5.99
1093.79	-3.39
1094.21	-5.49
1094.63	-0.89
1095.049	-5.69
1095.469	-5.49
1095.888	-2.99
1096.308	-2.59
1096.727	2.51
1097.146	-5.39
1097.566	3.61
1097.985	-6.19
1098.405	-5.89
1098.824	-7.79
1099.243	-5.49
1099.662	-8.89
1100.082	-9.89
1100.501	-4.89
1100.92	-12.59
1101.339	0.11
1101.758	-4.49
