Data from 20171114-ORNL-Ar_H_NY_Subt18_08-06-47-215.txt Node
Date: Tue Nov 14 08:06:47 EST 2017
User: Ender
Spectrometer: HR+D1039
Trigger mode: 0
Integration Time (sec): 2.730000E-2
Scans to average: 10
Electric dark correction enabled: true
Nonlinearity correction enabled: false
Boxcar width: 0
XAxis mode: Wavelengths
Number of Pixels in Spectrum: 2048
>>>>>Begin Spectral Data<<<<<
187.836	-7.54
188.309	-7.54
188.782	-7.54
189.255	2.16
189.728	-0.64
190.201	10.26
190.674	5.16
191.147	3.36
191.619	-11.34
192.092	2.16
192.565	0.56
193.038	-4.14
193.511	0.26
193.984	0.06
194.456	-3.04
194.929	1.96
195.402	-1.94
195.874	2.66
196.347	-3.64
196.82	-9.04
197.292	4.76
197.765	-2.04
198.237	-12.04
198.71	0.46
199.182	0.96
199.655	0.16
200.127	2.96
200.6	-0.84
201.072	1.46
201.544	-3.74
202.017	-9.24
202.489	-1.34
202.961	-6.24
203.433	-4.04
203.906	-5.34
204.378	-10.34
204.85	-8.44
205.322	-16.14
205.794	-3.24
206.266	1.26
206.739	-10.54
207.211	-2.14
207.683	-10.94
208.155	-8.64
208.627	-8.14
209.099	-4.54
209.57	-15.24
210.042	-9.64
210.514	-3.54
210.986	-8.04
211.458	-9.24
211.93	-9.04
212.402	-4.14
212.873	-7.34
213.345	-10.64
213.817	-15.14
214.288	-3.84
214.76	-11.64
215.232	-3.24
215.703	-6.54
216.175	0.36
216.646	-5.24
217.118	-6.84
217.589	-3.14
218.061	-0.84
218.532	-7.84
219.004	-6.24
219.475	-5.94
219.946	-2.74
220.418	-4.84
220.889	-1.24
221.36	-7.54
221.832	-8.04
222.303	-10.04
222.774	-1.64
223.245	-15.54
223.717	-9.24
224.188	-2.04
224.659	-13.04
225.13	-1.34
225.601	-3.44
226.072	2.76
226.543	-4.94
227.014	-0.44
227.485	-8.74
227.956	-3.74
228.427	-0.74
228.898	-5.04
229.369	-4.24
229.839	-2.84
230.31	-9.74
230.781	-4.34
231.252	-5.24
231.722	-4.64
232.193	-4.64
232.664	0.16
233.135	0.06
233.605	-1.64
234.076	-3.44
234.546	-4.54
235.017	4.16
235.487	-3.64
235.958	-5.04
236.428	-2.74
236.899	-1.14
237.369	-3.24
237.84	-7.94
238.31	1.96
238.78	-4.84
239.251	-12.34
239.721	-5.14
240.191	-7.54
240.662	-3.44
241.132	-6.54
241.602	-6.04
242.072	-2.04
242.542	3.46
243.013	-8.54
243.483	-5.54
243.953	-2.04
244.423	-0.84
244.893	-6.44
245.363	2.16
245.833	1.16
246.303	-8.54
246.773	2.66
247.243	-3.14
247.712	-2.74
248.182	-0.74
248.652	2.56
249.122	-8.34
249.592	-0.54
250.061	-0.84
250.531	9.46
251.001	-7.94
251.471	2.46
251.94	-0.04
252.41	-4.04
252.879	-7.04
253.349	2.96
253.818	-1.44
254.288	2.66
254.757	-2.34
255.227	-6.64
255.696	-6.04
256.166	0.86
256.635	4.46
257.105	1.46
257.574	1.96
258.043	-3.24
258.513	-4.44
258.982	5.26
259.451	-2.74
259.92	0.66
260.389	0.86
260.859	9.06
261.328	-0.94
261.797	0.66
262.266	0.06
262.735	12.26
263.204	-2.74
263.673	6.16
264.142	4.06
264.611	-2.64
265.08	-8.44
265.549	1.56
266.018	4.76
266.487	-1.14
266.955	-5.44
267.424	-5.54
267.893	1.66
268.362	1.26
268.83	1.56
269.299	4.96
269.768	-0.14
270.236	0.46
270.705	-1.74
271.174	4.16
271.642	-3.24
272.111	5.46
272.579	4.86
273.048	4.86
273.516	2.86
273.985	10.26
274.453	4.06
274.922	8.86
275.39	3.56
275.858	-5.14
276.327	4.76
276.795	11.36
277.263	1.16
277.731	9.46
278.2	7.66
278.668	7.36
279.136	8.66
279.604	3.66
280.072	-0.64
280.54	11.16
281.008	3.76
281.477	14.76
281.945	10.96
282.413	12.56
282.881	10.86
283.348	1.56
283.816	7.36
284.284	4.76
284.752	17.16
285.22	5.56
285.688	16.16
286.156	7.56
286.623	21.16
287.091	11.16
287.559	11.46
288.026	9.56
288.494	7.56
288.962	6.26
289.429	5.96
289.897	14.06
290.364	7.76
290.832	16.56
291.3	7.76
291.767	13.26
292.234	14.76
292.702	9.86
293.169	12.36
293.637	16.46
294.104	11.86
294.571	3.76
295.039	9.86
295.506	14.16
295.973	9.06
296.44	11.56
296.908	10.86
297.375	13.76
297.842	7.96
298.309	12.76
298.776	7.36
299.243	17.26
299.71	5.06
300.177	18.46
300.644	13.06
301.111	18.06
301.578	17.86
302.045	18.06
302.512	16.96
302.979	22.36
303.446	20.36
303.913	17.16
304.379	9.86
304.846	22.36
305.313	22.56
305.78	23.26
306.246	22.06
306.713	19.96
307.18	14.46
307.646	20.66
308.113	23.86
308.579	17.16
309.046	24.16
309.512	27.26
309.979	19.06
310.445	28.36
310.912	27.66
311.378	29.96
311.845	29.86
312.311	26.76
312.777	29.66
313.244	28.86
313.71	24.06
314.176	28.86
314.642	22.76
315.109	27.46
315.575	28.56
316.041	33.46
316.507	23.76
316.973	33.26
317.439	26.76
317.905	32.96
318.371	26.86
318.837	33.16
319.303	29.76
319.769	33.96
320.235	31.46
320.701	27.56
321.167	32.76
321.633	29.06
322.099	33.46
322.564	29.36
323.03	32.46
323.496	28.76
323.962	35.56
324.427	28.36
324.893	36.36
325.359	36.76
325.824	33.06
326.29	35.16
326.755	35.66
327.221	34.46
327.686	39.16
328.152	42.56
328.617	38.66
329.083	51.36
329.548	48.96
330.014	41.86
330.479	38.86
330.944	39.16
331.41	39.06
331.875	36.96
332.34	39.96
332.805	41.26
333.271	34.86
333.736	35.76
334.201	46.56
334.666	44.36
335.131	49.46
335.596	45.56
336.061	46.36
336.526	37.66
336.991	43.56
337.456	49.76
337.921	47.66
338.386	42.86
338.851	42.26
339.316	42.26
339.781	43.66
340.246	53.46
340.711	40.76
341.175	47.76
341.64	41.06
342.105	53.26
342.569	55.56
343.034	53.76
343.499	51.66
343.963	53.86
344.428	64.86
344.893	61.26
345.357	56.56
345.822	56.36
346.286	64.76
346.751	68.66
347.215	70.46
347.679	77.06
348.144	87.86
348.608	73.06
349.073	69.46
349.537	68.76
350.001	75.96
350.465	79.36
350.93	81.76
351.394	78.16
351.858	69.96
352.322	84.16
352.786	86.36
353.25	95.96
353.715	105.46
354.179	89.26
354.643	114.26
355.107	111.56
355.571	97.86
356.035	93.16
356.498	113.86
356.962	109.56
357.426	113.86
357.89	110.26
358.354	82.16
358.818	79.26
359.281	78.56
359.745	72.66
360.209	81.06
360.673	66.16
361.136	77.76
361.6	78.96
362.064	81.46
362.527	76.76
362.991	91.56
363.454	77.56
363.918	74.86
364.381	79.76
364.845	81.16
365.308	90.46
365.772	85.66
366.235	87.46
366.698	85.06
367.162	85.06
367.625	85.06
368.088	90.26
368.552	83.86
369.015	84.66
369.478	95.86
369.941	95.36
370.404	90.96
370.867	97.16
371.331	100.86
371.794	105.86
372.257	99.56
372.72	102.96
373.183	104.26
373.646	93.56
374.109	90.96
374.572	100.46
375.035	98.56
375.497	102.66
375.96	97.26
376.423	102.16
376.886	109.06
377.349	112.16
377.811	103.26
378.274	102.06
378.737	101.06
379.199	104.96
379.662	111.76
380.125	109.56
380.587	105.26
381.05	104.36
381.512	112.46
381.975	118.66
382.437	122.76
382.9	115.26
383.362	125.56
383.825	132.06
384.287	125.06
384.75	123.26
385.212	121.36
385.674	135.26
386.136	134.66
386.599	122.86
387.061	118.86
387.523	119.96
387.985	130.76
388.447	132.26
388.91	127.16
389.372	130.36
389.834	132.16
390.296	126.86
390.758	135.06
391.22	137.06
391.682	146.86
392.144	154.06
392.606	144.86
393.068	146.66
393.529	158.66
393.991	141.96
394.453	130.46
394.915	134.26
395.377	135.96
395.838	135.26
396.3	143.56
396.762	140.06
397.224	141.66
397.685	131.16
398.147	135.16
398.608	137.06
399.07	139.66
399.531	141.86
399.993	148.56
400.454	161.16
400.916	149.86
401.377	153.96
401.839	153.26
402.3	159.96
402.762	170.16
403.223	180.86
403.684	171.46
404.145	167.36
404.607	166.26
405.068	165.56
405.529	175.16
405.99	183.96
406.451	172.46
406.913	174.36
407.374	171.56
407.835	165.36
408.296	170.46
408.757	183.26
409.218	185.26
409.679	182.66
410.14	180.56
410.601	179.56
411.062	184.76
411.522	184.26
411.983	177.06
412.444	176.06
412.905	198.26
413.366	188.56
413.826	205.66
414.287	232.36
414.748	275.76
415.208	267.56
415.669	223.66
416.13	218.66
416.59	217.56
417.051	227.16
417.511	228.36
417.972	253.96
418.432	260.86
418.893	308.76
419.353	268.96
419.814	211.46
420.274	193.76
420.734	190.06
421.195	206.56
421.655	194.66
422.115	197.66
422.576	199.46
423.036	211.36
423.496	215.26
423.956	222.36
424.416	243.56
424.876	280.76
425.336	281.56
425.797	272.46
426.257	272.16
426.717	249.56
427.177	244.76
427.637	232.16
428.097	246.86
428.556	252.46
429.016	273.36
429.476	272.96
429.936	277.16
430.396	287.36
430.856	307.56
431.315	320.66
431.775	362.26
432.235	389.56
432.694	356.26
433.154	373.26
433.614	404.56
434.073	343.16
434.533	291.06
434.993	275.06
435.452	301.16
435.912	304.16
436.371	305.16
436.83	291.66
437.29	271.86
437.749	260.36
438.209	257.86
438.668	278.26
439.127	299.16
439.587	272.56
440.046	258.36
440.505	282.16
440.964	283.76
441.424	328.96
441.883	326.06
442.342	272.06
442.801	241.26
443.26	240.96
443.719	236.66
444.178	232.96
444.637	228.76
445.096	237.36
445.555	236.16
446.014	238.56
446.473	241.16
446.932	254.56
447.391	245.66
447.849	243.86
448.308	235.26
448.767	247.26
449.226	250.96
449.685	258.06
450.143	261.36
450.602	250.96
451.061	248.76
451.519	247.76
451.978	252.06
452.436	248.36
452.895	254.66
453.353	266.66
453.812	259.86
454.27	248.46
454.729	254.86
455.187	262.26
455.646	266.36
456.104	267.26
456.562	279.86
457.021	290.06
457.479	280.56
457.937	286.26
458.395	285.66
458.854	266.06
459.312	273.26
459.77	300.56
460.228	280.56
460.686	261.26
461.144	275.36
461.602	267.46
462.06	264.16
462.518	274.86
462.976	280.76
463.434	280.16
463.892	279.76
464.35	293.56
464.808	313.96
465.266	280.66
465.724	286.16
466.181	296.06
466.639	291.06
467.097	303.26
467.555	333.96
468.012	323.96
468.47	327.66
468.928	348.56
469.385	368.96
469.843	376.56
470.3	380.36
470.758	390.16
471.215	415.46
471.673	432.06
472.13	432.36
472.588	446.96
473.045	394.46
473.503	401.56
473.96	421.66
474.417	431.26
474.875	464.66
475.332	502.66
475.789	491.46
476.246	500.56
476.704	524.26
477.161	540.26
477.618	549.66
478.075	582.46
478.532	643.96
478.989	718.36
479.446	828.76
479.903	794.86
480.36	819.36
480.817	875.96
481.274	966.56
481.731	1068.76
482.188	1145.36
482.645	1264.66
483.102	1376.56
483.558	1499.76
484.015	1547.06
484.472	1496.06
484.929	1456.46
485.385	1419.06
485.842	1399.36
486.299	1337.06
486.755	1296.96
487.212	1108.46
487.668	944.96
488.125	868.46
488.582	797.26
489.038	781.06
489.494	744.96
489.951	721.46
490.407	701.96
490.864	680.36
491.32	676.56
491.776	671.76
492.233	684.16
492.689	651.06
493.145	640.06
493.602	637.66
494.058	650.36
494.514	649.06
494.97	669.36
495.426	687.76
495.882	660.76
496.338	650.46
496.794	660.26
497.251	656.86
497.707	667.76
498.163	672.16
498.618	680.36
499.074	695.36
499.53	711.76
499.986	713.16
500.442	687.36
500.898	658.76
501.354	665.06
501.809	662.46
502.265	663.46
502.721	677.56
503.177	675.36
503.632	685.96
504.088	691.46
504.543	712.46
504.999	741.66
505.455	699.36
505.91	673.56
506.366	679.46
506.821	670.56
507.277	673.86
507.732	676.56
508.187	677.46
508.643	692.56
509.098	683.96
509.553	695.16
510.009	705.46
510.464	722.66
510.919	728.86
511.375	745.86
511.83	756.76
512.285	784.76
512.74	810.06
513.195	837.36
513.65	817.46
514.105	817.46
514.56	821.76
515.015	844.36
515.47	849.96
515.925	829.06
516.38	823.26
516.835	848.16
517.29	830.86
517.745	830.06
518.2	815.66
518.655	807.06
519.109	789.16
519.564	785.66
520.019	773.56
520.474	777.66
520.928	777.16
521.383	758.26
521.838	748.26
522.292	756.26
522.747	752.86
523.201	751.16
523.656	743.06
524.11	736.56
524.565	736.16
525.019	739.56
525.474	750.56
525.928	737.16
526.382	741.66
526.837	750.26
527.291	745.66
527.745	737.26
528.2	742.36
528.654	732.66
529.108	727.16
529.562	736.66
530.016	730.26
530.47	736.66
530.925	728.86
531.379	730.56
531.833	744.76
532.287	744.26
532.741	746.46
533.195	730.46
533.649	758.66
534.103	766.26
534.556	754.46
535.01	747.66
535.464	749.46
535.918	761.76
536.372	761.56
536.826	765.36
537.279	747.06
537.733	762.26
538.187	759.86
538.64	765.36
539.094	770.66
539.548	773.06
540.001	771.56
540.455	768.36
540.908	770.56
541.362	787.36
541.815	794.16
542.269	800.06
542.722	814.16
543.175	823.66
543.629	811.86
544.082	850.46
544.536	847.76
544.989	827.86
545.442	842.56
545.895	845.46
546.349	841.56
546.802	842.26
547.255	847.86
547.708	859.16
548.161	868.46
548.614	871.16
549.067	887.06
549.52	874.26
549.973	860.76
550.426	852.26
550.879	847.26
551.332	854.96
551.785	861.16
552.238	870.86
552.691	866.06
553.144	883.96
553.596	905.76
554.049	921.26
554.502	952.76
554.955	971.76
555.407	969.36
555.86	950.16
556.313	947.26
556.765	939.36
557.218	933.16
557.67	941.36
558.123	929.26
558.576	926.86
559.028	945.26
559.48	930.76
559.933	925.86
560.385	900.36
560.838	872.16
561.29	839.16
561.742	833.26
562.195	826.96
562.647	822.16
563.099	837.56
563.551	821.86
564.004	829.06
564.456	828.56
564.908	805.66
565.36	787.46
565.812	767.36
566.264	764.96
566.716	756.76
567.168	757.56
567.62	754.86
568.072	734.26
568.524	735.56
568.976	729.06
569.428	715.26
569.88	721.16
570.332	736.16
570.784	728.56
571.235	732.96
571.687	735.26
572.139	741.86
572.59	768.06
573.042	761.66
573.494	746.76
573.945	744.96
574.397	736.26
574.849	731.66
575.3	727.96
575.752	726.26
576.203	717.56
576.655	723.56
577.106	707.56
577.557	706.46
578.009	707.96
578.46	710.46
578.912	705.96
579.363	717.96
579.814	713.36
580.265	710.96
580.717	710.06
581.168	713.16
581.619	724.16
582.07	727.06
582.521	712.16
582.972	711.26
583.423	725.36
583.875	724.56
584.326	722.76
584.777	740.16
585.227	759.16
585.678	775.16
586.129	785.16
586.58	819.76
587.031	834.26
587.482	869.56
587.933	901.26
588.384	879.26
588.834	823.56
589.285	819.96
589.736	810.56
590.186	814.06
590.637	803.66
591.088	787.86
591.538	776.46
591.989	759.66
592.439	754.96
592.89	751.66
593.34	747.66
593.791	747.46
594.241	739.76
594.692	735.26
595.142	732.86
595.593	742.86
596.043	735.76
596.493	737.96
596.943	738.36
597.394	745.36
597.844	749.06
598.294	764.16
598.744	796.66
599.195	822.36
599.645	863.26
600.095	904.96
600.545	959.66
600.995	1011.96
601.445	1078.76
601.895	1144.06
602.345	1196.06
602.795	1174.06
603.245	1124.96
603.695	1075.96
604.145	1014.06
604.594	967.86
605.044	907.76
605.494	848.06
605.944	793.16
606.393	775.26
606.843	762.76
607.293	763.46
607.743	774.36
608.192	772.26
608.642	785.36
609.091	789.26
609.541	802.86
609.99	792.96
610.44	797.56
610.889	754.06
611.339	738.66
611.788	719.26
612.238	721.26
612.687	724.56
613.136	728.36
613.586	734.86
614.035	730.76
614.484	739.56
614.933	740.56
615.383	734.16
615.832	725.96
616.281	735.06
616.73	709.46
617.179	689.56
617.628	669.66
618.077	654.06
618.526	649.66
618.975	638.96
619.424	645.26
619.873	641.06
620.322	656.06
620.771	639.96
621.22	625.16
621.669	622.56
622.118	611.96
622.567	609.86
623.015	606.36
623.464	590.26
623.913	585.76
624.361	572.86
624.81	569.56
625.259	577.66
625.707	580.56
626.156	585.16
626.604	598.46
627.053	589.76
627.501	588.16
627.95	598.96
628.398	604.26
628.847	597.26
629.295	600.86
629.744	595.76
630.192	588.76
630.64	583.26
631.089	574.26
631.537	561.96
631.985	543.86
632.433	548.76
632.881	554.36
633.33	556.36
633.778	553.06
634.226	541.06
634.674	562.96
635.122	570.06
635.57	569.96
636.018	578.56
636.466	589.56
636.914	591.06
637.362	589.76
637.81	599.06
638.258	598.06
638.705	610.36
639.153	638.06
639.601	633.96
640.049	663.16
640.497	699.16
640.944	713.46
641.392	671.66
641.84	642.76
642.287	615.86
642.735	584.26
643.182	582.76
643.63	579.46
644.078	584.36
644.525	587.26
644.973	597.76
645.42	615.86
645.867	641.46
646.315	662.96
646.762	669.46
647.21	701.06
647.657	727.26
648.104	761.06
648.551	772.76
648.999	843.96
649.446	911.96
649.893	995.36
650.34	1139.56
650.787	1351.66
651.234	1667.06
651.682	2147.06
652.129	2920.06
652.576	4119.26
653.023	6006.46
653.47	8153.06
653.917	10157.66
654.363	11697.76
654.81	12914.06
655.257	12242.06
655.704	8090.16
656.151	4883.66
656.598	3213.16
657.044	2304.06
657.491	1792.36
657.938	1448.36
658.385	1216.06
658.831	1054.36
659.278	945.66
659.724	848.46
660.171	800.06
660.618	728.46
661.064	698.76
661.511	680.66
661.957	665.56
662.404	657.56
662.85	667.06
663.296	636.56
663.743	576.16
664.189	560.06
664.635	553.26
665.082	545.86
665.528	536.66
665.974	530.66
666.42	525.06
666.867	525.66
667.313	505.66
667.759	480.26
668.205	469.36
668.651	473.26
669.097	470.36
669.543	461.46
669.989	454.76
670.435	463.96
670.881	463.16
671.327	458.36
671.773	484.46
672.219	510.86
672.665	572.36
673.11	607.06
673.556	659.56
674.002	697.76
674.448	687.36
674.893	567.46
675.339	493.16
675.785	465.86
676.23	436.76
676.676	406.16
677.122	399.26
677.567	385.46
678.013	387.86
678.458	371.46
678.904	379.56
679.349	360.86
679.794	365.76
680.24	365.76
680.685	371.56
681.131	363.26
681.576	364.76
682.021	367.76
682.466	366.36
682.912	368.96
683.357	377.56
683.802	399.56
684.247	431.26
684.692	480.96
685.137	519.26
685.583	558.66
686.028	588.56
686.473	544.36
686.918	469.16
687.363	430.76
687.807	410.46
688.252	381.66
688.697	372.76
689.142	351.06
689.587	343.46
690.032	342.36
690.477	350.86
690.921	363.26
691.366	407.46
691.811	424.96
692.255	455.06
692.7	469.86
693.145	526.26
693.589	737.96
694.034	1177.66
694.478	1606.36
694.923	1829.26
695.367	2372.36
695.812	1261.56
696.256	520.76
696.701	380.06
697.145	353.86
697.59	341.06
698.034	333.56
698.478	334.76
698.922	336.06
699.367	341.26
699.811	352.76
700.255	371.26
700.699	394.06
701.143	437.06
701.588	495.76
702.032	545.36
702.476	534.16
702.92	510.46
703.364	519.66
703.808	670.66
704.252	1086.46
704.696	1527.46
705.14	1767.06
705.584	2259.46
706.027	1124.26
706.471	545.16
706.915	412.56
707.359	372.96
707.803	336.96
708.246	325.86
708.69	327.16
709.134	329.36
709.577	318.66
710.021	323.96
710.465	319.46
710.908	305.96
711.352	310.76
711.795	325.06
712.239	365.46
712.682	403.16
713.126	432.86
713.569	475.86
714.012	366.06
714.456	309.66
714.899	303.76
715.342	287.86
715.786	268.86
716.229	263.96
716.672	264.06
717.115	252.26
717.558	257.96
718.002	260.16
718.445	275.56
718.888	295.46
719.331	303.06
719.774	314.16
720.217	313.26
720.66	296.66
721.103	272.86
721.546	263.66
721.989	248.16
722.432	241.76
722.874	248.26
723.317	237.36
723.76	238.56
724.203	260.16
724.645	323.46
725.088	450.26
725.531	595.96
725.974	669.86
726.416	575.76
726.859	317.76
727.301	251.96
727.744	244.66
728.187	235.76
728.629	248.16
729.071	248.36
729.514	267.36
729.956	281.56
730.399	291.46
730.841	301.06
731.283	289.16
731.726	275.76
732.168	272.06
732.61	284.56
733.053	298.76
733.495	331.06
733.937	365.46
734.379	408.86
734.821	457.86
735.263	562.46
735.705	874.16
736.148	1671.26
736.59	2743.36
737.032	3220.46
737.474	2611.66
737.916	855.86
738.357	447.96
738.799	342.56
739.241	315.66
739.683	291.56
740.125	306.86
740.567	316.36
741.008	327.86
741.45	333.66
741.892	327.16
742.334	365.16
742.775	375.36
743.217	361.96
743.658	281.56
744.1	264.96
744.542	280.26
744.983	331.46
745.425	368.46
745.866	362.86
746.307	288.36
746.749	287.06
747.19	336.46
747.632	483.96
748.073	937.26
748.514	1961.16
748.956	3017.16
749.397	3758.56
749.838	3115.96
750.279	3114.76
750.72	1580.36
751.162	581.46
751.603	334.46
752.044	257.46
752.485	224.96
752.926	215.66
753.367	215.86
753.808	202.06
754.249	196.86
754.69	193.56
755.131	188.76
755.572	182.36
756.013	186.96
756.453	185.76
756.894	191.16
757.335	198.96
757.776	199.96
758.216	203.06
758.657	201.76
759.098	210.86
759.538	237.56
759.979	280.76
760.42	393.76
760.86	747.56
761.301	1927.96
761.741	4683.96
762.182	6782.36
762.622	4790.86
763.063	1384.06
763.503	565.06
763.943	341.76
764.384	290.76
764.824	265.76
765.264	254.36
765.705	214.16
766.145	188.86
766.585	182.66
767.025	182.46
767.465	172.56
767.906	191.96
768.346	201.56
768.786	214.16
769.226	222.96
769.666	324.06
770.106	645.46
770.546	1636.46
770.986	2789.86
771.426	2496.06
771.866	827.46
772.306	340.46
772.745	211.36
773.185	176.06
773.625	173.76
774.065	159.16
774.505	169.86
774.944	212.46
775.384	375.06
775.824	615.86
776.263	604.06
776.703	298.16
777.142	159.66
777.582	139.86
778.021	127.96
778.461	133.46
778.9	127.66
779.34	131.96
779.779	116.36
780.219	118.66
780.658	114.16
781.097	115.86
781.537	113.26
781.976	115.26
782.415	114.06
782.855	109.76
783.294	103.76
783.733	107.06
784.172	107.46
784.611	106.56
785.05	112.06
785.489	109.76
785.928	120.06
786.367	118.26
786.806	118.56
787.245	129.76
787.684	137.86
788.123	144.46
788.562	140.06
789.001	129.06
789.44	126.46
789.879	123.76
790.317	126.76
790.756	133.56
791.195	133.76
791.634	159.96
792.072	209.26
792.511	375.96
792.95	1045.26
793.388	2225.66
793.827	2002.56
794.265	701.86
794.704	286.66
795.142	191.96
795.581	156.56
796.019	142.56
796.458	126.26
796.896	126.06
797.334	137.56
797.773	160.06
798.211	231.86
798.649	459.46
799.087	1065.16
799.526	1685.96
799.964	2128.96
800.402	2120.66
800.84	792.86
801.278	317.56
801.716	198.66
802.154	155.66
802.592	149.06
803.03	146.46
803.468	145.56
803.906	153.16
804.344	150.96
804.782	150.46
805.22	142.06
805.658	138.16
806.096	149.86
806.533	163.26
806.971	181.36
807.409	223.76
807.847	331.16
808.284	701.06
808.722	1980.76
809.16	3483.16
809.597	3304.86
810.035	5708.96
810.472	6077.76
810.91	2192.26
811.347	845.06
811.785	425.36
812.222	269.56
812.66	207.56
813.097	169.96
813.535	147.16
813.972	128.16
814.409	123.56
814.846	115.66
815.284	116.56
815.721	105.96
816.158	110.66
816.595	110.66
817.032	154.06
817.47	187.26
817.907	143.46
818.344	110.56
818.781	99.86
819.218	96.16
819.655	124.86
820.092	199.06
820.529	225.86
820.966	175.96
821.403	133.76
821.839	98.86
822.276	94.46
822.713	117.96
823.15	140.26
823.587	117.16
824.023	155.06
824.46	319.16
824.897	940.16
825.333	1421.26
825.77	615.06
826.206	242.96
826.643	141.66
827.08	103.86
827.516	90.56
827.953	82.96
828.389	84.56
828.825	71.56
829.262	65.36
829.698	64.96
830.135	68.46
830.571	64.76
831.007	61.36
831.443	65.66
831.88	62.36
832.316	58.86
832.752	65.36
833.188	66.46
833.624	65.36
834.06	63.26
834.497	72.66
834.933	74.46
835.369	76.86
835.805	73.46
836.241	71.46
836.677	78.36
837.112	91.36
837.548	109.46
837.984	140.16
838.42	211.46
838.856	526.06
839.292	1581.26
839.727	2420.16
840.163	1136.36
840.599	987.06
841.034	2125.06
841.47	2225.86
841.906	813.86
842.341	341.06
842.777	207.66
843.212	211.56
843.648	200.26
844.083	114.26
844.519	84.56
844.954	74.86
845.39	54.86
845.825	58.76
846.261	64.26
846.696	55.76
847.131	49.96
847.566	56.56
848.002	53.16
848.437	53.76
848.872	62.86
849.307	61.36
849.742	91.26
850.177	185.86
850.613	592.06
851.048	920.56
851.483	394.16
851.918	158.36
852.353	81.86
852.788	58.76
853.223	53.06
853.657	51.06
854.092	41.36
854.527	41.06
854.962	40.16
855.397	47.46
855.832	51.16
856.266	40.16
856.701	42.76
857.136	37.86
857.57	40.56
858.005	50.36
858.44	58.86
858.874	40.06
859.309	54.16
859.743	37.46
860.178	43.06
860.612	38.06
861.047	57.66
861.481	68.86
861.915	73.86
862.35	52.86
862.784	31.06
863.218	38.26
863.653	28.56
864.087	48.06
864.521	52.26
864.955	67.26
865.39	169.66
865.824	178.16
866.258	125.46
866.692	177.96
867.126	188.06
867.56	109.86
867.994	54.36
868.428	39.96
868.862	49.76
869.296	53.36
869.73	59.96
870.164	53.16
870.598	50.26
871.031	36.76
871.465	29.36
871.899	32.06
872.333	22.86
872.766	24.66
873.2	20.46
873.634	25.16
874.067	27.36
874.501	21.16
874.935	36.26
875.368	31.56
875.802	25.96
876.235	23.06
876.669	17.56
877.102	22.06
877.535	28.46
877.969	19.56
878.402	20.76
878.836	16.26
879.269	20.16
879.702	20.96
880.135	12.96
880.569	19.76
881.002	26.96
881.435	21.16
881.868	13.36
882.301	17.86
882.734	17.56
883.167	25.76
883.601	17.66
884.034	16.76
884.467	18.76
884.899	19.26
885.332	16.26
885.765	12.06
886.198	16.66
886.631	21.46
887.064	18.46
887.497	20.06
887.929	24.66
888.362	10.46
888.795	11.86
889.228	20.06
889.66	21.56
890.093	16.76
890.526	15.46
890.958	22.36
891.391	20.86
891.823	23.56
892.256	12.36
892.688	13.36
893.121	20.36
893.553	18.56
893.985	25.66
894.418	15.86
894.85	13.56
895.282	15.26
895.715	15.36
896.147	18.96
896.579	15.76
897.011	14.96
897.444	18.26
897.876	15.16
898.308	16.66
898.74	13.66
899.172	17.86
899.604	24.26
900.036	22.26
900.468	11.46
900.9	15.26
901.332	20.96
901.764	13.76
902.196	17.86
902.628	15.76
903.06	20.36
903.491	29.56
903.923	20.26
904.355	21.76
904.787	22.16
905.218	22.76
905.65	15.86
906.082	13.06
906.513	14.86
906.945	9.36
907.376	14.76
907.808	16.66
908.239	18.86
908.671	16.96
909.102	16.16
909.534	21.56
909.965	47.56
910.397	90.76
910.828	328.96
911.259	490.96
911.691	229.46
912.122	113.26
912.553	50.06
912.984	38.06
913.415	28.06
913.847	25.56
914.278	12.56
914.709	14.66
915.14	20.66
915.571	15.86
916.002	12.46
916.433	21.46
916.864	19.96
917.295	12.76
917.726	17.86
918.157	17.76
918.587	30.46
919.018	23.36
919.449	23.26
919.88	22.36
920.311	32.56
920.741	50.16
921.172	167.96
921.603	153.76
922.033	73.46
922.464	51.56
922.895	19.06
923.325	24.56
923.756	13.96
924.186	4.06
924.617	13.86
925.047	17.26
925.478	17.86
925.908	14.96
926.338	12.36
926.769	5.56
927.199	14.16
927.629	5.56
928.06	11.06
928.49	10.76
928.92	14.46
929.35	9.96
929.78	8.06
930.21	9.06
930.641	3.36
931.071	8.56
931.501	6.26
931.931	11.36
932.361	9.86
932.791	6.96
933.221	4.66
933.651	-3.84
934.08	15.56
934.51	37.46
934.94	6.76
935.37	8.16
935.8	12.26
936.229	3.26
936.659	12.66
937.089	-4.44
937.519	11.46
937.948	24.56
938.378	18.96
938.807	8.46
939.237	2.86
939.666	7.96
940.096	-6.64
940.525	-3.74
940.955	1.96
941.384	5.56
941.814	-8.24
942.243	0.56
942.672	1.86
943.102	-2.94
943.531	0.26
943.96	1.36
944.39	-1.04
944.819	-2.64
945.248	4.06
945.677	-0.04
946.106	10.06
946.535	-0.84
946.964	-7.34
947.393	2.36
947.822	-0.44
948.251	-8.94
948.68	3.36
949.109	7.06
949.538	2.66
949.967	-2.04
950.396	7.56
950.825	-5.94
951.254	3.66
951.682	-9.24
952.111	6.76
952.54	5.86
952.969	-5.54
953.397	-8.64
953.826	-2.94
954.254	-8.54
954.683	-3.44
955.112	-3.84
955.54	-5.44
955.969	2.06
956.397	7.86
956.826	-1.94
957.254	-0.74
957.682	-1.64
958.111	4.16
958.539	-2.74
958.967	2.76
959.396	3.26
959.824	-2.24
960.252	6.76
960.68	-7.44
961.109	-3.14
961.537	-5.34
961.965	0.56
962.393	-0.94
962.821	-4.64
963.249	-4.24
963.677	2.56
964.105	6.56
964.533	42.66
964.961	44.76
965.389	20.86
965.817	5.36
966.245	-2.34
966.672	-3.74
967.1	-14.24
967.528	-2.74
967.956	-8.04
968.383	-5.14
968.811	-8.14
969.239	-4.04
969.666	-4.04
970.094	-7.94
970.522	-3.84
970.949	-1.14
971.377	-0.94
971.804	-0.84
972.232	-4.04
972.659	-0.84
973.087	-8.14
973.514	-1.64
973.941	-7.14
974.369	3.76
974.796	-4.04
975.223	-0.14
975.651	-0.44
976.078	3.66
976.505	-5.74
976.932	-3.94
977.359	9.86
977.786	15.56
978.214	1.96
978.641	-3.54
979.068	-4.24
979.495	-6.34
979.922	-3.34
980.349	-2.84
980.776	2.76
981.202	-0.94
981.629	3.26
982.056	-0.24
982.483	-0.54
982.91	5.06
983.337	-9.44
983.763	2.76
984.19	-7.54
984.617	-8.24
985.043	-9.24
985.47	-4.24
985.897	-4.14
986.323	-3.84
986.75	3.16
987.176	-2.04
987.603	0.06
988.029	-2.84
988.456	-4.14
988.882	3.16
989.308	-8.14
989.735	-2.14
990.161	-4.04
990.587	-8.44
991.014	-4.74
991.44	5.06
991.866	-5.84
992.292	-4.84
992.719	2.46
993.145	3.36
993.571	-7.74
993.997	0.26
994.423	-1.94
994.849	-9.04
995.275	3.66
995.701	-4.24
996.127	-11.74
996.553	0.46
996.979	-10.04
997.405	-4.24
997.83	-7.94
998.256	-8.34
998.682	-8.44
999.108	-6.14
999.534	0.16
999.959	0.66
1000.385	-2.14
1000.811	0.56
1001.236	-6.24
1001.662	-4.74
1002.087	-7.24
1002.513	-1.04
1002.938	1.06
1003.364	-6.04
1003.789	-2.24
1004.215	-2.24
1004.64	-4.24
1005.066	1.76
1005.491	-1.74
1005.916	0.66
1006.342	-3.74
1006.767	-7.34
1007.192	1.16
1007.617	-2.14
1008.042	-5.64
1008.468	-5.94
1008.893	-3.94
1009.318	-12.04
1009.743	-7.14
1010.168	3.26
1010.593	1.86
1011.018	-4.44
1011.443	-2.44
1011.868	-3.04
1012.293	-5.64
1012.718	-8.44
1013.143	-1.24
1013.567	2.76
1013.992	-2.04
1014.417	-9.74
1014.842	-2.44
1015.267	-6.34
1015.691	-0.94
1016.116	2.96
1016.541	-5.04
1016.965	-2.24
1017.39	5.06
1017.814	-5.04
1018.239	-5.84
1018.663	-8.84
1019.088	-8.54
1019.512	-3.74
1019.937	-5.34
1020.361	-6.44
1020.785	-15.54
1021.21	-5.04
1021.634	-0.54
1022.058	-4.14
1022.483	1.66
1022.907	-8.24
1023.331	-4.94
1023.755	-6.44
1024.179	-2.54
1024.604	-14.54
1025.028	-9.24
1025.452	-3.24
1025.876	-2.94
1026.3	0.96
1026.724	-14.84
1027.148	-7.54
1027.572	-10.74
1027.996	-1.24
1028.42	-0.74
1028.843	-7.74
1029.267	-2.84
1029.691	-3.84
1030.115	-4.44
1030.539	-4.54
1030.962	-10.54
1031.386	-8.94
1031.81	-4.14
1032.233	-4.24
1032.657	-9.74
1033.08	-2.04
1033.504	-3.24
1033.927	-5.54
1034.351	-4.84
1034.774	-12.84
1035.198	-4.24
1035.621	-7.84
1036.045	-10.14
1036.468	-1.84
1036.891	-14.54
1037.315	-13.74
1037.738	-8.44
1038.161	-2.24
1038.584	-8.04
1039.008	-12.34
1039.431	-1.64
1039.854	-5.24
1040.277	-7.54
1040.7	-8.94
1041.123	-3.44
1041.546	-14.44
1041.969	-6.64
1042.392	-5.04
1042.815	-1.04
1043.238	-0.44
1043.661	-1.14
1044.084	-6.44
1044.507	-3.14
1044.93	-3.84
1045.352	-8.94
1045.775	-1.34
1046.198	-5.04
1046.621	-5.24
1047.043	-0.24
1047.466	4.76
1047.889	-8.34
1048.311	-4.84
1048.734	-6.14
1049.156	-5.34
1049.579	-4.14
1050.001	-7.34
1050.424	0.46
1050.846	-0.14
1051.269	-9.44
1051.691	-12.24
1052.113	-6.54
1052.536	-0.54
1052.958	-4.94
1053.38	-5.04
1053.802	-6.84
1054.225	0.16
1054.647	-16.84
1055.069	-9.34
1055.491	1.26
1055.913	-15.34
1056.335	-3.74
1056.757	-9.34
1057.179	-7.34
1057.601	-3.44
1058.023	-7.54
1058.445	-6.54
1058.867	-9.04
1059.289	-9.34
1059.711	-8.14
1060.133	-4.74
1060.555	-5.74
1060.976	-5.54
1061.398	-9.94
1061.82	-8.64
1062.241	-12.24
1062.663	-10.34
1063.085	-6.14
1063.506	2.46
1063.928	-4.74
1064.35	-2.54
1064.771	-11.84
1065.193	-10.54
1065.614	-9.44
1066.035	-7.84
1066.457	-9.14
1066.878	-2.74
1067.3	-9.34
1067.721	1.86
1068.142	-3.94
1068.564	-0.54
1068.985	-5.44
1069.406	-5.74
1069.827	-1.84
1070.248	-5.44
1070.67	-10.44
1071.091	-6.54
1071.512	-9.14
1071.933	-9.44
1072.354	-9.64
1072.775	-6.84
1073.196	-4.74
1073.617	-6.84
1074.038	-9.54
1074.459	-3.64
1074.88	-9.14
1075.3	0.36
1075.721	-11.24
1076.142	-3.04
1076.563	-0.94
1076.983	-9.34
1077.404	-8.94
1077.825	-7.44
1078.246	-9.24
1078.666	-12.34
1079.087	-6.84
1079.507	-5.24
1079.928	-1.14
1080.348	-6.54
1080.769	-9.54
1081.189	-9.74
1081.61	-7.34
1082.03	-9.94
1082.451	-9.04
1082.871	-3.44
1083.291	-10.64
1083.711	-13.94
1084.132	-7.94
1084.552	-3.54
1084.972	-2.94
1085.392	-14.14
1085.813	-18.24
1086.233	-10.04
1086.653	-6.64
1087.073	-6.24
1087.493	-10.34
1087.913	-5.94
1088.333	-8.24
1088.753	-8.84
1089.173	-4.44
1089.593	-11.14
1090.013	-2.14
1090.433	-2.94
1090.852	-7.04
1091.272	-1.24
1091.692	-3.34
1092.112	-6.54
1092.531	-9.44
1092.951	-15.74
1093.371	-4.14
1093.79	3.16
1094.21	-7.64
1094.63	-12.74
1095.049	-4.94
1095.469	-0.84
1095.888	-3.84
1096.308	-6.74
1096.727	-2.64
1097.146	-4.84
1097.566	5.86
1097.985	-9.04
1098.405	-4.34
1098.824	-2.84
1099.243	-11.74
1099.662	-11.04
1100.082	-8.84
1100.501	-5.64
1100.92	-4.14
1101.339	-9.04
1101.758	-6.34
