Data from 20171114-ORNL-Ar_H_NY_Subt18_08-05-27-777.txt Node
Date: Tue Nov 14 08:05:27 EST 2017
User: Ender
Spectrometer: HR+D1039
Trigger mode: 0
Integration Time (sec): 2.730000E-2
Scans to average: 10
Electric dark correction enabled: true
Nonlinearity correction enabled: false
Boxcar width: 0
XAxis mode: Wavelengths
Number of Pixels in Spectrum: 2048
>>>>>Begin Spectral Data<<<<<
187.836	-3.89
188.309	-3.89
188.782	-3.89
189.255	0.51
189.728	-4.79
190.201	3.61
190.674	0.81
191.147	4.61
191.619	-7.99
192.092	3.91
192.565	8.81
193.038	0.41
193.511	-0.19
193.984	-1.89
194.456	-1.89
194.929	2.11
195.402	-2.49
195.874	-1.69
196.347	-5.69
196.82	-7.19
197.292	3.01
197.765	-0.49
198.237	-1.79
198.71	2.71
199.182	-4.19
199.655	-2.29
200.127	4.81
200.6	-4.49
201.072	-3.29
201.544	-0.59
202.017	0.51
202.489	0.81
202.961	2.61
203.433	-6.99
203.906	-2.79
204.378	-6.19
204.85	-8.59
205.322	-6.99
205.794	-1.89
206.266	-4.09
206.739	-12.89
207.211	-1.89
207.683	-10.59
208.155	-2.79
208.627	-8.59
209.099	-2.59
209.57	-14.89
210.042	-10.29
210.514	-1.59
210.986	0.61
211.458	-12.49
211.93	-4.49
212.402	3.31
212.873	-8.99
213.345	-9.69
213.817	-11.39
214.288	-5.09
214.76	-9.39
215.232	-5.69
215.703	1.21
216.175	-4.29
216.646	-2.09
217.118	-7.29
217.589	-4.39
218.061	-1.09
218.532	-0.69
219.004	-0.39
219.475	-2.09
219.946	-0.39
220.418	-9.49
220.889	-1.59
221.36	-3.49
221.832	-4.59
222.303	-13.59
222.774	-3.89
223.245	-5.09
223.717	-7.69
224.188	-3.39
224.659	-7.19
225.13	-5.59
225.601	-0.39
226.072	0.01
226.543	-1.19
227.014	-2.09
227.485	-3.99
227.956	-4.59
228.427	-2.69
228.898	-2.29
229.369	6.81
229.839	-1.79
230.31	-7.69
230.781	5.51
231.252	-2.79
231.722	-2.79
232.193	-2.59
232.664	1.31
233.135	-2.59
233.605	-2.49
234.076	-0.79
234.546	-3.29
235.017	9.21
235.487	-3.39
235.958	1.91
236.428	-2.99
236.899	4.81
237.369	3.01
237.84	0.31
238.31	9.81
238.78	5.51
239.251	3.51
239.721	4.71
240.191	6.41
240.662	-1.99
241.132	-1.79
241.602	-2.79
242.072	4.01
242.542	5.61
243.013	-0.39
243.483	0.51
243.953	6.11
244.423	6.21
244.893	-2.19
245.363	6.61
245.833	6.21
246.303	-0.49
246.773	7.51
247.243	7.71
247.712	5.01
248.182	8.41
248.652	10.61
249.122	4.11
249.592	13.21
250.061	21.31
250.531	36.61
251.001	17.91
251.471	27.61
251.94	17.61
252.41	12.31
252.879	4.61
253.349	15.71
253.818	15.41
254.288	5.61
254.757	9.01
255.227	0.11
255.696	7.21
256.166	8.51
256.635	5.41
257.105	9.31
257.574	9.21
258.043	13.11
258.513	10.91
258.982	14.31
259.451	11.41
259.92	18.11
260.389	11.91
260.859	13.51
261.328	11.81
261.797	22.01
262.266	9.31
262.735	10.41
263.204	6.81
263.673	3.51
264.142	8.41
264.611	-3.49
265.08	-1.09
265.549	-0.89
266.018	12.41
266.487	2.91
266.955	-3.09
267.424	3.11
267.893	2.91
268.362	7.81
268.83	2.31
269.299	7.71
269.768	4.31
270.236	5.31
270.705	6.81
271.174	7.71
271.642	10.31
272.111	13.51
272.579	20.11
273.048	23.11
273.516	30.41
273.985	34.01
274.453	27.21
274.922	20.61
275.39	16.21
275.858	6.81
276.327	15.21
276.795	15.81
277.263	10.71
277.731	38.61
278.2	59.21
278.668	63.21
279.136	52.01
279.604	21.01
280.072	26.31
280.54	11.11
281.008	14.31
281.477	18.21
281.945	18.71
282.413	16.51
282.881	16.61
283.348	12.11
283.816	17.91
284.284	14.21
284.752	22.31
285.22	13.11
285.688	10.61
286.156	16.71
286.623	47.21
287.091	51.51
287.559	26.51
288.026	22.21
288.494	19.21
288.962	10.11
289.429	16.01
289.897	21.81
290.364	20.21
290.832	20.41
291.3	16.41
291.767	20.41
292.234	21.01
292.702	15.11
293.169	21.11
293.637	25.61
294.104	21.51
294.571	14.21
295.039	14.91
295.506	18.41
295.973	20.31
296.44	20.61
296.908	23.11
297.375	21.71
297.842	23.51
298.309	15.21
298.776	12.31
299.243	18.11
299.71	19.61
300.177	16.81
300.644	23.51
301.111	26.11
301.578	23.11
302.045	21.71
302.512	23.01
302.979	29.51
303.446	29.61
303.913	21.41
304.379	19.51
304.846	28.91
305.313	31.81
305.78	21.31
306.246	25.01
306.713	28.21
307.18	29.01
307.646	32.51
308.113	33.41
308.579	23.71
309.046	23.01
309.512	28.01
309.979	16.81
310.445	28.71
310.912	28.81
311.378	39.51
311.845	27.81
312.311	33.91
312.777	37.61
313.244	38.01
313.71	39.41
314.176	28.11
314.642	32.91
315.109	37.21
315.575	42.11
316.041	38.61
316.507	31.71
316.973	37.61
317.439	31.81
317.905	35.81
318.371	33.21
318.837	37.81
319.303	35.71
319.769	34.81
320.235	33.81
320.701	39.41
321.167	40.31
321.633	36.91
322.099	47.01
322.564	45.41
323.03	42.61
323.496	41.11
323.962	43.51
324.427	35.21
324.893	45.31
325.359	36.81
325.824	38.91
326.29	40.11
326.755	35.41
327.221	41.41
327.686	42.21
328.152	50.71
328.617	44.81
329.083	47.11
329.548	45.91
330.014	46.21
330.479	43.11
330.944	44.41
331.41	43.11
331.875	51.41
332.34	48.71
332.805	43.71
333.271	49.81
333.736	41.01
334.201	53.81
334.666	56.81
335.131	58.51
335.596	58.11
336.061	49.51
336.526	51.81
336.991	53.11
337.456	56.61
337.921	53.21
338.386	41.81
338.851	43.21
339.316	44.41
339.781	51.41
340.246	55.31
340.711	50.31
341.175	50.51
341.64	45.91
342.105	56.41
342.569	57.81
343.034	62.31
343.499	62.51
343.963	59.41
344.428	68.51
344.893	62.51
345.357	58.81
345.822	65.21
346.286	71.21
346.751	77.71
347.215	71.91
347.679	79.11
348.144	100.11
348.608	89.71
349.073	69.61
349.537	76.81
350.001	76.61
350.465	92.41
350.93	84.91
351.394	83.71
351.858	74.31
352.322	87.01
352.786	80.31
353.25	106.71
353.715	114.61
354.179	103.01
354.643	123.21
355.107	128.11
355.571	115.21
356.035	108.01
356.498	123.51
356.962	131.01
357.426	135.31
357.89	116.91
358.354	90.91
358.818	85.21
359.281	82.51
359.745	76.91
360.209	78.71
360.673	77.21
361.136	79.21
361.6	87.21
362.064	90.01
362.527	89.31
362.991	93.51
363.454	79.81
363.918	78.81
364.381	83.51
364.845	71.11
365.308	88.21
365.772	87.81
366.235	88.01
366.698	84.41
367.162	87.61
367.625	93.41
368.088	87.61
368.552	93.91
369.015	88.61
369.478	90.41
369.941	101.61
370.404	96.31
370.867	111.01
371.331	107.01
371.794	116.41
372.257	104.01
372.72	116.71
373.183	114.41
373.646	107.81
374.109	103.31
374.572	108.81
375.035	113.61
375.497	106.51
375.96	110.11
376.423	107.81
376.886	113.01
377.349	109.11
377.811	104.91
378.274	103.01
378.737	109.61
379.199	113.61
379.662	111.71
380.125	116.31
380.587	115.21
381.05	119.41
381.512	127.41
381.975	134.81
382.437	131.71
382.9	127.21
383.362	138.91
383.825	140.31
384.287	141.41
384.75	138.31
385.212	149.61
385.674	142.31
386.136	137.71
386.599	120.31
387.061	127.91
387.523	123.21
387.985	128.21
388.447	147.11
388.91	149.31
389.372	158.61
389.834	149.91
390.296	144.11
390.758	153.81
391.22	165.01
391.682	209.81
392.144	295.31
392.606	230.11
393.068	161.81
393.529	174.41
393.991	156.11
394.453	146.61
394.915	152.81
395.377	187.81
395.838	211.91
396.3	155.51
396.762	140.81
397.224	132.01
397.685	138.41
398.147	137.61
398.608	132.91
399.07	130.01
399.531	132.61
399.993	140.01
400.454	149.61
400.916	141.51
401.377	143.81
401.839	153.61
402.3	150.91
402.762	166.71
403.223	183.01
403.684	179.21
404.145	165.31
404.607	164.31
405.068	168.31
405.529	167.91
405.99	179.81
406.451	180.11
406.913	180.51
407.374	159.81
407.835	163.31
408.296	169.01
408.757	164.81
409.218	178.61
409.679	184.01
410.14	180.71
410.601	173.11
411.062	185.61
411.522	194.21
411.983	181.71
412.444	180.51
412.905	174.21
413.366	186.01
413.826	195.51
414.287	217.31
414.748	269.81
415.208	249.51
415.669	212.31
416.13	206.51
416.59	197.81
417.051	218.31
417.511	216.71
417.972	234.61
418.432	246.41
418.893	286.41
419.353	251.01
419.814	197.21
420.274	180.61
420.734	179.11
421.195	198.11
421.655	194.51
422.115	193.51
422.576	192.41
423.036	194.41
423.496	207.61
423.956	217.91
424.416	227.01
424.876	270.61
425.336	258.31
425.797	257.11
426.257	243.41
426.717	237.91
427.177	232.21
427.637	218.91
428.097	227.51
428.556	247.71
429.016	260.81
429.476	269.31
429.936	273.01
430.396	279.21
430.856	292.31
431.315	314.71
431.775	347.01
432.235	382.11
432.694	347.21
433.154	357.71
433.614	397.01
434.073	340.51
434.533	286.81
434.993	273.41
435.452	280.01
435.912	293.81
436.371	284.61
436.83	282.11
437.29	270.61
437.749	248.51
438.209	245.61
438.668	273.81
439.127	287.71
439.587	265.11
440.046	252.71
440.505	253.41
440.964	285.81
441.424	318.61
441.883	318.81
442.342	262.51
442.801	220.31
443.26	217.01
443.719	222.31
444.178	224.31
444.637	211.51
445.096	222.51
445.555	218.91
446.014	215.51
446.473	224.11
446.932	230.51
447.391	219.21
447.849	219.71
448.308	216.11
448.767	220.11
449.226	238.61
449.685	236.01
450.143	244.91
450.602	229.31
451.061	232.81
451.519	228.21
451.978	235.81
452.436	244.41
452.895	240.91
453.353	255.71
453.812	241.01
454.27	237.71
454.729	238.01
455.187	243.21
455.646	245.31
456.104	253.61
456.562	261.21
457.021	271.51
457.479	256.01
457.937	270.61
458.395	260.71
458.854	244.11
459.312	264.91
459.77	274.11
460.228	255.01
460.686	243.71
461.144	251.51
461.602	248.21
462.06	244.51
462.518	252.71
462.976	256.51
463.434	259.21
463.892	263.71
464.35	280.71
464.808	289.61
465.266	264.61
465.724	268.21
466.181	268.41
466.639	274.91
467.097	291.81
467.555	298.91
468.012	300.51
468.47	310.31
468.928	332.11
469.385	335.71
469.843	346.11
470.3	353.41
470.758	362.61
471.215	386.41
471.673	409.91
472.13	402.51
472.588	413.81
473.045	371.11
473.503	375.11
473.96	392.61
474.417	405.41
474.875	439.11
475.332	476.81
475.789	456.81
476.246	465.31
476.704	488.11
477.161	513.81
477.618	520.81
478.075	559.51
478.532	616.61
478.989	698.01
479.446	807.21
479.903	768.91
480.36	797.91
480.817	871.01
481.274	965.71
481.731	1075.01
482.188	1173.71
482.645	1302.31
483.102	1411.41
483.558	1542.71
484.015	1593.41
484.472	1576.01
484.929	1533.81
485.385	1482.31
485.842	1434.61
486.299	1375.41
486.755	1309.91
487.212	1096.71
487.668	920.81
488.125	852.51
488.582	782.41
489.038	760.41
489.494	724.31
489.951	701.01
490.407	669.81
490.864	656.71
491.32	640.51
491.776	646.41
492.233	648.71
492.689	605.11
493.145	602.11
493.602	597.21
494.058	602.41
494.514	618.01
494.97	637.21
495.426	646.91
495.882	623.11
496.338	620.21
496.794	627.61
497.251	618.91
497.707	640.21
498.163	644.81
498.618	648.01
499.074	643.41
499.53	673.71
499.986	681.01
500.442	661.71
500.898	636.01
501.354	634.81
501.809	634.41
502.265	651.11
502.721	652.01
503.177	672.31
503.632	672.21
504.088	677.01
504.543	708.61
504.999	707.41
505.455	661.31
505.91	632.41
506.366	632.31
506.821	630.11
507.277	626.51
507.732	625.41
508.187	628.31
508.643	625.81
509.098	633.11
509.553	654.51
510.009	671.01
510.464	670.21
510.919	683.51
511.375	695.21
511.83	713.11
512.285	721.31
512.74	762.61
513.195	789.01
513.65	779.21
514.105	760.41
514.56	773.01
515.015	806.11
515.47	813.61
515.925	790.61
516.38	790.41
516.835	792.81
517.29	777.01
517.745	779.21
518.2	766.11
518.655	750.81
519.109	740.71
519.564	749.61
520.019	733.91
520.474	731.11
520.928	728.31
521.383	724.71
521.838	714.91
522.292	711.01
522.747	718.11
523.201	701.11
523.656	692.91
524.11	698.81
524.565	687.61
525.019	688.21
525.474	695.91
525.928	703.61
526.382	697.31
526.837	689.31
527.291	708.91
527.745	700.81
528.2	704.01
528.654	696.51
529.108	687.81
529.562	685.91
530.016	678.91
530.47	684.71
530.925	690.81
531.379	704.31
531.833	707.21
532.287	707.61
532.741	707.31
533.195	704.51
533.649	713.61
534.103	724.91
534.556	712.61
535.01	719.91
535.464	706.11
535.918	725.31
536.372	717.11
536.826	711.21
537.279	714.01
537.733	703.91
538.187	716.81
538.64	720.21
539.094	732.11
539.548	724.71
540.001	728.71
540.455	722.31
540.908	731.51
541.362	732.91
541.815	746.81
542.269	766.61
542.722	751.91
543.175	764.31
543.629	774.31
544.082	781.91
544.536	775.91
544.989	777.31
545.442	793.11
545.895	788.71
546.349	797.51
546.802	792.11
547.255	791.91
547.708	785.21
548.161	817.41
548.614	815.41
549.067	834.01
549.52	804.91
549.973	805.51
550.426	808.01
550.879	783.31
551.332	786.71
551.785	797.21
552.238	800.71
552.691	823.81
553.144	835.51
553.596	847.21
554.049	866.31
554.502	891.01
554.955	912.21
555.407	907.41
555.86	903.91
556.313	889.91
556.765	879.21
557.218	877.31
557.67	877.11
558.123	864.41
558.576	862.31
559.028	887.61
559.48	874.71
559.933	864.71
560.385	841.11
560.838	808.91
561.29	779.31
561.742	766.91
562.195	766.41
562.647	766.91
563.099	761.01
563.551	775.11
564.004	771.91
564.456	760.31
564.908	756.21
565.36	745.31
565.812	729.81
566.264	726.71
566.716	718.81
567.168	706.11
567.62	710.91
568.072	689.81
568.524	690.31
568.976	679.21
569.428	673.91
569.88	664.71
570.332	667.31
570.784	682.11
571.235	683.91
571.687	688.11
572.139	693.71
572.59	708.91
573.042	700.31
573.494	700.61
573.945	703.41
574.397	682.81
574.849	695.01
575.3	677.11
575.752	677.51
576.203	668.01
576.655	674.61
577.106	661.31
577.557	663.01
578.009	657.91
578.46	659.71
578.912	656.71
579.363	648.61
579.814	668.41
580.265	653.21
580.717	666.81
581.168	665.51
581.619	670.11
582.07	672.41
582.521	661.51
582.972	657.61
583.423	677.31
583.875	673.11
584.326	683.91
584.777	730.41
585.227	814.61
585.678	896.01
586.129	976.71
586.58	1059.61
587.031	1145.51
587.482	1293.91
587.933	1489.11
588.384	1282.31
588.834	958.31
589.285	784.81
589.736	763.71
590.186	765.41
590.637	758.71
591.088	721.81
591.538	729.91
591.989	725.11
592.439	708.51
592.89	708.31
593.34	714.51
593.791	696.61
594.241	691.81
594.692	694.51
595.142	685.61
595.593	685.61
596.043	686.61
596.493	699.91
596.943	702.51
597.394	707.41
597.844	699.71
598.294	717.71
598.744	732.61
599.195	757.31
599.645	797.01
600.095	841.41
600.545	901.91
600.995	940.51
601.445	997.91
601.895	1067.01
602.345	1101.01
602.795	1083.01
603.245	1048.11
603.695	980.31
604.145	935.01
604.594	893.91
605.044	839.31
605.494	785.21
605.944	739.41
606.393	724.01
606.843	713.61
607.293	713.51
607.743	716.21
608.192	734.01
608.642	743.61
609.091	755.91
609.541	760.81
609.99	756.21
610.44	749.61
610.889	703.81
611.339	670.51
611.788	662.01
612.238	684.11
612.687	699.71
613.136	690.61
613.586	718.31
614.035	722.51
614.484	738.71
614.933	739.31
615.383	739.81
615.832	726.91
616.281	708.91
616.73	668.81
617.179	653.81
617.628	638.21
618.077	618.71
618.526	612.31
618.975	608.01
619.424	593.31
619.873	603.71
620.322	601.61
620.771	595.61
621.22	589.01
621.669	574.81
622.118	575.01
622.567	564.71
623.015	555.11
623.464	555.21
623.913	543.61
624.361	541.21
624.81	540.01
625.259	536.01
625.707	536.21
626.156	537.81
626.604	552.41
627.053	541.31
627.501	550.11
627.95	548.41
628.398	560.11
628.847	552.01
629.295	545.91
629.744	543.11
630.192	545.91
630.64	554.91
631.089	547.51
631.537	558.01
631.985	562.61
632.433	578.01
632.881	584.31
633.33	625.31
633.778	618.61
634.226	556.51
634.674	562.41
635.122	567.41
635.57	574.31
636.018	609.61
636.466	566.31
636.914	539.31
637.362	550.81
637.81	558.41
638.258	558.31
638.705	559.11
639.153	584.41
639.601	585.01
640.049	620.01
640.497	644.91
640.944	669.01
641.392	615.61
641.84	586.61
642.287	562.31
642.735	543.21
643.182	552.21
643.63	556.01
644.078	561.71
644.525	566.91
644.973	583.01
645.42	585.21
645.867	599.71
646.315	620.61
646.762	640.31
647.21	666.01
647.657	688.31
648.104	725.11
648.551	744.31
648.999	803.41
649.446	873.61
649.893	969.21
650.34	1120.71
650.787	1343.61
651.234	1645.11
651.682	2148.31
652.129	2947.81
652.576	4224.01
653.023	6261.41
653.47	8604.51
653.917	10799.31
654.363	12558.41
654.81	13962.11
655.257	13296.41
655.704	8662.21
656.151	5131.61
656.598	3298.11
657.044	2361.11
657.491	1796.81
657.938	1447.31
658.385	1213.51
658.831	1040.51
659.278	937.71
659.724	819.21
660.171	766.11
660.618	701.61
661.064	664.61
661.511	639.91
661.957	623.01
662.404	621.81
662.85	624.31
663.296	605.61
663.743	530.91
664.189	515.61
664.635	501.31
665.082	510.41
665.528	503.01
665.974	493.11
666.42	485.61
666.867	491.21
667.313	471.31
667.759	464.51
668.205	457.71
668.651	468.11
669.097	462.01
669.543	479.41
669.989	457.51
670.435	433.01
670.881	430.31
671.327	428.51
671.773	451.81
672.219	471.81
672.665	516.61
673.11	559.51
673.556	600.51
674.002	637.91
674.448	632.21
674.893	516.31
675.339	464.21
675.785	431.11
676.23	398.01
676.676	370.41
677.122	363.31
677.567	353.61
678.013	356.21
678.458	345.31
678.904	345.31
679.349	333.71
679.794	338.71
680.24	328.21
680.685	337.21
681.131	332.91
681.576	329.21
682.021	340.51
682.466	334.51
682.912	332.91
683.357	332.31
683.802	359.11
684.247	392.51
684.692	431.01
685.137	468.91
685.583	511.21
686.028	533.51
686.473	489.01
686.918	422.21
687.363	402.71
687.807	371.31
688.252	346.41
688.697	339.41
689.142	324.61
689.587	312.41
690.032	312.61
690.477	330.21
690.921	330.01
691.366	348.81
691.811	385.71
692.255	405.61
692.7	439.71
693.145	470.61
693.589	643.71
694.034	1048.21
694.478	1437.61
694.923	1641.51
695.367	2172.01
695.812	1144.31
696.256	468.21
696.701	355.31
697.145	329.41
697.59	316.51
698.034	302.41
698.478	313.41
698.922	306.21
699.367	311.81
699.811	328.41
700.255	339.01
700.699	364.01
701.143	400.21
701.588	452.61
702.032	490.21
702.476	479.31
702.92	461.81
703.364	454.01
703.808	590.21
704.252	964.61
704.696	1352.51
705.14	1591.11
705.584	2051.71
706.027	1012.81
706.471	495.21
706.915	376.01
707.359	329.01
707.803	307.01
708.246	293.81
708.69	297.31
709.134	296.51
709.577	297.71
710.021	302.21
710.465	294.91
710.908	285.91
711.352	280.91
711.795	297.41
712.239	326.71
712.682	360.51
713.126	394.51
713.569	442.71
714.012	355.41
714.456	302.81
714.899	282.01
715.342	266.21
715.786	250.31
716.229	241.51
716.672	242.91
717.115	233.91
717.558	237.01
718.002	241.51
718.445	246.01
718.888	274.91
719.331	275.81
719.774	295.51
720.217	290.31
720.66	275.91
721.103	251.31
721.546	240.21
721.989	236.81
722.432	218.81
722.874	231.21
723.317	216.31
723.76	223.81
724.203	237.71
724.645	302.11
725.088	428.21
725.531	538.81
725.974	607.51
726.416	514.91
726.859	286.81
727.301	233.61
727.744	221.41
728.187	219.11
728.629	229.81
729.071	229.61
729.514	244.51
729.956	258.61
730.399	263.91
730.841	268.71
731.283	252.71
731.726	249.51
732.168	246.41
732.61	250.51
733.053	263.11
733.495	297.31
733.937	330.41
734.379	374.81
734.821	416.21
735.263	499.71
735.705	770.91
736.148	1467.61
736.59	2396.31
737.032	2911.41
737.474	2387.71
737.916	762.51
738.357	408.61
738.799	312.01
739.241	281.41
739.683	268.41
740.125	274.51
740.567	282.01
741.008	299.51
741.45	296.21
741.892	308.01
742.334	331.61
742.775	340.41
743.217	324.11
743.658	262.01
744.1	231.71
744.542	249.71
744.983	288.71
745.425	324.51
745.866	325.61
746.307	266.11
746.749	265.81
747.19	306.61
747.632	422.41
748.073	800.01
748.514	1720.71
748.956	2671.81
749.397	3371.41
749.838	2787.81
750.279	2818.31
750.72	1430.31
751.162	514.81
751.603	295.81
752.044	240.31
752.485	201.41
752.926	195.71
753.367	190.91
753.808	184.11
754.249	181.91
754.69	179.81
755.131	171.61
755.572	169.21
756.013	172.21
756.453	178.21
756.894	174.81
757.335	178.61
757.776	179.81
758.216	187.71
758.657	187.81
759.098	192.01
759.538	222.51
759.979	246.41
760.42	352.81
760.86	634.21
761.301	1658.91
761.741	4096.41
762.182	6117.11
762.622	4327.71
763.063	1238.31
763.503	507.81
763.943	331.01
764.384	320.71
764.824	390.31
765.264	421.01
765.705	291.41
766.145	195.61
766.585	174.91
767.025	171.61
767.465	178.91
767.906	225.61
768.346	312.11
768.786	330.71
769.226	246.51
769.666	292.01
770.106	566.21
770.546	1435.31
770.986	2494.31
771.426	2261.31
771.866	741.21
772.306	305.11
772.745	193.01
773.185	168.91
773.625	162.51
774.065	155.71
774.505	184.81
774.944	281.71
775.384	620.41
775.824	1140.11
776.263	1123.41
776.703	476.31
777.142	200.91
777.582	146.31
778.021	131.11
778.461	128.11
778.9	131.71
779.34	125.61
779.779	109.21
780.219	103.81
780.658	99.91
781.097	101.71
781.537	105.01
781.976	104.41
782.415	99.51
782.855	103.01
783.294	93.81
783.733	101.11
784.172	108.71
784.611	91.71
785.05	101.61
785.489	104.11
785.928	110.21
786.367	110.81
786.806	110.41
787.245	124.71
787.684	124.11
788.123	142.21
788.562	126.41
789.001	123.01
789.44	111.11
789.879	110.71
790.317	108.31
790.756	121.71
791.195	116.81
791.634	136.11
792.072	192.81
792.511	337.71
792.95	916.71
793.388	1996.51
793.827	1833.21
794.265	634.91
794.704	259.91
795.142	171.11
795.581	146.71
796.019	128.01
796.458	115.21
796.896	123.61
797.334	123.61
797.773	144.61
798.211	200.21
798.649	402.41
799.087	942.01
799.526	1493.81
799.964	1873.61
800.402	1919.91
800.84	717.01
801.278	278.01
801.716	171.91
802.154	145.21
802.592	144.71
803.03	130.71
803.468	130.51
803.906	138.91
804.344	134.01
804.782	128.91
805.22	125.41
805.658	122.81
806.096	132.71
806.533	149.61
806.971	160.61
807.409	205.51
807.847	288.81
808.284	604.41
808.722	1717.71
809.16	3105.41
809.597	2883.71
810.035	5054.41
810.472	5522.21
810.91	1979.81
811.347	740.41
811.785	379.91
812.222	238.21
812.66	188.41
813.097	159.31
813.535	138.61
813.972	122.91
814.409	116.61
814.846	98.21
815.284	101.81
815.721	99.81
816.158	104.31
816.595	117.61
817.032	168.21
817.47	193.81
817.907	163.71
818.344	146.31
818.781	113.41
819.218	90.91
819.655	116.01
820.092	178.01
820.529	210.01
820.966	169.01
821.403	128.01
821.839	100.51
822.276	95.71
822.713	117.11
823.15	125.11
823.587	108.71
824.023	143.11
824.46	269.61
824.897	817.81
825.333	1293.01
825.77	544.81
826.206	211.01
826.643	118.51
827.08	93.81
827.516	79.01
827.953	70.51
828.389	76.21
828.825	67.01
829.262	62.21
829.698	56.61
830.135	64.81
830.571	59.01
831.007	53.61
831.443	62.61
831.88	56.51
832.316	61.61
832.752	60.41
833.188	63.81
833.624	52.91
834.06	62.91
834.497	64.01
834.933	70.41
835.369	67.91
835.805	65.11
836.241	75.81
836.677	70.51
837.112	86.31
837.548	95.31
837.984	124.01
838.42	176.51
838.856	444.81
839.292	1381.41
839.727	2209.41
840.163	1024.81
840.599	845.81
841.034	1891.31
841.47	2026.41
841.906	735.81
842.341	308.91
842.777	209.21
843.212	296.31
843.648	301.91
844.083	142.91
844.519	93.01
844.954	69.21
845.39	50.91
845.825	49.51
846.261	50.61
846.696	50.71
847.131	47.31
847.566	49.41
848.002	52.01
848.437	48.01
848.872	58.41
849.307	59.41
849.742	84.11
850.177	166.11
850.613	509.21
851.048	830.91
851.483	357.71
851.918	140.11
852.353	80.91
852.788	58.21
853.223	57.51
853.657	53.61
854.092	39.51
854.527	41.71
854.962	31.81
855.397	41.61
855.832	41.01
856.266	36.61
856.701	40.71
857.136	38.21
857.57	40.11
858.005	46.21
858.44	55.71
858.874	40.71
859.309	52.51
859.743	41.91
860.178	40.41
860.612	39.61
861.047	47.51
861.481	66.31
861.915	65.91
862.35	56.11
862.784	27.31
863.218	33.31
863.653	30.31
864.087	40.21
864.521	53.81
864.955	68.51
865.39	145.01
865.824	169.01
866.258	111.21
866.692	150.31
867.126	167.01
867.56	94.71
867.994	49.71
868.428	34.61
868.862	39.51
869.296	53.01
869.73	52.71
870.164	47.31
870.598	44.81
871.031	40.41
871.465	24.21
871.899	30.01
872.333	23.01
872.766	25.81
873.2	19.81
873.634	28.91
874.067	27.61
874.501	25.31
874.935	30.91
875.368	28.11
875.802	27.31
876.235	27.71
876.669	21.11
877.102	24.61
877.535	26.61
877.969	20.41
878.402	25.01
878.836	20.91
879.269	21.41
879.702	21.21
880.135	26.41
880.569	20.81
881.002	25.01
881.435	20.21
881.868	20.71
882.301	22.81
882.734	17.91
883.167	19.81
883.601	17.11
884.034	20.11
884.467	21.11
884.899	18.41
885.332	15.61
885.765	21.31
886.198	14.01
886.631	19.81
887.064	18.01
887.497	17.81
887.929	21.21
888.362	16.81
888.795	12.81
889.228	21.11
889.66	20.41
890.093	16.01
890.526	21.71
890.958	17.81
891.391	20.51
891.823	23.01
892.256	14.21
892.688	9.01
893.121	11.71
893.553	11.61
893.985	20.31
894.418	18.21
894.85	10.21
895.282	18.01
895.715	14.71
896.147	11.31
896.579	17.91
897.011	7.61
897.444	19.01
897.876	14.91
898.308	15.01
898.74	11.11
899.172	15.61
899.604	23.61
900.036	22.21
900.468	15.51
900.9	16.31
901.332	23.31
901.764	11.61
902.196	13.21
902.628	14.91
903.06	18.81
903.491	23.91
903.923	25.81
904.355	21.41
904.787	21.51
905.218	25.61
905.65	21.81
906.082	13.21
906.513	9.61
906.945	14.91
907.376	15.71
907.808	21.01
908.239	18.51
908.671	20.01
909.102	20.01
909.534	24.41
909.965	40.71
910.397	86.01
910.828	294.41
911.259	452.61
911.691	203.21
912.122	96.31
912.553	46.81
912.984	32.41
913.415	30.51
913.847	21.11
914.278	12.21
914.709	17.21
915.14	16.11
915.571	14.51
916.002	8.71
916.433	16.31
916.864	19.01
917.295	17.11
917.726	18.31
918.157	21.11
918.587	30.71
919.018	17.71
919.449	19.41
919.88	19.51
920.311	32.11
920.741	50.51
921.172	162.91
921.603	142.51
922.033	66.61
922.464	45.11
922.895	24.81
923.325	20.71
923.756	15.91
924.186	16.51
924.617	25.61
925.047	41.91
925.478	54.11
925.908	39.31
926.338	24.71
926.769	18.51
927.199	22.41
927.629	11.81
928.06	11.01
928.49	10.71
928.92	9.91
929.35	9.91
929.78	7.61
930.21	5.31
930.641	10.51
931.071	4.31
931.501	4.01
931.931	15.71
932.361	4.11
932.791	0.61
933.221	6.51
933.651	1.91
934.08	18.81
934.51	27.01
934.94	10.31
935.37	8.91
935.8	11.71
936.229	4.21
936.659	9.01
937.089	4.01
937.519	15.31
937.948	27.51
938.378	15.21
938.807	0.81
939.237	0.91
939.666	12.01
940.096	-5.69
940.525	-1.19
940.955	7.41
941.384	6.41
941.814	-3.89
942.243	-5.99
942.672	5.61
943.102	-3.59
943.531	7.01
943.96	9.51
944.39	-0.79
944.819	1.61
945.248	3.21
945.677	5.11
946.106	6.61
946.535	3.01
946.964	-0.29
947.393	2.41
947.822	-1.59
948.251	-3.79
948.68	-2.89
949.109	6.31
949.538	11.81
949.967	3.41
950.396	2.81
950.825	-1.19
951.254	-1.59
951.682	-4.99
952.111	6.61
952.54	6.71
952.969	0.61
953.397	-5.29
953.826	-2.79
954.254	-5.89
954.683	2.61
955.112	-3.09
955.54	4.11
955.969	0.81
956.397	5.21
956.826	1.41
957.254	6.21
957.682	0.41
958.111	7.81
958.539	-1.09
958.967	7.81
959.396	-2.19
959.824	3.51
960.252	1.41
960.68	-7.69
961.109	4.81
961.537	-2.89
961.965	1.01
962.393	2.21
962.821	-2.69
963.249	2.81
963.677	8.81
964.105	4.81
964.533	42.21
964.961	37.21
965.389	16.91
965.817	9.01
966.245	-1.09
966.672	-1.69
967.1	-9.79
967.528	-0.49
967.956	-2.69
968.383	0.21
968.811	2.41
969.239	-0.49
969.666	-0.79
970.094	2.81
970.522	2.31
970.949	0.21
971.377	-0.09
971.804	-4.29
972.232	-8.79
972.659	-3.99
973.087	-4.09
973.514	-2.09
973.941	-0.09
974.369	6.21
974.796	3.21
975.223	0.11
975.651	0.71
976.078	3.51
976.505	2.31
976.932	8.31
977.359	20.41
977.786	16.01
978.214	1.91
978.641	-3.59
979.068	-2.29
979.495	-6.19
979.922	-3.39
980.349	-3.99
980.776	5.81
981.202	3.01
981.629	0.31
982.056	4.41
982.483	-7.09
982.91	2.21
983.337	-9.79
983.763	1.81
984.19	-6.29
984.617	-6.29
985.043	-0.09
985.47	-2.69
985.897	-1.59
986.323	-6.19
986.75	6.81
987.176	-5.99
987.603	-2.39
988.029	5.51
988.456	-2.39
988.882	4.01
989.308	-7.49
989.735	-7.09
990.161	0.51
990.587	-3.39
991.014	-5.29
991.44	4.81
991.866	2.31
992.292	-5.59
992.719	-1.89
993.145	7.91
993.571	-4.89
993.997	-1.49
994.423	0.51
994.849	-5.79
995.275	-2.89
995.701	-0.59
996.127	-10.29
996.553	-2.29
996.979	-2.59
997.405	-2.29
997.83	-6.49
998.256	-4.89
998.682	-6.99
999.108	-11.69
999.534	-4.99
999.959	-2.29
1000.385	-5.79
1000.811	4.81
1001.236	-9.19
1001.662	-9.89
1002.087	-7.99
1002.513	-0.79
1002.938	-2.59
1003.364	-2.89
1003.789	-5.29
1004.215	1.11
1004.64	2.41
1005.066	1.11
1005.491	-0.79
1005.916	0.81
1006.342	-1.39
1006.767	-8.09
1007.192	6.91
1007.617	-3.29
1008.042	-8.99
1008.468	-10.69
1008.893	-6.09
1009.318	-2.39
1009.743	-3.99
1010.168	3.41
1010.593	1.61
1011.018	-8.39
1011.443	-6.49
1011.868	-3.49
1012.293	-8.79
1012.718	1.11
1013.143	5.61
1013.567	1.81
1013.992	0.31
1014.417	-14.79
1014.842	2.11
1015.267	-2.19
1015.691	-1.09
1016.116	3.61
1016.541	-2.09
1016.965	3.91
1017.39	0.01
1017.814	3.11
1018.239	0.91
1018.663	-9.79
1019.088	-11.89
1019.512	-1.69
1019.937	-1.59
1020.361	-2.29
1020.785	-12.49
1021.21	-1.89
1021.634	0.81
1022.058	0.81
1022.483	2.21
1022.907	-3.99
1023.331	-2.79
1023.755	-4.59
1024.179	-0.79
1024.604	-10.09
1025.028	-5.59
1025.452	-8.99
1025.876	-7.09
1026.3	3.11
1026.724	-14.09
1027.148	-0.89
1027.572	-14.19
1027.996	-5.39
1028.42	-0.59
1028.843	-3.19
1029.267	-4.79
1029.691	-4.09
1030.115	-10.69
1030.539	-7.29
1030.962	-5.69
1031.386	-11.79
1031.81	1.01
1032.233	1.51
1032.657	-11.19
1033.08	-4.69
1033.504	0.41
1033.927	-3.69
1034.351	-1.69
1034.774	-10.69
1035.198	-1.19
1035.621	-8.79
1036.045	-9.59
1036.468	0.91
1036.891	-6.39
1037.315	-8.69
1037.738	-10.19
1038.161	0.81
1038.584	-0.39
1039.008	-7.49
1039.431	3.61
1039.854	-4.79
1040.277	-10.79
1040.7	-12.19
1041.123	-1.79
1041.546	-1.29
1041.969	-5.59
1042.392	-1.59
1042.815	-2.39
1043.238	-0.79
1043.661	5.21
1044.084	-5.09
1044.507	-5.29
1044.93	-4.59
1045.352	-8.09
1045.775	0.81
1046.198	-0.49
1046.621	-5.19
1047.043	-2.09
1047.466	4.91
1047.889	3.71
1048.311	-0.49
1048.734	1.21
1049.156	-2.09
1049.579	-0.09
1050.001	-6.19
1050.424	0.61
1050.846	-2.39
1051.269	-8.49
1051.691	-6.19
1052.113	-10.99
1052.536	1.01
1052.958	-7.39
1053.38	-4.79
1053.802	-13.59
1054.225	-2.59
1054.647	-12.99
1055.069	-3.39
1055.491	-2.49
1055.913	-9.79
1056.335	-1.69
1056.757	-4.29
1057.179	-5.09
1057.601	-5.29
1058.023	-0.19
1058.445	-6.89
1058.867	-9.99
1059.289	-4.29
1059.711	-6.99
1060.133	-2.29
1060.555	-4.69
1060.976	-3.79
1061.398	-0.99
1061.82	-4.39
1062.241	-6.89
1062.663	-4.29
1063.085	-8.59
1063.506	-3.19
1063.928	-3.59
1064.35	1.21
1064.771	-14.79
1065.193	-3.79
1065.614	-7.19
1066.035	-0.89
1066.457	-2.89
1066.878	-0.19
1067.3	-6.49
1067.721	-0.69
1068.142	-4.19
1068.564	-3.19
1068.985	-2.59
1069.406	-6.59
1069.827	-4.29
1070.248	-1.39
1070.67	-7.79
1071.091	-1.19
1071.512	-2.39
1071.933	-5.69
1072.354	-7.59
1072.775	-5.09
1073.196	-4.29
1073.617	-4.99
1074.038	-8.09
1074.459	-0.29
1074.88	-2.39
1075.3	1.11
1075.721	-3.19
1076.142	2.21
1076.563	-0.29
1076.983	-13.49
1077.404	-6.29
1077.825	-11.79
1078.246	-8.89
1078.666	-15.89
1079.087	1.51
1079.507	-6.89
1079.928	-4.09
1080.348	-3.69
1080.769	-4.69
1081.189	-1.79
1081.61	-5.89
1082.03	-6.69
1082.451	-7.69
1082.871	-7.39
1083.291	-5.69
1083.711	-8.49
1084.132	-8.59
1084.552	-6.39
1084.972	-4.39
1085.392	-10.29
1085.813	-12.79
1086.233	-8.59
1086.653	-9.99
1087.073	-2.49
1087.493	-5.19
1087.913	-5.29
1088.333	-7.29
1088.753	-4.39
1089.173	3.31
1089.593	-1.39
1090.013	-0.79
1090.433	-3.29
1090.852	2.71
1091.272	-0.49
1091.692	-3.39
1092.112	-7.09
1092.531	-13.09
1092.951	-15.49
1093.371	-3.09
1093.79	-2.49
1094.21	-5.79
1094.63	-3.79
1095.049	-2.69
1095.469	-4.39
1095.888	-3.39
1096.308	3.81
1096.727	2.91
1097.146	-11.99
1097.566	-1.09
1097.985	-0.39
1098.405	1.21
1098.824	-4.39
1099.243	-4.19
1099.662	-9.59
1100.082	-8.19
1100.501	2.21
1100.92	-8.49
1101.339	-2.09
1101.758	-1.29
