Data from 20171114-ORNL-Ar_H_NY_Subt18_08-07-20-789.txt Node
Date: Tue Nov 14 08:07:20 EST 2017
User: Ender
Spectrometer: HR+D1039
Trigger mode: 0
Integration Time (sec): 2.730000E-2
Scans to average: 10
Electric dark correction enabled: true
Nonlinearity correction enabled: false
Boxcar width: 0
XAxis mode: Wavelengths
Number of Pixels in Spectrum: 2048
>>>>>Begin Spectral Data<<<<<
187.836	-5.67
188.309	-5.67
188.782	-5.67
189.255	0.23
189.728	1.23
190.201	9.43
190.674	0.62
191.147	1.62
191.619	-5.77
192.092	0.43
192.565	4.02
193.038	-0.88
193.511	0.62
193.984	-1.27
194.456	-3.97
194.929	2.43
195.402	-4.48
195.874	1.43
196.347	-3.27
196.82	-14.97
197.292	4.52
197.765	-3.07
198.237	-7.47
198.71	2.83
199.182	-3.27
199.655	4.33
200.127	0.73
200.6	-3.57
201.072	-4.88
201.544	-6.07
202.017	0.03
202.489	4.83
202.961	-0.27
203.433	-5.17
203.906	-10.17
204.378	-6.67
204.85	-4.98
205.322	-11.77
205.794	-4.08
206.266	-1.17
206.739	-14.67
207.211	0.03
207.683	-9.67
208.155	-5.48
208.627	-3.38
209.099	-3.17
209.57	-4.17
210.042	-9.08
210.514	-5.57
210.986	-1.47
211.458	-8.48
211.93	-2.88
212.402	0.93
212.873	-5.88
213.345	-12.07
213.817	-11.07
214.288	-8.17
214.76	-13.57
215.232	-2.67
215.703	-5.27
216.175	-0.88
216.646	-5.37
217.118	-6.17
217.589	-6.97
218.061	-2.17
218.532	-5.97
219.004	-7.97
219.475	-2.77
219.946	-4.17
220.418	-9.17
220.889	-1.47
221.36	-2.57
221.832	-6.77
222.303	-9.27
222.774	-5.47
223.245	-11.07
223.717	-3.38
224.188	-8.27
224.659	-7.17
225.13	-7.17
225.601	-4.77
226.072	-2.47
226.543	1.23
227.014	-0.98
227.485	-2.27
227.956	-6.27
228.427	2.13
228.898	-3.67
229.369	2.62
229.839	-8.27
230.31	-9.27
230.781	-1.27
231.252	-2.07
231.722	-12.38
232.193	-3.77
232.664	-5.17
233.135	0.23
233.605	-2.17
234.076	-5.08
234.546	-1.88
235.017	-0.27
235.487	-1.47
235.958	-5.87
236.428	-3.07
236.899	-0.57
237.369	1.73
237.84	-6.88
238.31	2.93
238.78	0.93
239.251	-8.57
239.721	-4.27
240.191	1.73
240.662	-4.07
241.132	-9.97
241.602	-2.67
242.072	1.23
242.542	4.63
243.013	-5.57
243.483	-1.97
243.953	0.03
244.423	-8.37
244.893	-3.57
245.363	-0.67
245.833	-4.38
246.303	-10.07
246.773	3.23
247.243	-6.67
247.712	-4.67
248.182	2.33
248.652	-2.38
249.122	-9.08
249.592	-1.77
250.061	5.33
250.531	4.63
251.001	-0.07
251.471	4.93
251.94	4.62
252.41	0.33
252.879	-6.27
253.349	0.92
253.818	4.83
254.288	0.93
254.757	-0.47
255.227	-2.87
255.696	-1.77
256.166	1.83
256.635	0.93
257.105	-0.57
257.574	1.33
258.043	6.13
258.513	-0.38
258.982	4.53
259.451	-9.07
259.92	0.03
260.389	0.93
260.859	4.53
261.328	-0.87
261.797	2.53
262.266	0.03
262.735	1.73
263.204	-2.38
263.673	0.23
264.142	5.03
264.611	-2.98
265.08	-4.77
265.549	-4.47
266.018	6.53
266.487	-7.88
266.955	-7.57
267.424	-3.17
267.893	0.13
268.362	-2.27
268.83	-1.67
269.299	3.43
269.768	-2.07
270.236	-2.77
270.705	-4.97
271.174	-7.07
271.642	0.62
272.111	0.93
272.579	3.62
273.048	4.92
273.516	0.13
273.985	4.33
274.453	7.73
274.922	13.33
275.39	6.73
275.858	-4.17
276.327	5.53
276.795	13.83
277.263	4.23
277.731	11.42
278.2	6.02
278.668	9.03
279.136	14.62
279.604	3.43
280.072	-0.57
280.54	5.33
281.008	4.43
281.477	6.73
281.945	3.93
282.413	8.83
282.881	12.23
283.348	5.23
283.816	10.33
284.284	8.02
284.752	13.62
285.22	7.83
285.688	7.92
286.156	4.13
286.623	22.33
287.091	11.73
287.559	10.23
288.026	14.13
288.494	12.83
288.962	2.62
289.429	3.73
289.897	9.13
290.364	9.02
290.832	15.53
291.3	4.73
291.767	6.23
292.234	13.62
292.702	5.83
293.169	14.13
293.637	9.23
294.104	11.53
294.571	6.92
295.039	10.52
295.506	6.03
295.973	9.62
296.44	4.73
296.908	11.03
297.375	11.93
297.842	9.12
298.309	5.33
298.776	8.13
299.243	11.73
299.71	2.93
300.177	12.53
300.644	14.43
301.111	16.13
301.578	15.02
302.045	7.63
302.512	15.33
302.979	18.03
303.446	13.93
303.913	2.83
304.379	9.43
304.846	21.43
305.313	15.62
305.78	15.12
306.246	17.33
306.713	17.92
307.18	12.93
307.646	17.62
308.113	21.52
308.579	16.43
309.046	15.63
309.512	17.13
309.979	11.42
310.445	21.83
310.912	21.23
311.378	26.62
311.845	25.53
312.311	25.93
312.777	26.62
313.244	24.23
313.71	25.33
314.176	19.73
314.642	19.83
315.109	22.43
315.575	20.83
316.041	30.03
316.507	24.23
316.973	21.52
317.439	21.53
317.905	27.23
318.371	30.03
318.837	23.43
319.303	26.73
319.769	21.43
320.235	25.73
320.701	23.23
321.167	24.02
321.633	20.23
322.099	22.83
322.564	37.43
323.03	29.93
323.496	25.43
323.962	24.33
324.427	24.73
324.893	30.62
325.359	27.02
325.824	23.62
326.29	26.52
326.755	34.12
327.221	29.23
327.686	28.93
328.152	40.63
328.617	33.33
329.083	36.93
329.548	51.73
330.014	34.73
330.479	32.83
330.944	33.23
331.41	26.12
331.875	34.73
332.34	34.03
332.805	32.83
333.271	34.53
333.736	30.93
334.201	38.33
334.666	40.02
335.131	40.33
335.596	39.42
336.061	38.12
336.526	30.02
336.991	38.63
337.456	46.93
337.921	46.12
338.386	39.62
338.851	40.02
339.316	38.93
339.781	39.43
340.246	44.93
340.711	37.02
341.175	41.62
341.64	33.13
342.105	41.73
342.569	48.52
343.034	54.23
343.499	46.03
343.963	35.43
344.428	57.03
344.893	54.42
345.357	52.12
345.822	51.02
346.286	53.62
346.751	61.33
347.215	54.73
347.679	60.53
348.144	68.52
348.608	69.33
349.073	55.12
349.537	66.73
350.001	59.33
350.465	65.83
350.93	62.23
351.394	64.63
351.858	58.63
352.322	70.63
352.786	66.63
353.25	81.62
353.715	97.03
354.179	86.42
354.643	99.33
355.107	100.83
355.571	82.93
356.035	83.12
356.498	92.23
356.962	94.62
357.426	105.92
357.89	91.73
358.354	74.93
358.818	68.62
359.281	62.03
359.745	63.93
360.209	68.63
360.673	69.13
361.136	67.03
361.6	76.52
362.064	74.43
362.527	74.52
362.991	74.33
363.454	68.53
363.918	67.43
364.381	73.93
364.845	72.93
365.308	75.83
365.772	76.43
366.235	80.73
366.698	75.62
367.162	68.73
367.625	70.43
368.088	74.33
368.552	78.62
369.015	75.53
369.478	84.93
369.941	89.73
370.404	81.42
370.867	85.02
371.331	92.62
371.794	95.42
372.257	97.53
372.72	88.73
373.183	93.33
373.646	88.43
374.109	89.03
374.572	93.92
375.035	93.73
375.497	93.83
375.96	95.23
376.423	95.02
376.886	102.83
377.349	105.73
377.811	95.33
378.274	96.73
378.737	98.02
379.199	101.03
379.662	99.53
380.125	102.53
380.587	103.93
381.05	109.33
381.512	105.33
381.975	117.02
382.437	107.73
382.9	107.83
383.362	121.33
383.825	120.23
384.287	118.43
384.75	110.23
385.212	117.92
385.674	127.52
386.136	121.13
386.599	112.93
387.061	113.23
387.523	111.93
387.985	111.02
388.447	126.83
388.91	122.63
389.372	129.53
389.834	126.23
390.296	120.02
390.758	124.23
391.22	132.03
391.682	147.02
392.144	172.93
392.606	154.42
393.068	141.03
393.529	144.73
393.991	139.53
394.453	127.83
394.915	130.62
395.377	145.13
395.838	146.23
396.3	130.73
396.762	135.73
397.224	127.73
397.685	128.12
398.147	130.23
398.608	124.53
399.07	123.33
399.531	123.23
399.993	139.23
400.454	146.23
400.916	140.93
401.377	141.03
401.839	149.42
402.3	144.33
402.762	159.33
403.223	169.02
403.684	169.73
404.145	153.12
404.607	160.73
405.068	159.83
405.529	157.33
405.99	169.63
406.451	165.23
406.913	164.73
407.374	159.73
407.835	166.23
408.296	164.43
408.757	167.73
409.218	181.43
409.679	176.83
410.14	173.43
410.601	178.43
411.062	178.13
411.522	174.73
411.983	169.93
412.444	167.13
412.905	182.83
413.366	182.62
413.826	187.43
414.287	212.93
414.748	267.93
415.208	254.72
415.669	211.12
416.13	206.42
416.59	206.72
417.051	217.62
417.511	226.83
417.972	237.83
418.432	253.23
418.893	288.33
419.353	256.62
419.814	202.32
420.274	190.23
420.734	185.02
421.195	196.62
421.655	197.83
422.115	193.62
422.576	195.83
423.036	202.92
423.496	204.42
423.956	215.83
424.416	237.12
424.876	262.03
425.336	259.62
425.797	257.23
426.257	255.53
426.717	241.53
427.177	228.93
427.637	223.53
428.097	234.53
428.556	243.73
429.016	264.93
429.476	260.23
429.936	271.43
430.396	274.52
430.856	285.92
431.315	314.12
431.775	339.92
432.235	367.02
432.694	345.73
433.154	353.52
433.614	376.22
434.073	320.62
434.533	277.12
434.993	265.52
435.452	279.82
435.912	292.33
436.371	276.03
436.83	278.33
437.29	256.33
437.749	243.23
438.209	241.13
438.668	275.93
439.127	287.02
439.587	262.73
440.046	245.83
440.505	255.93
440.964	274.03
441.424	321.53
441.883	305.92
442.342	255.83
442.801	232.33
443.26	226.63
443.719	224.52
444.178	222.23
444.637	216.33
445.096	224.33
445.555	225.02
446.014	233.53
446.473	231.73
446.932	242.03
447.391	242.82
447.849	234.03
448.308	224.93
448.767	229.53
449.226	240.33
449.685	241.13
450.143	255.32
450.602	240.83
451.061	234.93
451.519	245.03
451.978	242.02
452.436	241.93
452.895	248.93
453.353	258.62
453.812	244.33
454.27	241.13
454.729	242.62
455.187	248.43
455.646	245.33
456.104	251.63
456.562	268.23
457.021	278.93
457.479	270.13
457.937	286.12
458.395	276.83
458.854	256.23
459.312	270.02
459.77	286.13
460.228	268.33
460.686	257.63
461.144	255.93
461.602	249.03
462.06	254.12
462.518	266.33
462.976	271.92
463.434	260.52
463.892	269.23
464.35	281.72
464.808	301.93
465.266	279.63
465.724	280.93
466.181	283.63
466.639	285.43
467.097	308.63
467.555	309.33
468.012	316.63
468.47	330.02
468.928	344.12
469.385	354.23
469.843	365.13
470.3	365.03
470.758	381.23
471.215	388.82
471.673	416.23
472.13	415.03
472.588	436.02
473.045	384.93
473.503	391.33
473.96	406.43
474.417	418.73
474.875	442.92
475.332	482.02
475.789	473.03
476.246	482.42
476.704	500.83
477.161	523.23
477.618	534.32
478.075	564.73
478.532	625.43
478.989	704.63
479.446	796.83
479.903	768.73
480.36	811.82
480.817	860.92
481.274	942.13
481.731	1033.62
482.188	1129.43
482.645	1244.92
483.102	1338.03
483.558	1460.92
484.015	1489.92
484.472	1473.83
484.929	1428.73
485.385	1381.32
485.842	1368.03
486.299	1310.03
486.755	1257.03
487.212	1077.42
487.668	927.22
488.125	854.43
488.582	786.83
489.038	751.73
489.494	724.23
489.951	712.02
490.407	683.62
490.864	665.62
491.32	662.33
491.776	663.63
492.233	667.03
492.689	620.23
493.145	628.42
493.602	625.02
494.058	650.43
494.514	653.62
494.97	643.83
495.426	672.02
495.882	644.23
496.338	632.43
496.794	641.02
497.251	636.43
497.707	642.93
498.163	659.23
498.618	662.33
499.074	651.23
499.53	697.03
499.986	689.62
500.442	671.93
500.898	650.33
501.354	630.62
501.809	648.83
502.265	648.83
502.721	655.12
503.177	667.33
503.632	663.13
504.088	671.53
504.543	695.33
504.999	715.23
505.455	689.03
505.91	653.13
506.366	665.13
506.821	661.92
507.277	654.42
507.732	657.33
508.187	661.82
508.643	666.43
509.098	667.33
509.553	689.33
510.009	703.42
510.464	709.32
510.919	724.52
511.375	729.92
511.83	734.92
512.285	740.03
512.74	788.33
513.195	809.33
513.65	798.53
514.105	795.22
514.56	805.22
515.015	816.73
515.47	831.33
515.925	811.33
516.38	819.02
516.835	831.82
517.29	808.93
517.745	805.23
518.2	807.03
518.655	776.53
519.109	765.73
519.564	767.73
520.019	756.73
520.474	766.12
520.928	768.23
521.383	736.42
521.838	738.52
522.292	742.02
522.747	734.02
523.201	733.62
523.656	721.63
524.11	722.83
524.565	724.43
525.019	725.03
525.474	732.23
525.928	731.33
526.382	730.43
526.837	726.73
527.291	724.82
527.745	731.42
528.2	731.53
528.654	716.63
529.108	717.93
529.562	728.52
530.016	713.03
530.47	718.73
530.925	710.93
531.379	723.52
531.833	718.92
532.287	729.03
532.741	725.33
533.195	723.62
533.649	739.52
534.103	744.83
534.556	732.22
535.01	743.83
535.464	731.23
535.918	742.12
536.372	746.12
536.826	743.73
537.279	734.33
537.733	735.23
538.187	745.32
538.64	742.83
539.094	741.93
539.548	756.62
540.001	749.83
540.455	747.12
540.908	760.43
541.362	771.23
541.815	773.13
542.269	787.33
542.722	783.23
543.175	807.93
543.629	793.42
544.082	821.52
544.536	831.13
544.989	828.62
545.442	827.52
545.895	831.12
546.349	828.73
546.802	828.83
547.255	826.52
547.708	833.83
548.161	859.42
548.614	859.53
549.067	868.93
549.52	864.23
549.973	854.43
550.426	839.33
550.879	825.02
551.332	831.42
551.785	837.52
552.238	841.02
552.691	850.53
553.144	871.92
553.596	887.62
554.049	893.93
554.502	924.73
554.955	953.72
555.407	940.63
555.86	939.93
556.313	931.83
556.765	927.23
557.218	921.12
557.67	917.22
558.123	916.03
558.576	903.32
559.028	924.83
559.48	921.53
559.933	906.93
560.385	874.42
560.838	850.33
561.29	828.23
561.742	810.93
562.195	806.83
562.647	800.83
563.099	806.42
563.551	817.63
564.004	809.62
564.456	803.03
564.908	793.92
565.36	780.43
565.812	762.23
566.264	745.62
566.716	741.93
567.168	732.33
567.62	741.83
568.072	720.52
568.524	723.62
568.976	713.33
569.428	699.73
569.88	700.93
570.332	719.43
570.784	706.92
571.235	718.83
571.687	728.73
572.139	720.42
572.59	753.83
573.042	745.42
573.494	743.03
573.945	739.22
574.397	716.83
574.849	722.23
575.3	724.43
575.752	710.23
576.203	709.42
576.655	711.62
577.106	698.02
577.557	693.53
578.009	701.83
578.46	702.03
578.912	690.73
579.363	692.33
579.814	696.33
580.265	697.83
580.717	694.52
581.168	705.02
581.619	703.03
582.07	701.62
582.521	695.72
582.972	691.73
583.423	700.03
583.875	694.13
584.326	716.12
584.777	728.53
585.227	748.23
585.678	781.82
586.129	809.62
586.58	845.73
587.031	869.33
587.482	914.22
587.933	951.33
588.384	905.53
588.834	834.33
589.285	808.62
589.736	807.32
590.186	808.72
590.637	798.32
591.088	781.62
591.538	756.83
591.989	762.23
592.439	756.03
592.89	743.33
593.34	736.63
593.791	731.22
594.241	716.03
594.692	722.73
595.142	723.83
595.593	711.93
596.043	732.42
596.493	733.13
596.943	730.03
597.394	745.93
597.844	740.33
598.294	763.23
598.744	788.93
599.195	802.43
599.645	856.33
600.095	889.53
600.545	955.92
600.995	985.73
601.445	1066.92
601.895	1120.03
602.345	1181.22
602.795	1161.53
603.245	1116.33
603.695	1051.23
604.145	990.02
604.594	943.83
605.044	898.82
605.494	824.92
605.944	786.23
606.393	768.73
606.843	750.52
607.293	753.62
607.743	761.02
608.192	765.33
608.642	772.02
609.091	781.33
609.541	786.23
609.99	777.33
610.44	785.03
610.889	745.23
611.339	724.22
611.788	707.43
612.238	718.53
612.687	728.33
613.136	716.73
613.586	731.03
614.035	726.33
614.484	738.52
614.933	741.13
615.383	735.93
615.832	731.23
616.281	729.73
616.73	691.63
617.179	679.83
617.628	660.62
618.077	652.73
618.526	638.83
618.975	642.33
619.424	625.12
619.873	626.33
620.322	632.23
620.771	616.33
621.22	623.42
621.669	608.53
622.118	604.12
622.567	595.83
623.015	590.73
623.464	586.23
623.913	573.62
624.361	561.92
624.81	573.93
625.259	564.43
625.707	566.73
626.156	571.52
626.604	583.83
627.053	575.62
627.501	586.53
627.95	593.12
628.398	604.83
628.847	580.33
629.295	595.83
629.744	595.83
630.192	584.83
630.64	577.22
631.089	561.62
631.537	552.83
631.985	546.73
632.433	551.02
632.881	546.53
633.33	558.72
633.778	553.73
634.226	546.73
634.674	553.83
635.122	560.73
635.57	570.42
636.018	585.73
636.466	576.73
636.914	570.33
637.362	585.12
637.81	594.03
638.258	594.12
638.705	600.02
639.153	635.82
639.601	633.02
640.049	663.53
640.497	679.33
640.944	716.62
641.392	660.73
641.84	624.33
642.287	592.73
642.735	580.23
643.182	580.33
643.63	584.32
644.078	581.62
644.525	591.62
644.973	594.93
645.42	608.03
645.867	632.73
646.315	641.43
646.762	668.12
647.21	699.83
647.657	718.12
648.104	759.52
648.551	770.02
648.999	834.52
649.446	915.23
649.893	987.53
650.34	1130.83
650.787	1339.62
651.234	1671.32
651.682	2150.62
652.129	2919.02
652.576	4167.03
653.023	6055.03
653.47	8199.23
653.917	10168.12
654.363	11745.73
654.81	12936.83
655.257	12268.23
655.704	8098.53
656.151	4882.32
656.598	3202.53
657.044	2299.12
657.491	1771.72
657.938	1438.42
658.385	1204.53
658.831	1056.33
659.278	949.32
659.724	839.83
660.171	784.72
660.618	720.73
661.064	690.62
661.511	666.63
661.957	659.92
662.404	645.82
662.85	654.53
663.296	628.52
663.743	572.42
664.189	555.12
664.635	544.13
665.082	543.23
665.528	543.53
665.974	526.73
666.42	519.53
666.867	510.82
667.313	495.33
667.759	475.92
668.205	463.83
668.651	459.93
669.097	464.92
669.543	459.33
669.989	461.52
670.435	467.83
670.881	461.93
671.327	460.82
671.773	483.22
672.219	507.83
672.665	562.83
673.11	599.92
673.556	643.43
674.002	685.02
674.448	672.72
674.893	572.02
675.339	490.23
675.785	458.83
676.23	446.33
676.676	404.73
677.122	399.62
677.567	383.82
678.013	385.23
678.458	369.02
678.904	371.23
679.349	358.23
679.794	370.13
680.24	357.33
680.685	359.02
681.131	356.23
681.576	352.83
682.021	366.52
682.466	354.53
682.912	362.62
683.357	364.93
683.802	397.53
684.247	426.53
684.692	471.62
685.137	512.73
685.583	561.52
686.028	582.92
686.473	541.83
686.918	458.92
687.363	430.42
687.807	401.23
688.252	372.73
688.697	367.23
689.142	342.93
689.587	341.33
690.032	335.62
690.477	344.03
690.921	363.73
691.366	396.13
691.811	409.53
692.255	448.13
692.7	479.13
693.145	517.23
693.589	734.42
694.034	1185.32
694.478	1621.22
694.923	1822.42
695.367	2348.62
695.812	1253.42
696.256	517.53
696.701	381.53
697.145	361.13
697.59	342.12
698.034	330.92
698.478	331.93
698.922	324.03
699.367	325.23
699.811	347.63
700.255	368.23
700.699	394.13
701.143	434.73
701.588	494.03
702.032	528.52
702.476	529.93
702.92	512.03
703.364	517.83
703.808	675.72
704.252	1086.93
704.696	1535.12
705.14	1746.43
705.584	2203.53
706.027	1119.72
706.471	548.62
706.915	420.73
707.359	366.43
707.803	338.22
708.246	316.03
708.69	324.23
709.134	329.02
709.577	322.52
710.021	318.23
710.465	309.83
710.908	308.93
711.352	307.13
711.795	326.42
712.239	360.93
712.682	396.22
713.126	425.72
713.569	476.63
714.012	364.63
714.456	310.12
714.899	302.93
715.342	281.12
715.786	269.43
716.229	259.92
716.672	263.02
717.115	257.43
717.558	261.12
718.002	259.03
718.445	266.83
718.888	299.33
719.331	300.43
719.774	308.52
720.217	304.93
720.66	291.92
721.103	274.92
721.546	260.53
721.989	258.22
722.432	234.63
722.874	245.33
723.317	242.02
723.76	238.73
724.203	260.83
724.645	323.23
725.088	461.53
725.531	596.33
725.974	669.03
726.416	569.53
726.859	318.83
727.301	254.52
727.744	245.43
728.187	242.12
728.629	243.42
729.071	253.02
729.514	262.32
729.956	282.73
730.399	289.82
730.841	295.12
731.283	284.53
731.726	270.33
732.168	275.63
732.61	285.72
733.053	299.33
733.495	334.23
733.937	372.23
734.379	416.12
734.821	461.13
735.263	572.73
735.705	884.02
736.148	1682.12
736.59	2708.72
737.032	3191.62
737.474	2578.43
737.916	845.23
738.357	445.63
738.799	341.13
739.241	314.93
739.683	298.12
740.125	308.82
740.567	311.02
741.008	325.92
741.45	328.33
741.892	330.23
742.334	355.93
742.775	378.62
743.217	353.22
743.658	280.03
744.1	264.23
744.542	279.02
744.983	323.13
745.425	358.62
745.866	356.13
746.307	296.13
746.749	291.23
747.19	334.12
747.632	479.83
748.073	934.83
748.514	1982.42
748.956	2996.42
749.397	3762.93
749.838	3123.03
750.279	3076.83
750.72	1571.82
751.162	567.73
751.603	335.33
752.044	257.53
752.485	231.02
752.926	220.62
753.367	206.72
753.808	201.33
754.249	198.03
754.69	197.83
755.131	184.93
755.572	183.53
756.013	181.43
756.453	190.93
756.894	191.03
757.335	194.62
757.776	211.62
758.216	197.52
758.657	210.12
759.098	209.23
759.538	237.43
759.979	280.83
760.42	396.93
760.86	750.63
761.301	1973.02
761.741	4702.33
762.182	6717.52
762.622	4751.53
763.063	1381.42
763.503	560.42
763.943	336.83
764.384	296.53
764.824	269.53
765.264	262.52
765.705	226.33
766.145	198.13
766.585	183.62
767.025	178.52
767.465	178.02
767.906	196.03
768.346	216.23
768.786	222.33
769.226	221.33
769.666	315.22
770.106	654.92
770.546	1650.92
770.986	2759.43
771.426	2444.12
771.866	831.23
772.306	339.02
772.745	212.32
773.185	176.73
773.625	171.33
774.065	157.12
774.505	174.33
774.944	222.42
775.384	405.62
775.824	662.93
776.263	651.13
776.703	314.03
777.142	169.13
777.582	138.83
778.021	124.83
778.461	131.33
778.9	131.43
779.34	131.83
779.779	113.33
780.219	114.03
780.658	110.73
781.097	115.23
781.537	110.83
781.976	111.02
782.415	104.12
782.855	105.62
783.294	113.53
783.733	109.73
784.172	116.23
784.611	107.43
785.05	116.62
785.489	112.63
785.928	114.62
786.367	121.33
786.806	117.62
787.245	137.42
787.684	142.52
788.123	147.62
788.562	137.93
789.001	133.73
789.44	128.03
789.879	120.62
790.317	121.93
790.756	134.13
791.195	128.13
791.634	156.13
792.072	213.12
792.511	388.03
792.95	1059.92
793.388	2212.23
793.827	1987.92
794.265	689.32
794.704	295.63
795.142	187.63
795.581	150.93
796.019	140.53
796.458	132.63
796.896	124.83
797.334	139.03
797.773	162.23
798.211	227.02
798.649	463.72
799.087	1069.33
799.526	1678.62
799.964	2130.53
800.402	2097.43
800.84	788.53
801.278	314.83
801.716	199.62
802.154	160.52
802.592	148.83
803.03	141.43
803.468	142.03
803.906	151.53
804.344	155.63
804.782	145.23
805.22	136.52
805.658	138.02
806.096	158.23
806.533	164.03
806.971	186.52
807.409	228.72
807.847	330.03
808.284	701.92
808.722	1970.13
809.16	3463.12
809.597	3332.23
810.035	5729.93
810.472	6038.83
810.91	2182.43
811.347	849.43
811.785	429.62
812.222	260.12
812.66	213.93
813.097	181.02
813.535	151.12
813.972	139.43
814.409	123.03
814.846	104.23
815.284	115.12
815.721	101.83
816.158	103.53
816.595	117.13
817.032	161.12
817.47	183.23
817.907	129.33
818.344	104.12
818.781	103.03
819.218	99.73
819.655	125.73
820.092	192.43
820.529	224.72
820.966	172.23
821.403	128.12
821.839	105.43
822.276	104.03
822.713	122.92
823.15	149.93
823.587	124.73
824.023	157.62
824.46	320.33
824.897	944.43
825.333	1409.03
825.77	604.33
826.206	244.03
826.643	139.43
827.08	109.43
827.516	91.33
827.953	80.53
828.389	81.73
828.825	73.53
829.262	72.02
829.698	71.83
830.135	69.33
830.571	61.42
831.007	70.93
831.443	62.03
831.88	62.53
832.316	64.62
832.752	74.33
833.188	67.43
833.624	63.53
834.06	68.73
834.497	67.93
834.933	75.53
835.369	76.73
835.805	71.33
836.241	87.02
836.677	85.63
837.112	92.33
837.548	107.43
837.984	144.12
838.42	212.23
838.856	528.23
839.292	1605.73
839.727	2395.03
840.163	1128.03
840.599	984.33
841.034	2147.83
841.47	2222.33
841.906	816.33
842.341	340.43
842.777	211.62
843.212	216.92
843.648	210.33
844.083	120.92
844.519	80.83
844.954	79.43
845.39	65.03
845.825	55.83
846.261	57.13
846.696	53.23
847.131	54.83
847.566	60.33
848.002	52.43
848.437	56.83
848.872	61.33
849.307	61.93
849.742	95.33
850.177	191.93
850.613	587.43
851.048	925.62
851.483	402.73
851.918	162.02
852.353	97.62
852.788	61.83
853.223	50.33
853.657	51.52
854.092	47.83
854.527	36.73
854.962	42.52
855.397	49.83
855.832	54.43
856.266	42.03
856.701	44.23
857.136	36.13
857.57	42.13
858.005	51.23
858.44	65.33
858.874	45.33
859.309	48.03
859.743	44.02
860.178	48.92
860.612	40.02
861.047	55.93
861.481	73.62
861.915	70.83
862.35	54.73
862.784	36.42
863.218	39.53
863.653	40.02
864.087	48.62
864.521	58.83
864.955	75.93
865.39	164.62
865.824	179.13
866.258	126.73
866.692	175.73
867.126	192.23
867.56	109.52
867.994	53.73
868.428	38.43
868.862	45.63
869.296	57.93
869.73	61.92
870.164	56.02
870.598	46.13
871.031	39.33
871.465	27.93
871.899	28.23
872.333	20.93
872.766	29.53
873.2	24.52
873.634	26.73
874.067	27.12
874.501	26.73
874.935	34.62
875.368	30.73
875.802	30.03
876.235	25.02
876.669	22.23
877.102	19.43
877.535	27.03
877.969	23.83
878.402	20.12
878.836	19.73
879.269	27.83
879.702	23.73
880.135	17.73
880.569	20.93
881.002	25.73
881.435	18.62
881.868	14.12
882.301	22.03
882.734	15.73
883.167	22.83
883.601	16.23
884.034	22.33
884.467	10.23
884.899	25.23
885.332	16.53
885.765	11.63
886.198	12.23
886.631	17.42
887.064	15.53
887.497	17.93
887.929	24.43
888.362	16.23
888.795	15.23
889.228	13.12
889.66	21.12
890.093	14.62
890.526	16.42
890.958	20.03
891.391	16.33
891.823	18.93
892.256	15.93
892.688	13.62
893.121	18.03
893.553	20.12
893.985	30.62
894.418	21.92
894.85	11.33
895.282	15.23
895.715	14.12
896.147	19.13
896.579	20.93
897.011	11.13
897.444	16.63
897.876	13.13
898.308	16.83
898.74	16.93
899.172	16.93
899.604	23.13
900.036	18.12
900.468	17.03
900.9	17.02
901.332	11.12
901.764	11.73
902.196	14.93
902.628	17.53
903.06	22.23
903.491	33.23
903.923	21.03
904.355	17.83
904.787	20.02
905.218	20.73
905.65	17.02
906.082	8.52
906.513	13.33
906.945	13.33
907.376	10.62
907.808	20.93
908.239	21.13
908.671	18.23
909.102	20.23
909.534	24.13
909.965	52.43
910.397	91.83
910.828	338.23
911.259	498.53
911.691	227.02
912.122	109.23
912.553	55.23
912.984	29.73
913.415	28.33
913.847	24.83
914.278	20.73
914.709	15.23
915.14	17.13
915.571	16.12
916.002	12.93
916.433	17.83
916.864	16.02
917.295	10.33
917.726	20.62
918.157	18.92
918.587	28.83
919.018	23.63
919.449	24.43
919.88	19.92
920.311	34.03
920.741	50.23
921.172	172.23
921.603	160.23
922.033	70.52
922.464	43.83
922.895	26.33
923.325	18.13
923.756	18.52
924.186	12.83
924.617	22.93
925.047	21.73
925.478	27.53
925.908	27.62
926.338	13.73
926.769	17.93
927.199	17.43
927.629	7.63
928.06	13.73
928.49	12.73
928.92	10.83
929.35	13.63
929.78	14.02
930.21	5.52
930.641	9.93
931.071	7.93
931.501	2.43
931.931	9.53
932.361	7.13
932.791	5.12
933.221	-0.37
933.651	4.93
934.08	15.12
934.51	29.53
934.94	14.13
935.37	11.13
935.8	3.73
936.229	3.23
936.659	7.12
937.089	-0.17
937.519	11.43
937.948	26.93
938.378	14.33
938.807	5.92
939.237	7.63
939.666	3.63
940.096	0.43
940.525	4.43
940.955	0.93
941.384	-2.37
941.814	-3.27
942.243	-4.47
942.672	4.33
943.102	-2.77
943.531	3.23
943.96	5.53
944.39	-0.48
944.819	1.62
945.248	-0.17
945.677	0.93
946.106	3.03
946.535	8.02
946.964	6.03
947.393	2.73
947.822	-0.87
948.251	-5.88
948.68	4.03
949.109	2.92
949.538	8.13
949.967	2.43
950.396	5.93
950.825	-2.88
951.254	-4.57
951.682	-7.27
952.111	-0.77
952.54	9.73
952.969	-9.67
953.397	-3.77
953.826	0.73
954.254	-4.47
954.683	2.92
955.112	-3.57
955.54	0.23
955.969	-0.77
956.397	-0.57
956.826	-3.57
957.254	6.33
957.682	1.02
958.111	7.52
958.539	1.23
958.967	8.43
959.396	-0.17
959.824	-2.97
960.252	-0.57
960.68	-8.38
961.109	0.33
961.537	-8.57
961.965	0.23
962.393	-1.07
962.821	-4.17
963.249	-0.07
963.677	3.73
964.105	6.12
964.533	45.93
964.961	40.83
965.389	18.13
965.817	12.12
966.245	-3.67
966.672	-0.67
967.1	-9.77
967.528	-1.67
967.956	-5.27
968.383	-4.27
968.811	-6.07
969.239	-0.67
969.666	-3.77
970.094	2.53
970.522	2.03
970.949	-3.08
971.377	-0.27
971.804	-5.77
972.232	-4.47
972.659	-4.27
973.087	-1.77
973.514	-2.27
973.941	-4.07
974.369	9.43
974.796	-3.87
975.223	-1.58
975.651	-7.87
976.078	2.43
976.505	-4.07
976.932	2.62
977.359	19.33
977.786	12.53
978.214	0.83
978.641	-6.67
979.068	-1.88
979.495	-6.67
979.922	-0.27
980.349	0.12
980.776	2.62
981.202	-5.17
981.629	7.33
982.056	3.83
982.483	-0.07
982.91	-0.07
983.337	-6.27
983.763	2.62
984.19	-1.38
984.617	-3.17
985.043	-6.38
985.47	-4.97
985.897	-3.97
986.323	-5.48
986.75	-0.47
987.176	0.12
987.603	3.33
988.029	0.12
988.456	-6.48
988.882	0.83
989.308	-5.38
989.735	-3.48
990.161	-0.38
990.587	-3.98
991.014	-3.97
991.44	5.62
991.866	-2.77
992.292	-9.17
992.719	2.12
993.145	-4.27
993.571	-6.97
993.997	-3.88
994.423	-2.97
994.849	-6.98
995.275	-1.47
995.701	0.73
996.127	-5.88
996.553	-0.57
996.979	-4.47
997.405	-6.17
997.83	-11.07
998.256	-8.48
998.682	-1.67
999.108	-5.27
999.534	-2.58
999.959	-0.47
1000.385	-3.57
1000.811	2.52
1001.236	-5.27
1001.662	-3.97
1002.087	-7.57
1002.513	0.23
1002.938	0.03
1003.364	2.23
1003.789	1.53
1004.215	7.63
1004.64	-0.77
1005.066	1.03
1005.491	2.53
1005.916	-2.17
1006.342	-5.87
1006.767	-9.27
1007.192	4.63
1007.617	-5.67
1008.042	-1.67
1008.468	-5.98
1008.893	-2.07
1009.318	-4.17
1009.743	-6.08
1010.168	0.43
1010.593	3.23
1011.018	-6.67
1011.443	-7.77
1011.868	-0.07
1012.293	-3.37
1012.718	-2.37
1013.143	1.02
1013.567	2.43
1013.992	-6.57
1014.417	-10.57
1014.842	4.73
1015.267	-1.57
1015.691	-1.97
1016.116	4.93
1016.541	-1.27
1016.965	-5.48
1017.39	1.73
1017.814	0.03
1018.239	-5.88
1018.663	-7.98
1019.088	-13.48
1019.512	-7.48
1019.937	-1.97
1020.361	-2.07
1020.785	-14.17
1021.21	-4.07
1021.634	-5.97
1022.058	-0.77
1022.483	1.12
1022.907	-8.17
1023.331	-3.37
1023.755	-5.57
1024.179	-0.77
1024.604	-10.47
1025.028	-4.17
1025.452	-5.48
1025.876	4.83
1026.3	-2.67
1026.724	-13.57
1027.148	-1.97
1027.572	-11.67
1027.996	-2.97
1028.42	-4.17
1028.843	-6.48
1029.267	-6.67
1029.691	-5.58
1030.115	-3.17
1030.539	-9.08
1030.962	-7.88
1031.386	-8.27
1031.81	-3.17
1032.233	-3.87
1032.657	-6.97
1033.08	-5.38
1033.504	-3.17
1033.927	-4.87
1034.351	-2.37
1034.774	-8.07
1035.198	-2.27
1035.621	-12.57
1036.045	-10.07
1036.468	-0.88
1036.891	-12.17
1037.315	-3.48
1037.738	-10.87
1038.161	-4.88
1038.584	-1.77
1039.008	-6.38
1039.431	-6.17
1039.854	-9.38
1040.277	-5.27
1040.7	-9.87
1041.123	2.33
1041.546	-7.77
1041.969	-2.27
1042.392	-6.38
1042.815	-8.77
1043.238	-3.77
1043.661	0.62
1044.084	-13.67
1044.507	-5.38
1044.93	-8.97
1045.352	-7.48
1045.775	-0.38
1046.198	-4.17
1046.621	-1.47
1047.043	-3.47
1047.466	4.53
1047.889	-6.48
1048.311	-2.97
1048.734	-5.27
1049.156	-6.47
1049.579	2.83
1050.001	-4.07
1050.424	4.62
1050.846	-2.77
1051.269	-1.37
1051.691	-10.37
1052.113	-12.17
1052.536	-6.77
1052.958	-2.07
1053.38	-6.98
1053.802	-10.38
1054.225	-3.48
1054.647	-6.57
1055.069	-2.17
1055.491	1.53
1055.913	-8.67
1056.335	2.33
1056.757	-10.87
1057.179	-6.67
1057.601	-7.37
1058.023	-4.47
1058.445	-5.48
1058.867	-5.27
1059.289	-0.88
1059.711	-9.77
1060.133	-1.88
1060.555	-7.67
1060.976	-3.98
1061.398	-1.47
1061.82	-5.47
1062.241	-5.88
1062.663	-12.07
1063.085	-3.67
1063.506	-9.77
1063.928	-8.08
1064.35	-4.97
1064.771	-8.98
1065.193	-8.08
1065.614	-7.67
1066.035	-5.67
1066.457	-4.97
1066.878	4.62
1067.3	-7.17
1067.721	-3.38
1068.142	-5.88
1068.564	-6.27
1068.985	-9.57
1069.406	-9.37
1069.827	-4.38
1070.248	-1.67
1070.67	-6.07
1071.091	-9.87
1071.512	-4.08
1071.933	-7.88
1072.354	-11.37
1072.775	-7.07
1073.196	-8.27
1073.617	-4.77
1074.038	-7.97
1074.459	-5.67
1074.88	-3.87
1075.3	2.73
1075.721	-9.98
1076.142	-0.17
1076.563	5.23
1076.983	-5.88
1077.404	-3.77
1077.825	-12.07
1078.246	-7.17
1078.666	-6.27
1079.087	-6.27
1079.507	-3.27
1079.928	1.73
1080.348	-2.07
1080.769	-3.57
1081.189	-2.47
1081.61	-4.97
1082.03	-4.47
1082.451	-7.27
1082.871	-2.97
1083.291	-9.27
1083.711	-11.47
1084.132	-10.27
1084.552	-1.88
1084.972	-1.87
1085.392	-11.38
1085.813	-7.88
1086.233	-8.17
1086.653	-8.87
1087.073	-7.67
1087.493	-11.17
1087.913	-11.67
1088.333	-9.77
1088.753	-4.48
1089.173	0.83
1089.593	-4.07
1090.013	-1.88
1090.433	2.43
1090.852	-2.17
1091.272	-3.77
1091.692	-2.67
1092.112	-3.38
1092.531	-6.07
1092.951	-7.57
1093.371	-2.58
1093.79	-2.77
1094.21	-10.87
1094.63	-7.57
1095.049	-6.17
1095.469	-3.88
1095.888	-3.57
1096.308	-2.07
1096.727	1.63
1097.146	-5.77
1097.566	1.63
1097.985	-5.17
1098.405	-6.27
1098.824	-4.67
1099.243	-8.37
1099.662	-5.77
1100.082	-5.47
1100.501	0.73
1100.92	-12.77
1101.339	-2.98
1101.758	-4.17
