Data from 20171114-ORNL-Ar_H_NY_Subt18_08-08-58-300.txt Node
Date: Tue Nov 14 08:08:58 EST 2017
User: Ender
Spectrometer: HR+D1039
Trigger mode: 0
Integration Time (sec): 2.730000E-2
Scans to average: 10
Electric dark correction enabled: true
Nonlinearity correction enabled: false
Boxcar width: 0
XAxis mode: Wavelengths
Number of Pixels in Spectrum: 2048
>>>>>Begin Spectral Data<<<<<
187.836	1.61
188.309	1.61
188.782	1.61
189.255	0.21
189.728	-2.49
190.201	1.81
190.674	7.31
191.147	-1.79
191.619	-9.99
192.092	1.31
192.565	6.71
193.038	6.91
193.511	-1.99
193.984	-1.69
194.456	-3.69
194.929	-1.19
195.402	0.21
195.874	-3.29
196.347	0.91
196.82	-8.19
197.292	4.91
197.765	0.91
198.237	-6.09
198.71	3.21
199.182	-4.89
199.655	0.41
200.127	2.91
200.6	5.01
201.072	-5.39
201.544	1.01
202.017	-7.09
202.489	3.31
202.961	-1.59
203.433	-3.19
203.906	-4.39
204.378	-9.09
204.85	-2.49
205.322	-4.89
205.794	1.71
206.266	-1.89
206.739	-3.49
207.211	0.21
207.683	-1.99
208.155	1.51
208.627	0.01
209.099	-1.49
209.57	-11.69
210.042	-3.59
210.514	-7.39
210.986	2.81
211.458	-9.59
211.93	-5.59
212.402	2.11
212.873	-9.09
213.345	-3.49
213.817	-15.19
214.288	-7.09
214.76	-15.79
215.232	-5.39
215.703	-7.39
216.175	1.61
216.646	-1.09
217.118	-4.39
217.589	-7.99
218.061	-4.39
218.532	-5.29
219.004	-7.29
219.475	-1.99
219.946	-1.29
220.418	-9.59
220.889	5.81
221.36	3.81
221.832	-3.89
222.303	-6.39
222.774	2.51
223.245	-12.49
223.717	-3.39
224.188	-7.39
224.659	-1.49
225.13	-1.99
225.601	-5.79
226.072	1.51
226.543	-1.69
227.014	6.61
227.485	-5.19
227.956	-0.49
228.427	-4.79
228.898	-1.89
229.369	0.71
229.839	-0.99
230.31	-12.69
230.781	2.91
231.252	-0.19
231.722	-5.29
232.193	-5.29
232.664	-1.09
233.135	2.91
233.605	7.91
234.076	-3.39
234.546	1.21
235.017	-1.69
235.487	2.11
235.958	-6.49
236.428	-4.39
236.899	0.11
237.369	0.91
237.84	-8.49
238.31	-1.19
238.78	1.51
239.251	-4.49
239.721	4.41
240.191	1.31
240.662	1.21
241.132	2.41
241.602	-0.09
242.072	2.41
242.542	5.51
243.013	1.81
243.483	2.81
243.953	-0.79
244.423	-6.19
244.893	0.81
245.363	3.61
245.833	-1.19
246.303	0.81
246.773	0.61
247.243	5.11
247.712	1.11
248.182	6.71
248.652	3.71
249.122	-6.39
249.592	-2.99
250.061	17.51
250.531	14.51
251.001	5.31
251.471	12.21
251.94	7.51
252.41	4.41
252.879	-7.39
253.349	9.91
253.818	5.51
254.288	5.61
254.757	1.31
255.227	-1.99
255.696	0.61
256.166	2.41
256.635	7.61
257.105	3.51
257.574	0.31
258.043	1.51
258.513	4.41
258.982	2.51
259.451	3.31
259.92	4.51
260.389	1.81
260.859	12.31
261.328	5.71
261.797	7.91
262.266	-2.79
262.735	10.41
263.204	4.61
263.673	-2.19
264.142	0.81
264.611	-4.29
265.08	1.11
265.549	-3.19
266.018	5.41
266.487	-2.19
266.955	-1.19
267.424	-1.19
267.893	6.31
268.362	1.01
268.83	-2.09
269.299	11.51
269.768	3.71
270.236	0.21
270.705	0.81
271.174	0.61
271.642	7.41
272.111	3.81
272.579	9.31
273.048	6.71
273.516	13.51
273.985	8.81
274.453	11.11
274.922	9.91
275.39	0.51
275.858	-0.29
276.327	-0.39
276.795	13.71
277.263	1.21
277.731	18.91
278.2	28.31
278.668	27.71
279.136	16.41
279.604	6.41
280.072	7.21
280.54	4.21
281.008	7.31
281.477	6.91
281.945	8.51
282.413	6.51
282.881	5.81
283.348	4.01
283.816	11.61
284.284	4.91
284.752	16.61
285.22	10.31
285.688	4.81
286.156	11.01
286.623	20.31
287.091	28.51
287.559	12.91
288.026	12.11
288.494	11.21
288.962	4.01
289.429	8.71
289.897	13.71
290.364	10.71
290.832	8.61
291.3	12.61
291.767	7.11
292.234	16.51
292.702	11.21
293.169	14.01
293.637	15.01
294.104	10.71
294.571	9.11
295.039	6.81
295.506	6.81
295.973	12.41
296.44	9.71
296.908	12.11
297.375	7.51
297.842	12.31
298.309	16.61
298.776	10.61
299.243	10.01
299.71	7.91
300.177	16.21
300.644	17.21
301.111	15.21
301.578	19.01
302.045	11.41
302.512	16.81
302.979	15.01
303.446	11.11
303.913	12.01
304.379	13.31
304.846	17.11
305.313	18.91
305.78	15.41
306.246	21.71
306.713	25.41
307.18	18.81
307.646	20.21
308.113	25.51
308.579	16.71
309.046	17.91
309.512	26.21
309.979	11.51
310.445	25.11
310.912	17.71
311.378	25.51
311.845	18.61
312.311	21.71
312.777	23.21
313.244	18.61
313.71	25.11
314.176	22.71
314.642	21.71
315.109	21.51
315.575	25.71
316.041	28.91
316.507	26.61
316.973	35.51
317.439	28.31
317.905	29.11
318.371	31.61
318.837	25.91
319.303	22.61
319.769	24.91
320.235	22.71
320.701	28.31
321.167	29.31
321.633	24.01
322.099	28.41
322.564	32.01
323.03	28.11
323.496	32.01
323.962	31.41
324.427	24.21
324.893	34.31
325.359	27.01
325.824	33.21
326.29	27.31
326.755	31.41
327.221	30.41
327.686	40.11
328.152	34.51
328.617	27.01
329.083	40.81
329.548	41.01
330.014	41.81
330.479	28.21
330.944	33.51
331.41	36.41
331.875	30.41
332.34	37.71
332.805	38.61
333.271	36.41
333.736	34.11
334.201	41.71
334.666	45.91
335.131	43.51
335.596	45.41
336.061	41.11
336.526	28.41
336.991	39.01
337.456	48.01
337.921	44.11
338.386	37.01
338.851	38.71
339.316	37.11
339.781	41.71
340.246	48.11
340.711	43.31
341.175	44.01
341.64	42.01
342.105	38.91
342.569	48.91
343.034	45.31
343.499	43.81
343.963	42.81
344.428	56.31
344.893	52.41
345.357	55.91
345.822	56.81
346.286	56.91
346.751	65.01
347.215	56.51
347.679	58.11
348.144	76.21
348.608	68.41
349.073	58.21
349.537	63.91
350.001	70.11
350.465	72.41
350.93	63.41
351.394	66.21
351.858	64.01
352.322	75.81
352.786	73.71
353.25	83.01
353.715	89.71
354.179	78.71
354.643	99.81
355.107	107.11
355.571	90.61
356.035	84.11
356.498	94.81
356.962	100.41
357.426	104.01
357.89	93.01
358.354	80.11
358.818	73.21
359.281	67.71
359.745	69.11
360.209	64.81
360.673	62.81
361.136	64.31
361.6	67.41
362.064	67.91
362.527	76.21
362.991	76.81
363.454	67.61
363.918	67.61
364.381	66.11
364.845	74.21
365.308	72.91
365.772	75.31
366.235	74.61
366.698	74.51
367.162	74.31
367.625	85.01
368.088	77.11
368.552	78.51
369.015	79.91
369.478	85.11
369.941	88.61
370.404	78.41
370.867	93.01
371.331	90.81
371.794	101.11
372.257	91.41
372.72	95.51
373.183	90.41
373.646	85.51
374.109	81.51
374.572	91.81
375.035	87.01
375.497	90.21
375.96	95.81
376.423	88.51
376.886	98.21
377.349	89.11
377.811	96.61
378.274	97.41
378.737	94.81
379.199	107.71
379.662	102.41
380.125	105.81
380.587	103.51
381.05	106.01
381.512	108.11
381.975	122.71
382.437	119.51
382.9	108.91
383.362	115.91
383.825	119.81
384.287	119.91
384.75	124.01
385.212	123.61
385.674	121.81
386.136	128.81
386.599	114.91
387.061	116.61
387.523	111.81
387.985	121.21
388.447	132.51
388.91	123.11
389.372	141.11
389.834	126.91
390.296	125.91
390.758	134.01
391.22	143.51
391.682	169.51
392.144	211.31
392.606	174.31
393.068	147.81
393.529	150.91
393.991	132.91
394.453	124.31
394.915	133.71
395.377	149.91
395.838	154.11
396.3	136.81
396.762	138.31
397.224	125.51
397.685	126.81
398.147	124.51
398.608	122.01
399.07	119.01
399.531	130.31
399.993	134.21
400.454	139.71
400.916	137.91
401.377	136.51
401.839	145.41
402.3	143.61
402.762	160.01
403.223	166.41
403.684	159.91
404.145	155.91
404.607	143.51
405.068	157.31
405.529	151.11
405.99	178.71
406.451	163.61
406.913	164.61
407.374	154.61
407.835	158.81
408.296	165.71
408.757	164.61
409.218	172.81
409.679	168.61
410.14	164.51
410.601	167.81
411.062	171.51
411.522	181.41
411.983	177.31
412.444	169.71
412.905	173.91
413.366	177.91
413.826	188.01
414.287	211.71
414.748	258.91
415.208	245.81
415.669	211.61
416.13	202.31
416.59	192.31
417.051	210.71
417.511	216.81
417.972	232.61
418.432	248.71
418.893	286.11
419.353	250.61
419.814	192.01
420.274	176.81
420.734	174.11
421.195	187.91
421.655	190.11
422.115	193.91
422.576	185.31
423.036	199.11
423.496	204.21
423.956	212.11
424.416	229.01
424.876	265.81
425.336	256.81
425.797	248.51
426.257	250.51
426.717	234.21
427.177	220.41
427.637	219.31
428.097	228.81
428.556	242.31
429.016	262.21
429.476	257.31
429.936	262.71
430.396	262.71
430.856	283.01
431.315	310.11
431.775	331.21
432.235	365.21
432.694	331.11
433.154	348.31
433.614	375.91
434.073	325.41
434.533	271.41
434.993	260.61
435.452	269.81
435.912	285.41
436.371	278.01
436.83	276.11
437.29	260.21
437.749	238.21
438.209	248.41
438.668	265.41
439.127	281.11
439.587	253.11
440.046	247.81
440.505	246.91
440.964	272.71
441.424	311.51
441.883	296.81
442.342	254.31
442.801	224.31
443.26	221.71
443.719	221.61
444.178	215.31
444.637	213.11
445.096	219.61
445.555	219.91
446.014	224.11
446.473	230.61
446.932	237.81
447.391	233.41
447.849	228.71
448.308	217.61
448.767	220.01
449.226	236.31
449.685	233.91
450.143	243.21
450.602	238.61
451.061	222.11
451.519	238.81
451.978	229.11
452.436	228.01
452.895	230.21
453.353	250.61
453.812	238.01
454.27	241.01
454.729	238.91
455.187	248.61
455.646	245.51
456.104	243.51
456.562	261.51
457.021	270.51
457.479	253.11
457.937	270.81
458.395	262.61
458.854	248.61
459.312	252.41
459.77	266.01
460.228	256.11
460.686	244.11
461.144	255.11
461.602	253.11
462.06	249.91
462.518	254.21
462.976	259.51
463.434	257.81
463.892	260.71
464.35	272.01
464.808	289.21
465.266	262.41
465.724	268.61
466.181	266.21
466.639	272.01
467.097	295.91
467.555	301.01
468.012	301.61
468.47	305.41
468.928	322.81
469.385	336.11
469.843	346.61
470.3	344.21
470.758	357.61
471.215	386.71
471.673	404.61
472.13	405.91
472.588	410.81
473.045	373.81
473.503	377.91
473.96	388.41
474.417	411.51
474.875	432.41
475.332	471.31
475.789	459.41
476.246	461.41
476.704	492.31
477.161	503.91
477.618	525.51
478.075	560.11
478.532	609.21
478.989	669.71
479.446	789.91
479.903	748.11
480.36	778.71
480.817	834.71
481.274	925.41
481.731	1020.31
482.188	1100.61
482.645	1221.61
483.102	1316.51
483.558	1439.41
484.015	1473.41
484.472	1457.31
484.929	1413.41
485.385	1359.91
485.842	1328.31
486.299	1278.21
486.755	1229.31
487.212	1034.71
487.668	898.11
488.125	823.41
488.582	769.81
489.038	732.41
489.494	691.71
489.951	665.21
490.407	661.61
490.864	640.51
491.32	635.21
491.776	635.21
492.233	646.91
492.689	613.41
493.145	605.91
493.602	593.01
494.058	604.21
494.514	605.11
494.97	634.21
495.426	630.91
495.882	607.01
496.338	610.71
496.794	621.51
497.251	600.41
497.707	630.11
498.163	628.91
498.618	638.41
499.074	641.41
499.53	670.31
499.986	667.21
500.442	648.61
500.898	631.91
501.354	613.61
501.809	637.71
502.265	634.11
502.721	643.71
503.177	654.71
503.632	661.71
504.088	654.61
504.543	697.01
504.999	697.41
505.455	660.31
505.91	642.11
506.366	639.81
506.821	631.11
507.277	623.41
507.732	637.31
508.187	637.81
508.643	642.71
509.098	640.11
509.553	665.01
510.009	674.21
510.464	671.11
510.919	697.31
511.375	692.91
511.83	708.81
512.285	723.41
512.74	752.71
513.195	777.31
513.65	772.61
514.105	767.01
514.56	773.61
515.015	787.41
515.47	803.91
515.925	786.91
516.38	782.01
516.835	791.01
517.29	783.71
517.745	777.71
518.2	769.11
518.655	746.41
519.109	746.01
519.564	741.71
520.019	730.61
520.474	725.01
520.928	722.81
521.383	719.21
521.838	710.91
522.292	723.91
522.747	713.91
523.201	713.41
523.656	702.61
524.11	702.61
524.565	697.31
525.019	691.61
525.474	703.61
525.928	699.31
526.382	700.01
526.837	693.71
527.291	705.61
527.745	691.61
528.2	705.71
528.654	692.71
529.108	691.81
529.562	691.31
530.016	693.41
530.47	694.21
530.925	696.21
531.379	692.61
531.833	699.31
532.287	696.51
532.741	696.61
533.195	706.01
533.649	716.51
534.103	712.51
534.556	694.71
535.01	704.01
535.464	717.91
535.918	723.41
536.372	714.11
536.826	711.31
537.279	704.81
537.733	715.61
538.187	720.51
538.64	716.11
539.094	729.71
539.548	726.41
540.001	732.31
540.455	741.41
540.908	737.31
541.362	752.21
541.815	757.61
542.269	764.21
542.722	765.91
543.175	770.31
543.629	785.51
544.082	790.11
544.536	795.91
544.989	787.01
545.442	797.51
545.895	804.01
546.349	805.61
546.802	809.51
547.255	809.41
547.708	820.11
548.161	820.91
548.614	832.31
549.067	835.01
549.52	820.31
549.973	823.71
550.426	817.71
550.879	810.11
551.332	813.41
551.785	817.61
552.238	816.91
552.691	830.51
553.144	843.81
553.596	858.91
554.049	873.41
554.502	899.11
554.955	925.01
555.407	904.91
555.86	926.81
556.313	902.81
556.765	899.01
557.218	889.01
557.67	898.71
558.123	893.01
558.576	883.11
559.028	882.51
559.48	891.91
559.933	895.01
560.385	854.81
560.838	834.11
561.29	805.81
561.742	798.01
562.195	780.21
562.647	780.51
563.099	789.51
563.551	787.21
564.004	795.01
564.456	776.41
564.908	765.91
565.36	751.31
565.812	739.31
566.264	729.11
566.716	732.11
567.168	710.61
567.62	729.81
568.072	710.71
568.524	697.11
568.976	700.31
569.428	685.61
569.88	705.81
570.332	691.71
570.784	696.41
571.235	697.41
571.687	709.71
572.139	709.31
572.59	725.41
573.042	721.91
573.494	717.81
573.945	719.91
574.397	701.31
574.849	703.21
575.3	715.81
575.752	692.21
576.203	697.21
576.655	700.71
577.106	689.11
577.557	679.51
578.009	683.81
578.46	668.91
578.912	679.21
579.363	684.51
579.814	680.71
580.265	666.11
580.717	681.11
581.168	681.21
581.619	682.81
582.07	696.41
582.521	676.91
582.972	682.91
583.423	693.41
583.875	690.21
584.326	694.41
584.777	729.21
585.227	783.31
585.678	837.51
586.129	879.31
586.58	922.31
587.031	976.51
587.482	1063.71
587.933	1167.91
588.384	1061.61
588.834	885.51
589.285	816.11
589.736	796.61
590.186	791.91
590.637	777.31
591.088	755.21
591.538	752.51
591.989	747.31
592.439	733.21
592.89	729.51
593.34	723.11
593.791	722.71
594.241	714.91
594.692	713.21
595.142	715.51
595.593	710.71
596.043	721.01
596.493	728.01
596.943	719.81
597.394	733.21
597.844	725.01
598.294	758.71
598.744	782.41
599.195	793.01
599.645	838.41
600.095	872.21
600.545	947.01
600.995	988.51
601.445	1046.81
601.895	1121.01
602.345	1152.21
602.795	1133.11
603.245	1089.71
603.695	1042.11
604.145	974.01
604.594	937.71
605.044	876.11
605.494	821.01
605.944	774.11
606.393	759.51
606.843	740.11
607.293	753.91
607.743	746.71
608.192	761.81
608.642	773.81
609.091	775.01
609.541	780.41
609.99	787.81
610.44	776.91
610.889	737.81
611.339	716.81
611.788	703.11
612.238	710.51
612.687	735.21
613.136	728.61
613.586	737.81
614.035	729.61
614.484	758.61
614.933	740.01
615.383	730.41
615.832	739.91
616.281	725.71
616.73	695.21
617.179	670.51
617.628	655.41
618.077	641.91
618.526	632.01
618.975	637.11
619.424	633.01
619.873	619.21
620.322	618.61
620.771	619.21
621.22	625.91
621.669	605.51
622.118	591.41
622.567	600.91
623.015	585.01
623.464	582.91
623.913	571.61
624.361	570.91
624.81	569.51
625.259	567.31
625.707	571.71
626.156	572.81
626.604	582.91
627.053	574.21
627.501	578.31
627.95	577.91
628.398	598.71
628.847	585.51
629.295	578.11
629.744	584.21
630.192	577.61
630.64	585.91
631.089	571.61
631.537	574.31
631.985	564.11
632.433	583.41
632.881	585.91
633.33	600.11
633.778	602.01
634.226	549.91
634.674	572.71
635.122	575.81
635.57	588.71
636.018	607.41
636.466	589.41
636.914	573.71
637.362	582.31
637.81	595.01
638.258	597.31
638.705	597.01
639.153	632.61
639.601	646.21
640.049	668.01
640.497	689.41
640.944	718.31
641.392	674.61
641.84	627.71
642.287	607.41
642.735	585.61
643.182	582.31
643.63	579.61
644.078	583.41
644.525	598.11
644.973	603.41
645.42	615.21
645.867	631.91
646.315	650.01
646.762	661.51
647.21	700.71
647.657	720.01
648.104	753.11
648.551	785.11
648.999	844.11
649.446	916.51
649.893	1014.81
650.34	1162.51
650.787	1376.31
651.234	1695.81
651.682	2230.31
652.129	3021.01
652.576	4342.51
653.023	6349.61
653.47	8581.61
653.917	10598.21
654.363	12117.81
654.81	13313.71
655.257	12613.61
655.704	8294.51
656.151	4987.41
656.598	3251.21
657.044	2335.91
657.491	1810.71
657.938	1459.81
658.385	1221.81
658.831	1068.61
659.278	954.11
659.724	860.11
660.171	792.11
660.618	729.91
661.064	691.11
661.511	680.41
661.957	666.91
662.404	661.21
662.85	659.61
663.296	633.61
663.743	570.91
664.189	566.71
664.635	546.01
665.082	543.01
665.528	541.31
665.974	539.31
666.42	522.31
666.867	519.81
667.313	504.31
667.759	487.71
668.205	479.81
668.651	472.71
669.097	485.21
669.543	484.21
669.989	467.91
670.435	468.71
670.881	461.31
671.327	459.21
671.773	489.81
672.219	516.41
672.665	563.71
673.11	606.61
673.556	654.51
674.002	695.01
674.448	672.41
674.893	578.71
675.339	492.21
675.785	453.91
676.23	427.81
676.676	407.41
677.122	395.71
677.567	392.31
678.013	384.21
678.458	371.91
678.904	382.41
679.349	364.51
679.794	366.41
680.24	359.01
680.685	362.91
681.131	361.61
681.576	358.71
682.021	373.21
682.466	368.91
682.912	361.01
683.357	363.91
683.802	402.61
684.247	430.61
684.692	468.71
685.137	521.81
685.583	553.91
686.028	590.41
686.473	537.71
686.918	464.31
687.363	427.41
687.807	407.61
688.252	375.21
688.697	374.91
689.142	352.81
689.587	339.61
690.032	334.21
690.477	350.11
690.921	370.21
691.366	394.11
691.811	417.61
692.255	453.11
692.7	487.01
693.145	534.01
693.589	752.81
694.034	1208.81
694.478	1632.91
694.923	1805.51
695.367	2309.11
695.812	1246.31
696.256	522.31
696.701	385.71
697.145	352.91
697.59	344.31
698.034	336.11
698.478	343.71
698.922	340.01
699.367	336.91
699.811	350.41
700.255	369.51
700.699	414.71
701.143	443.81
701.588	492.81
702.032	532.51
702.476	534.61
702.92	518.31
703.364	529.91
703.808	694.71
704.252	1121.71
704.696	1531.91
705.14	1725.11
705.584	2196.81
706.027	1113.31
706.471	552.41
706.915	416.01
707.359	369.91
707.803	330.81
708.246	318.61
708.69	324.01
709.134	328.81
709.577	326.31
710.021	333.51
710.465	320.21
710.908	326.81
711.352	311.31
711.795	333.41
712.239	362.41
712.682	409.61
713.126	438.01
713.569	478.01
714.012	379.01
714.456	319.21
714.899	302.41
715.342	285.61
715.786	276.31
716.229	269.61
716.672	264.41
717.115	255.41
717.558	261.01
718.002	263.41
718.445	278.21
718.888	300.81
719.331	307.01
719.774	324.41
720.217	320.31
720.66	294.11
721.103	282.51
721.546	270.71
721.989	259.11
722.432	239.01
722.874	247.21
723.317	243.51
723.76	252.11
724.203	261.81
724.645	341.61
725.088	478.21
725.531	594.71
725.974	669.21
726.416	566.31
726.859	323.61
727.301	258.81
727.744	247.41
728.187	240.61
728.629	253.91
729.071	258.01
729.514	269.41
729.956	284.11
730.399	290.61
730.841	302.81
731.283	288.51
731.726	284.61
732.168	268.01
732.61	285.01
733.053	298.81
733.495	331.51
733.937	364.31
734.379	419.91
734.821	467.11
735.263	588.01
735.705	925.51
736.148	1731.31
736.59	2741.01
737.032	3157.11
737.474	2548.91
737.916	845.31
738.357	450.61
738.799	344.91
739.241	307.81
739.683	297.51
740.125	305.31
740.567	318.01
741.008	332.91
741.45	327.81
741.892	333.41
742.334	367.71
742.775	375.41
743.217	354.01
743.658	281.71
744.1	266.01
744.542	280.31
744.983	332.21
745.425	364.71
745.866	361.21
746.307	294.31
746.749	296.81
747.19	341.41
747.632	501.91
748.073	981.21
748.514	2027.01
748.956	2981.21
749.397	3788.51
749.838	3125.31
750.279	3043.91
750.72	1553.01
751.162	579.41
751.603	343.01
752.044	260.31
752.485	227.01
752.926	219.11
753.367	215.01
753.808	201.41
754.249	203.01
754.69	194.11
755.131	194.01
755.572	194.21
756.013	190.61
756.453	190.81
756.894	201.01
757.335	205.21
757.776	204.91
758.216	203.21
758.657	206.51
759.098	213.21
759.538	239.61
759.979	287.61
760.42	407.71
760.86	785.41
761.301	2056.51
761.741	4782.11
762.182	6610.61
762.622	4676.31
763.063	1386.11
763.503	576.31
763.943	348.51
764.384	325.51
764.824	330.81
765.264	339.81
765.705	264.41
766.145	204.21
766.585	192.51
767.025	176.81
767.465	189.11
767.906	220.11
768.346	262.21
768.786	277.01
769.226	249.81
769.666	341.51
770.106	679.21
770.546	1706.31
770.986	2764.11
771.426	2423.91
771.866	834.91
772.306	348.91
772.745	214.71
773.185	179.71
773.625	180.21
774.065	163.91
774.505	181.01
774.944	265.81
775.384	524.41
775.824	851.71
776.263	818.01
776.703	379.91
777.142	198.01
777.582	148.11
778.021	138.61
778.461	129.01
778.9	138.21
779.34	137.91
779.779	120.31
780.219	112.31
780.658	117.41
781.097	117.21
781.537	116.91
781.976	108.51
782.415	107.01
782.855	107.41
783.294	113.61
783.733	112.21
784.172	114.41
784.611	113.61
785.05	113.21
785.489	118.31
785.928	126.71
786.367	123.81
786.806	128.81
787.245	141.41
787.684	145.61
788.123	155.21
788.562	135.11
789.001	134.91
789.44	130.41
789.879	120.91
790.317	128.01
790.756	134.81
791.195	136.71
791.634	155.81
792.072	221.31
792.511	403.21
792.95	1113.81
793.388	2220.41
793.827	1975.01
794.265	702.01
794.704	295.11
795.142	192.61
795.581	162.71
796.019	144.71
796.458	147.41
796.896	132.61
797.334	134.11
797.773	163.31
798.211	233.01
798.649	487.41
799.087	1098.81
799.526	1704.41
799.964	2140.81
800.402	2062.31
800.84	801.21
801.278	324.71
801.716	203.01
802.154	163.51
802.592	157.71
803.03	148.71
803.468	144.61
803.906	150.71
804.344	155.91
804.782	148.01
805.22	142.71
805.658	138.01
806.096	157.61
806.533	167.01
806.971	190.31
807.409	232.31
807.847	352.81
808.284	744.91
808.722	2029.61
809.16	3443.51
809.597	3394.01
810.035	5765.81
810.472	5898.81
810.91	2177.91
811.347	849.51
811.785	426.91
812.222	263.91
812.66	203.31
813.097	170.91
813.535	153.31
813.972	136.21
814.409	126.01
814.846	116.61
815.284	115.71
815.721	114.21
816.158	109.41
816.595	118.91
817.032	176.51
817.47	193.01
817.907	151.91
818.344	122.41
818.781	110.91
819.218	103.01
819.655	132.91
820.092	197.21
820.529	231.91
820.966	180.81
821.403	134.71
821.839	105.31
822.276	107.71
822.713	123.91
823.15	143.11
823.587	126.31
824.023	166.61
824.46	333.11
824.897	967.21
825.333	1404.61
825.77	608.91
826.206	246.81
826.643	141.01
827.08	98.01
827.516	90.01
827.953	82.01
828.389	84.81
828.825	76.11
829.262	74.91
829.698	62.91
830.135	73.01
830.571	64.51
831.007	71.11
831.443	68.51
831.88	58.51
832.316	69.81
832.752	69.71
833.188	70.21
833.624	63.91
834.06	72.21
834.497	68.91
834.933	73.61
835.369	76.21
835.805	76.51
836.241	77.71
836.677	92.21
837.112	87.21
837.548	110.41
837.984	143.81
838.42	223.41
838.856	550.51
839.292	1644.61
839.727	2388.31
840.163	1119.51
840.599	1011.51
841.034	2161.51
841.47	2169.41
841.906	810.11
842.341	346.61
842.777	220.31
843.212	253.51
843.648	234.01
844.083	133.51
844.519	85.31
844.954	76.01
845.39	62.01
845.825	60.71
846.261	59.61
846.696	60.11
847.131	60.21
847.566	53.91
848.002	53.71
848.437	57.11
848.872	73.41
849.307	67.81
849.742	91.01
850.177	201.11
850.613	609.41
851.048	913.51
851.483	399.01
851.918	168.21
852.353	91.01
852.788	59.01
853.223	54.41
853.657	56.81
854.092	50.51
854.527	45.91
854.962	39.71
855.397	47.51
855.832	49.91
856.266	43.81
856.701	45.31
857.136	39.01
857.57	46.81
858.005	49.11
858.44	58.91
858.874	48.91
859.309	55.01
859.743	44.61
860.178	47.01
860.612	41.31
861.047	53.61
861.481	74.11
861.915	73.71
862.35	57.21
862.784	37.11
863.218	37.81
863.653	37.81
864.087	46.71
864.521	55.81
864.955	69.21
865.39	164.91
865.824	182.81
866.258	127.31
866.692	178.01
867.126	185.71
867.56	114.11
867.994	54.21
868.428	37.61
868.862	47.51
869.296	56.51
869.73	64.61
870.164	60.51
870.598	54.31
871.031	40.21
871.465	34.11
871.899	27.91
872.333	31.41
872.766	26.81
873.2	24.21
873.634	28.21
874.067	23.31
874.501	29.81
874.935	35.71
875.368	36.11
875.802	34.91
876.235	28.41
876.669	23.31
877.102	21.61
877.535	26.71
877.969	27.71
878.402	28.01
878.836	16.51
879.269	31.11
879.702	26.81
880.135	25.81
880.569	22.71
881.002	25.51
881.435	26.31
881.868	25.91
882.301	21.61
882.734	24.11
883.167	28.61
883.601	20.01
884.034	21.71
884.467	17.51
884.899	19.41
885.332	18.61
885.765	16.91
886.198	23.71
886.631	18.61
887.064	21.11
887.497	20.91
887.929	25.61
888.362	18.31
888.795	16.11
889.228	19.41
889.66	15.71
890.093	17.81
890.526	20.51
890.958	19.11
891.391	18.71
891.823	25.31
892.256	11.41
892.688	12.81
893.121	19.91
893.553	20.51
893.985	21.61
894.418	17.41
894.85	14.71
895.282	17.41
895.715	19.91
896.147	17.61
896.579	18.51
897.011	14.51
897.444	18.01
897.876	13.01
898.308	25.01
898.74	19.41
899.172	8.71
899.604	25.61
900.036	19.11
900.468	17.21
900.9	15.61
901.332	20.41
901.764	15.71
902.196	19.91
902.628	19.91
903.06	18.01
903.491	30.31
903.923	25.01
904.355	29.31
904.787	25.61
905.218	30.71
905.65	22.81
906.082	14.61
906.513	16.11
906.945	15.11
907.376	22.61
907.808	15.11
908.239	26.11
908.671	18.31
909.102	25.01
909.534	24.11
909.965	47.81
910.397	103.21
910.828	334.11
911.259	494.21
911.691	223.71
912.122	118.71
912.553	57.81
912.984	34.81
913.415	30.41
913.847	23.21
914.278	21.21
914.709	18.01
915.14	16.61
915.571	18.31
916.002	10.21
916.433	21.91
916.864	23.21
917.295	15.91
917.726	27.61
918.157	15.21
918.587	25.91
919.018	24.11
919.449	21.21
919.88	27.71
920.311	28.21
920.741	56.01
921.172	178.91
921.603	159.61
922.033	78.41
922.464	48.61
922.895	22.11
923.325	19.31
923.756	19.21
924.186	14.31
924.617	20.61
925.047	28.41
925.478	38.91
925.908	31.51
926.338	14.51
926.769	15.81
927.199	17.31
927.629	12.81
928.06	15.51
928.49	18.81
928.92	10.61
929.35	16.61
929.78	13.51
930.21	3.01
930.641	9.21
931.071	7.61
931.501	8.81
931.931	9.91
932.361	9.31
932.791	9.01
933.221	6.21
933.651	9.11
934.08	24.91
934.51	33.71
934.94	15.81
935.37	11.51
935.8	14.61
936.229	9.91
936.659	12.31
937.089	2.11
937.519	13.31
937.948	23.71
938.378	13.11
938.807	6.11
939.237	5.41
939.666	9.61
940.096	-3.89
940.525	1.01
940.955	6.11
941.384	4.91
941.814	-0.69
942.243	4.21
942.672	4.41
943.102	1.11
943.531	-2.09
943.96	7.61
944.39	3.91
944.819	0.91
945.248	-0.89
945.677	3.41
946.106	5.71
946.535	3.71
946.964	4.01
947.393	0.11
947.822	3.01
948.251	-3.29
948.68	6.41
949.109	5.01
949.538	6.21
949.967	3.01
950.396	0.41
950.825	4.51
951.254	-0.09
951.682	-7.59
952.111	8.11
952.54	11.11
952.969	-1.69
953.397	-5.09
953.826	4.21
954.254	-2.09
954.683	10.51
955.112	1.61
955.54	2.81
955.969	2.71
956.397	1.91
956.826	-4.99
957.254	2.91
957.682	6.01
958.111	5.61
958.539	5.11
958.967	4.01
959.396	8.71
959.824	4.71
960.252	-1.59
960.68	-5.29
961.109	-1.79
961.537	-0.89
961.965	-0.89
962.393	4.31
962.821	-8.19
963.249	1.71
963.677	3.91
964.105	4.91
964.533	50.11
964.961	45.51
965.389	20.81
965.817	11.81
966.245	2.81
966.672	3.91
967.1	-12.09
967.528	-0.59
967.956	0.21
968.383	-3.59
968.811	-8.19
969.239	-1.69
969.666	-8.59
970.094	4.91
970.522	0.11
970.949	0.51
971.377	-3.79
971.804	0.01
972.232	0.01
972.659	1.01
973.087	0.21
973.514	-5.69
973.941	-3.29
974.369	9.91
974.796	3.61
975.223	-11.29
975.651	-2.29
976.078	1.61
976.505	-1.89
976.932	7.11
977.359	14.31
977.786	18.41
978.214	-0.19
978.641	1.41
979.068	-8.19
979.495	-3.09
979.922	2.21
980.349	2.71
980.776	2.51
981.202	-6.19
981.629	5.11
982.056	0.91
982.483	6.41
982.91	8.41
983.337	-6.39
983.763	1.81
984.19	-2.99
984.617	-1.39
985.043	-2.59
985.47	2.91
985.897	-0.69
986.323	-3.09
986.75	-2.09
987.176	-7.49
987.603	-0.19
988.029	0.21
988.456	0.91
988.882	4.71
989.308	-0.39
989.735	-4.89
990.161	4.11
990.587	-1.79
991.014	3.11
991.44	10.61
991.866	-1.59
992.292	-4.59
992.719	1.71
993.145	4.01
993.571	-11.49
993.997	2.41
994.423	-4.09
994.849	-2.89
995.275	5.51
995.701	-3.29
996.127	-7.09
996.553	-1.39
996.979	-2.59
997.405	2.01
997.83	-3.79
998.256	-11.99
998.682	-3.89
999.108	-9.99
999.534	-1.09
999.959	-2.09
1000.385	1.21
1000.811	1.11
1001.236	-3.09
1001.662	-7.49
1002.087	-9.39
1002.513	3.11
1002.938	8.31
1003.364	-0.79
1003.789	-0.99
1004.215	-0.89
1004.64	-4.09
1005.066	0.11
1005.491	9.21
1005.916	0.91
1006.342	-5.89
1006.767	-5.09
1007.192	3.11
1007.617	-3.39
1008.042	-0.69
1008.468	-9.69
1008.893	-5.39
1009.318	-4.29
1009.743	-0.99
1010.168	1.81
1010.593	4.01
1011.018	-5.79
1011.443	-1.39
1011.868	0.11
1012.293	-0.39
1012.718	-2.09
1013.143	-0.79
1013.567	-3.89
1013.992	-3.09
1014.417	-8.49
1014.842	3.61
1015.267	-7.19
1015.691	-3.19
1016.116	4.31
1016.541	-1.89
1016.965	-0.19
1017.39	1.71
1017.814	2.61
1018.239	-1.79
1018.663	-7.39
1019.088	-9.69
1019.512	-2.09
1019.937	1.11
1020.361	-3.29
1020.785	-6.59
1021.21	-0.89
1021.634	5.61
1022.058	-0.49
1022.483	6.71
1022.907	-2.89
1023.331	-5.49
1023.755	-4.49
1024.179	-0.39
1024.604	-4.09
1025.028	-6.69
1025.452	-6.19
1025.876	-7.29
1026.3	-0.69
1026.724	-7.09
1027.148	-4.39
1027.572	-8.29
1027.996	-0.69
1028.42	-0.69
1028.843	-0.49
1029.267	-4.59
1029.691	-0.29
1030.115	-7.39
1030.539	-3.99
1030.962	-1.99
1031.386	-5.99
1031.81	-2.59
1032.233	-0.79
1032.657	-0.79
1033.08	0.91
1033.504	1.61
1033.927	-2.09
1034.351	3.21
1034.774	-6.19
1035.198	-0.39
1035.621	-4.19
1036.045	-4.89
1036.468	-2.79
1036.891	-9.39
1037.315	-7.29
1037.738	-10.89
1038.161	0.11
1038.584	-5.39
1039.008	-9.29
1039.431	-4.69
1039.854	2.21
1040.277	-14.49
1040.7	-11.49
1041.123	-1.99
1041.546	-8.19
1041.969	-6.49
1042.392	-0.79
1042.815	0.11
1043.238	-0.99
1043.661	4.51
1044.084	-3.39
1044.507	-7.69
1044.93	-6.79
1045.352	2.31
1045.775	1.51
1046.198	-1.59
1046.621	-0.09
1047.043	5.91
1047.466	9.61
1047.889	-6.29
1048.311	-0.19
1048.734	-2.09
1049.156	-4.29
1049.579	-4.99
1050.001	0.61
1050.424	-1.09
1050.846	2.51
1051.269	-2.29
1051.691	-7.09
1052.113	4.51
1052.536	7.51
1052.958	-2.99
1053.38	-0.69
1053.802	-4.49
1054.225	3.71
1054.647	-7.39
1055.069	-2.19
1055.491	-4.79
1055.913	-4.39
1056.335	0.71
1056.757	-1.89
1057.179	-2.89
1057.601	-11.39
1058.023	1.71
1058.445	-5.89
1058.867	0.01
1059.289	-7.29
1059.711	-3.39
1060.133	-2.79
1060.555	-6.99
1060.976	-10.19
1061.398	-5.99
1061.82	-5.39
1062.241	-7.49
1062.663	-11.39
1063.085	-8.89
1063.506	-0.69
1063.928	-11.69
1064.35	-0.49
1064.771	-11.29
1065.193	3.51
1065.614	-2.29
1066.035	-5.69
1066.457	-1.29
1066.878	-4.19
1067.3	0.31
1067.721	0.41
1068.142	-0.99
1068.564	-0.59
1068.985	-3.99
1069.406	-2.69
1069.827	-4.19
1070.248	1.11
1070.67	-10.79
1071.091	-0.59
1071.512	-5.59
1071.933	-5.69
1072.354	-4.89
1072.775	-0.89
1073.196	-5.19
1073.617	-0.19
1074.038	-4.99
1074.459	0.21
1074.88	-5.79
1075.3	-2.69
1075.721	0.11
1076.142	0.91
1076.563	0.91
1076.983	-6.09
1077.404	-4.79
1077.825	-4.59
1078.246	-3.49
1078.666	-2.39
1079.087	-5.19
1079.507	-7.49
1079.928	3.61
1080.348	-0.99
1080.769	-6.99
1081.189	2.91
1081.61	-6.59
1082.03	-3.69
1082.451	-4.29
1082.871	-2.09
1083.291	-8.79
1083.711	-10.39
1084.132	-3.39
1084.552	0.51
1084.972	2.01
1085.392	-11.79
1085.813	-2.39
1086.233	-8.99
1086.653	-8.29
1087.073	-4.19
1087.493	-7.99
1087.913	-2.49
1088.333	-7.19
1088.753	-2.09
1089.173	2.01
1089.593	-2.59
1090.013	5.01
1090.433	-2.49
1090.852	0.81
1091.272	1.41
1091.692	-3.19
1092.112	-3.19
1092.531	-7.49
1092.951	-14.99
1093.371	-2.69
1093.79	2.31
1094.21	-3.59
1094.63	-2.49
1095.049	-3.39
1095.469	4.31
1095.888	-1.99
1096.308	1.61
1096.727	2.71
1097.146	-7.49
1097.566	1.11
1097.985	-3.79
1098.405	-0.89
1098.824	-3.79
1099.243	-3.69
1099.662	-6.09
1100.082	-0.69
1100.501	-2.99
1100.92	0.41
1101.339	-0.79
1101.758	-6.39
