Data from 20171114-ORNL-Ar_H_NY_Subt18_08-06-21-280.txt Node
Date: Tue Nov 14 08:06:21 EST 2017
User: Ender
Spectrometer: HR+D1039
Trigger mode: 0
Integration Time (sec): 2.730000E-2
Scans to average: 10
Electric dark correction enabled: true
Nonlinearity correction enabled: false
Boxcar width: 0
XAxis mode: Wavelengths
Number of Pixels in Spectrum: 2048
>>>>>Begin Spectral Data<<<<<
187.836	-4.28
188.309	-4.28
188.782	-4.28
189.255	0.42
189.728	-5.48
190.201	9.32
190.674	1.42
191.147	3.32
191.619	-5.28
192.092	5.12
192.565	0.12
193.038	-1.08
193.511	-0.18
193.984	-1.48
194.456	-1.08
194.929	-1.48
195.402	1.52
195.874	-0.98
196.347	1.12
196.82	1.62
197.292	3.62
197.765	-0.68
198.237	-3.88
198.71	4.42
199.182	-3.58
199.655	4.92
200.127	4.12
200.6	-2.68
201.072	1.72
201.544	-0.78
202.017	-0.98
202.489	2.72
202.961	-1.48
203.433	-0.78
203.906	-4.08
204.378	-2.18
204.85	-4.98
205.322	-6.28
205.794	-1.28
206.266	-4.18
206.739	-7.48
207.211	3.52
207.683	-6.38
208.155	-5.48
208.627	-0.98
209.099	-4.58
209.57	-18.08
210.042	-3.78
210.514	-4.88
210.986	-1.98
211.458	-8.18
211.93	-3.78
212.402	-1.48
212.873	-9.28
213.345	-9.38
213.817	-10.28
214.288	0.22
214.76	-12.08
215.232	-1.38
215.703	-5.18
216.175	-2.08
216.646	-2.98
217.118	-6.48
217.589	-5.98
218.061	-1.48
218.532	-7.08
219.004	-3.98
219.475	4.02
219.946	-6.58
220.418	-4.38
220.889	2.22
221.36	-0.78
221.832	-0.48
222.303	-9.08
222.774	1.52
223.245	-5.38
223.717	0.22
224.188	-3.98
224.659	-7.88
225.13	-7.88
225.601	2.32
226.072	4.42
226.543	2.22
227.014	1.22
227.485	-1.28
227.956	-4.58
228.427	3.82
228.898	-0.38
229.369	7.42
229.839	-2.98
230.31	-6.98
230.781	4.92
231.252	0.22
231.722	-1.68
232.193	1.42
232.664	-2.38
233.135	4.52
233.605	2.92
234.076	-2.18
234.546	-1.58
235.017	1.52
235.487	-0.18
235.958	1.22
236.428	-5.78
236.899	-0.58
237.369	4.92
237.84	-1.98
238.31	5.12
238.78	1.82
239.251	-2.88
239.721	3.12
240.191	-1.68
240.662	-0.78
241.132	-2.28
241.602	1.72
242.072	0.52
242.542	8.82
243.013	4.72
243.483	1.62
243.953	3.32
244.423	2.32
244.893	2.72
245.363	2.92
245.833	1.22
246.303	1.02
246.773	9.32
247.243	-1.98
247.712	4.32
248.182	9.02
248.652	7.62
249.122	0.12
249.592	9.72
250.061	17.82
250.531	32.22
251.001	13.62
251.471	19.42
251.94	16.02
252.41	11.72
252.879	-3.38
253.349	17.72
253.818	8.12
254.288	5.72
254.757	5.02
255.227	3.82
255.696	3.62
256.166	8.22
256.635	5.82
257.105	10.82
257.574	9.62
258.043	9.72
258.513	9.42
258.982	17.22
259.451	14.42
259.92	14.72
260.389	8.72
260.859	19.12
261.328	11.32
261.797	16.72
262.266	6.22
262.735	15.32
263.204	8.32
263.673	2.92
264.142	2.72
264.611	-3.38
265.08	5.62
265.549	0.12
266.018	13.12
266.487	0.82
266.955	3.52
267.424	-0.58
267.893	6.62
268.362	-2.78
268.83	4.42
269.299	15.12
269.768	4.52
270.236	11.32
270.705	4.92
271.174	3.62
271.642	5.02
272.111	6.42
272.579	16.92
273.048	19.12
273.516	27.62
273.985	27.42
274.453	25.82
274.922	20.02
275.39	17.52
275.858	3.82
276.327	18.02
276.795	18.82
277.263	13.22
277.731	23.02
278.2	53.12
278.668	55.62
279.136	44.22
279.604	18.12
280.072	16.02
280.54	12.72
281.008	9.32
281.477	11.72
281.945	13.72
282.413	18.62
282.881	16.82
283.348	11.52
283.816	18.62
284.284	14.02
284.752	21.72
285.22	10.82
285.688	15.62
286.156	19.92
286.623	44.32
287.091	54.42
287.559	25.32
288.026	14.72
288.494	14.82
288.962	9.82
289.429	10.62
289.897	14.82
290.364	16.92
290.832	19.22
291.3	19.42
291.767	18.62
292.234	27.52
292.702	17.72
293.169	20.32
293.637	22.72
294.104	15.92
294.571	12.22
295.039	11.92
295.506	15.02
295.973	15.32
296.44	18.32
296.908	20.32
297.375	19.72
297.842	19.62
298.309	21.42
298.776	16.02
299.243	19.82
299.71	14.52
300.177	15.92
300.644	25.02
301.111	21.62
301.578	26.22
302.045	19.62
302.512	19.42
302.979	22.92
303.446	22.52
303.913	20.12
304.379	21.82
304.846	36.32
305.313	24.12
305.78	20.72
306.246	27.82
306.713	28.72
307.18	24.82
307.646	31.42
308.113	30.82
308.579	25.02
309.046	36.12
309.512	26.12
309.979	29.02
310.445	29.02
310.912	31.82
311.378	37.42
311.845	29.52
312.311	33.12
312.777	31.92
313.244	29.42
313.71	37.92
314.176	36.82
314.642	32.52
315.109	34.32
315.575	35.82
316.041	39.32
316.507	34.52
316.973	38.82
317.439	42.02
317.905	33.72
318.371	34.42
318.837	30.52
319.303	37.92
319.769	39.32
320.235	39.32
320.701	36.22
321.167	40.92
321.633	42.32
322.099	36.82
322.564	47.82
323.03	46.22
323.496	39.02
323.962	41.02
324.427	39.12
324.893	46.72
325.359	43.32
325.824	38.12
326.29	42.52
326.755	44.42
327.221	45.72
327.686	47.32
328.152	44.92
328.617	49.92
329.083	49.82
329.548	52.02
330.014	48.12
330.479	40.82
330.944	44.62
331.41	40.42
331.875	50.62
332.34	49.12
332.805	44.02
333.271	48.42
333.736	44.52
334.201	55.22
334.666	52.02
335.131	51.92
335.596	51.52
336.061	50.12
336.526	41.72
336.991	49.22
337.456	55.72
337.921	48.22
338.386	43.02
338.851	45.62
339.316	53.62
339.781	45.52
340.246	58.32
340.711	50.82
341.175	57.32
341.64	50.72
342.105	59.02
342.569	60.52
343.034	62.82
343.499	58.82
343.963	55.92
344.428	70.42
344.893	63.52
345.357	61.92
345.822	67.72
346.286	72.82
346.751	76.62
347.215	66.52
347.679	83.22
348.144	103.12
348.608	89.32
349.073	66.62
349.537	78.92
350.001	77.42
350.465	96.22
350.93	84.82
351.394	88.72
351.858	81.12
352.322	93.32
352.786	90.62
353.25	99.82
353.715	119.82
354.179	105.62
354.643	121.02
355.107	126.72
355.571	111.82
356.035	112.32
356.498	119.42
356.962	127.02
357.426	146.02
357.89	127.22
358.354	93.12
358.818	87.12
359.281	79.32
359.745	86.02
360.209	80.52
360.673	74.32
361.136	87.32
361.6	84.32
362.064	79.52
362.527	90.12
362.991	89.12
363.454	80.92
363.918	80.92
364.381	82.62
364.845	88.42
365.308	94.52
365.772	86.02
366.235	80.62
366.698	82.02
367.162	81.92
367.625	99.72
368.088	98.12
368.552	94.42
369.015	96.92
369.478	104.32
369.941	102.12
370.404	99.72
370.867	112.52
371.331	111.02
371.794	121.22
372.257	118.32
372.72	123.82
373.183	113.32
373.646	106.02
374.109	110.82
374.572	115.42
375.035	109.62
375.497	109.62
375.96	113.32
376.423	111.82
376.886	118.82
377.349	112.72
377.811	106.62
378.274	107.02
378.737	111.72
379.199	118.62
379.662	118.32
380.125	121.62
380.587	119.02
381.05	127.72
381.512	134.92
381.975	140.32
382.437	136.12
382.9	140.12
383.362	135.32
383.825	149.92
384.287	149.42
384.75	140.32
385.212	146.42
385.674	150.82
386.136	141.12
386.599	130.42
387.061	135.82
387.523	133.42
387.985	144.52
388.447	155.52
388.91	157.92
389.372	161.82
389.834	158.42
390.296	151.92
390.758	156.62
391.22	177.22
391.682	219.22
392.144	306.32
392.606	240.72
393.068	168.52
393.529	175.72
393.991	162.02
394.453	153.52
394.915	160.82
395.377	196.72
395.838	218.22
396.3	156.92
396.762	139.52
397.224	137.82
397.685	133.12
398.147	136.82
398.608	129.02
399.07	137.52
399.531	145.42
399.993	158.02
400.454	158.22
400.916	144.62
401.377	148.62
401.839	159.82
402.3	153.92
402.762	172.82
403.223	183.92
403.684	179.72
404.145	168.22
404.607	168.32
405.068	167.82
405.529	183.12
405.99	194.62
406.451	182.92
406.913	180.12
407.374	167.62
407.835	163.12
408.296	174.72
408.757	184.52
409.218	193.82
409.679	190.22
410.14	185.72
410.601	191.12
411.062	188.22
411.522	202.52
411.983	199.02
412.444	182.92
412.905	190.12
413.366	190.32
413.826	201.72
414.287	222.32
414.748	266.32
415.208	257.12
415.669	223.92
416.13	220.02
416.59	212.62
417.051	225.72
417.511	227.82
417.972	248.32
418.432	253.32
418.893	306.22
419.353	266.42
419.814	209.02
420.274	189.52
420.734	185.72
421.195	210.52
421.655	201.22
422.115	204.22
422.576	203.92
423.036	215.22
423.496	212.82
423.956	229.22
424.416	243.52
424.876	279.72
425.336	272.12
425.797	276.72
426.257	270.22
426.717	247.72
427.177	243.12
427.637	231.12
428.097	242.02
428.556	261.02
429.016	283.62
429.476	274.82
429.936	288.82
430.396	293.82
430.856	296.32
431.315	323.02
431.775	371.82
432.235	391.82
432.694	374.32
433.154	382.32
433.614	399.22
434.073	350.52
434.533	300.92
434.993	286.92
435.452	293.92
435.912	308.42
436.371	297.82
436.83	298.62
437.29	284.72
437.749	260.82
438.209	255.32
438.668	286.72
439.127	293.22
439.587	276.82
440.046	256.42
440.505	272.02
440.964	286.02
441.424	339.62
441.883	330.22
442.342	273.42
442.801	235.02
443.26	227.52
443.719	229.72
444.178	234.12
444.637	219.22
445.096	225.92
445.555	235.72
446.014	231.82
446.473	236.62
446.932	238.62
447.391	227.52
447.849	236.52
448.308	225.92
448.767	233.52
449.226	244.52
449.685	242.52
450.143	259.12
450.602	244.42
451.061	234.72
451.519	238.02
451.978	249.92
452.436	246.42
452.895	250.72
453.353	263.72
453.812	248.92
454.27	246.82
454.729	258.62
455.187	252.92
455.646	257.12
456.104	263.42
456.562	273.52
457.021	287.22
457.479	268.72
457.937	282.92
458.395	270.42
458.854	254.82
459.312	270.52
459.77	292.72
460.228	267.52
460.686	258.02
461.144	258.12
461.602	253.12
462.06	252.82
462.518	266.72
462.976	265.52
463.434	271.02
463.892	270.42
464.35	290.52
464.808	305.42
465.266	277.82
465.724	275.12
466.181	282.22
466.639	282.52
467.097	297.02
467.555	305.62
468.012	308.22
468.47	322.62
468.928	343.62
469.385	361.92
469.843	368.12
470.3	367.12
470.758	379.22
471.215	397.02
471.673	423.42
472.13	426.42
472.588	441.72
473.045	387.52
473.503	387.22
473.96	400.12
474.417	417.32
474.875	447.62
475.332	482.12
475.789	485.32
476.246	489.52
476.704	508.42
477.161	534.22
477.618	549.52
478.075	580.02
478.532	653.62
478.989	722.12
479.446	827.22
479.903	798.92
480.36	835.12
480.817	896.42
481.274	1001.12
481.731	1102.82
482.188	1199.62
482.645	1352.42
483.102	1465.32
483.558	1596.92
484.015	1664.72
484.472	1631.62
484.929	1576.32
485.385	1515.22
485.842	1480.72
486.299	1424.72
486.755	1353.32
487.212	1133.72
487.668	962.32
488.125	884.32
488.582	810.32
489.038	773.12
489.494	735.12
489.951	700.12
490.407	692.22
490.864	669.52
491.32	665.42
491.776	660.92
492.233	673.32
492.689	641.22
493.145	637.22
493.602	627.02
494.058	646.32
494.514	645.02
494.97	665.42
495.426	682.52
495.882	651.82
496.338	635.92
496.794	652.02
497.251	655.52
497.707	660.42
498.163	657.82
498.618	666.52
499.074	667.82
499.53	701.92
499.986	705.32
500.442	680.22
500.898	659.92
501.354	643.82
501.809	660.12
502.265	660.72
502.721	681.72
503.177	687.32
503.632	692.42
504.088	706.02
504.543	731.42
504.999	722.02
505.455	685.02
505.91	660.82
506.366	659.52
506.821	651.22
507.277	646.32
507.732	656.02
508.187	649.02
508.643	653.72
509.098	653.42
509.553	679.32
510.009	694.22
510.464	689.72
510.919	710.62
511.375	719.82
511.83	731.42
512.285	742.52
512.74	791.62
513.195	804.22
513.65	790.22
514.105	794.52
514.56	790.12
515.015	816.72
515.47	837.72
515.925	824.22
516.38	807.62
516.835	818.42
517.29	811.12
517.745	796.22
518.2	774.52
518.655	774.52
519.109	766.72
519.564	760.32
520.019	745.52
520.474	761.02
520.928	757.92
521.383	744.42
521.838	734.92
522.292	740.52
522.747	737.02
523.201	735.42
523.656	727.12
524.11	716.32
524.565	725.62
525.019	716.82
525.474	729.92
525.928	739.12
526.382	717.52
526.837	714.42
527.291	725.12
527.745	723.12
528.2	722.22
528.654	716.22
529.108	721.82
529.562	708.62
530.016	716.72
530.47	701.82
530.925	721.52
531.379	716.12
531.833	741.12
532.287	730.12
532.741	729.42
533.195	726.32
533.649	740.52
534.103	745.42
534.556	727.12
535.01	732.92
535.464	735.42
535.918	735.72
536.372	746.32
536.826	748.32
537.279	726.22
537.733	742.32
538.187	740.32
538.64	734.42
539.094	744.32
539.548	761.52
540.001	748.92
540.455	747.32
540.908	752.92
541.362	759.22
541.815	754.22
542.269	782.62
542.722	792.02
543.175	790.62
543.629	795.42
544.082	813.02
544.536	805.52
544.989	811.92
545.442	814.52
545.895	820.42
546.349	821.52
546.802	813.82
547.255	817.42
547.708	826.32
548.161	849.72
548.614	856.72
549.067	856.62
549.52	831.82
549.973	837.42
550.426	828.42
550.879	814.62
551.332	815.32
551.785	818.92
552.238	833.62
552.691	841.72
553.144	854.52
553.596	874.42
554.049	888.32
554.502	911.32
554.955	948.52
555.407	934.32
555.86	925.92
556.313	917.82
556.765	904.22
557.218	905.92
557.67	914.72
558.123	899.02
558.576	897.32
559.028	908.42
559.48	902.22
559.933	900.52
560.385	862.22
560.838	839.92
561.29	803.62
561.742	798.42
562.195	789.82
562.647	775.32
563.099	797.82
563.551	795.82
564.004	810.02
564.456	782.62
564.908	783.02
565.36	759.72
565.812	758.92
566.264	742.92
566.716	751.92
567.168	738.62
567.62	750.72
568.072	732.22
568.524	722.12
568.976	705.32
569.428	698.92
569.88	697.82
570.332	711.42
570.784	706.92
571.235	704.12
571.687	708.52
572.139	720.42
572.59	733.42
573.042	734.82
573.494	728.52
573.945	723.32
574.397	710.22
574.849	705.62
575.3	699.12
575.752	696.32
576.203	684.82
576.655	704.82
577.106	685.22
577.557	674.42
578.009	690.02
578.46	680.02
578.912	677.52
579.363	681.22
579.814	688.12
580.265	679.52
580.717	680.42
581.168	693.02
581.619	687.12
582.07	700.12
582.521	689.92
582.972	692.32
583.423	701.02
583.875	699.12
584.326	715.62
584.777	767.02
585.227	847.52
585.678	927.42
586.129	1024.02
586.58	1084.02
587.031	1171.62
587.482	1329.62
587.933	1503.42
588.384	1301.62
588.834	986.12
589.285	817.52
589.736	801.82
590.186	797.92
590.637	783.82
591.088	767.22
591.538	754.02
591.989	751.22
592.439	750.22
592.89	748.32
593.34	736.12
593.791	725.92
594.241	722.62
594.692	728.72
595.142	725.42
595.593	720.72
596.043	723.92
596.493	730.62
596.943	736.22
597.394	741.82
597.844	737.92
598.294	757.62
598.744	771.92
599.195	800.62
599.645	836.32
600.095	881.22
600.545	928.82
600.995	984.42
601.445	1049.42
601.895	1100.42
602.345	1153.72
602.795	1142.92
603.245	1081.12
603.695	1031.92
604.145	974.52
604.594	926.72
605.044	870.02
605.494	816.22
605.944	782.12
606.393	752.52
606.843	741.42
607.293	742.92
607.743	754.42
608.192	757.52
608.642	769.72
609.091	783.62
609.541	786.72
609.99	776.92
610.44	786.12
610.889	744.32
611.339	721.32
611.788	714.42
612.238	720.12
612.687	724.72
613.136	733.42
613.586	755.52
614.035	749.42
614.484	765.12
614.933	775.62
615.383	762.72
615.832	752.22
616.281	736.52
616.73	705.42
617.179	679.02
617.628	665.42
618.077	642.02
618.526	640.72
618.975	624.62
619.424	626.32
619.873	626.12
620.322	633.62
620.771	627.32
621.22	615.22
621.669	605.22
622.118	605.82
622.567	602.22
623.015	584.82
623.464	582.02
623.913	575.52
624.361	563.82
624.81	559.22
625.259	564.72
625.707	570.02
626.156	572.62
626.604	575.62
627.053	574.72
627.501	572.82
627.95	580.82
628.398	592.52
628.847	579.02
629.295	577.92
629.744	591.52
630.192	575.72
630.64	581.72
631.089	575.52
631.537	586.72
631.985	605.32
632.433	614.82
632.881	621.12
633.33	666.02
633.778	647.92
634.226	575.22
634.674	579.62
635.122	585.02
635.57	613.02
636.018	633.52
636.466	586.82
636.914	577.02
637.362	581.32
637.81	584.22
638.258	591.72
638.705	589.62
639.153	621.72
639.601	622.32
640.049	653.22
640.497	675.72
640.944	704.22
641.392	657.72
641.84	626.02
642.287	593.52
642.735	576.02
643.182	582.52
643.63	585.92
644.078	588.62
644.525	603.92
644.973	609.12
645.42	617.22
645.867	641.52
646.315	653.82
646.762	681.22
647.21	704.32
647.657	733.22
648.104	761.12
648.551	794.62
648.999	844.02
649.446	926.22
649.893	1032.62
650.34	1184.42
650.787	1412.42
651.234	1756.82
651.682	2285.02
652.129	3133.32
652.576	4512.93
653.023	6660.72
653.47	9170.12
653.917	11439.23
654.363	13221.83
654.81	14543.03
655.257	13862.53
655.704	9090.33
656.151	5382.62
656.598	3489.12
657.044	2477.82
657.491	1897.32
657.938	1524.02
658.385	1271.32
658.831	1094.72
659.278	987.32
659.724	872.32
660.171	797.92
660.618	734.12
661.064	704.12
661.511	677.12
661.957	661.82
662.404	658.52
662.85	656.92
663.296	635.02
663.743	569.82
664.189	548.62
664.635	550.52
665.082	545.72
665.528	534.72
665.974	527.42
666.42	518.22
666.867	509.52
667.313	500.22
667.759	493.62
668.205	480.62
668.651	491.62
669.097	489.72
669.543	506.12
669.989	470.62
670.435	455.42
670.881	459.32
671.327	457.72
671.773	474.52
672.219	497.02
672.665	555.32
673.11	592.12
673.556	638.62
674.002	669.52
674.448	666.32
674.893	555.72
675.339	480.72
675.785	443.62
676.23	419.62
676.676	402.72
677.122	398.62
677.567	372.12
678.013	382.32
678.458	364.42
678.904	365.82
679.349	353.12
679.794	361.12
680.24	359.42
680.685	349.52
681.131	346.32
681.576	351.12
682.021	361.32
682.466	351.92
682.912	354.22
683.357	350.62
683.802	383.62
684.247	407.52
684.692	464.02
685.137	501.72
685.583	549.62
686.028	571.82
686.473	517.62
686.918	453.12
687.363	420.62
687.807	395.42
688.252	379.42
688.697	356.22
689.142	339.72
689.587	336.92
690.032	323.72
690.477	340.82
690.921	360.82
691.366	390.12
691.811	410.32
692.255	430.42
692.7	466.62
693.145	507.52
693.589	697.52
694.034	1139.92
694.478	1561.32
694.923	1746.82
695.367	2290.92
695.812	1204.62
696.256	508.42
696.701	379.02
697.145	345.82
697.59	345.12
698.034	323.82
698.478	333.22
698.922	333.62
699.367	327.22
699.811	345.92
700.255	359.22
700.699	387.42
701.143	432.02
701.588	481.82
702.032	519.82
702.476	516.92
702.92	490.42
703.364	492.22
703.808	645.52
704.252	1039.92
704.696	1456.82
705.14	1689.52
705.584	2161.02
706.027	1069.62
706.471	527.52
706.915	405.22
707.359	352.22
707.803	332.72
708.246	312.32
708.69	319.32
709.134	317.52
709.577	319.12
710.021	323.62
710.465	311.02
710.908	303.12
711.352	300.12
711.795	318.92
712.239	356.62
712.682	391.12
713.126	428.12
713.569	469.82
714.012	383.82
714.456	330.52
714.899	298.52
715.342	283.72
715.786	270.12
716.229	258.92
716.672	251.92
717.115	254.02
717.558	250.92
718.002	255.42
718.445	268.62
718.888	293.12
719.331	291.82
719.774	310.22
720.217	304.32
720.66	291.42
721.103	267.62
721.546	253.62
721.989	252.42
722.432	240.92
722.874	246.12
723.317	233.72
723.76	235.22
724.203	265.42
724.645	324.82
725.088	449.42
725.531	570.42
725.974	651.12
726.416	544.02
726.859	299.02
727.301	251.82
727.744	239.22
728.187	234.82
728.629	242.52
729.071	247.72
729.514	265.02
729.956	271.62
730.399	287.82
730.841	291.72
731.283	274.52
731.726	265.12
732.168	256.82
732.61	268.42
733.053	283.72
733.495	322.52
733.937	352.92
734.379	395.82
734.821	440.22
735.263	540.62
735.705	841.82
736.148	1564.92
736.59	2588.42
737.032	3087.82
737.474	2476.62
737.916	810.52
738.357	422.42
738.799	334.52
739.241	307.52
739.683	288.42
740.125	299.72
740.567	300.42
741.008	323.52
741.45	318.22
741.892	319.62
742.334	351.82
742.775	360.52
743.217	341.22
743.658	272.82
744.1	256.52
744.542	270.72
744.983	312.72
745.425	346.52
745.866	347.62
746.307	290.32
746.749	280.72
747.19	318.42
747.632	462.92
748.073	885.02
748.514	1848.12
748.956	2884.02
749.397	3582.92
749.838	2969.52
750.279	2987.42
750.72	1507.72
751.162	551.72
751.603	320.52
752.044	250.22
752.485	218.32
752.926	205.42
753.367	203.22
753.808	200.82
754.249	184.62
754.69	189.62
755.131	185.42
755.572	184.82
756.013	179.72
756.453	182.32
756.894	191.62
757.335	192.22
757.776	205.42
758.216	193.22
758.657	196.32
759.098	202.72
759.538	225.22
759.979	269.52
760.42	376.92
760.86	711.72
761.301	1808.22
761.741	4424.32
762.182	6465.23
762.622	4526.62
763.063	1311.42
763.503	546.62
763.943	349.22
764.384	337.12
764.824	393.92
765.264	436.72
765.705	303.42
766.145	213.72
766.585	189.62
767.025	180.72
767.465	187.12
767.906	246.52
768.346	313.42
768.786	338.82
769.226	262.92
769.666	315.02
770.106	620.42
770.546	1559.42
770.986	2669.12
771.426	2382.32
771.866	792.02
772.306	339.32
772.745	218.12
773.185	174.92
773.625	169.42
774.065	168.02
774.505	194.22
774.944	305.22
775.384	675.42
775.824	1213.62
776.263	1172.12
776.703	498.32
777.142	223.42
777.582	162.62
778.021	139.42
778.461	144.82
778.9	138.82
779.34	132.32
779.779	120.22
780.219	113.92
780.658	109.22
781.097	110.22
781.537	113.62
781.976	113.02
782.415	116.12
782.855	108.92
783.294	103.02
783.733	109.72
784.172	110.82
784.611	106.72
785.05	112.82
785.489	112.42
785.928	115.82
786.367	118.42
786.806	124.12
787.245	134.22
787.684	134.62
788.123	145.62
788.562	133.32
789.001	126.02
789.44	125.32
789.879	120.52
790.317	119.22
790.756	128.62
791.195	129.62
791.634	152.32
792.072	202.32
792.511	355.82
792.95	1005.12
793.388	2131.82
793.827	1953.32
794.265	679.12
794.704	274.72
795.142	185.92
795.581	157.92
796.019	140.32
796.458	131.12
796.896	124.02
797.334	133.52
797.773	156.92
798.211	219.42
798.649	440.82
799.087	1016.52
799.526	1596.82
799.964	2010.42
800.402	2005.42
800.84	757.82
801.278	307.92
801.716	183.82
802.154	148.42
802.592	150.82
803.03	138.52
803.468	142.82
803.906	146.02
804.344	152.92
804.782	146.62
805.22	133.52
805.658	135.82
806.096	147.02
806.533	156.92
806.971	171.52
807.409	213.62
807.847	312.42
808.284	655.22
808.722	1859.92
809.16	3280.22
809.597	3107.72
810.035	5392.02
810.472	5816.22
810.91	2085.02
811.347	785.22
811.785	409.32
812.222	263.82
812.66	192.22
813.097	161.12
813.535	138.12
813.972	127.52
814.409	124.32
814.846	107.12
815.284	110.42
815.721	104.82
816.158	107.92
816.595	124.32
817.032	170.82
817.47	190.52
817.907	173.42
818.344	148.12
818.781	115.72
819.218	104.32
819.655	119.32
820.092	183.32
820.529	206.82
820.966	177.22
821.403	139.62
821.839	105.02
822.276	103.62
822.713	121.22
823.15	133.92
823.587	114.32
824.023	147.12
824.46	300.02
824.897	891.42
825.333	1360.92
825.77	587.62
826.206	232.92
826.643	143.62
827.08	102.22
827.516	84.52
827.953	80.32
828.389	80.12
828.825	73.32
829.262	68.62
829.698	62.82
830.135	63.62
830.571	66.12
831.007	65.22
831.443	64.32
831.88	58.62
832.316	61.62
832.752	65.02
833.188	68.22
833.624	60.72
834.06	75.62
834.497	73.22
834.933	68.72
835.369	77.92
835.805	65.02
836.241	79.82
836.677	83.82
837.112	85.72
837.548	107.42
837.984	137.22
838.42	201.02
838.856	495.02
839.292	1523.82
839.727	2301.02
840.163	1063.82
840.599	906.92
841.034	2025.82
841.47	2139.02
841.906	784.22
842.341	342.02
842.777	229.42
843.212	314.42
843.648	307.22
844.083	149.22
844.519	94.62
844.954	83.12
845.39	61.32
845.825	58.32
846.261	58.02
846.696	59.42
847.131	54.42
847.566	60.22
848.002	56.12
848.437	57.92
848.872	62.02
849.307	60.62
849.742	82.82
850.177	180.22
850.613	548.72
851.048	872.42
851.483	382.22
851.918	154.22
852.353	89.42
852.788	67.62
853.223	56.92
853.657	53.52
854.092	42.12
854.527	43.42
854.962	43.32
855.397	47.52
855.832	56.02
856.266	39.32
856.701	38.32
857.136	37.22
857.57	49.62
858.005	52.12
858.44	60.12
858.874	46.52
859.309	57.02
859.743	43.12
860.178	41.32
860.612	45.52
861.047	63.52
861.481	66.62
861.915	76.32
862.35	49.02
862.784	35.62
863.218	40.82
863.653	33.12
864.087	45.72
864.521	53.72
864.955	71.42
865.39	158.92
865.824	172.42
866.258	110.62
866.692	167.02
867.126	171.32
867.56	102.62
867.994	52.42
868.428	37.62
868.862	47.02
869.296	53.92
869.73	58.82
870.164	60.82
870.598	47.62
871.031	38.92
871.465	34.12
871.899	29.02
872.333	25.52
872.766	21.02
873.2	26.72
873.634	29.22
874.067	28.42
874.501	21.72
874.935	38.52
875.368	27.52
875.802	30.92
876.235	26.32
876.669	26.42
877.102	23.72
877.535	27.82
877.969	24.12
878.402	26.82
878.836	21.62
879.269	22.72
879.702	21.92
880.135	21.42
880.569	22.92
881.002	30.42
881.435	19.22
881.868	15.82
882.301	18.82
882.734	22.22
883.167	30.12
883.601	20.02
884.034	25.02
884.467	15.42
884.899	17.12
885.332	17.82
885.765	13.62
886.198	13.02
886.631	16.02
887.064	25.22
887.497	19.72
887.929	23.82
888.362	14.72
888.795	7.82
889.228	26.72
889.66	19.52
890.093	16.32
890.526	18.72
890.958	19.22
891.391	18.92
891.823	19.82
892.256	12.22
892.688	9.02
893.121	15.52
893.553	20.32
893.985	24.72
894.418	21.82
894.85	11.52
895.282	17.22
895.715	10.82
896.147	19.62
896.579	17.12
897.011	17.42
897.444	14.72
897.876	12.72
898.308	19.32
898.74	12.52
899.172	11.12
899.604	25.12
900.036	21.72
900.468	19.42
900.9	17.42
901.332	20.52
901.764	14.62
902.196	22.02
902.628	22.22
903.06	15.62
903.491	27.12
903.923	23.32
904.355	20.32
904.787	24.92
905.218	18.92
905.65	21.52
906.082	17.62
906.513	17.32
906.945	14.62
907.376	9.82
907.808	22.32
908.239	26.22
908.671	19.62
909.102	23.22
909.534	24.92
909.965	46.22
910.397	91.32
910.828	318.82
911.259	476.02
911.691	217.22
912.122	104.92
912.553	50.52
912.984	33.32
913.415	22.82
913.847	30.02
914.278	18.92
914.709	11.12
915.14	14.62
915.571	16.42
916.002	16.92
916.433	17.92
916.864	18.92
917.295	16.22
917.726	21.12
918.157	19.32
918.587	30.82
919.018	25.02
919.449	26.22
919.88	25.52
920.311	28.82
920.741	45.92
921.172	170.62
921.603	162.82
922.033	73.62
922.464	43.02
922.895	21.92
923.325	23.02
923.756	15.62
924.186	15.82
924.617	22.22
925.047	40.12
925.478	51.82
925.908	43.12
926.338	25.12
926.769	18.92
927.199	16.62
927.629	8.62
928.06	18.12
928.49	21.52
928.92	14.92
929.35	13.02
929.78	7.82
930.21	4.42
930.641	10.52
931.071	11.22
931.501	5.92
931.931	17.12
932.361	10.02
932.791	4.32
933.221	2.62
933.651	7.62
934.08	17.62
934.51	22.82
934.94	10.02
935.37	5.02
935.8	8.92
936.229	8.92
936.659	10.42
937.089	0.32
937.519	16.72
937.948	22.12
938.378	18.32
938.807	8.72
939.237	10.32
939.666	11.22
940.096	-3.28
940.525	0.82
940.955	-3.38
941.384	5.52
941.814	-2.38
942.243	-0.38
942.672	0.72
943.102	2.62
943.531	5.12
943.96	1.92
944.39	1.52
944.819	1.02
945.248	-0.98
945.677	7.12
946.106	7.52
946.535	4.22
946.964	4.62
947.393	6.82
947.822	0.62
948.251	-4.18
948.68	4.72
949.109	3.32
949.538	9.52
949.967	-1.18
950.396	4.52
950.825	-4.18
951.254	1.22
951.682	-2.48
952.111	11.42
952.54	2.52
952.969	3.72
953.397	-6.28
953.826	1.62
954.254	-8.18
954.683	2.92
955.112	3.72
955.54	-1.88
955.969	2.52
956.397	-1.68
956.826	-5.18
957.254	12.62
957.682	0.02
958.111	7.22
958.539	3.52
958.967	3.42
959.396	0.22
959.824	7.22
960.252	6.02
960.68	-0.98
961.109	-0.58
961.537	-7.68
961.965	0.62
962.393	7.62
962.821	-3.18
963.249	-5.28
963.677	0.62
964.105	6.72
964.533	47.22
964.961	37.92
965.389	19.12
965.817	7.92
966.245	5.02
966.672	2.22
967.1	-6.58
967.528	6.02
967.956	-4.28
968.383	-3.08
968.811	-2.48
969.239	-3.08
969.666	-5.08
970.094	6.12
970.522	2.92
970.949	1.92
971.377	-2.98
971.804	-2.78
972.232	3.72
972.659	3.62
973.087	2.52
973.514	2.62
973.941	-0.18
974.369	6.02
974.796	0.42
975.223	3.02
975.651	1.22
976.078	3.22
976.505	0.02
976.932	2.82
977.359	22.42
977.786	12.12
978.214	4.02
978.641	-1.28
979.068	-0.18
979.495	0.62
979.922	-2.38
980.349	4.02
980.776	2.92
981.202	0.82
981.629	2.12
982.056	5.32
982.483	-3.08
982.91	3.32
983.337	0.82
983.763	5.12
984.19	-3.98
984.617	-4.88
985.043	-4.68
985.47	4.32
985.897	0.62
986.323	-7.78
986.75	7.42
987.176	-1.18
987.603	2.72
988.029	1.22
988.456	-4.38
988.882	5.12
989.308	-4.88
989.735	-5.18
990.161	0.82
990.587	-3.18
991.014	-3.48
991.44	7.62
991.866	1.52
992.292	-6.58
992.719	-1.38
993.145	3.42
993.571	-10.18
993.997	-3.68
994.423	-4.18
994.849	-4.28
995.275	1.92
995.701	-2.88
996.127	-5.68
996.553	0.22
996.979	-4.08
997.405	-5.08
997.83	-3.78
998.256	-10.68
998.682	-2.08
999.108	-8.68
999.534	-8.48
999.959	-7.38
1000.385	-1.68
1000.811	2.02
1001.236	-12.68
1001.662	-8.68
1002.087	-7.28
1002.513	5.12
1002.938	4.92
1003.364	-6.88
1003.789	3.52
1004.215	3.72
1004.64	1.12
1005.066	2.92
1005.491	3.82
1005.916	0.82
1006.342	-7.18
1006.767	-7.28
1007.192	6.22
1007.617	-1.98
1008.042	-1.48
1008.468	-3.18
1008.893	-6.28
1009.318	-1.58
1009.743	-3.18
1010.168	4.52
1010.593	7.02
1011.018	-8.58
1011.443	-2.38
1011.868	1.02
1012.293	-4.98
1012.718	-8.78
1013.143	6.02
1013.567	2.72
1013.992	-2.28
1014.417	-9.18
1014.842	3.82
1015.267	-1.98
1015.691	1.02
1016.116	5.62
1016.541	3.22
1016.965	0.22
1017.39	0.62
1017.814	2.32
1018.239	1.52
1018.663	-6.78
1019.088	-7.98
1019.512	0.32
1019.937	1.52
1020.361	1.82
1020.785	-9.88
1021.21	3.52
1021.634	-8.98
1022.058	1.42
1022.483	2.02
1022.907	-3.18
1023.331	-2.58
1023.755	-4.98
1024.179	-0.88
1024.604	-5.18
1025.028	-2.18
1025.452	-4.38
1025.876	-1.98
1026.3	-0.08
1026.724	-5.38
1027.148	-6.78
1027.572	-11.58
1027.996	1.62
1028.42	3.52
1028.843	1.82
1029.267	-4.28
1029.691	1.12
1030.115	-3.38
1030.539	-5.78
1030.962	-6.08
1031.386	-4.98
1031.81	-0.78
1032.233	-5.38
1032.657	1.22
1033.08	1.72
1033.504	-2.78
1033.927	2.12
1034.351	-4.58
1034.774	-11.58
1035.198	-1.98
1035.621	-7.28
1036.045	-6.58
1036.468	-3.18
1036.891	-8.18
1037.315	-11.08
1037.738	-8.18
1038.161	1.62
1038.584	-11.68
1039.008	-8.18
1039.431	-0.68
1039.854	-3.58
1040.277	-8.08
1040.7	-13.18
1041.123	-0.68
1041.546	-16.88
1041.969	-2.38
1042.392	-7.78
1042.815	0.62
1043.238	2.22
1043.661	1.32
1044.084	-6.38
1044.507	-6.08
1044.93	-3.68
1045.352	-4.88
1045.775	-1.98
1046.198	1.22
1046.621	2.62
1047.043	-0.88
1047.466	4.32
1047.889	-5.08
1048.311	-6.68
1048.734	-8.18
1049.156	-1.88
1049.579	-2.08
1050.001	0.42
1050.424	2.22
1050.846	-4.08
1051.269	-7.18
1051.691	-1.88
1052.113	0.32
1052.536	4.82
1052.958	-0.68
1053.38	-8.48
1053.802	-16.88
1054.225	1.02
1054.647	-4.38
1055.069	0.12
1055.491	-5.08
1055.913	-12.48
1056.335	-2.58
1056.757	-5.98
1057.179	-5.58
1057.601	-2.78
1058.023	-0.48
1058.445	-0.18
1058.867	-3.08
1059.289	-6.38
1059.711	-8.78
1060.133	0.22
1060.555	-1.48
1060.976	-6.58
1061.398	-9.18
1061.82	-10.38
1062.241	-7.58
1062.663	-9.58
1063.085	-2.98
1063.506	0.82
1063.928	5.72
1064.35	-0.38
1064.771	-11.08
1065.193	-0.78
1065.614	-2.88
1066.035	-1.28
1066.457	-5.78
1066.878	1.52
1067.3	-6.38
1067.721	-3.78
1068.142	-3.48
1068.564	-2.88
1068.985	-5.28
1069.406	-4.38
1069.827	-7.78
1070.248	0.02
1070.67	-6.98
1071.091	-10.98
1071.512	1.22
1071.933	-7.38
1072.354	-7.28
1072.775	-4.48
1073.196	-6.88
1073.617	-2.38
1074.038	-2.48
1074.459	0.02
1074.88	-6.28
1075.3	3.22
1075.721	-1.28
1076.142	4.92
1076.563	1.12
1076.983	-8.18
1077.404	-8.48
1077.825	-12.48
1078.246	-2.08
1078.666	-9.58
1079.087	-4.08
1079.507	-4.68
1079.928	2.42
1080.348	-6.88
1080.769	-10.08
1081.189	-0.68
1081.61	-0.48
1082.03	-9.08
1082.451	-8.78
1082.871	-3.38
1083.291	-9.28
1083.711	-7.38
1084.132	-3.98
1084.552	-3.38
1084.972	-2.88
1085.392	-5.48
1085.813	-5.88
1086.233	-5.58
1086.653	-4.88
1087.073	-1.88
1087.493	-6.48
1087.913	-1.18
1088.333	-6.98
1088.753	-4.28
1089.173	1.52
1089.593	-5.68
1090.013	-4.18
1090.433	3.02
1090.852	-3.68
1091.272	-5.38
1091.692	-2.88
1092.112	-4.28
1092.531	-6.38
1092.951	-8.88
1093.371	-3.78
1093.79	2.72
1094.21	-3.68
1094.63	-4.58
1095.049	-4.48
1095.469	-3.38
1095.888	-6.18
1096.308	1.02
1096.727	2.62
1097.146	-1.68
1097.566	3.32
1097.985	-7.38
1098.405	-7.18
1098.824	-9.78
1099.243	-7.28
1099.662	-13.28
1100.082	-5.58
1100.501	-0.68
1100.92	-7.78
1101.339	-8.38
1101.758	-8.48
