Data from 20171114-ORNL-Ar_H_NY_Subt18_08-06-48-851.txt Node
Date: Tue Nov 14 08:06:48 EST 2017
User: Ender
Spectrometer: HR+D1039
Trigger mode: 0
Integration Time (sec): 2.730000E-2
Scans to average: 10
Electric dark correction enabled: true
Nonlinearity correction enabled: false
Boxcar width: 0
XAxis mode: Wavelengths
Number of Pixels in Spectrum: 2048
>>>>>Begin Spectral Data<<<<<
187.836	-3.79
188.309	-3.79
188.782	-3.79
189.255	-3.19
189.728	-2.39
190.201	8.21
190.674	-2.29
191.147	2.61
191.619	-6.69
192.092	2.41
192.565	7.31
193.038	-0.09
193.511	4.41
193.984	1.71
194.456	-4.19
194.929	-0.79
195.402	-3.59
195.874	0.41
196.347	-2.49
196.82	-7.79
197.292	8.51
197.765	-0.29
198.237	-3.69
198.71	3.21
199.182	-1.39
199.655	1.01
200.127	4.31
200.6	0.31
201.072	-2.29
201.544	-3.79
202.017	-6.69
202.489	0.11
202.961	-1.19
203.433	-1.99
203.906	-4.99
204.378	-4.29
204.85	-0.09
205.322	-6.79
205.794	-5.09
206.266	-3.79
206.739	-6.79
207.211	-1.59
207.683	-7.49
208.155	-1.79
208.627	-6.49
209.099	-1.59
209.57	-2.59
210.042	-3.39
210.514	-4.69
210.986	-4.79
211.458	-11.19
211.93	-3.29
212.402	0.21
212.873	-4.59
213.345	-4.19
213.817	-5.09
214.288	-2.09
214.76	-9.59
215.232	-3.29
215.703	-5.89
216.175	-10.39
216.646	-3.89
217.118	-7.69
217.589	-9.49
218.061	-4.29
218.532	-4.99
219.004	-3.29
219.475	-7.79
219.946	-1.89
220.418	-9.59
220.889	-1.19
221.36	-1.99
221.832	-9.69
222.303	-9.49
222.774	-4.79
223.245	-6.99
223.717	-4.19
224.188	-8.59
224.659	-11.99
225.13	-8.69
225.601	-3.29
226.072	-1.19
226.543	-2.29
227.014	-3.29
227.485	2.41
227.956	-5.49
228.427	-1.09
228.898	-1.89
229.369	1.91
229.839	-0.79
230.31	-4.99
230.781	2.71
231.252	-6.59
231.722	-2.69
232.193	-3.89
232.664	-1.09
233.135	-1.69
233.605	-5.49
234.076	-11.89
234.546	-5.69
235.017	0.81
235.487	-2.49
235.958	-2.39
236.428	-6.89
236.899	-0.39
237.369	0.01
237.84	-4.29
238.31	-1.09
238.78	-3.79
239.251	-7.29
239.721	1.11
240.191	-5.89
240.662	-2.99
241.132	-3.59
241.602	-3.99
242.072	-0.49
242.542	2.31
243.013	-3.39
243.483	-1.09
243.953	0.71
244.423	-0.69
244.893	-6.79
245.363	-0.59
245.833	-1.29
246.303	-4.49
246.773	2.31
247.243	-0.89
247.712	-5.09
248.182	3.11
248.652	1.91
249.122	-11.69
249.592	-5.39
250.061	7.51
250.531	13.91
251.001	1.81
251.471	7.11
251.94	9.71
252.41	6.91
252.879	-9.89
253.349	8.41
253.818	3.51
254.288	-4.39
254.757	2.51
255.227	-2.99
255.696	2.41
256.166	3.61
256.635	3.21
257.105	4.91
257.574	1.81
258.043	1.71
258.513	1.51
258.982	8.31
259.451	0.51
259.92	5.11
260.389	11.01
260.859	12.91
261.328	9.41
261.797	6.21
262.266	1.31
262.735	2.11
263.204	0.21
263.673	-5.99
264.142	7.91
264.611	-4.49
265.08	-5.59
265.549	-3.09
266.018	7.31
266.487	2.31
266.955	-4.59
267.424	-1.89
267.893	9.41
268.362	-2.79
268.83	2.01
269.299	10.01
269.768	4.91
270.236	0.81
270.705	-3.89
271.174	5.11
271.642	4.11
272.111	4.91
272.579	6.81
273.048	12.41
273.516	9.01
273.985	8.81
274.453	8.71
274.922	14.51
275.39	6.91
275.858	-1.89
276.327	3.11
276.795	10.81
277.263	4.31
277.731	20.31
278.2	29.01
278.668	23.61
279.136	19.01
279.604	13.71
280.072	8.61
280.54	9.01
281.008	13.81
281.477	12.01
281.945	9.81
282.413	12.61
282.881	11.91
283.348	1.11
283.816	13.41
284.284	7.91
284.752	15.91
285.22	7.71
285.688	11.91
286.156	10.21
286.623	20.31
287.091	23.31
287.559	17.01
288.026	5.81
288.494	11.71
288.962	5.61
289.429	3.81
289.897	20.71
290.364	13.01
290.832	19.91
291.3	12.91
291.767	18.51
292.234	19.61
292.702	11.91
293.169	9.51
293.637	16.81
294.104	17.41
294.571	15.71
295.039	12.21
295.506	9.31
295.973	14.21
296.44	12.11
296.908	16.51
297.375	17.91
297.842	17.51
298.309	14.71
298.776	12.61
299.243	23.11
299.71	11.31
300.177	17.41
300.644	18.31
301.111	16.21
301.578	16.81
302.045	9.81
302.512	19.81
302.979	18.71
303.446	20.21
303.913	14.61
304.379	13.81
304.846	22.91
305.313	31.31
305.78	18.31
306.246	20.71
306.713	23.41
307.18	20.51
307.646	24.81
308.113	25.31
308.579	23.31
309.046	22.81
309.512	28.21
309.979	17.81
310.445	24.11
310.912	23.71
311.378	28.31
311.845	28.61
312.311	29.51
312.777	28.91
313.244	32.61
313.71	26.51
314.176	25.61
314.642	30.11
315.109	30.41
315.575	30.81
316.041	34.61
316.507	28.11
316.973	35.61
317.439	32.11
317.905	27.61
318.371	32.81
318.837	31.51
319.303	28.11
319.769	33.41
320.235	32.81
320.701	30.21
321.167	32.91
321.633	22.71
322.099	35.61
322.564	37.01
323.03	41.51
323.496	37.71
323.962	35.31
324.427	30.41
324.893	44.31
325.359	38.31
325.824	36.31
326.29	33.61
326.755	37.41
327.221	40.81
327.686	41.21
328.152	44.71
328.617	38.61
329.083	41.71
329.548	49.11
330.014	44.41
330.479	41.81
330.944	37.11
331.41	35.31
331.875	39.81
332.34	37.91
332.805	39.11
333.271	38.31
333.736	33.41
334.201	42.51
334.666	48.71
335.131	52.81
335.596	47.41
336.061	45.21
336.526	41.51
336.991	46.51
337.456	54.51
337.921	46.21
338.386	39.61
338.851	43.31
339.316	44.81
339.781	43.81
340.246	52.61
340.711	41.71
341.175	49.61
341.64	46.71
342.105	53.01
342.569	49.91
343.034	58.11
343.499	54.21
343.963	50.81
344.428	64.61
344.893	58.81
345.357	62.31
345.822	56.61
346.286	67.71
346.751	72.21
347.215	65.91
347.679	68.61
348.144	93.11
348.608	72.41
349.073	68.51
349.537	75.71
350.001	74.11
350.465	91.41
350.93	79.41
351.394	81.81
351.858	73.91
352.322	81.21
352.786	80.31
353.25	94.61
353.715	99.21
354.179	99.41
354.643	120.41
355.107	118.71
355.571	108.11
356.035	99.41
356.498	109.21
356.962	114.81
357.426	122.11
357.89	108.51
358.354	89.91
358.818	89.31
359.281	81.41
359.745	73.51
360.209	80.91
360.673	76.81
361.136	77.01
361.6	78.01
362.064	81.81
362.527	79.11
362.991	88.01
363.454	82.01
363.918	85.41
364.381	76.81
364.845	83.01
365.308	80.71
365.772	86.61
366.235	95.81
366.698	78.91
367.162	82.61
367.625	89.71
368.088	96.21
368.552	84.21
369.015	87.61
369.478	93.21
369.941	98.81
370.404	93.91
370.867	106.81
371.331	101.21
371.794	109.11
372.257	109.51
372.72	114.01
373.183	108.81
373.646	102.91
374.109	97.91
374.572	100.61
375.035	102.01
375.497	106.81
375.96	107.71
376.423	110.81
376.886	109.31
377.349	109.91
377.811	100.31
378.274	108.41
378.737	110.11
379.199	115.41
379.662	119.41
380.125	111.61
380.587	106.61
381.05	111.81
381.512	118.21
381.975	127.91
382.437	126.41
382.9	119.61
383.362	131.51
383.825	132.21
384.287	129.01
384.75	133.71
385.212	133.81
385.674	145.81
386.136	138.81
386.599	132.61
387.061	127.41
387.523	124.61
387.985	142.31
388.447	142.51
388.91	139.61
389.372	142.91
389.834	147.91
390.296	145.81
390.758	150.81
391.22	166.31
391.682	192.81
392.144	244.31
392.606	200.61
393.068	164.71
393.529	162.51
393.991	155.81
394.453	148.71
394.915	155.71
395.377	180.51
395.838	198.01
396.3	159.31
396.762	144.91
397.224	136.41
397.685	136.01
398.147	140.01
398.608	135.31
399.07	137.21
399.531	140.51
399.993	155.41
400.454	157.51
400.916	158.51
401.377	151.31
401.839	155.71
402.3	160.11
402.762	171.31
403.223	185.81
403.684	181.61
404.145	169.01
404.607	172.01
405.068	173.81
405.529	171.81
405.99	195.51
406.451	183.61
406.913	179.71
407.374	171.91
407.835	171.01
408.296	172.51
408.757	182.91
409.218	194.51
409.679	188.51
410.14	180.21
410.601	188.11
411.062	188.51
411.522	195.31
411.983	190.61
412.444	179.41
412.905	192.71
413.366	196.61
413.826	212.71
414.287	228.81
414.748	282.41
415.208	266.81
415.669	225.31
416.13	215.91
416.59	217.21
417.051	230.21
417.511	237.51
417.972	257.91
418.432	269.01
418.893	305.61
419.353	273.01
419.814	210.81
420.274	196.41
420.734	198.61
421.195	209.01
421.655	206.81
422.115	207.71
422.576	212.81
423.036	217.71
423.496	220.11
423.956	228.61
424.416	242.21
424.876	289.21
425.336	276.41
425.797	279.41
426.257	273.01
426.717	254.71
427.177	248.81
427.637	239.11
428.097	242.61
428.556	255.21
429.016	283.41
429.476	280.01
429.936	281.31
430.396	292.41
430.856	308.71
431.315	334.01
431.775	361.91
432.235	396.31
432.694	371.51
433.154	380.41
433.614	408.11
434.073	353.31
434.533	297.61
434.993	285.01
435.452	298.11
435.912	303.61
436.371	307.21
436.83	291.71
437.29	283.01
437.749	264.01
438.209	269.81
438.668	294.71
439.127	300.91
439.587	276.41
440.046	266.11
440.505	273.21
440.964	290.81
441.424	338.21
441.883	324.91
442.342	281.11
442.801	243.31
443.26	242.41
443.719	245.81
444.178	239.21
444.637	229.41
445.096	234.81
445.555	239.51
446.014	245.51
446.473	245.61
446.932	251.91
447.391	238.31
447.849	246.81
448.308	238.31
448.767	238.31
449.226	241.41
449.685	255.31
450.143	271.91
450.602	251.81
451.061	244.11
451.519	255.71
451.978	244.21
452.436	250.21
452.895	261.31
453.353	268.41
453.812	267.01
454.27	257.31
454.729	255.61
455.187	268.01
455.646	271.81
456.104	266.81
456.562	287.01
457.021	291.01
457.479	275.01
457.937	296.61
458.395	289.71
458.854	275.21
459.312	283.11
459.77	294.51
460.228	273.61
460.686	268.31
461.144	273.41
461.602	265.51
462.06	275.31
462.518	280.81
462.976	285.61
463.434	275.51
463.892	288.41
464.35	299.51
464.808	313.41
465.266	288.41
465.724	290.71
466.181	304.41
466.639	296.71
467.097	312.01
467.555	326.91
468.012	330.71
468.47	332.41
468.928	350.81
469.385	369.81
469.843	375.31
470.3	383.41
470.758	392.21
471.215	415.41
471.673	440.11
472.13	438.81
472.588	450.11
473.045	406.81
473.503	414.71
473.96	420.01
474.417	428.11
474.875	463.41
475.332	507.71
475.789	490.81
476.246	500.01
476.704	518.21
477.161	547.81
477.618	571.61
478.075	594.01
478.532	653.01
478.989	733.31
479.446	846.91
479.903	809.21
480.36	847.41
480.817	899.01
481.274	994.81
481.731	1093.01
482.188	1184.41
482.645	1315.51
483.102	1400.41
483.558	1533.31
484.015	1597.21
484.472	1560.01
484.929	1508.91
485.385	1459.21
485.842	1436.31
486.299	1372.81
486.755	1323.51
487.212	1125.81
487.668	965.71
488.125	892.81
488.582	819.11
489.038	797.71
489.494	758.51
489.951	719.51
490.407	707.11
490.864	691.31
491.32	682.21
491.776	685.11
492.233	697.21
492.689	659.21
493.145	653.61
493.602	639.11
494.058	648.41
494.514	656.61
494.97	666.11
495.426	692.31
495.882	668.41
496.338	665.91
496.794	664.41
497.251	653.11
497.707	674.91
498.163	675.61
498.618	681.21
499.074	684.41
499.53	709.11
499.986	717.71
500.442	690.51
500.898	672.91
501.354	663.91
501.809	663.51
502.265	672.41
502.721	693.11
503.177	693.91
503.632	688.41
504.088	702.31
504.543	717.91
504.999	741.71
505.455	711.91
505.91	685.91
506.366	687.71
506.821	685.81
507.277	686.11
507.732	681.61
508.187	683.01
508.643	680.71
509.098	685.51
509.553	714.31
510.009	725.41
510.464	717.71
510.919	741.61
511.375	751.41
511.83	761.21
512.285	777.61
512.74	805.71
513.195	836.31
513.65	825.21
514.105	816.91
514.56	829.31
515.015	853.51
515.47	862.91
515.925	844.91
516.38	836.31
516.835	847.41
517.29	837.01
517.745	841.41
518.2	817.41
518.655	802.81
519.109	811.61
519.564	796.61
520.019	781.61
520.474	778.61
520.928	784.11
521.383	767.31
521.838	760.11
522.292	761.41
522.747	762.01
523.201	756.81
523.656	745.01
524.11	738.81
524.565	749.31
525.019	745.81
525.474	746.11
525.928	751.91
526.382	744.41
526.837	746.71
527.291	747.71
527.745	753.21
528.2	753.01
528.654	736.21
529.108	735.01
529.562	735.11
530.016	738.61
530.47	734.61
530.925	736.81
531.379	745.01
531.833	745.41
532.287	759.31
532.741	745.61
533.195	740.31
533.649	758.01
534.103	769.11
534.556	748.41
535.01	758.31
535.464	756.91
535.918	765.91
536.372	769.01
536.826	767.81
537.279	740.91
537.733	761.91
538.187	766.11
538.64	768.81
539.094	777.71
539.548	778.81
540.001	774.51
540.455	766.21
540.908	777.51
541.362	793.61
541.815	793.91
542.269	805.71
542.722	821.91
543.175	829.91
543.629	830.21
544.082	842.61
544.536	855.01
544.989	839.11
545.442	849.41
545.895	852.51
546.349	840.71
546.802	854.61
547.255	858.91
547.708	869.11
548.161	879.91
548.614	885.11
549.067	876.31
549.52	880.21
549.973	870.91
550.426	869.51
550.879	852.81
551.332	852.61
551.785	869.71
552.238	870.71
552.691	875.51
553.144	896.61
553.596	899.31
554.049	925.21
554.502	949.11
554.955	966.81
555.407	968.31
555.86	960.41
556.313	944.11
556.765	944.01
557.218	948.81
557.67	941.31
558.123	935.11
558.576	925.51
559.028	932.71
559.48	948.41
559.933	927.41
560.385	885.31
560.838	865.61
561.29	841.91
561.742	847.91
562.195	820.71
562.647	816.71
563.099	830.41
563.551	822.31
564.004	840.81
564.456	831.21
564.908	813.51
565.36	780.21
565.812	767.01
566.264	761.01
566.716	768.01
567.168	758.41
567.62	759.51
568.072	741.31
568.524	737.61
568.976	741.31
569.428	726.71
569.88	726.11
570.332	725.11
570.784	728.21
571.235	725.21
571.687	745.11
572.139	744.01
572.59	759.11
573.042	761.11
573.494	754.71
573.945	747.91
574.397	731.41
574.849	736.71
575.3	743.81
575.752	734.91
576.203	723.31
576.655	732.41
577.106	711.81
577.557	710.61
578.009	703.11
578.46	717.61
578.912	717.21
579.363	707.71
579.814	704.41
580.265	702.31
580.717	711.21
581.168	715.21
581.619	721.91
582.07	721.21
582.521	712.81
582.972	706.71
583.423	713.91
583.875	715.11
584.326	721.81
584.777	756.71
585.227	790.11
585.678	840.21
586.129	877.61
586.58	915.31
587.031	960.51
587.482	1032.81
587.933	1120.01
588.384	1034.21
588.834	899.71
589.285	829.31
589.736	814.41
590.186	816.71
590.637	813.51
591.088	792.41
591.538	783.71
591.989	769.71
592.439	769.61
592.89	761.91
593.34	744.71
593.791	748.41
594.241	737.91
594.692	733.31
595.142	739.31
595.593	730.01
596.043	752.61
596.493	743.91
596.943	744.41
597.394	757.51
597.844	749.21
598.294	780.01
598.744	792.91
599.195	825.21
599.645	875.81
600.095	912.31
600.545	972.21
600.995	1021.01
601.445	1083.11
601.895	1152.51
602.345	1206.31
602.795	1185.81
603.245	1128.91
603.695	1079.41
604.145	1026.11
604.594	963.81
605.044	913.21
605.494	850.81
605.944	812.71
606.393	786.11
606.843	767.51
607.293	777.41
607.743	775.81
608.192	786.31
608.642	792.81
609.091	803.01
609.541	805.61
609.99	804.91
610.44	807.01
610.889	759.71
611.339	737.91
611.788	725.31
612.238	733.21
612.687	737.31
613.136	736.01
613.586	753.61
614.035	748.71
614.484	760.21
614.933	766.81
615.383	756.41
615.832	756.81
616.281	748.11
616.73	711.01
617.179	696.01
617.628	684.51
618.077	665.41
618.526	650.91
618.975	648.21
619.424	648.01
619.873	643.91
620.322	647.61
620.771	642.51
621.22	648.21
621.669	629.81
622.118	612.21
622.567	608.21
623.015	599.11
623.464	608.91
623.913	583.81
624.361	582.41
624.81	582.31
625.259	586.01
625.707	584.81
626.156	581.01
626.604	597.51
627.053	593.51
627.501	584.31
627.95	592.61
628.398	605.51
628.847	602.41
629.295	594.01
629.744	609.71
630.192	596.71
630.64	594.31
631.089	579.31
631.537	582.11
631.985	577.91
632.433	580.01
632.881	575.91
633.33	601.61
633.778	581.91
634.226	564.61
634.674	577.91
635.122	586.81
635.57	596.21
636.018	617.31
636.466	589.41
636.914	584.51
637.362	603.01
637.81	606.41
638.258	606.41
638.705	608.21
639.153	646.61
639.601	650.81
640.049	674.61
640.497	705.41
640.944	724.31
641.392	677.41
641.84	653.61
642.287	603.51
642.735	599.41
643.182	596.01
643.63	593.21
644.078	592.71
644.525	605.51
644.973	612.71
645.42	622.41
645.867	644.31
646.315	664.01
646.762	692.81
647.21	703.81
647.657	739.31
648.104	773.31
648.551	784.01
648.999	854.31
649.446	931.91
649.893	1020.01
650.34	1160.61
650.787	1384.41
651.234	1718.21
651.682	2219.21
652.129	3021.21
652.576	4295.21
653.023	6287.11
653.47	8523.31
653.917	10649.81
654.363	12248.31
654.81	13517.91
655.257	12837.21
655.704	8489.91
656.151	5085.21
656.598	3323.91
657.044	2362.81
657.491	1850.11
657.938	1489.51
658.385	1251.31
658.831	1084.71
659.278	981.01
659.724	869.51
660.171	807.61
660.618	735.61
661.064	705.01
661.511	683.31
661.957	668.61
662.404	660.41
662.85	679.11
663.296	643.01
663.743	583.01
664.189	561.91
664.635	556.11
665.082	546.51
665.528	553.11
665.974	538.81
666.42	537.41
666.867	520.11
667.313	505.91
667.759	489.01
668.205	473.91
668.651	479.21
669.097	472.91
669.543	481.51
669.989	472.11
670.435	465.11
670.881	463.81
671.327	467.31
671.773	485.91
672.219	506.01
672.665	573.51
673.11	607.81
673.556	665.31
674.002	700.31
674.448	692.61
674.893	585.21
675.339	503.91
675.785	460.11
676.23	446.71
676.676	411.11
677.122	402.91
677.567	397.31
678.013	386.11
678.458	383.21
678.904	381.81
679.349	375.11
679.794	368.91
680.24	378.61
680.685	368.01
681.131	361.41
681.576	361.21
682.021	368.71
682.466	365.91
682.912	367.51
683.357	372.31
683.802	404.91
684.247	424.71
684.692	483.61
685.137	527.81
685.583	563.21
686.028	579.91
686.473	551.01
686.918	469.41
687.363	438.41
687.807	410.51
688.252	391.01
688.697	373.31
689.142	356.31
689.587	350.11
690.032	340.51
690.477	361.81
690.921	373.91
691.366	399.61
691.811	423.91
692.255	446.11
692.7	483.01
693.145	533.81
693.589	734.71
694.034	1184.51
694.478	1613.71
694.923	1823.21
695.367	2381.21
695.812	1253.11
696.256	519.11
696.701	391.11
697.145	364.71
697.59	351.71
698.034	337.21
698.478	342.61
698.922	331.51
699.367	342.31
699.811	354.71
700.255	373.01
700.699	401.81
701.143	437.51
701.588	497.91
702.032	540.51
702.476	537.81
702.92	512.11
703.364	514.31
703.808	676.61
704.252	1097.41
704.696	1539.51
705.14	1767.91
705.584	2259.71
706.027	1116.11
706.471	544.01
706.915	412.61
707.359	363.51
707.803	335.21
708.246	323.51
708.69	332.71
709.134	326.51
709.577	332.91
710.021	333.21
710.465	317.41
710.908	315.21
711.352	314.51
711.795	329.81
712.239	365.91
712.682	405.51
713.126	428.11
713.569	478.61
714.012	377.11
714.456	321.21
714.899	305.21
715.342	285.11
715.786	273.61
716.229	269.41
716.672	264.61
717.115	255.21
717.558	261.11
718.002	265.11
718.445	275.71
718.888	298.01
719.331	308.31
719.774	323.71
720.217	324.01
720.66	297.71
721.103	273.41
721.546	265.11
721.989	264.01
722.432	249.21
722.874	255.41
723.317	248.31
723.76	240.71
724.203	267.31
724.645	337.21
725.088	462.41
725.531	595.41
725.974	675.41
726.416	573.11
726.859	323.51
727.301	263.01
727.744	254.31
728.187	239.61
728.629	250.21
729.071	247.11
729.514	270.21
729.956	283.61
730.399	308.51
730.841	301.11
731.283	291.71
731.726	277.91
732.168	272.71
732.61	286.71
733.053	297.61
733.495	329.61
733.937	371.21
734.379	414.81
734.821	462.91
735.263	570.31
735.705	887.41
736.148	1663.21
736.59	2730.21
737.032	3238.61
737.474	2624.61
737.916	854.11
738.357	448.81
738.799	345.01
739.241	313.01
739.683	296.31
740.125	305.21
740.567	313.51
741.008	340.91
741.45	326.91
741.892	337.71
742.334	363.51
742.775	384.91
743.217	356.41
743.658	287.11
744.1	270.01
744.542	277.21
744.983	332.91
745.425	357.71
745.866	371.21
746.307	293.61
746.749	287.01
747.19	340.21
747.632	476.51
748.073	934.81
748.514	1981.51
748.956	3019.01
749.397	3793.01
749.838	3143.11
750.279	3116.41
750.72	1580.31
751.162	573.61
751.603	332.11
752.044	263.01
752.485	230.31
752.926	215.31
753.367	210.31
753.808	208.51
754.249	203.71
754.69	196.61
755.131	194.91
755.572	190.91
756.013	192.81
756.453	196.61
756.894	199.01
757.335	203.71
757.776	204.21
758.216	201.41
758.657	206.51
759.098	206.91
759.538	233.61
759.979	277.31
760.42	403.21
760.86	748.81
761.301	1941.81
761.741	4666.91
762.182	6804.51
762.622	4802.81
763.063	1397.01
763.503	566.01
763.943	342.71
764.384	304.31
764.824	311.81
765.264	314.61
765.705	247.71
766.145	197.51
766.585	187.51
767.025	182.51
767.465	181.21
767.906	211.11
768.346	247.41
768.786	251.01
769.226	236.21
769.666	329.01
770.106	649.61
770.546	1647.81
770.986	2797.51
771.426	2479.81
771.866	825.21
772.306	337.51
772.745	216.81
773.185	175.41
773.625	169.31
774.065	162.31
774.505	178.61
774.944	246.81
775.384	467.61
775.824	801.11
776.263	771.41
776.703	364.61
777.142	186.41
777.582	151.61
778.021	134.71
778.461	128.71
778.9	135.01
779.34	138.21
779.779	122.51
780.219	109.31
780.658	114.11
781.097	109.61
781.537	118.91
781.976	112.61
782.415	109.21
782.855	111.71
783.294	109.01
783.733	112.21
784.172	117.91
784.611	113.01
785.05	111.61
785.489	114.21
785.928	125.61
786.367	127.31
786.806	126.31
787.245	139.01
787.684	140.51
788.123	152.71
788.562	138.61
789.001	141.01
789.44	130.81
789.879	125.31
790.317	123.81
790.756	131.71
791.195	138.11
791.634	157.41
792.072	208.81
792.511	377.71
792.95	1059.01
793.388	2232.91
793.827	2024.51
794.265	710.41
794.704	288.91
795.142	190.61
795.581	157.21
796.019	144.81
796.458	136.31
796.896	122.71
797.334	140.81
797.773	162.11
798.211	236.21
798.649	458.41
799.087	1074.01
799.526	1684.91
799.964	2140.91
800.402	2121.91
800.84	789.51
801.278	322.11
801.716	194.31
802.154	157.11
802.592	152.91
803.03	147.71
803.468	142.51
803.906	148.41
804.344	157.51
804.782	147.81
805.22	140.11
805.658	143.31
806.096	153.31
806.533	162.51
806.971	182.21
807.409	229.11
807.847	334.51
808.284	711.41
808.722	1966.61
809.16	3489.21
809.597	3308.51
810.035	5751.61
810.472	6103.51
810.91	2209.91
811.347	833.41
811.785	427.31
812.222	267.11
812.66	199.61
813.097	166.01
813.535	151.11
813.972	136.51
814.409	121.51
814.846	116.51
815.284	112.91
815.721	107.81
816.158	103.71
816.595	117.21
817.032	162.41
817.47	197.91
817.907	147.31
818.344	120.41
818.781	107.71
819.218	103.61
819.655	128.71
820.092	203.71
820.529	231.21
820.966	188.41
821.403	133.11
821.839	109.91
822.276	110.21
822.713	130.01
823.15	143.21
823.587	130.81
824.023	157.91
824.46	312.31
824.897	946.31
825.333	1434.81
825.77	612.11
826.206	240.61
826.643	142.71
827.08	109.01
827.516	86.71
827.953	85.51
828.389	78.91
828.825	75.81
829.262	69.11
829.698	67.21
830.135	72.41
830.571	64.91
831.007	68.21
831.443	62.01
831.88	63.51
832.316	64.91
832.752	66.71
833.188	69.31
833.624	61.81
834.06	69.71
834.497	72.31
834.933	74.11
835.369	81.71
835.805	74.71
836.241	85.01
836.677	85.41
837.112	93.41
837.548	103.91
837.984	132.41
838.42	205.41
838.856	527.41
839.292	1601.01
839.727	2426.91
840.163	1124.21
840.599	977.91
841.034	2136.51
841.47	2227.41
841.906	822.51
842.341	349.11
842.777	217.21
843.212	252.41
843.648	228.11
844.083	125.21
844.519	85.41
844.954	67.51
845.39	58.01
845.825	61.91
846.261	55.11
846.696	54.81
847.131	60.81
847.566	57.81
848.002	53.11
848.437	54.31
848.872	60.11
849.307	58.11
849.742	87.31
850.177	193.71
850.613	584.51
851.048	925.61
851.483	397.61
851.918	164.31
852.353	92.11
852.788	62.01
853.223	57.51
853.657	53.51
854.092	51.91
854.527	49.21
854.962	42.31
855.397	45.81
855.832	50.61
856.266	45.31
856.701	38.31
857.136	44.51
857.57	38.81
858.005	49.41
858.44	60.71
858.874	46.91
859.309	57.41
859.743	44.91
860.178	55.31
860.612	46.31
861.047	55.61
861.481	75.41
861.915	69.71
862.35	56.11
862.784	37.61
863.218	45.01
863.653	37.31
864.087	46.51
864.521	54.71
864.955	74.11
865.39	159.51
865.824	197.11
866.258	125.41
866.692	176.51
867.126	187.71
867.56	115.71
867.994	52.51
868.428	40.51
868.862	44.01
869.296	60.81
869.73	62.01
870.164	56.11
870.598	58.01
871.031	42.41
871.465	33.51
871.899	34.01
872.333	29.71
872.766	23.01
873.2	17.71
873.634	31.01
874.067	25.31
874.501	27.51
874.935	37.81
875.368	27.01
875.802	30.81
876.235	25.81
876.669	23.41
877.102	21.11
877.535	29.21
877.969	27.11
878.402	28.51
878.836	21.41
879.269	23.01
879.702	27.51
880.135	21.01
880.569	18.91
881.002	26.61
881.435	22.31
881.868	18.41
882.301	22.81
882.734	18.11
883.167	24.81
883.601	22.11
884.034	24.21
884.467	14.31
884.899	20.91
885.332	17.01
885.765	17.61
886.198	20.21
886.631	18.51
887.064	17.81
887.497	22.51
887.929	21.11
888.362	10.51
888.795	14.11
889.228	20.51
889.66	17.91
890.093	19.61
890.526	22.31
890.958	11.31
891.391	25.21
891.823	27.71
892.256	16.21
892.688	11.71
893.121	22.51
893.553	15.21
893.985	27.71
894.418	18.61
894.85	11.71
895.282	18.31
895.715	20.11
896.147	16.31
896.579	26.61
897.011	16.81
897.444	22.61
897.876	13.91
898.308	23.11
898.74	22.01
899.172	15.01
899.604	28.61
900.036	21.81
900.468	9.31
900.9	21.01
901.332	16.01
901.764	17.01
902.196	17.61
902.628	15.71
903.06	22.61
903.491	32.31
903.923	27.91
904.355	22.61
904.787	22.81
905.218	18.81
905.65	22.41
906.082	14.11
906.513	13.31
906.945	16.31
907.376	11.61
907.808	16.41
908.239	18.81
908.671	20.11
909.102	14.21
909.534	27.31
909.965	52.01
910.397	101.01
910.828	342.11
911.259	489.61
911.691	227.91
912.122	114.71
912.553	54.61
912.984	36.51
913.415	31.41
913.847	30.31
914.278	14.71
914.709	20.31
915.14	14.71
915.571	23.71
916.002	8.61
916.433	18.71
916.864	21.71
917.295	20.41
917.726	20.41
918.157	13.91
918.587	31.11
919.018	21.51
919.449	24.41
919.88	21.31
920.311	31.71
920.741	52.21
921.172	178.31
921.603	151.31
922.033	78.01
922.464	47.41
922.895	20.91
923.325	24.71
923.756	13.41
924.186	7.81
924.617	25.31
925.047	29.11
925.478	37.31
925.908	32.61
926.338	23.01
926.769	7.81
927.199	15.81
927.629	11.01
928.06	18.01
928.49	17.91
928.92	22.51
929.35	16.11
929.78	16.81
930.21	8.91
930.641	9.61
931.071	12.21
931.501	-1.09
931.931	7.61
932.361	7.71
932.791	-0.39
933.221	0.31
933.651	7.11
934.08	18.61
934.51	27.31
934.94	13.21
935.37	14.81
935.8	11.31
936.229	11.61
936.659	11.71
937.089	5.21
937.519	16.81
937.948	19.31
938.378	15.21
938.807	8.81
939.237	6.31
939.666	5.41
940.096	-2.99
940.525	3.51
940.955	0.01
941.384	8.11
941.814	-2.89
942.243	-1.59
942.672	3.81
943.102	-5.29
943.531	-0.89
943.96	3.81
944.39	2.71
944.819	2.71
945.248	6.21
945.677	1.21
946.106	3.21
946.535	8.41
946.964	0.01
947.393	6.11
947.822	-1.19
948.251	-3.39
948.68	3.01
949.109	3.11
949.538	7.11
949.967	2.11
950.396	-0.09
950.825	-2.39
951.254	3.11
951.682	-7.29
952.111	2.11
952.54	10.71
952.969	-5.29
953.397	-5.79
953.826	2.61
954.254	-6.09
954.683	3.71
955.112	1.11
955.54	2.51
955.969	3.91
956.397	0.01
956.826	-2.09
957.254	-0.19
957.682	8.71
958.111	8.81
958.539	-4.39
958.967	3.21
959.396	1.91
959.824	-0.29
960.252	2.71
960.68	-0.19
961.109	-6.79
961.537	-7.59
961.965	3.11
962.393	4.51
962.821	-2.19
963.249	0.91
963.677	6.81
964.105	5.51
964.533	43.61
964.961	43.01
965.389	19.81
965.817	11.41
966.245	1.91
966.672	-2.79
967.1	-5.99
967.528	1.01
967.956	-2.09
968.383	-1.89
968.811	-3.89
969.239	-4.69
969.666	-0.79
970.094	-2.69
970.522	1.51
970.949	-3.19
971.377	-1.69
971.804	-1.49
972.232	-3.59
972.659	-1.29
973.087	-2.09
973.514	-3.99
973.941	-6.99
974.369	1.21
974.796	-0.19
975.223	0.41
975.651	-5.59
976.078	0.31
976.505	0.51
976.932	4.21
977.359	13.81
977.786	13.41
978.214	3.51
978.641	-5.59
979.068	-3.29
979.495	-3.69
979.922	-1.59
980.349	-0.79
980.776	5.21
981.202	-1.09
981.629	3.61
982.056	4.41
982.483	4.51
982.91	1.91
983.337	-2.99
983.763	4.31
984.19	-3.79
984.617	-1.89
985.043	-5.09
985.47	-1.39
985.897	-4.19
986.323	-6.69
986.75	8.01
987.176	2.51
987.603	-5.79
988.029	2.91
988.456	0.51
988.882	5.81
989.308	-7.49
989.735	-7.29
990.161	-2.29
990.587	-0.69
991.014	-0.69
991.44	6.71
991.866	-2.29
992.292	-10.39
992.719	-7.79
993.145	3.21
993.571	-13.29
993.997	-3.19
994.423	4.21
994.849	-4.09
995.275	5.21
995.701	-7.49
996.127	-3.79
996.553	5.41
996.979	0.61
997.405	-3.59
997.83	-3.89
998.256	0.61
998.682	-6.49
999.108	-8.29
999.534	-8.89
999.959	-0.19
1000.385	-0.19
1000.811	0.91
1001.236	-12.69
1001.662	-13.19
1002.087	-12.39
1002.513	0.11
1002.938	3.51
1003.364	-7.99
1003.789	1.51
1004.215	-1.09
1004.64	1.21
1005.066	2.41
1005.491	-1.59
1005.916	0.11
1006.342	0.21
1006.767	-3.89
1007.192	3.61
1007.617	-2.59
1008.042	0.21
1008.468	-2.69
1008.893	0.51
1009.318	-2.69
1009.743	1.31
1010.168	4.81
1010.593	2.71
1011.018	-9.19
1011.443	-4.69
1011.868	3.71
1012.293	-2.49
1012.718	-11.89
1013.143	-2.09
1013.567	5.21
1013.992	-2.09
1014.417	-7.49
1014.842	5.21
1015.267	-2.79
1015.691	-2.09
1016.116	5.71
1016.541	-1.39
1016.965	3.21
1017.39	3.61
1017.814	2.81
1018.239	1.51
1018.663	-2.89
1019.088	-7.39
1019.512	-3.79
1019.937	2.61
1020.361	-4.19
1020.785	-7.69
1021.21	-2.39
1021.634	-3.99
1022.058	0.71
1022.483	2.01
1022.907	-6.19
1023.331	-8.19
1023.755	-8.39
1024.179	-0.79
1024.604	-7.19
1025.028	-8.09
1025.452	-5.39
1025.876	-5.99
1026.3	1.31
1026.724	-12.19
1027.148	-6.19
1027.572	-7.19
1027.996	-6.19
1028.42	-5.49
1028.843	-0.89
1029.267	-1.39
1029.691	-4.09
1030.115	-6.09
1030.539	-6.59
1030.962	-4.99
1031.386	-10.59
1031.81	0.51
1032.233	-4.99
1032.657	-8.49
1033.08	-2.59
1033.504	-9.09
1033.927	-0.99
1034.351	1.01
1034.774	-9.29
1035.198	-3.69
1035.621	-7.49
1036.045	-5.09
1036.468	-3.59
1036.891	-11.79
1037.315	-10.79
1037.738	-13.39
1038.161	3.11
1038.584	1.11
1039.008	-0.79
1039.431	-4.79
1039.854	-1.69
1040.277	-8.09
1040.7	-14.29
1041.123	1.21
1041.546	-6.29
1041.969	1.01
1042.392	-4.39
1042.815	-1.09
1043.238	2.61
1043.661	0.41
1044.084	-13.09
1044.507	-3.09
1044.93	-8.09
1045.352	-8.09
1045.775	-3.69
1046.198	-0.09
1046.621	-3.99
1047.043	-1.29
1047.466	1.71
1047.889	-4.09
1048.311	2.21
1048.734	-3.39
1049.156	-2.19
1049.579	-2.59
1050.001	-2.79
1050.424	2.11
1050.846	-6.49
1051.269	-2.39
1051.691	-4.19
1052.113	-6.29
1052.536	-2.19
1052.958	-2.79
1053.38	-4.79
1053.802	-10.09
1054.225	4.71
1054.647	-9.69
1055.069	-8.89
1055.491	2.01
1055.913	-9.79
1056.335	-1.59
1056.757	-2.79
1057.179	-8.19
1057.601	-6.49
1058.023	-5.69
1058.445	-5.19
1058.867	-5.89
1059.289	-2.09
1059.711	-5.59
1060.133	-4.49
1060.555	0.21
1060.976	-6.99
1061.398	-4.49
1061.82	-7.99
1062.241	-9.29
1062.663	-4.89
1063.085	-3.69
1063.506	-0.19
1063.928	-5.99
1064.35	-3.09
1064.771	-8.09
1065.193	0.81
1065.614	-9.29
1066.035	-1.99
1066.457	-1.29
1066.878	3.41
1067.3	-2.29
1067.721	-6.39
1068.142	-2.49
1068.564	-4.59
1068.985	-7.99
1069.406	-0.09
1069.827	-5.39
1070.248	-5.59
1070.67	-11.29
1071.091	-6.19
1071.512	-1.49
1071.933	-6.89
1072.354	-8.09
1072.775	-7.69
1073.196	-7.29
1073.617	-5.39
1074.038	-3.69
1074.459	2.41
1074.88	-8.39
1075.3	0.21
1075.721	-6.29
1076.142	0.71
1076.563	-3.49
1076.983	-9.59
1077.404	-6.49
1077.825	-10.19
1078.246	-6.99
1078.666	-10.89
1079.087	-2.19
1079.507	-5.69
1079.928	0.01
1080.348	-8.99
1080.769	-3.49
1081.189	0.11
1081.61	1.21
1082.03	-6.49
1082.451	-7.09
1082.871	-1.89
1083.291	-1.89
1083.711	-5.89
1084.132	-3.69
1084.552	-1.79
1084.972	0.91
1085.392	-11.29
1085.813	-8.59
1086.233	-8.89
1086.653	-9.09
1087.073	-1.59
1087.493	-8.49
1087.913	-3.79
1088.333	-7.59
1088.753	-7.09
1089.173	1.51
1089.593	-5.79
1090.013	-0.29
1090.433	-1.59
1090.852	-1.19
1091.272	-1.39
1091.692	-8.29
1092.112	-7.39
1092.531	-10.69
1092.951	-8.49
1093.371	-8.09
1093.79	1.41
1094.21	-3.29
1094.63	-4.09
1095.049	-3.09
1095.469	-7.09
1095.888	-0.89
1096.308	1.71
1096.727	5.21
1097.146	-6.89
1097.566	1.11
1097.985	-1.99
1098.405	-1.09
1098.824	-7.79
1099.243	-8.29
1099.662	-5.69
1100.082	-8.79
1100.501	3.01
1100.92	-4.19
1101.339	-10.39
1101.758	-6.99
