Data from 20171114-ORNL-Ar_H_NY_Subt18_08-08-00-097.txt Node
Date: Tue Nov 14 08:08:00 EST 2017
User: Ender
Spectrometer: HR+D1039
Trigger mode: 0
Integration Time (sec): 2.730000E-2
Scans to average: 10
Electric dark correction enabled: true
Nonlinearity correction enabled: false
Boxcar width: 0
XAxis mode: Wavelengths
Number of Pixels in Spectrum: 2048
>>>>>Begin Spectral Data<<<<<
187.836	-1.39
188.309	-1.39
188.782	-1.39
189.255	-1.69
189.728	-1.99
190.201	1.01
190.674	4.11
191.147	6.41
191.619	-5.29
192.092	3.91
192.565	1.61
193.038	0.51
193.511	5.61
193.984	-1.29
194.456	-0.59
194.929	-0.09
195.402	-6.49
195.874	-4.39
196.347	-3.49
196.82	-9.09
197.292	6.81
197.765	4.71
198.237	-7.59
198.71	4.61
199.182	0.11
199.655	-0.49
200.127	-1.49
200.6	-0.29
201.072	-2.79
201.544	-3.19
202.017	-2.29
202.489	2.41
202.961	4.71
203.433	-2.79
203.906	-7.59
204.378	-6.39
204.85	-1.39
205.322	-11.49
205.794	-4.29
206.266	-1.19
206.739	-5.19
207.211	5.51
207.683	-6.99
208.155	-3.89
208.627	-4.19
209.099	-1.49
209.57	-10.09
210.042	-1.99
210.514	-3.29
210.986	-0.79
211.458	-7.99
211.93	1.51
212.402	8.91
212.873	-3.49
213.345	-3.89
213.817	-10.99
214.288	-1.59
214.76	-11.19
215.232	-7.69
215.703	-1.29
216.175	-3.49
216.646	-4.29
217.118	-6.39
217.589	-2.39
218.061	-1.19
218.532	-1.69
219.004	-0.59
219.475	0.21
219.946	-1.19
220.418	-2.39
220.889	3.51
221.36	1.81
221.832	-0.99
222.303	-10.49
222.774	0.61
223.245	-5.29
223.717	-4.79
224.188	-0.49
224.659	2.31
225.13	-2.49
225.601	-1.79
226.072	-3.29
226.543	-2.59
227.014	-1.89
227.485	-2.99
227.956	-1.99
228.427	1.61
228.898	2.41
229.369	6.41
229.839	-1.99
230.31	-6.39
230.781	-2.09
231.252	-2.29
231.722	0.21
232.193	-0.29
232.664	-3.59
233.135	0.31
233.605	2.01
234.076	-11.29
234.546	3.31
235.017	3.91
235.487	5.71
235.958	-3.99
236.428	-3.99
236.899	-1.99
237.369	6.31
237.84	-3.09
238.31	8.21
238.78	2.31
239.251	-3.39
239.721	3.01
240.191	-0.99
240.662	-2.09
241.132	2.01
241.602	-0.39
242.072	2.71
242.542	6.71
243.013	-3.69
243.483	0.71
243.953	2.71
244.423	-0.19
244.893	1.11
245.363	1.91
245.833	1.31
246.303	-3.19
246.773	6.71
247.243	4.71
247.712	-0.09
248.182	1.91
248.652	6.71
249.122	-6.19
249.592	10.11
250.061	20.21
250.531	30.71
251.001	12.01
251.471	22.71
251.94	15.71
252.41	2.81
252.879	5.71
253.349	12.51
253.818	13.71
254.288	4.31
254.757	2.71
255.227	3.41
255.696	6.31
256.166	4.81
256.635	8.01
257.105	13.11
257.574	13.21
258.043	9.31
258.513	9.01
258.982	13.91
259.451	8.91
259.92	12.91
260.389	11.41
260.859	16.11
261.328	5.71
261.797	15.71
262.266	9.01
262.735	11.71
263.204	-2.59
263.673	3.21
264.142	5.41
264.611	-0.19
265.08	-1.19
265.549	4.01
266.018	6.71
266.487	-2.59
266.955	2.81
267.424	5.01
267.893	10.61
268.362	0.11
268.83	3.21
269.299	11.91
269.768	7.11
270.236	3.01
270.705	0.01
271.174	9.31
271.642	9.31
272.111	12.01
272.579	13.41
273.048	18.51
273.516	24.31
273.985	26.51
274.453	23.81
274.922	20.01
275.39	9.01
275.858	6.31
276.327	11.21
276.795	18.31
277.263	10.61
277.731	31.61
278.2	51.81
278.668	57.61
279.136	44.91
279.604	21.81
280.072	20.01
280.54	9.71
281.008	10.81
281.477	11.81
281.945	8.21
282.413	13.41
282.881	13.21
283.348	8.81
283.816	10.71
284.284	12.81
284.752	21.41
285.22	11.61
285.688	19.41
286.156	13.41
286.623	42.51
287.091	56.21
287.559	26.01
288.026	19.31
288.494	12.01
288.962	7.71
289.429	7.41
289.897	18.91
290.364	11.61
290.832	11.61
291.3	18.11
291.767	16.11
292.234	19.31
292.702	15.41
293.169	16.01
293.637	20.61
294.104	21.51
294.571	12.11
295.039	10.11
295.506	15.81
295.973	14.61
296.44	18.31
296.908	15.31
297.375	18.21
297.842	20.01
298.309	19.81
298.776	15.31
299.243	16.91
299.71	11.71
300.177	20.51
300.644	26.31
301.111	21.41
301.578	22.71
302.045	14.61
302.512	24.51
302.979	23.41
303.446	24.51
303.913	17.71
304.379	16.41
304.846	25.71
305.313	21.91
305.78	29.51
306.246	22.01
306.713	22.21
307.18	33.61
307.646	28.01
308.113	26.91
308.579	22.31
309.046	26.31
309.512	23.81
309.979	18.41
310.445	29.01
310.912	24.61
311.378	33.91
311.845	26.91
312.311	31.41
312.777	34.11
313.244	29.61
313.71	34.51
314.176	32.11
314.642	29.91
315.109	29.81
315.575	31.31
316.041	37.01
316.507	34.81
316.973	32.41
317.439	32.71
317.905	35.31
318.371	27.41
318.837	32.01
319.303	29.61
319.769	32.01
320.235	38.91
320.701	36.71
321.167	33.91
321.633	31.91
322.099	37.81
322.564	45.11
323.03	41.11
323.496	42.81
323.962	43.31
324.427	40.31
324.893	42.51
325.359	38.71
325.824	41.41
326.29	39.51
326.755	39.31
327.221	37.71
327.686	42.31
328.152	44.51
328.617	43.71
329.083	45.91
329.548	46.61
330.014	46.81
330.479	39.11
330.944	36.91
331.41	47.61
331.875	49.01
332.34	43.21
332.805	44.31
333.271	47.11
333.736	42.21
334.201	50.21
334.666	46.81
335.131	52.01
335.596	48.01
336.061	53.01
336.526	37.91
336.991	43.81
337.456	59.91
337.921	45.61
338.386	50.01
338.851	42.11
339.316	46.21
339.781	48.51
340.246	51.81
340.711	46.01
341.175	52.51
341.64	46.91
342.105	53.11
342.569	53.11
343.034	58.71
343.499	54.21
343.963	49.31
344.428	65.21
344.893	60.71
345.357	54.81
345.822	61.41
346.286	66.71
346.751	74.71
347.215	68.21
347.679	67.21
348.144	95.51
348.608	81.21
349.073	72.01
349.537	77.51
350.001	83.11
350.465	88.71
350.93	80.31
351.394	80.61
351.858	77.91
352.322	87.41
352.786	83.81
353.25	103.01
353.715	112.81
354.179	103.11
354.643	121.41
355.107	126.01
355.571	109.21
356.035	101.61
356.498	115.61
356.962	122.81
357.426	132.71
357.89	115.91
358.354	95.21
358.818	80.51
359.281	77.21
359.745	71.01
360.209	75.61
360.673	70.61
361.136	79.71
361.6	86.21
362.064	83.81
362.527	83.31
362.991	83.91
363.454	85.51
363.918	70.31
364.381	74.41
364.845	78.71
365.308	88.51
365.772	86.71
366.235	83.51
366.698	80.81
367.162	85.91
367.625	85.71
368.088	86.91
368.552	88.71
369.015	88.61
369.478	95.51
369.941	98.21
370.404	88.91
370.867	106.51
371.331	111.91
371.794	115.71
372.257	115.11
372.72	117.01
373.183	110.01
373.646	105.31
374.109	105.51
374.572	108.61
375.035	106.61
375.497	110.31
375.96	104.21
376.423	102.11
376.886	112.41
377.349	108.71
377.811	105.11
378.274	110.11
378.737	112.41
379.199	111.61
379.662	105.81
380.125	122.61
380.587	123.31
381.05	125.51
381.512	127.11
381.975	135.91
382.437	131.81
382.9	130.91
383.362	133.81
383.825	142.11
384.287	152.91
384.75	141.81
385.212	144.51
385.674	147.81
386.136	139.51
386.599	124.01
387.061	138.91
387.523	135.31
387.985	143.21
388.447	153.21
388.91	146.81
389.372	160.81
389.834	151.71
390.296	150.31
390.758	161.41
391.22	171.41
391.682	212.61
392.144	315.41
392.606	232.61
393.068	167.41
393.529	173.11
393.991	155.21
394.453	155.01
394.915	162.31
395.377	199.01
395.838	227.61
396.3	159.01
396.762	143.11
397.224	137.71
397.685	131.21
398.147	134.01
398.608	131.91
399.07	133.91
399.531	134.81
399.993	148.91
400.454	157.91
400.916	147.21
401.377	142.51
401.839	158.71
402.3	153.11
402.762	164.91
403.223	183.51
403.684	178.51
404.145	170.71
404.607	163.91
405.068	167.11
405.529	169.61
405.99	198.11
406.451	177.51
406.913	176.51
407.374	169.91
407.835	168.71
408.296	173.51
408.757	171.31
409.218	186.31
409.679	179.91
410.14	179.61
410.601	181.01
411.062	186.41
411.522	196.91
411.983	197.71
412.444	178.41
412.905	183.11
413.366	177.31
413.826	196.21
414.287	217.21
414.748	261.51
415.208	252.01
415.669	208.41
416.13	210.01
416.59	206.01
417.051	212.41
417.511	220.01
417.972	239.41
418.432	247.01
418.893	293.31
419.353	248.41
419.814	207.11
420.274	189.91
420.734	183.71
421.195	204.31
421.655	202.51
422.115	195.01
422.576	195.21
423.036	202.81
423.496	212.01
423.956	216.31
424.416	227.41
424.876	267.71
425.336	274.11
425.797	268.81
426.257	268.91
426.717	249.81
427.177	247.31
427.637	229.21
428.097	237.61
428.556	250.91
429.016	274.61
429.476	274.41
429.936	279.21
430.396	281.61
430.856	294.81
431.315	320.31
431.775	355.81
432.235	382.71
432.694	363.61
433.154	373.91
433.614	400.91
434.073	339.21
434.533	293.51
434.993	280.51
435.452	300.51
435.912	299.41
436.371	292.01
436.83	296.41
437.29	279.31
437.749	256.21
438.209	255.21
438.668	284.11
439.127	292.51
439.587	267.21
440.046	259.01
440.505	262.71
440.964	284.31
441.424	323.61
441.883	318.81
442.342	268.21
442.801	232.51
443.26	228.11
443.719	231.41
444.178	223.11
444.637	216.31
445.096	221.01
445.555	230.21
446.014	225.01
446.473	227.41
446.932	237.21
447.391	226.21
447.849	229.01
448.308	223.01
448.767	220.71
449.226	238.11
449.685	244.71
450.143	251.71
450.602	244.91
451.061	236.11
451.519	233.31
451.978	230.81
452.436	235.01
452.895	239.31
453.353	259.01
453.812	246.61
454.27	238.71
454.729	242.91
455.187	243.41
455.646	249.91
456.104	250.61
456.562	267.71
457.021	272.31
457.479	267.91
457.937	274.61
458.395	269.61
458.854	252.61
459.312	256.51
459.77	278.61
460.228	257.51
460.686	247.71
461.144	248.01
461.602	249.21
462.06	243.41
462.518	253.41
462.976	253.91
463.434	259.11
463.892	257.31
464.35	282.11
464.808	286.51
465.266	269.41
465.724	268.41
466.181	281.11
466.639	265.91
467.097	286.31
467.555	300.61
468.012	305.71
468.47	306.31
468.928	329.51
469.385	338.91
469.843	350.91
470.3	352.51
470.758	372.31
471.215	388.21
471.673	410.91
472.13	414.91
472.588	421.51
473.045	375.71
473.503	379.61
473.96	391.51
474.417	412.31
474.875	433.71
475.332	480.61
475.789	472.81
476.246	475.61
476.704	492.01
477.161	517.51
477.618	526.11
478.075	571.61
478.532	621.71
478.989	699.01
479.446	814.91
479.903	791.21
480.36	814.91
480.817	872.41
481.274	981.71
481.731	1080.01
482.188	1180.71
482.645	1326.11
483.102	1424.91
483.558	1575.81
484.015	1620.21
484.472	1587.41
484.929	1528.31
485.385	1496.31
485.842	1448.71
486.299	1379.31
486.755	1318.31
487.212	1108.41
487.668	939.71
488.125	866.01
488.582	791.01
489.038	756.91
489.494	707.41
489.951	689.91
490.407	669.41
490.864	652.51
491.32	648.91
491.776	640.91
492.233	655.51
492.689	619.61
493.145	608.91
493.602	597.51
494.058	614.51
494.514	626.51
494.97	650.91
495.426	646.21
495.882	629.81
496.338	615.21
496.794	627.21
497.251	621.21
497.707	627.71
498.163	641.21
498.618	645.91
499.074	640.51
499.53	688.11
499.986	684.11
500.442	656.51
500.898	635.51
501.354	629.71
501.809	637.61
502.265	643.31
502.721	671.11
503.177	678.61
503.632	675.81
504.088	676.21
504.543	721.41
504.999	716.01
505.455	661.31
505.91	634.11
506.366	634.81
506.821	621.21
507.277	623.21
507.732	629.61
508.187	624.61
508.643	639.11
509.098	637.21
509.553	661.61
510.009	668.81
510.464	676.81
510.919	696.21
511.375	702.41
511.83	711.91
512.285	723.31
512.74	762.41
513.195	792.41
513.65	784.01
514.105	764.51
514.56	769.71
515.015	786.41
515.47	810.81
515.925	791.71
516.38	787.81
516.835	803.11
517.29	784.21
517.745	786.51
518.2	761.01
518.655	749.01
519.109	746.71
519.564	742.11
520.019	741.21
520.474	725.61
520.928	725.31
521.383	714.11
521.838	716.71
522.292	719.41
522.747	718.81
523.201	712.81
523.656	697.91
524.11	697.91
524.565	697.91
525.019	699.11
525.474	702.71
525.928	703.51
526.382	705.11
526.837	701.01
527.291	709.41
527.745	701.01
528.2	694.41
528.654	707.61
529.108	687.41
529.562	688.21
530.016	691.01
530.47	700.91
530.925	703.91
531.379	696.21
531.833	704.61
532.287	701.51
532.741	705.11
533.195	704.51
533.649	703.51
534.103	723.81
534.556	712.51
535.01	718.01
535.464	709.51
535.918	713.21
536.372	724.81
536.826	722.71
537.279	706.11
537.733	710.51
538.187	711.81
538.64	719.01
539.094	729.91
539.548	723.81
540.001	724.61
540.455	730.21
540.908	733.21
541.362	741.71
541.815	754.71
542.269	759.81
542.722	761.51
543.175	773.71
543.629	773.71
544.082	788.51
544.536	784.61
544.989	786.51
545.442	795.81
545.895	794.81
546.349	804.21
546.802	794.41
547.255	805.81
547.708	812.11
548.161	827.31
548.614	826.11
549.067	829.91
549.52	823.91
549.973	813.51
550.426	807.91
550.879	795.51
551.332	806.61
551.785	809.61
552.238	812.01
552.691	822.91
553.144	839.81
553.596	854.01
554.049	861.61
554.502	904.11
554.955	911.81
555.407	913.11
555.86	909.81
556.313	895.41
556.765	889.91
557.218	884.41
557.67	882.61
558.123	870.11
558.576	876.21
559.028	885.61
559.48	888.21
559.933	882.71
560.385	837.11
560.838	809.41
561.29	787.01
561.742	784.01
562.195	774.31
562.647	766.41
563.099	781.21
563.551	774.01
564.004	787.21
564.456	778.61
564.908	769.11
565.36	742.61
565.812	739.21
566.264	732.11
566.716	734.11
567.168	718.41
567.62	724.41
568.072	712.71
568.524	698.21
568.976	696.41
569.428	680.31
569.88	679.61
570.332	684.31
570.784	686.31
571.235	694.01
571.687	696.41
572.139	718.41
572.59	719.11
573.042	712.81
573.494	711.31
573.945	715.11
574.397	692.91
574.849	694.71
575.3	708.21
575.752	687.31
576.203	684.91
576.655	694.61
577.106	676.51
577.557	675.61
578.009	672.51
578.46	667.41
578.912	665.81
579.363	670.81
579.814	677.01
580.265	668.91
580.717	672.11
581.168	670.31
581.619	684.41
582.07	684.11
582.521	686.51
582.972	687.51
583.423	674.91
583.875	697.81
584.326	705.31
584.777	766.21
585.227	847.91
585.678	934.71
586.129	1033.61
586.58	1096.11
587.031	1186.31
587.482	1349.41
587.933	1533.31
588.384	1338.01
588.834	992.11
589.285	814.11
589.736	788.51
590.186	779.11
590.637	779.41
591.088	747.21
591.538	743.91
591.989	734.41
592.439	732.11
592.89	724.91
593.34	714.21
593.791	715.51
594.241	712.61
594.692	716.31
595.142	707.81
595.593	705.01
596.043	712.21
596.493	714.21
596.943	719.01
597.394	723.61
597.844	712.31
598.294	730.91
598.744	750.31
599.195	782.61
599.645	817.61
600.095	867.91
600.545	926.71
600.995	969.91
601.445	1027.31
601.895	1094.91
602.345	1155.71
602.795	1129.01
603.245	1067.61
603.695	1003.11
604.145	967.51
604.594	915.71
605.044	868.61
605.494	790.91
605.944	762.71
606.393	749.61
606.843	733.11
607.293	752.71
607.743	739.21
608.192	760.71
608.642	766.51
609.091	780.41
609.541	786.31
609.99	777.01
610.44	774.51
610.889	729.11
611.339	716.41
611.788	697.21
612.238	704.31
612.687	730.01
613.136	724.31
613.586	749.71
614.035	751.31
614.484	770.41
614.933	769.41
615.383	758.51
615.832	747.31
616.281	739.81
616.73	680.61
617.179	677.21
617.628	655.61
618.077	647.01
618.526	638.71
618.975	620.31
619.424	616.31
619.873	622.11
620.322	622.51
620.771	612.11
621.22	612.21
621.669	599.21
622.118	598.01
622.567	581.71
623.015	581.71
623.464	588.31
623.913	571.51
624.361	557.71
624.81	557.31
625.259	559.41
625.707	561.11
626.156	565.91
626.604	571.51
627.053	569.31
627.501	563.31
627.95	573.71
628.398	591.61
628.847	577.91
629.295	579.71
629.744	584.01
630.192	583.41
630.64	575.71
631.089	581.91
631.537	587.11
631.985	591.81
632.433	618.21
632.881	626.51
633.33	677.81
633.778	652.61
634.226	586.01
634.674	581.21
635.122	586.71
635.57	610.41
636.018	644.01
636.466	582.81
636.914	563.31
637.362	567.61
637.81	582.71
638.258	581.71
638.705	588.61
639.153	617.51
639.601	629.71
640.049	648.01
640.497	687.91
640.944	702.61
641.392	651.61
641.84	611.71
642.287	595.11
642.735	576.51
643.182	583.31
643.63	579.21
644.078	583.41
644.525	596.31
644.973	604.11
645.42	615.11
645.867	630.61
646.315	649.61
646.762	670.01
647.21	693.21
647.657	717.71
648.104	763.31
648.551	787.01
648.999	852.51
649.446	940.11
649.893	1039.31
650.34	1191.71
650.787	1417.41
651.234	1775.31
651.682	2326.81
652.129	3222.21
652.576	4626.91
653.023	6822.61
653.47	9355.81
653.917	11578.61
654.363	13316.31
654.81	14590.51
655.257	13901.21
655.704	9102.31
656.151	5343.01
656.598	3451.41
657.044	2456.81
657.491	1892.71
657.938	1511.51
658.385	1267.51
658.831	1101.51
659.278	972.61
659.724	863.91
660.171	800.51
660.618	726.91
661.064	702.61
661.511	665.41
661.957	669.21
662.404	657.71
662.85	662.71
663.296	640.01
663.743	571.81
664.189	551.41
664.635	541.61
665.082	528.41
665.528	532.81
665.974	520.71
666.42	516.11
666.867	513.01
667.313	494.61
667.759	482.91
668.205	484.61
668.651	492.91
669.097	491.01
669.543	508.01
669.989	482.91
670.435	453.71
670.881	465.21
671.327	449.21
671.773	477.61
672.219	497.11
672.665	553.91
673.11	590.11
673.556	637.71
674.002	684.31
674.448	660.11
674.893	555.11
675.339	474.01
675.785	447.31
676.23	431.91
676.676	398.11
677.122	385.91
677.567	378.11
678.013	371.11
678.458	358.91
678.904	364.51
679.349	360.01
679.794	363.71
680.24	352.71
680.685	364.11
681.131	346.91
681.576	351.51
682.021	358.51
682.466	358.11
682.912	352.81
683.357	355.11
683.802	391.01
684.247	410.91
684.692	464.41
685.137	500.31
685.583	546.11
686.028	560.11
686.473	519.01
686.918	444.51
687.363	422.51
687.807	394.71
688.252	375.71
688.697	354.11
689.142	334.71
689.587	332.51
690.032	340.81
690.477	351.11
690.921	354.61
691.366	387.81
691.811	398.51
692.255	432.41
692.7	466.81
693.145	512.91
693.589	725.51
694.034	1163.31
694.478	1558.31
694.923	1732.31
695.367	2267.51
695.812	1193.41
696.256	506.41
696.701	374.91
697.145	360.81
697.59	333.81
698.034	320.31
698.478	339.11
698.922	322.21
699.367	332.61
699.811	341.41
700.255	366.91
700.699	389.61
701.143	430.81
701.588	492.01
702.032	526.31
702.476	518.71
702.92	494.41
703.364	502.61
703.808	664.81
704.252	1068.51
704.696	1481.21
705.14	1665.41
705.584	2137.41
706.027	1073.61
706.471	529.41
706.915	399.61
707.359	351.71
707.803	322.71
708.246	320.01
708.69	320.81
709.134	326.51
709.577	315.11
710.021	315.61
710.465	314.71
710.908	305.31
711.352	300.81
711.795	317.61
712.239	356.61
712.682	385.11
713.126	416.11
713.569	468.81
714.012	374.61
714.456	327.61
714.899	302.91
715.342	279.01
715.786	262.61
716.229	261.01
716.672	261.61
717.115	252.21
717.558	255.61
718.002	255.41
718.445	267.61
718.888	287.91
719.331	304.01
719.774	312.41
720.217	309.31
720.66	286.91
721.103	268.91
721.546	258.31
721.989	253.11
722.432	238.21
722.874	238.31
723.317	237.51
723.76	235.91
724.203	259.41
724.645	327.41
725.088	457.61
725.531	581.11
725.974	643.21
726.416	549.71
726.859	306.91
727.301	253.51
727.744	243.51
728.187	239.21
728.629	245.31
729.071	248.91
729.514	264.21
729.956	277.71
730.399	285.91
730.841	290.81
731.283	277.71
731.726	271.01
732.168	254.11
732.61	268.61
733.053	285.71
733.495	322.11
733.937	363.21
734.379	407.01
734.821	450.01
735.263	557.81
735.705	863.61
736.148	1629.51
736.59	2598.51
737.032	3033.81
737.474	2475.01
737.916	820.71
738.357	433.61
738.799	324.91
739.241	297.11
739.683	288.51
740.125	291.71
740.567	297.11
741.008	325.61
741.45	318.91
741.892	324.91
742.334	356.91
742.775	350.41
743.217	340.31
743.658	270.41
744.1	251.81
744.542	263.91
744.983	310.01
745.425	329.61
745.866	340.91
746.307	284.91
746.749	289.01
747.19	326.21
747.632	472.01
748.073	927.41
748.514	1921.21
748.956	2872.11
749.397	3624.61
749.838	2985.11
750.279	2954.41
750.72	1488.11
751.162	550.81
751.603	327.21
752.044	253.81
752.485	213.61
752.926	208.11
753.367	207.71
753.808	201.51
754.249	194.31
754.69	192.01
755.131	183.51
755.572	185.31
756.013	185.31
756.453	192.71
756.894	190.41
757.335	192.51
757.776	196.81
758.216	196.91
758.657	195.71
759.098	200.21
759.538	227.51
759.979	268.81
760.42	382.51
760.86	730.01
761.301	1900.21
761.741	4523.21
762.182	6386.31
762.622	4465.31
763.063	1307.51
763.503	536.61
763.943	359.71
764.384	355.01
764.824	421.61
765.264	451.21
765.705	312.21
766.145	209.81
766.585	190.11
767.025	181.71
767.465	194.51
767.906	254.01
768.346	325.61
768.786	358.91
769.226	273.11
769.666	329.81
770.106	654.01
770.546	1621.01
770.986	2653.11
771.426	2341.61
771.866	795.61
772.306	328.51
772.745	209.11
773.185	177.41
773.625	171.51
774.065	166.11
774.505	206.01
774.944	322.01
775.384	706.41
775.824	1260.61
776.263	1215.31
776.703	528.11
777.142	228.21
777.582	163.41
778.021	143.01
778.461	142.21
778.9	142.11
779.34	132.01
779.779	123.71
780.219	115.01
780.658	109.11
781.097	113.71
781.537	116.71
781.976	105.21
782.415	109.61
782.855	106.71
783.294	105.71
783.733	109.31
784.172	106.81
784.611	103.01
785.05	112.61
785.489	113.91
785.928	122.01
786.367	125.91
786.806	120.21
787.245	127.21
787.684	132.11
788.123	152.91
788.562	141.11
789.001	127.31
789.44	125.21
789.879	121.61
790.317	123.71
790.756	129.01
791.195	130.71
791.634	149.01
792.072	208.21
792.511	381.41
792.95	1055.41
793.388	2161.81
793.827	1920.41
794.265	670.61
794.704	288.21
795.142	190.11
795.581	154.91
796.019	135.81
796.458	126.41
796.896	124.31
797.334	137.01
797.773	156.61
798.211	222.11
798.649	463.91
799.087	1041.61
799.526	1623.11
799.964	2025.11
800.402	1987.21
800.84	756.41
801.278	307.51
801.716	185.01
802.154	150.91
802.592	145.61
803.03	144.11
803.468	136.41
803.906	144.71
804.344	153.61
804.782	142.81
805.22	133.51
805.658	131.21
806.096	153.71
806.533	156.51
806.971	178.81
807.409	228.21
807.847	325.71
808.284	698.41
808.722	1911.71
809.16	3282.41
809.597	3180.51
810.035	5462.91
810.472	5668.41
810.91	2072.61
811.347	795.31
811.785	405.61
812.222	256.01
812.66	197.71
813.097	161.41
813.535	138.01
813.972	126.71
814.409	121.21
814.846	115.11
815.284	116.21
815.721	106.71
816.158	112.61
816.595	126.21
817.032	189.51
817.47	200.01
817.907	166.41
818.344	152.01
818.781	126.41
819.218	112.81
819.655	127.91
820.092	192.81
820.529	213.51
820.966	178.21
821.403	131.61
821.839	109.51
822.276	99.11
822.713	124.41
823.15	132.21
823.587	116.61
824.023	149.61
824.46	322.01
824.897	916.01
825.333	1336.41
825.77	570.71
826.206	227.41
826.643	139.71
827.08	100.51
827.516	83.31
827.953	75.61
828.389	79.91
828.825	68.91
829.262	65.21
829.698	60.51
830.135	63.31
830.571	55.61
831.007	66.01
831.443	64.31
831.88	64.31
832.316	65.71
832.752	63.81
833.188	66.51
833.624	59.11
834.06	72.11
834.497	71.51
834.933	68.01
835.369	73.91
835.805	65.21
836.241	76.51
836.677	87.31
837.112	92.21
837.548	102.31
837.984	139.01
838.42	203.61
838.856	509.01
839.292	1545.11
839.727	2285.41
840.163	1068.21
840.599	952.51
841.034	2056.21
841.47	2085.71
841.906	781.41
842.341	340.21
842.777	238.91
843.212	328.91
843.648	312.61
844.083	153.71
844.519	95.01
844.954	74.11
845.39	57.71
845.825	57.31
846.261	60.61
846.696	58.81
847.131	53.01
847.566	63.61
848.002	55.71
848.437	61.31
848.872	63.71
849.307	60.21
849.742	84.11
850.177	191.61
850.613	577.51
851.048	865.61
851.483	377.41
851.918	157.41
852.353	88.01
852.788	63.61
853.223	51.71
853.657	55.31
854.092	51.81
854.527	41.41
854.962	39.91
855.397	41.61
855.832	49.51
856.266	44.61
856.701	40.51
857.136	40.81
857.57	47.01
858.005	50.31
858.44	63.31
858.874	48.61
859.309	56.71
859.743	37.61
860.178	48.31
860.612	35.81
861.047	50.71
861.481	67.21
861.915	69.11
862.35	46.51
862.784	34.91
863.218	38.91
863.653	32.61
864.087	45.71
864.521	57.91
864.955	67.91
865.39	163.71
865.824	182.01
866.258	117.11
866.692	159.21
867.126	171.11
867.56	99.61
867.994	50.01
868.428	44.41
868.862	48.11
869.296	52.11
869.73	56.01
870.164	53.81
870.598	41.21
871.031	36.11
871.465	30.71
871.899	32.61
872.333	24.61
872.766	28.01
873.2	23.31
873.634	28.51
874.067	27.31
874.501	28.51
874.935	30.81
875.368	35.01
875.802	31.31
876.235	23.51
876.669	22.91
877.102	25.81
877.535	27.91
877.969	22.11
878.402	21.81
878.836	18.21
879.269	20.11
879.702	29.81
880.135	19.21
880.569	22.91
881.002	25.71
881.435	27.91
881.868	14.21
882.301	25.41
882.734	13.11
883.167	22.81
883.601	11.11
884.034	20.91
884.467	16.41
884.899	22.01
885.332	13.21
885.765	22.61
886.198	17.21
886.631	20.91
887.064	16.91
887.497	20.81
887.929	20.31
888.362	17.81
888.795	12.51
889.228	17.91
889.66	24.61
890.093	16.91
890.526	20.71
890.958	18.71
891.391	21.91
891.823	18.81
892.256	18.41
892.688	14.61
893.121	16.71
893.553	17.11
893.985	31.11
894.418	18.61
894.85	17.91
895.282	17.01
895.715	13.81
896.147	14.11
896.579	14.41
897.011	18.61
897.444	18.71
897.876	12.91
898.308	19.01
898.74	17.11
899.172	12.31
899.604	21.21
900.036	21.71
900.468	16.31
900.9	16.21
901.332	16.21
901.764	18.21
902.196	21.71
902.628	17.91
903.06	16.51
903.491	28.91
903.923	25.11
904.355	23.51
904.787	22.31
905.218	21.91
905.65	22.81
906.082	9.81
906.513	4.51
906.945	14.01
907.376	13.21
907.808	23.21
908.239	19.51
908.671	19.41
909.102	22.21
909.534	26.11
909.965	48.11
910.397	95.51
910.828	322.51
911.259	463.71
911.691	218.41
912.122	108.11
912.553	57.61
912.984	33.41
913.415	31.91
913.847	25.21
914.278	20.51
914.709	18.81
915.14	15.81
915.571	18.91
916.002	10.41
916.433	14.11
916.864	18.51
917.295	16.31
917.726	23.61
918.157	14.71
918.587	28.21
919.018	22.41
919.449	20.71
919.88	28.01
920.311	29.71
920.741	51.01
921.172	170.41
921.603	153.51
922.033	75.61
922.464	42.61
922.895	19.21
923.325	27.01
923.756	16.11
924.186	16.31
924.617	29.31
925.047	42.41
925.478	55.81
925.908	49.81
926.338	29.21
926.769	24.91
927.199	24.41
927.629	9.31
928.06	16.51
928.49	17.91
928.92	15.41
929.35	12.81
929.78	17.71
930.21	7.81
930.641	14.21
931.071	6.71
931.501	3.11
931.931	6.31
932.361	3.31
932.791	2.81
933.221	4.31
933.651	2.71
934.08	18.11
934.51	26.31
934.94	9.31
935.37	6.81
935.8	7.21
936.229	11.61
936.659	7.21
937.089	2.81
937.519	17.81
937.948	27.91
938.378	13.11
938.807	5.71
939.237	2.51
939.666	12.31
940.096	1.21
940.525	-1.89
940.955	-3.19
941.384	2.31
941.814	-1.09
942.243	-1.99
942.672	4.61
943.102	1.71
943.531	2.01
943.96	1.51
944.39	1.91
944.819	-0.09
945.248	1.51
945.677	-0.59
946.106	5.51
946.535	8.21
946.964	-3.39
947.393	-0.79
947.822	2.31
948.251	0.41
948.68	0.71
949.109	-0.19
949.538	3.91
949.967	0.11
950.396	-2.29
950.825	-3.59
951.254	-5.49
951.682	-9.79
952.111	-1.19
952.54	-1.89
952.969	-4.29
953.397	-8.09
953.826	-3.39
954.254	-7.59
954.683	2.81
955.112	3.41
955.54	4.51
955.969	2.31
956.397	0.91
956.826	3.31
957.254	5.21
957.682	0.41
958.111	5.61
958.539	2.51
958.967	4.51
959.396	-3.39
959.824	5.31
960.252	3.21
960.68	-7.49
961.109	-2.19
961.537	2.11
961.965	0.31
962.393	-0.69
962.821	-5.29
963.249	-0.79
963.677	5.61
964.105	7.51
964.533	44.21
964.961	40.91
965.389	14.71
965.817	5.31
966.245	1.71
966.672	1.41
967.1	-2.79
967.528	2.81
967.956	-5.99
968.383	0.51
968.811	-10.59
969.239	-5.79
969.666	-1.09
970.094	5.11
970.522	2.91
970.949	-4.69
971.377	-4.69
971.804	-6.59
972.232	-0.09
972.659	0.71
973.087	-1.49
973.514	-1.79
973.941	-6.79
974.369	5.31
974.796	1.21
975.223	3.91
975.651	6.31
976.078	7.81
976.505	-2.79
976.932	3.11
977.359	12.91
977.786	14.61
978.214	1.81
978.641	-1.49
979.068	0.91
979.495	-2.79
979.922	-1.59
980.349	-0.79
980.776	1.61
981.202	-0.29
981.629	4.31
982.056	5.11
982.483	1.41
982.91	1.01
983.337	-7.29
983.763	8.71
984.19	-3.59
984.617	-3.39
985.043	-4.59
985.47	2.11
985.897	-1.99
986.323	-6.09
986.75	5.51
987.176	-4.79
987.603	-2.99
988.029	1.01
988.456	-5.89
988.882	2.61
989.308	-1.49
989.735	-1.39
990.161	-0.79
990.587	-9.59
991.014	1.41
991.44	4.31
991.866	-6.59
992.292	-4.29
992.719	-7.59
993.145	0.11
993.571	-4.89
993.997	-1.59
994.423	-1.59
994.849	-7.99
995.275	2.51
995.701	0.01
996.127	-1.99
996.553	1.31
996.979	-2.39
997.405	-2.69
997.83	-5.49
998.256	-5.69
998.682	-7.09
999.108	-4.99
999.534	-0.99
999.959	-1.39
1000.385	-4.29
1000.811	-0.99
1001.236	-2.69
1001.662	-1.79
1002.087	-12.49
1002.513	4.81
1002.938	-5.99
1003.364	-2.99
1003.789	4.71
1004.215	1.81
1004.64	-0.79
1005.066	2.01
1005.491	-4.89
1005.916	-4.89
1006.342	-3.09
1006.767	-10.19
1007.192	2.31
1007.617	-5.89
1008.042	-4.49
1008.468	-5.59
1008.893	-8.29
1009.318	1.41
1009.743	4.11
1010.168	2.11
1010.593	1.01
1011.018	-4.39
1011.443	-4.99
1011.868	-3.29
1012.293	-2.89
1012.718	-4.89
1013.143	-1.89
1013.567	1.61
1013.992	-4.99
1014.417	-11.19
1014.842	5.71
1015.267	-3.49
1015.691	-1.49
1016.116	3.61
1016.541	-2.99
1016.965	-0.69
1017.39	1.81
1017.814	-1.59
1018.239	-1.99
1018.663	-6.59
1019.088	-8.69
1019.512	-1.29
1019.937	-3.59
1020.361	-2.29
1020.785	-11.19
1021.21	-5.79
1021.634	-2.99
1022.058	0.21
1022.483	8.61
1022.907	-1.89
1023.331	-5.79
1023.755	-2.29
1024.179	0.91
1024.604	-3.79
1025.028	-6.99
1025.452	-2.59
1025.876	-2.19
1026.3	0.31
1026.724	-7.79
1027.148	0.01
1027.572	-10.79
1027.996	-7.29
1028.42	0.41
1028.843	3.31
1029.267	-3.99
1029.691	-3.29
1030.115	-12.49
1030.539	-6.69
1030.962	-2.39
1031.386	-8.79
1031.81	-3.49
1032.233	-3.69
1032.657	-5.39
1033.08	-7.29
1033.504	-5.59
1033.927	1.41
1034.351	11.01
1034.774	-8.19
1035.198	-2.79
1035.621	-10.39
1036.045	-3.39
1036.468	-0.79
1036.891	-8.69
1037.315	-8.39
1037.738	-6.19
1038.161	-0.89
1038.584	-4.89
1039.008	-2.89
1039.431	-4.89
1039.854	-4.49
1040.277	-7.59
1040.7	-12.09
1041.123	0.71
1041.546	-10.59
1041.969	-13.09
1042.392	-7.99
1042.815	-7.39
1043.238	0.31
1043.661	-3.19
1044.084	-8.19
1044.507	-9.79
1044.93	-10.99
1045.352	-8.09
1045.775	-0.99
1046.198	-5.29
1046.621	-5.29
1047.043	-1.69
1047.466	6.11
1047.889	-7.69
1048.311	-8.59
1048.734	-4.19
1049.156	-3.89
1049.579	-6.49
1050.001	-5.39
1050.424	0.91
1050.846	2.41
1051.269	-6.99
1051.691	-5.99
1052.113	-1.99
1052.536	-1.69
1052.958	2.51
1053.38	-6.39
1053.802	-8.99
1054.225	-3.49
1054.647	-10.59
1055.069	-3.49
1055.491	4.31
1055.913	-5.79
1056.335	-3.89
1056.757	-1.29
1057.179	-9.69
1057.601	-7.49
1058.023	-5.29
1058.445	-6.19
1058.867	-2.39
1059.289	-1.29
1059.711	-4.09
1060.133	0.31
1060.555	-0.39
1060.976	-9.89
1061.398	-3.89
1061.82	-6.79
1062.241	-6.79
1062.663	-6.09
1063.085	-1.49
1063.506	-3.09
1063.928	-2.99
1064.35	-1.09
1064.771	-9.49
1065.193	-8.19
1065.614	-8.39
1066.035	-3.59
1066.457	0.71
1066.878	3.61
1067.3	-5.59
1067.721	-4.79
1068.142	-6.29
1068.564	-3.39
1068.985	-8.99
1069.406	-1.69
1069.827	-7.89
1070.248	4.51
1070.67	-5.49
1071.091	-7.89
1071.512	-2.39
1071.933	-4.49
1072.354	-12.69
1072.775	-7.19
1073.196	-8.29
1073.617	-2.99
1074.038	-7.79
1074.459	0.71
1074.88	-4.09
1075.3	-0.89
1075.721	-1.29
1076.142	-2.39
1076.563	-0.69
1076.983	-10.39
1077.404	-8.59
1077.825	-8.59
1078.246	-3.39
1078.666	-5.59
1079.087	-1.59
1079.507	-4.19
1079.928	0.61
1080.348	0.91
1080.769	-4.09
1081.189	1.31
1081.61	-0.49
1082.03	-7.99
1082.451	-10.09
1082.871	-3.39
1083.291	-3.99
1083.711	-8.29
1084.132	-4.79
1084.552	-5.79
1084.972	-6.29
1085.392	-7.79
1085.813	-10.39
1086.233	-6.99
1086.653	-8.59
1087.073	-1.99
1087.493	-16.99
1087.913	-11.09
1088.333	-11.99
1088.753	-5.79
1089.173	-1.59
1089.593	-5.89
1090.013	-0.39
1090.433	-0.89
1090.852	-5.49
1091.272	8.81
1091.692	-2.89
1092.112	-6.49
1092.531	-8.49
1092.951	-12.79
1093.371	-4.99
1093.79	-2.69
1094.21	-2.29
1094.63	-4.39
1095.049	-6.69
1095.469	-4.19
1095.888	0.21
1096.308	-0.79
1096.727	5.11
1097.146	-5.19
1097.566	-4.29
1097.985	-9.19
1098.405	-2.19
1098.824	-7.19
1099.243	-6.89
1099.662	-10.09
1100.082	-3.99
1100.501	1.81
1100.92	-3.59
1101.339	-3.19
1101.758	-9.69
