Data from 20171114-ORNL-Ar_H_NY_Subt18_08-05-13-855.txt Node
Date: Tue Nov 14 08:05:13 EST 2017
User: Ender
Spectrometer: HR+D1039
Trigger mode: 0
Integration Time (sec): 2.730000E-2
Scans to average: 10
Electric dark correction enabled: true
Nonlinearity correction enabled: false
Boxcar width: 0
XAxis mode: Wavelengths
Number of Pixels in Spectrum: 2048
>>>>>Begin Spectral Data<<<<<
187.836	0.22
188.309	0.22
188.782	0.22
189.255	0.92
189.728	0.82
190.201	8.42
190.674	1.02
191.147	-2.38
191.619	-9.18
192.092	1.72
192.565	9.42
193.038	-7.58
193.511	-3.98
193.984	4.52
194.456	-1.48
194.929	1.72
195.402	-4.28
195.874	0.02
196.347	1.32
196.82	-10.38
197.292	4.12
197.765	-4.58
198.237	-7.78
198.71	-0.68
199.182	1.92
199.655	0.32
200.127	1.42
200.6	-3.38
201.072	0.12
201.544	-3.78
202.017	-1.98
202.489	8.02
202.961	-1.48
203.433	-2.98
203.906	-3.78
204.378	-6.58
204.85	-4.28
205.322	-8.98
205.794	-4.28
206.266	-6.78
206.739	-7.48
207.211	4.32
207.683	-7.08
208.155	-5.88
208.627	-11.58
209.099	-1.78
209.57	2.72
210.042	-6.58
210.514	-10.18
210.986	-8.28
211.458	-9.38
211.93	-5.08
212.402	2.22
212.873	-4.78
213.345	-10.48
213.817	-15.08
214.288	-9.68
214.76	-11.38
215.232	-4.88
215.703	-3.88
216.175	-4.78
216.646	-6.68
217.118	-5.38
217.589	-0.78
218.061	-2.08
218.532	-5.98
219.004	-3.68
219.475	-7.28
219.946	-2.48
220.418	0.32
220.889	6.62
221.36	0.52
221.832	-4.98
222.303	-3.48
222.774	0.12
223.245	-8.68
223.717	-12.08
224.188	-8.88
224.659	-12.08
225.13	-9.88
225.601	-8.28
226.072	1.02
226.543	0.02
227.014	3.72
227.485	-0.98
227.956	-6.58
228.427	-4.08
228.898	-4.48
229.369	5.32
229.839	-5.78
230.31	-7.38
230.781	-3.08
231.252	-1.28
231.722	-7.48
232.193	-5.28
232.664	-6.08
233.135	1.22
233.605	1.42
234.076	-4.68
234.546	-6.08
235.017	6.72
235.487	-4.98
235.958	-5.78
236.428	-2.58
236.899	5.22
237.369	0.52
237.84	-4.68
238.31	11.52
238.78	4.82
239.251	4.62
239.721	-3.78
240.191	4.32
240.662	-6.48
241.132	-3.58
241.602	-2.88
242.072	-1.88
242.542	9.82
243.013	-0.38
243.483	6.02
243.953	3.72
244.423	2.62
244.893	-6.78
245.363	2.52
245.833	0.22
246.303	2.62
246.773	11.12
247.243	3.62
247.712	2.92
248.182	11.22
248.652	7.62
249.122	4.72
249.592	13.42
250.061	25.82
250.531	36.32
251.001	17.02
251.471	23.12
251.94	20.32
252.41	7.02
252.879	-0.98
253.349	9.32
253.818	6.72
254.288	5.32
254.757	4.32
255.227	2.32
255.696	3.42
256.166	6.82
256.635	6.12
257.105	7.82
257.574	8.42
258.043	8.42
258.513	9.82
258.982	18.22
259.451	17.12
259.92	12.72
260.389	11.02
260.859	17.22
261.328	13.42
261.797	20.72
262.266	16.42
262.735	8.12
263.204	9.72
263.673	6.42
264.142	4.12
264.611	-4.38
265.08	1.02
265.549	0.72
266.018	1.92
266.487	0.12
266.955	0.22
267.424	-0.78
267.893	8.82
268.362	6.62
268.83	2.22
269.299	6.92
269.768	9.52
270.236	9.02
270.705	1.22
271.174	12.02
271.642	10.22
272.111	7.72
272.579	16.22
273.048	24.22
273.516	34.22
273.985	32.02
274.453	28.52
274.922	19.82
275.39	12.12
275.858	2.72
276.327	13.62
276.795	18.32
277.263	6.42
277.731	32.52
278.2	57.32
278.668	57.22
279.136	58.12
279.604	23.02
280.072	17.12
280.54	15.02
281.008	9.52
281.477	12.82
281.945	13.62
282.413	19.52
282.881	16.02
283.348	10.32
283.816	18.72
284.284	12.72
284.752	19.52
285.22	11.62
285.688	19.52
286.156	16.32
286.623	49.32
287.091	56.12
287.559	31.72
288.026	20.32
288.494	22.12
288.962	6.42
289.429	13.62
289.897	15.02
290.364	13.62
290.832	21.72
291.3	12.62
291.767	19.72
292.234	20.52
292.702	10.82
293.169	20.72
293.637	28.02
294.104	20.82
294.571	9.42
295.039	16.92
295.506	18.92
295.973	20.72
296.44	10.82
296.908	22.52
297.375	23.32
297.842	18.42
298.309	19.42
298.776	10.32
299.243	26.72
299.71	11.12
300.177	21.72
300.644	21.42
301.111	26.32
301.578	30.92
302.045	13.92
302.512	30.42
302.979	26.92
303.446	24.42
303.913	20.52
304.379	25.32
304.846	25.72
305.313	28.32
305.78	27.32
306.246	27.42
306.713	30.42
307.18	31.12
307.646	28.22
308.113	29.62
308.579	31.82
309.046	28.22
309.512	31.42
309.979	18.92
310.445	31.02
310.912	35.92
311.378	35.82
311.845	32.12
312.311	31.92
312.777	27.62
313.244	28.72
313.71	35.02
314.176	30.42
314.642	32.72
315.109	29.42
315.575	29.02
316.041	37.52
316.507	31.52
316.973	38.72
317.439	37.62
317.905	34.92
318.371	35.92
318.837	38.82
319.303	30.32
319.769	32.12
320.235	34.92
320.701	34.92
321.167	34.32
321.633	29.42
322.099	40.12
322.564	40.52
323.03	45.12
323.496	37.92
323.962	39.32
324.427	37.02
324.893	47.82
325.359	41.52
325.824	38.32
326.29	41.72
326.755	39.32
327.221	42.82
327.686	35.42
328.152	48.02
328.617	43.92
329.083	53.92
329.548	55.12
330.014	53.52
330.479	47.92
330.944	43.82
331.41	41.32
331.875	42.72
332.34	39.82
332.805	48.52
333.271	51.72
333.736	48.42
334.201	56.02
334.666	59.92
335.131	54.22
335.596	54.42
336.061	54.02
336.526	43.42
336.991	55.12
337.456	54.12
337.921	51.62
338.386	43.82
338.851	47.32
339.316	48.72
339.781	45.42
340.246	50.42
340.711	44.22
341.175	44.92
341.64	46.52
342.105	52.32
342.569	57.52
343.034	54.32
343.499	56.12
343.963	53.22
344.428	60.32
344.893	65.82
345.357	65.62
345.822	58.02
346.286	70.82
346.751	72.02
347.215	72.02
347.679	74.32
348.144	99.42
348.608	81.72
349.073	72.92
349.537	72.62
350.001	81.22
350.465	87.92
350.93	81.12
351.394	78.32
351.858	81.32
352.322	86.02
352.786	86.12
353.25	106.42
353.715	115.22
354.179	102.92
354.643	123.72
355.107	130.02
355.571	116.72
356.035	107.52
356.498	120.82
356.962	121.82
357.426	130.02
357.89	115.62
358.354	91.62
358.818	84.02
359.281	80.22
359.745	81.62
360.209	73.42
360.673	73.62
361.136	76.82
361.6	85.02
362.064	85.62
362.527	89.52
362.991	88.22
363.454	80.82
363.918	78.72
364.381	79.02
364.845	85.02
365.308	86.22
365.772	85.92
366.235	77.22
366.698	83.42
367.162	88.72
367.625	90.92
368.088	85.72
368.552	90.72
369.015	91.32
369.478	97.72
369.941	99.62
370.404	95.72
370.867	106.72
371.331	106.32
371.794	112.22
372.257	113.52
372.72	116.82
373.183	110.62
373.646	104.72
374.109	99.42
374.572	108.92
375.035	110.42
375.497	111.02
375.96	105.72
376.423	103.32
376.886	109.52
377.349	108.12
377.811	101.12
378.274	109.22
378.737	103.12
379.199	112.62
379.662	118.62
380.125	121.92
380.587	123.62
381.05	124.02
381.512	126.92
381.975	134.02
382.437	137.52
382.9	127.72
383.362	134.02
383.825	140.22
384.287	149.62
384.75	141.82
385.212	143.62
385.674	141.22
386.136	136.62
386.599	126.72
387.061	131.62
387.523	127.32
387.985	133.62
388.447	144.72
388.91	141.82
389.372	158.12
389.834	150.42
390.296	143.62
390.758	154.02
391.22	171.22
391.682	209.32
392.144	294.92
392.606	234.02
393.068	163.82
393.529	166.22
393.991	143.92
394.453	148.42
394.915	151.32
395.377	185.72
395.838	206.22
396.3	155.72
396.762	141.72
397.224	133.12
397.685	129.12
398.147	129.92
398.608	129.92
399.07	126.72
399.531	134.52
399.993	145.02
400.454	145.52
400.916	142.62
401.377	148.72
401.839	149.62
402.3	148.82
402.762	162.12
403.223	183.12
403.684	168.32
404.145	159.42
404.607	168.52
405.068	165.72
405.529	168.22
405.99	188.92
406.451	169.12
406.913	169.82
407.374	161.62
407.835	155.02
408.296	162.02
408.757	167.52
409.218	187.62
409.679	175.62
410.14	172.32
410.601	165.42
411.062	187.12
411.522	194.12
411.983	190.22
412.444	171.32
412.905	170.82
413.366	181.92
413.826	192.02
414.287	210.92
414.748	256.22
415.208	240.62
415.669	207.72
416.13	211.12
416.59	202.82
417.051	207.12
417.511	215.62
417.972	231.92
418.432	241.42
418.893	280.12
419.353	245.92
419.814	194.82
420.274	182.42
420.734	183.12
421.195	194.92
421.655	200.72
422.115	187.52
422.576	186.82
423.036	194.02
423.496	205.02
423.956	207.02
424.416	222.72
424.876	260.92
425.336	255.02
425.797	258.42
426.257	245.92
426.717	239.82
427.177	229.52
427.637	225.62
428.097	229.72
428.556	238.32
429.016	270.62
429.476	259.72
429.936	279.12
430.396	276.32
430.856	286.92
431.315	316.42
431.775	347.42
432.235	375.72
432.694	353.32
433.154	351.62
433.614	391.32
434.073	336.82
434.533	284.92
434.993	273.62
435.452	278.42
435.912	291.62
436.371	287.82
436.83	283.52
437.29	268.72
437.749	248.52
438.209	250.02
438.668	263.72
439.127	283.52
439.587	259.52
440.046	242.52
440.505	259.32
440.964	278.02
441.424	319.12
441.883	306.82
442.342	253.12
442.801	219.12
443.26	221.22
443.719	215.72
444.178	217.22
444.637	209.22
445.096	217.52
445.555	221.12
446.014	221.12
446.473	222.02
446.932	232.42
447.391	227.02
447.849	224.22
448.308	214.92
448.767	214.42
449.226	232.32
449.685	232.42
450.143	250.72
450.602	231.22
451.061	227.82
451.519	239.42
451.978	232.82
452.436	229.72
452.895	231.92
453.353	256.32
453.812	239.22
454.27	239.32
454.729	240.22
455.187	244.42
455.646	244.62
456.104	245.82
456.562	262.72
457.021	266.42
457.479	259.62
457.937	270.12
458.395	272.72
458.854	247.32
459.312	248.02
459.77	270.72
460.228	253.12
460.686	247.02
461.144	245.42
461.602	242.12
462.06	238.52
462.518	250.12
462.976	240.92
463.434	256.62
463.892	264.82
464.35	272.12
464.808	281.82
465.266	263.62
465.724	267.42
466.181	271.52
466.639	271.02
467.097	276.52
467.555	299.22
468.012	300.22
468.47	306.22
468.928	320.82
469.385	334.52
469.843	351.82
470.3	351.62
470.758	363.82
471.215	376.62
471.673	410.62
472.13	408.02
472.588	417.02
473.045	364.22
473.503	370.22
473.96	390.92
474.417	403.92
474.875	433.42
475.332	475.22
475.789	463.52
476.246	455.62
476.704	482.52
477.161	495.82
477.618	527.72
478.075	558.22
478.532	611.12
478.989	690.72
479.446	802.12
479.903	770.62
480.36	803.62
480.817	865.22
481.274	982.02
481.731	1077.92
482.188	1165.92
482.645	1312.62
483.102	1411.32
483.558	1535.62
484.015	1609.62
484.472	1585.82
484.929	1524.42
485.385	1470.22
485.842	1433.12
486.299	1363.62
486.755	1300.42
487.212	1100.02
487.668	930.52
488.125	847.82
488.582	770.42
489.038	744.32
489.494	722.52
489.951	682.92
490.407	672.52
490.864	636.72
491.32	643.72
491.776	639.12
492.233	652.02
492.689	615.22
493.145	606.92
493.602	603.02
494.058	610.32
494.514	609.02
494.97	638.02
495.426	646.72
495.882	610.02
496.338	604.02
496.794	623.92
497.251	617.02
497.707	630.22
498.163	633.92
498.618	648.32
499.074	648.22
499.53	674.92
499.986	673.02
500.442	651.32
500.898	636.12
501.354	621.72
501.809	633.82
502.265	635.02
502.721	651.32
503.177	664.72
503.632	658.72
504.088	676.72
504.543	700.52
504.999	705.82
505.455	650.72
505.91	634.52
506.366	626.92
506.821	623.62
507.277	623.22
507.732	615.72
508.187	612.12
508.643	623.12
509.098	620.92
509.553	643.32
510.009	660.92
510.464	663.12
510.919	684.62
511.375	681.82
511.83	702.92
512.285	717.82
512.74	759.52
513.195	781.62
513.65	768.52
514.105	759.42
514.56	769.42
515.015	793.62
515.47	809.12
515.925	778.82
516.38	778.92
516.835	782.92
517.29	784.42
517.745	772.52
518.2	751.82
518.655	743.72
519.109	739.42
519.564	745.52
520.019	725.12
520.474	719.92
520.928	728.72
521.383	716.12
521.838	706.92
522.292	704.92
522.747	697.72
523.201	693.62
523.656	683.02
524.11	684.02
524.565	688.22
525.019	685.32
525.474	689.82
525.928	692.62
526.382	678.62
526.837	687.92
527.291	688.42
527.745	685.12
528.2	697.02
528.654	681.22
529.108	676.32
529.562	675.42
530.016	683.62
530.47	685.92
530.925	679.52
531.379	686.52
531.833	698.42
532.287	696.82
532.741	691.32
533.195	688.52
533.649	705.82
534.103	717.22
534.556	699.02
535.01	706.22
535.464	704.32
535.918	709.12
536.372	715.72
536.826	704.72
537.279	698.52
537.733	704.92
538.187	714.82
538.64	699.22
539.094	710.12
539.548	711.22
540.001	719.52
540.455	710.02
540.908	723.32
541.362	724.12
541.815	738.32
542.269	740.82
542.722	751.62
543.175	756.42
543.629	763.22
544.082	766.62
544.536	772.52
544.989	764.42
545.442	777.32
545.895	771.02
546.349	780.82
546.802	779.42
547.255	794.32
547.708	787.32
548.161	802.92
548.614	812.32
549.067	811.92
549.52	802.82
549.973	807.02
550.426	794.82
550.879	778.52
551.332	786.92
551.785	788.92
552.238	796.32
552.691	803.02
553.144	821.62
553.596	841.32
554.049	849.82
554.502	876.42
554.955	890.72
555.407	888.72
555.86	886.42
556.313	873.42
556.765	866.62
557.218	868.72
557.67	876.62
558.123	876.72
558.576	868.22
559.028	863.82
559.48	864.72
559.933	848.62
560.385	817.92
560.838	794.12
561.29	772.02
561.742	766.22
562.195	739.92
562.647	752.22
563.099	753.72
563.551	742.02
564.004	764.02
564.456	754.92
564.908	736.52
565.36	725.22
565.812	713.42
566.264	713.42
566.716	702.42
567.168	690.12
567.62	710.82
568.072	685.82
568.524	676.32
568.976	665.72
569.428	656.92
569.88	649.12
570.332	667.52
570.784	664.12
571.235	668.32
571.687	683.42
572.139	683.02
572.59	693.72
573.042	683.52
573.494	693.72
573.945	684.82
574.397	664.62
574.849	675.52
575.3	676.52
575.752	663.72
576.203	650.52
576.655	657.72
577.106	643.12
577.557	646.12
578.009	655.52
578.46	649.32
578.912	648.12
579.363	651.52
579.814	654.62
580.265	640.92
580.717	656.72
581.168	647.82
581.619	649.12
582.07	660.82
582.521	651.62
582.972	646.92
583.423	659.42
583.875	662.72
584.326	671.72
584.777	721.12
585.227	789.72
585.678	881.52
586.129	969.52
586.58	1050.42
587.031	1132.42
587.482	1292.52
587.933	1471.92
588.384	1271.22
588.834	945.02
589.285	771.32
589.736	757.62
590.186	747.22
590.637	754.32
591.088	715.72
591.538	712.32
591.989	710.32
592.439	708.42
592.89	688.72
593.34	685.92
593.791	684.12
594.241	666.82
594.692	684.82
595.142	674.32
595.593	667.72
596.043	683.62
596.493	689.22
596.943	696.42
597.394	692.72
597.844	677.62
598.294	689.92
598.744	716.12
599.195	746.42
599.645	778.42
600.095	816.72
600.545	880.52
600.995	933.82
601.445	984.12
601.895	1048.92
602.345	1086.22
602.795	1064.92
603.245	1015.92
603.695	963.72
604.145	916.02
604.594	875.12
605.044	821.52
605.494	761.42
605.944	726.42
606.393	712.62
606.843	688.42
607.293	706.22
607.743	699.82
608.192	716.02
608.642	725.62
609.091	732.42
609.541	744.22
609.99	736.52
610.44	729.72
610.889	696.12
611.339	674.42
611.788	655.32
612.238	678.62
612.687	677.92
613.136	683.42
613.586	700.22
614.035	707.22
614.484	724.92
614.933	721.32
615.383	725.52
615.832	708.42
616.281	692.52
616.73	654.02
617.179	632.32
617.628	625.92
618.077	605.22
618.526	597.62
618.975	599.32
619.424	587.12
619.873	585.62
620.322	594.52
620.771	577.52
621.22	576.42
621.669	553.02
622.118	557.82
622.567	545.72
623.015	538.42
623.464	537.42
623.913	534.32
624.361	519.62
624.81	519.42
625.259	523.72
625.707	529.82
626.156	524.92
626.604	531.52
627.053	529.82
627.501	532.62
627.95	536.02
628.398	548.42
628.847	532.92
629.295	537.72
629.744	541.32
630.192	540.62
630.64	534.52
631.089	535.52
631.537	548.92
631.985	548.82
632.433	568.12
632.881	576.52
633.33	626.22
633.778	593.82
634.226	539.22
634.674	546.12
635.122	541.32
635.57	575.42
636.018	595.72
636.466	543.42
636.914	521.62
637.362	537.52
637.81	545.02
638.258	543.12
638.705	546.02
639.153	570.22
639.601	584.12
640.049	599.82
640.497	637.42
640.944	651.22
641.392	605.82
641.84	571.72
642.287	549.52
642.735	534.22
643.182	549.72
643.63	541.02
644.078	549.82
644.525	559.42
644.973	560.92
645.42	567.62
645.867	584.22
646.315	600.02
646.762	626.02
647.21	658.02
647.657	672.92
648.104	699.72
648.551	718.02
648.999	787.12
649.446	857.22
649.893	944.52
650.34	1078.72
650.787	1297.62
651.234	1620.82
651.682	2100.92
652.129	2885.42
652.576	4168.02
653.023	6161.82
653.47	8479.62
653.917	10651.23
654.363	12379.13
654.81	13793.23
655.257	13179.93
655.704	8559.42
656.151	5055.52
656.598	3252.82
657.044	2305.22
657.491	1770.72
657.938	1418.02
658.385	1170.22
658.831	1018.12
659.278	908.02
659.724	808.82
660.171	735.22
660.618	678.62
661.064	642.52
661.511	631.52
661.957	611.62
662.404	611.62
662.85	613.22
663.296	590.52
663.743	520.72
664.189	501.52
664.635	499.52
665.082	490.02
665.528	497.12
665.974	490.72
666.42	477.52
666.867	465.52
667.313	464.82
667.759	450.42
668.205	444.92
668.651	449.12
669.097	456.92
669.543	469.62
669.989	448.32
670.435	416.52
670.881	414.32
671.327	420.12
671.773	428.42
672.219	453.92
672.665	505.12
673.11	549.92
673.556	578.72
674.002	628.22
674.448	613.52
674.893	517.42
675.339	450.62
675.785	412.12
676.23	391.22
676.676	358.32
677.122	363.22
677.567	347.12
678.013	344.82
678.458	338.52
678.904	337.92
679.349	322.22
679.794	328.72
680.24	325.32
680.685	315.72
681.131	323.72
681.576	323.22
682.021	328.82
682.466	325.72
682.912	327.12
683.357	328.92
683.802	337.32
684.247	382.92
684.692	417.52
685.137	453.52
685.583	493.92
686.028	518.12
686.473	473.92
686.918	417.02
687.363	384.92
687.807	363.12
688.252	341.42
688.697	327.02
689.142	313.62
689.587	311.02
690.032	298.62
690.477	321.22
690.921	318.62
691.366	355.12
691.811	374.42
692.255	392.22
692.7	431.02
693.145	460.62
693.589	628.82
694.034	1009.92
694.478	1394.33
694.923	1629.62
695.367	2136.22
695.812	1110.22
696.256	458.42
696.701	347.92
697.145	321.02
697.59	311.92
698.034	296.52
698.478	303.42
698.922	305.92
699.367	308.02
699.811	313.12
700.255	325.42
700.699	345.22
701.143	383.92
701.588	435.92
702.032	481.32
702.476	477.32
702.92	455.72
703.364	440.62
703.808	574.42
704.252	933.82
704.696	1316.92
705.14	1553.92
705.584	1989.92
706.027	994.52
706.471	476.32
706.915	364.62
707.359	328.72
707.803	289.82
708.246	279.72
708.69	289.32
709.134	293.82
709.577	290.92
710.021	290.22
710.465	283.02
710.908	274.52
711.352	273.52
711.795	286.72
712.239	316.42
712.682	353.32
713.126	379.62
713.569	431.62
714.012	341.62
714.456	303.92
714.899	282.72
715.342	248.02
715.786	239.72
716.229	230.62
716.672	238.62
717.115	229.32
717.558	228.62
718.002	234.72
718.445	238.32
718.888	261.72
719.331	272.92
719.774	287.02
720.217	281.52
720.66	262.82
721.103	246.82
721.546	236.02
721.989	225.62
722.432	212.82
722.874	221.62
723.317	212.32
723.76	213.72
724.203	239.52
724.645	293.82
725.088	401.52
725.531	525.72
725.974	597.72
726.416	502.52
726.859	274.82
727.301	223.52
727.744	223.62
728.187	212.32
728.629	217.42
729.071	215.92
729.514	241.42
729.956	252.22
730.399	261.32
730.841	266.02
731.283	262.22
731.726	242.52
732.168	237.92
732.61	243.22
733.053	258.12
733.495	281.12
733.937	321.72
734.379	369.42
734.821	399.22
735.263	488.02
735.705	750.82
736.148	1414.32
736.59	2376.72
737.032	2843.32
737.474	2305.62
737.916	739.22
738.357	384.82
738.799	293.02
739.241	268.12
739.683	257.92
740.125	260.32
740.567	270.42
741.008	289.42
741.45	291.72
741.892	289.62
742.334	320.82
742.775	337.32
743.217	314.92
743.658	246.72
744.1	231.92
744.542	233.92
744.983	282.12
745.425	312.42
745.866	317.32
746.307	256.82
746.749	259.42
747.19	291.22
747.632	408.72
748.073	769.82
748.514	1679.83
748.956	2612.12
749.397	3266.43
749.838	2704.52
750.279	2758.12
750.72	1392.22
751.162	501.32
751.603	298.22
752.044	228.32
752.485	199.72
752.926	191.52
753.367	176.22
753.808	177.12
754.249	175.42
754.69	167.62
755.131	175.02
755.572	169.02
756.013	160.22
756.453	168.62
756.894	177.62
757.335	171.42
757.776	179.12
758.216	175.12
758.657	178.22
759.098	175.12
759.538	208.12
759.979	241.02
760.42	339.52
760.86	624.22
761.301	1618.62
761.741	3974.53
762.182	6001.12
762.622	4230.23
763.063	1197.72
763.503	492.22
763.943	324.02
764.384	314.12
764.824	369.32
765.264	411.52
765.705	281.22
766.145	194.12
766.585	174.92
767.025	158.82
767.465	174.82
767.906	221.52
768.346	296.72
768.786	322.12
769.226	238.12
769.666	284.62
770.106	551.02
770.546	1391.22
770.986	2448.32
771.426	2217.52
771.866	731.12
772.306	299.12
772.745	196.02
773.185	163.02
773.625	158.82
774.065	153.02
774.505	174.82
774.944	276.72
775.384	614.62
775.824	1146.12
776.263	1137.42
776.703	474.32
777.142	199.92
777.582	139.52
778.021	125.92
778.461	126.72
778.9	126.72
779.34	120.22
779.779	111.02
780.219	96.52
780.658	100.52
781.097	95.32
781.537	111.72
781.976	92.32
782.415	93.82
782.855	92.42
783.294	89.22
783.733	92.02
784.172	98.42
784.611	95.62
785.05	97.12
785.489	100.52
785.928	106.92
786.367	113.72
786.806	107.62
787.245	118.32
787.684	122.92
788.123	130.22
788.562	116.92
789.001	112.92
789.44	108.22
789.879	108.42
790.317	105.92
790.756	119.22
791.195	112.92
791.634	127.42
792.072	183.52
792.511	319.22
792.95	895.92
793.388	1969.62
793.827	1815.92
794.265	621.92
794.704	254.02
795.142	165.82
795.581	136.22
796.019	119.32
796.458	117.52
796.896	106.82
797.334	110.72
797.773	141.32
798.211	204.22
798.649	388.02
799.087	923.82
799.526	1455.32
799.964	1828.72
800.402	1879.12
800.84	698.52
801.278	279.52
801.716	168.22
802.154	137.32
802.592	129.22
803.03	125.22
803.468	125.32
803.906	131.62
804.344	139.12
804.782	131.42
805.22	127.72
805.658	118.42
806.096	132.62
806.533	143.82
806.971	159.02
807.409	201.12
807.847	290.72
808.284	585.22
808.722	1665.72
809.16	3019.82
809.597	2806.22
810.035	4950.92
810.472	5447.62
810.91	1946.22
811.347	735.42
811.785	369.22
812.222	231.72
812.66	179.02
813.097	153.02
813.535	131.62
813.972	114.82
814.409	107.22
814.846	99.42
815.284	94.82
815.721	95.12
816.158	94.52
816.595	110.02
817.032	164.62
817.47	189.42
817.907	144.32
818.344	132.92
818.781	106.42
819.218	93.62
819.655	114.32
820.092	173.12
820.529	202.42
820.966	163.52
821.403	119.42
821.839	99.52
822.276	93.02
822.713	111.82
823.15	124.72
823.587	107.92
824.023	130.42
824.46	261.22
824.897	796.42
825.333	1258.22
825.77	541.02
826.206	207.12
826.643	117.22
827.08	94.72
827.516	78.52
827.953	72.32
828.389	73.72
828.825	62.02
829.262	57.52
829.698	59.52
830.135	60.52
830.571	53.62
831.007	56.52
831.443	60.42
831.88	52.72
832.316	54.02
832.752	57.62
833.188	61.82
833.624	57.82
834.06	60.42
834.497	59.82
834.933	64.62
835.369	73.32
835.805	57.92
836.241	69.32
836.677	72.62
837.112	80.82
837.548	90.92
837.984	121.52
838.42	182.42
838.856	445.02
839.292	1370.12
839.727	2140.32
840.163	989.72
840.599	821.22
841.034	1848.42
841.47	1984.12
841.906	717.52
842.341	295.42
842.777	205.92
843.212	292.82
843.648	297.02
844.083	145.42
844.519	92.42
844.954	71.82
845.39	52.52
845.825	55.82
846.261	52.92
846.696	53.62
847.131	50.82
847.566	52.92
848.002	45.52
848.437	43.12
848.872	56.82
849.307	59.72
849.742	74.72
850.177	161.02
850.613	501.62
851.048	819.12
851.483	353.62
851.918	139.22
852.353	80.92
852.788	54.32
853.223	51.92
853.657	48.72
854.092	41.32
854.527	33.32
854.962	35.72
855.397	37.12
855.832	44.42
856.266	38.42
856.701	40.92
857.136	37.92
857.57	36.22
858.005	44.32
858.44	48.12
858.874	39.82
859.309	42.22
859.743	35.82
860.178	41.72
860.612	35.52
861.047	47.82
861.481	55.92
861.915	69.12
862.35	43.62
862.784	30.22
863.218	35.62
863.653	30.12
864.087	40.32
864.521	49.12
864.955	60.42
865.39	136.72
865.824	156.42
866.258	101.12
866.692	146.92
867.126	162.62
867.56	98.22
867.994	43.62
868.428	34.82
868.862	35.52
869.296	52.12
869.73	50.52
870.164	51.02
870.598	40.42
871.031	33.32
871.465	30.02
871.899	31.12
872.333	22.12
872.766	24.02
873.2	19.42
873.634	29.52
874.067	21.82
874.501	27.82
874.935	30.92
875.368	23.62
875.802	22.12
876.235	18.42
876.669	22.52
877.102	23.62
877.535	19.12
877.969	23.22
878.402	20.82
878.836	15.72
879.269	14.32
879.702	15.12
880.135	17.22
880.569	17.42
881.002	24.32
881.435	15.82
881.868	18.62
882.301	21.52
882.734	12.62
883.167	17.52
883.601	15.52
884.034	20.92
884.467	7.12
884.899	20.72
885.332	16.82
885.765	14.72
886.198	12.72
886.631	14.42
887.064	15.62
887.497	19.82
887.929	25.42
888.362	15.02
888.795	14.52
889.228	13.62
889.66	15.22
890.093	14.12
890.526	11.32
890.958	21.02
891.391	12.22
891.823	31.12
892.256	16.82
892.688	7.42
893.121	11.22
893.553	14.62
893.985	16.82
894.418	12.62
894.85	10.32
895.282	9.72
895.715	16.72
896.147	17.12
896.579	14.92
897.011	9.52
897.444	9.72
897.876	10.42
898.308	16.52
898.74	15.72
899.172	7.62
899.604	26.22
900.036	17.62
900.468	10.82
900.9	9.12
901.332	12.12
901.764	9.92
902.196	17.82
902.628	19.92
903.06	12.22
903.491	30.62
903.923	19.32
904.355	16.92
904.787	22.72
905.218	20.62
905.65	16.52
906.082	10.52
906.513	7.62
906.945	13.92
907.376	13.02
907.808	16.32
908.239	22.62
908.671	18.72
909.102	21.72
909.534	21.02
909.965	47.92
910.397	78.32
910.828	287.42
911.259	438.42
911.691	195.12
912.122	96.52
912.553	45.32
912.984	37.42
913.415	20.62
913.847	27.32
914.278	11.82
914.709	14.02
915.14	13.82
915.571	15.62
916.002	13.12
916.433	15.02
916.864	16.42
917.295	10.62
917.726	16.52
918.157	17.82
918.587	21.42
919.018	15.22
919.449	19.92
919.88	23.62
920.311	27.52
920.741	41.82
921.172	149.72
921.603	136.12
922.033	61.72
922.464	42.12
922.895	23.42
923.325	19.02
923.756	14.72
924.186	14.22
924.617	22.62
925.047	37.92
925.478	50.22
925.908	43.72
926.338	24.12
926.769	16.02
927.199	18.32
927.629	12.62
928.06	15.32
928.49	13.12
928.92	14.62
929.35	7.82
929.78	6.72
930.21	8.72
930.641	8.42
931.071	8.52
931.501	3.42
931.931	2.92
932.361	10.32
932.791	2.42
933.221	6.82
933.651	8.02
934.08	10.52
934.51	25.12
934.94	14.32
935.37	9.72
935.8	7.92
936.229	6.42
936.659	8.52
937.089	1.32
937.519	8.02
937.948	22.32
938.378	18.12
938.807	2.52
939.237	1.92
939.666	4.12
940.096	-0.98
940.525	-1.08
940.955	3.82
941.384	8.22
941.814	1.42
942.243	1.92
942.672	6.22
943.102	-6.18
943.531	-1.58
943.96	2.12
944.39	-1.38
944.819	-1.98
945.248	2.12
945.677	5.92
946.106	1.82
946.535	7.52
946.964	1.82
947.393	1.22
947.822	-4.68
948.251	-9.48
948.68	6.62
949.109	1.92
949.538	5.42
949.967	3.82
950.396	0.72
950.825	-0.28
951.254	2.92
951.682	-4.28
952.111	2.22
952.54	-0.38
952.969	-4.18
953.397	-2.68
953.826	0.42
954.254	-5.08
954.683	-3.28
955.112	-3.48
955.54	3.72
955.969	-2.88
956.397	-0.78
956.826	-4.18
957.254	6.12
957.682	-1.38
958.111	-1.48
958.539	-0.48
958.967	-0.58
959.396	-8.48
959.824	-0.68
960.252	3.72
960.68	-10.58
961.109	-0.78
961.537	-6.58
961.965	-0.68
962.393	-1.18
962.821	-5.78
963.249	1.22
963.677	6.22
964.105	6.52
964.533	37.82
964.961	37.62
965.389	12.22
965.817	9.02
966.245	3.32
966.672	0.02
967.1	-4.68
967.528	-0.78
967.956	-5.88
968.383	-2.28
968.811	-1.78
969.239	-5.28
969.666	-6.78
970.094	0.62
970.522	-2.98
970.949	-3.18
971.377	-5.08
971.804	-0.18
972.232	-1.68
972.659	0.42
973.087	-7.08
973.514	-0.88
973.941	-2.18
974.369	6.62
974.796	-3.78
975.223	-5.78
975.651	-4.28
976.078	0.02
976.505	0.22
976.932	3.82
977.359	15.32
977.786	10.02
978.214	4.82
978.641	-4.28
979.068	-5.68
979.495	-3.48
979.922	-2.68
980.349	-4.98
980.776	4.12
981.202	0.62
981.629	3.62
982.056	7.32
982.483	-8.48
982.91	7.32
983.337	-6.88
983.763	-2.78
984.19	-5.28
984.617	0.22
985.043	-8.48
985.47	-6.38
985.897	-9.68
986.323	-10.68
986.75	1.62
987.176	-6.98
987.603	-4.38
988.029	-2.68
988.456	-6.78
988.882	3.12
989.308	-9.38
989.735	-2.38
990.161	-0.68
990.587	-5.38
991.014	-4.98
991.44	1.42
991.866	-1.58
992.292	-7.68
992.719	-3.98
993.145	4.22
993.571	-9.18
993.997	-3.48
994.423	0.82
994.849	-5.38
995.275	0.12
995.701	-3.48
996.127	-2.38
996.553	2.12
996.979	-8.08
997.405	-6.68
997.83	-12.68
998.256	-8.88
998.682	-4.28
999.108	-11.28
999.534	-1.98
999.959	-4.48
1000.385	-4.68
1000.811	-1.78
1001.236	2.32
1001.662	-11.98
1002.087	-10.18
1002.513	-5.18
1002.938	0.92
1003.364	-7.58
1003.789	-5.38
1004.215	0.82
1004.64	-1.78
1005.066	-3.28
1005.491	-1.38
1005.916	-4.68
1006.342	-7.98
1006.767	-5.98
1007.192	7.82
1007.617	-4.18
1008.042	-2.38
1008.468	-9.48
1008.893	-6.98
1009.318	-9.58
1009.743	-5.08
1010.168	-1.08
1010.593	-2.08
1011.018	-6.78
1011.443	-3.68
1011.868	3.12
1012.293	-7.08
1012.718	-5.78
1013.143	-2.18
1013.567	0.02
1013.992	-1.48
1014.417	-14.08
1014.842	-2.38
1015.267	-9.98
1015.691	-3.68
1016.116	-4.18
1016.541	-5.78
1016.965	1.62
1017.39	1.62
1017.814	-4.88
1018.239	-5.28
1018.663	-11.08
1019.088	-13.38
1019.512	-3.18
1019.937	-3.78
1020.361	-3.88
1020.785	-10.58
1021.21	2.42
1021.634	-4.48
1022.058	-4.58
1022.483	-0.08
1022.907	-6.58
1023.331	-1.48
1023.755	-6.88
1024.179	1.12
1024.604	1.72
1025.028	-6.48
1025.452	-6.68
1025.876	-5.78
1026.3	-3.98
1026.724	-8.18
1027.148	-4.68
1027.572	-10.78
1027.996	-1.78
1028.42	-6.08
1028.843	-2.18
1029.267	-8.38
1029.691	-0.08
1030.115	-9.58
1030.539	-8.48
1030.962	-7.68
1031.386	-8.58
1031.81	-1.48
1032.233	-3.28
1032.657	-0.58
1033.08	-3.98
1033.504	-6.28
1033.927	-6.88
1034.351	-7.48
1034.774	-4.88
1035.198	-6.48
1035.621	-9.18
1036.045	-9.08
1036.468	-4.78
1036.891	-6.78
1037.315	-10.48
1037.738	-12.08
1038.161	-4.38
1038.584	-9.38
1039.008	-4.98
1039.431	-3.58
1039.854	-0.98
1040.277	-10.28
1040.7	-9.68
1041.123	1.52
1041.546	-9.68
1041.969	-4.38
1042.392	-12.38
1042.815	-1.68
1043.238	-1.48
1043.661	0.92
1044.084	-8.18
1044.507	-5.18
1044.93	-5.08
1045.352	-7.08
1045.775	-5.38
1046.198	-0.18
1046.621	-3.18
1047.043	0.42
1047.466	1.42
1047.889	-3.18
1048.311	-6.18
1048.734	0.92
1049.156	-4.28
1049.579	-7.38
1050.001	-8.18
1050.424	-6.68
1050.846	-6.48
1051.269	-8.88
1051.691	-5.28
1052.113	-1.78
1052.536	-3.88
1052.958	-4.88
1053.38	-3.08
1053.802	-7.18
1054.225	-0.48
1054.647	-13.28
1055.069	-8.28
1055.491	5.02
1055.913	-13.58
1056.335	-5.78
1056.757	-13.48
1057.179	-7.68
1057.601	-5.58
1058.023	-2.78
1058.445	-7.58
1058.867	-7.78
1059.289	-4.88
1059.711	-6.38
1060.133	-3.08
1060.555	-2.98
1060.976	-8.78
1061.398	-12.38
1061.82	-0.88
1062.241	-4.88
1062.663	-6.78
1063.085	-3.38
1063.506	-1.78
1063.928	-5.48
1064.35	-5.18
1064.771	-11.58
1065.193	-2.88
1065.614	-6.78
1066.035	-8.78
1066.457	-8.88
1066.878	-2.88
1067.3	-6.18
1067.721	-4.28
1068.142	-4.88
1068.564	-7.78
1068.985	-3.68
1069.406	-6.48
1069.827	-5.48
1070.248	-5.38
1070.67	-12.68
1071.091	-11.58
1071.512	-6.98
1071.933	-13.08
1072.354	-9.68
1072.775	-7.58
1073.196	-11.88
1073.617	-4.08
1074.038	-8.18
1074.459	-2.08
1074.88	-3.18
1075.3	-0.28
1075.721	-1.38
1076.142	-2.08
1076.563	-2.88
1076.983	-12.48
1077.404	-3.58
1077.825	-10.88
1078.246	2.92
1078.666	-10.48
1079.087	-3.38
1079.507	-11.88
1079.928	-2.48
1080.348	-4.08
1080.769	-8.88
1081.189	-1.98
1081.61	-1.78
1082.03	0.82
1082.451	-1.88
1082.871	-1.48
1083.291	-6.78
1083.711	-12.48
1084.132	-4.98
1084.552	-6.38
1084.972	2.12
1085.392	-11.48
1085.813	-14.58
1086.233	-6.48
1086.653	-5.78
1087.073	-5.58
1087.493	-10.08
1087.913	-7.38
1088.333	-11.18
1088.753	-4.08
1089.173	-2.48
1089.593	-8.38
1090.013	0.72
1090.433	1.42
1090.852	-5.78
1091.272	-3.28
1091.692	-1.98
1092.112	-0.88
1092.531	-8.08
1092.951	-15.38
1093.371	-4.88
1093.79	-1.78
1094.21	-2.68
1094.63	-2.58
1095.049	-4.08
1095.469	-3.88
1095.888	0.42
1096.308	0.12
1096.727	1.82
1097.146	-6.48
1097.566	4.52
1097.985	-7.28
1098.405	-8.58
1098.824	-8.58
1099.243	0.42
1099.662	-8.48
1100.082	-8.18
1100.501	-4.58
1100.92	-10.58
1101.339	-6.78
1101.758	-8.68
