Data from 20171114-ORNL-Ar_H_NY_Subt18_08-05-47-431.txt Node
Date: Tue Nov 14 08:05:47 EST 2017
User: Ender
Spectrometer: HR+D1039
Trigger mode: 0
Integration Time (sec): 2.730000E-2
Scans to average: 10
Electric dark correction enabled: true
Nonlinearity correction enabled: false
Boxcar width: 0
XAxis mode: Wavelengths
Number of Pixels in Spectrum: 2048
>>>>>Begin Spectral Data<<<<<
187.836	-3.29
188.309	-3.29
188.782	-3.29
189.255	5.01
189.728	5.41
190.201	6.21
190.674	0.41
191.147	1.31
191.619	-9.19
192.092	-3.29
192.565	8.01
193.038	3.11
193.511	0.21
193.984	-1.19
194.456	-1.89
194.929	-6.79
195.402	-2.19
195.874	-1.89
196.347	-5.59
196.82	-7.99
197.292	3.11
197.765	0.61
198.237	-6.69
198.71	4.31
199.182	0.61
199.655	0.21
200.127	0.01
200.6	2.51
201.072	-0.19
201.544	-3.79
202.017	-3.29
202.489	3.81
202.961	-3.89
203.433	-0.89
203.906	-3.79
204.378	-10.59
204.85	-2.59
205.322	-7.39
205.794	-8.89
206.266	-6.09
206.739	-11.99
207.211	7.81
207.683	-7.29
208.155	0.41
208.627	-7.19
209.099	-5.79
209.57	-10.79
210.042	-4.19
210.514	-3.29
210.986	-7.69
211.458	-9.69
211.93	-1.09
212.402	5.41
212.873	-3.69
213.345	-8.29
213.817	-13.79
214.288	-3.89
214.76	-10.89
215.232	-1.19
215.703	1.81
216.175	-7.39
216.646	-2.99
217.118	-9.89
217.589	-1.49
218.061	1.41
218.532	-5.39
219.004	-4.49
219.475	-0.09
219.946	0.71
220.418	-8.09
220.889	1.31
221.36	-2.29
221.832	-4.39
222.303	-7.69
222.774	-0.69
223.245	-11.69
223.717	-5.39
224.188	-2.49
224.659	-6.09
225.13	-7.19
225.601	0.21
226.072	-0.19
226.543	-5.49
227.014	-2.59
227.485	-0.79
227.956	-4.79
228.427	-3.89
228.898	-0.39
229.369	4.01
229.839	0.31
230.31	-2.89
230.781	4.81
231.252	1.71
231.722	-2.89
232.193	-3.79
232.664	2.51
233.135	-1.69
233.605	-1.89
234.076	-4.89
234.546	7.61
235.017	-0.29
235.487	2.71
235.958	-0.49
236.428	-1.89
236.899	7.51
237.369	2.91
237.84	0.11
238.31	5.91
238.78	2.71
239.251	0.11
239.721	7.31
240.191	-0.39
240.662	-0.99
241.132	2.01
241.602	-0.89
242.072	0.41
242.542	3.61
243.013	4.91
243.483	7.21
243.953	5.91
244.423	-0.09
244.893	-0.59
245.363	3.81
245.833	1.51
246.303	0.21
246.773	10.21
247.243	4.11
247.712	2.71
248.182	9.51
248.652	10.91
249.122	0.31
249.592	10.11
250.061	21.11
250.531	34.71
251.001	14.31
251.471	19.01
251.94	13.91
252.41	10.01
252.879	3.01
253.349	14.71
253.818	7.61
254.288	4.71
254.757	9.01
255.227	0.11
255.696	1.01
256.166	4.91
256.635	8.21
257.105	10.21
257.574	5.81
258.043	15.11
258.513	15.81
258.982	21.21
259.451	12.61
259.92	13.91
260.389	13.41
260.859	21.51
261.328	10.41
261.797	22.61
262.266	5.51
262.735	15.41
263.204	5.31
263.673	3.71
264.142	3.71
264.611	-2.39
265.08	3.11
265.549	0.01
266.018	11.61
266.487	0.41
266.955	-0.49
267.424	-3.89
267.893	10.11
268.362	5.31
268.83	1.91
269.299	15.61
269.768	3.41
270.236	7.21
270.705	4.21
271.174	5.11
271.642	5.91
272.111	14.81
272.579	15.11
273.048	27.31
273.516	31.81
273.985	25.61
274.453	24.71
274.922	21.21
275.39	10.01
275.858	-0.49
276.327	10.41
276.795	17.11
277.263	10.91
277.731	30.01
278.2	57.31
278.668	66.91
279.136	52.81
279.604	24.21
280.072	22.41
280.54	12.21
281.008	8.71
281.477	11.91
281.945	17.91
282.413	15.81
282.881	19.31
283.348	9.41
283.816	20.61
284.284	15.41
284.752	19.31
285.22	12.71
285.688	22.21
286.156	23.71
286.623	45.31
287.091	57.21
287.559	33.31
288.026	25.11
288.494	18.01
288.962	7.91
289.429	13.41
289.897	19.81
290.364	20.01
290.832	18.91
291.3	18.21
291.767	22.01
292.234	23.81
292.702	12.41
293.169	24.51
293.637	28.61
294.104	21.71
294.571	13.61
295.039	10.41
295.506	22.21
295.973	21.51
296.44	17.21
296.908	23.91
297.375	16.91
297.842	19.61
298.309	17.21
298.776	17.01
299.243	26.51
299.71	13.41
300.177	24.41
300.644	26.91
301.111	26.21
301.578	27.41
302.045	15.81
302.512	22.41
302.979	25.81
303.446	28.71
303.913	20.11
304.379	22.21
304.846	33.31
305.313	26.11
305.78	26.31
306.246	25.81
306.713	28.01
307.18	30.11
307.646	28.31
308.113	29.51
308.579	25.61
309.046	30.21
309.512	28.81
309.979	18.91
310.445	30.61
310.912	29.71
311.378	32.01
311.845	32.31
312.311	30.71
312.777	35.81
313.244	34.31
313.71	36.01
314.176	32.71
314.642	31.51
315.109	36.51
315.575	36.61
316.041	41.81
316.507	34.21
316.973	44.81
317.439	35.01
317.905	40.11
318.371	41.91
318.837	36.71
319.303	39.61
319.769	35.41
320.235	27.41
320.701	39.51
321.167	43.61
321.633	37.91
322.099	42.31
322.564	47.11
323.03	33.81
323.496	45.61
323.962	43.61
324.427	43.71
324.893	48.71
325.359	40.11
325.824	43.51
326.29	48.31
326.755	41.51
327.221	40.81
327.686	44.41
328.152	48.31
328.617	38.91
329.083	53.21
329.548	52.91
330.014	49.31
330.479	38.11
330.944	49.31
331.41	44.31
331.875	52.41
332.34	46.41
332.805	54.21
333.271	49.61
333.736	52.71
334.201	55.81
334.666	55.51
335.131	55.91
335.596	48.31
336.061	53.31
336.526	45.51
336.991	51.41
337.456	59.61
337.921	56.31
338.386	44.01
338.851	43.81
339.316	48.01
339.781	47.71
340.246	49.61
340.711	52.91
341.175	52.71
341.64	45.71
342.105	55.21
342.569	56.81
343.034	60.61
343.499	59.71
343.963	54.01
344.428	65.21
344.893	61.01
345.357	66.51
345.822	67.21
346.286	76.11
346.751	84.31
347.215	68.21
347.679	75.61
348.144	96.11
348.608	90.01
349.073	71.51
349.537	72.51
350.001	84.31
350.465	92.31
350.93	84.81
351.394	87.51
351.858	78.21
352.322	88.31
352.786	86.31
353.25	101.61
353.715	113.61
354.179	108.51
354.643	126.11
355.107	127.61
355.571	111.21
356.035	104.71
356.498	120.61
356.962	131.71
357.426	132.31
357.89	119.21
358.354	90.11
358.818	84.41
359.281	81.41
359.745	77.21
360.209	77.51
360.673	70.61
361.136	80.21
361.6	84.61
362.064	87.41
362.527	84.61
362.991	92.01
363.454	86.41
363.918	79.01
364.381	87.71
364.845	86.31
365.308	83.51
365.772	80.31
366.235	96.21
366.698	82.81
367.162	90.51
367.625	85.81
368.088	87.91
368.552	91.21
369.015	89.41
369.478	98.81
369.941	104.21
370.404	98.41
370.867	106.21
371.331	110.81
371.794	114.71
372.257	111.01
372.72	119.11
373.183	110.61
373.646	106.21
374.109	105.11
374.572	111.61
375.035	102.51
375.497	115.71
375.96	116.51
376.423	107.11
376.886	115.81
377.349	113.21
377.811	102.41
378.274	100.91
378.737	115.11
379.199	104.11
379.662	115.11
380.125	124.31
380.587	114.61
381.05	124.31
381.512	127.11
381.975	134.41
382.437	130.01
382.9	126.41
383.362	135.21
383.825	141.31
384.287	144.11
384.75	141.11
385.212	143.91
385.674	141.81
386.136	144.11
386.599	126.21
387.061	124.41
387.523	125.81
387.985	140.01
388.447	141.91
388.91	145.71
389.372	163.41
389.834	161.91
390.296	143.61
390.758	159.91
391.22	175.21
391.682	212.11
392.144	303.91
392.606	229.11
393.068	174.21
393.529	166.01
393.991	154.61
394.453	143.61
394.915	154.41
395.377	191.91
395.838	210.71
396.3	157.31
396.762	148.21
397.224	131.71
397.685	130.71
398.147	126.21
398.608	134.71
399.07	129.71
399.531	134.31
399.993	141.41
400.454	157.71
400.916	147.81
401.377	140.81
401.839	150.81
402.3	151.41
402.762	158.81
403.223	184.51
403.684	170.11
404.145	160.11
404.607	163.51
405.068	162.81
405.529	172.51
405.99	192.71
406.451	179.61
406.913	180.91
407.374	163.01
407.835	164.41
408.296	166.41
408.757	175.21
409.218	193.81
409.679	183.31
410.14	177.41
410.601	173.81
411.062	184.61
411.522	193.81
411.983	191.41
412.444	175.91
412.905	178.81
413.366	186.71
413.826	196.61
414.287	215.81
414.748	264.91
415.208	242.11
415.669	213.81
416.13	209.71
416.59	207.41
417.051	211.51
417.511	218.01
417.972	235.61
418.432	246.91
418.893	277.11
419.353	256.41
419.814	197.21
420.274	183.51
420.734	176.41
421.195	194.71
421.655	202.91
422.115	196.11
422.576	195.01
423.036	195.71
423.496	211.41
423.956	212.11
424.416	236.31
424.876	261.51
425.336	266.71
425.797	263.01
426.257	255.91
426.717	239.41
427.177	231.31
427.637	222.31
428.097	240.31
428.556	246.21
429.016	275.11
429.476	266.01
429.936	273.41
430.396	284.51
430.856	295.31
431.315	312.91
431.775	350.91
432.235	384.21
432.694	351.31
433.154	359.01
433.614	395.71
434.073	345.61
434.533	292.91
434.993	273.91
435.452	291.31
435.912	300.71
436.371	291.31
436.83	293.61
437.29	271.41
437.749	250.91
438.209	238.91
438.668	275.61
439.127	289.81
439.587	265.01
440.046	251.01
440.505	257.91
440.964	287.41
441.424	327.31
441.883	312.41
442.342	266.11
442.801	228.71
443.26	221.71
443.719	219.81
444.178	219.01
444.637	215.21
445.096	219.41
445.555	225.31
446.014	227.11
446.473	226.51
446.932	230.81
447.391	226.51
447.849	229.91
448.308	218.51
448.767	221.51
449.226	239.31
449.685	235.11
450.143	244.51
450.602	237.11
451.061	229.01
451.519	236.71
451.978	239.41
452.436	236.51
452.895	244.11
453.353	255.21
453.812	244.01
454.27	239.71
454.729	238.21
455.187	245.41
455.646	245.71
456.104	256.11
456.562	263.51
457.021	269.81
457.479	269.41
457.937	283.51
458.395	266.41
458.854	252.71
459.312	263.41
459.77	272.51
460.228	257.11
460.686	243.61
461.144	244.61
461.602	245.21
462.06	243.01
462.518	251.91
462.976	259.51
463.434	263.61
463.892	261.81
464.35	284.31
464.808	290.11
465.266	275.81
465.724	270.81
466.181	276.41
466.639	282.01
467.097	288.41
467.555	307.01
468.012	309.51
468.47	308.61
468.928	333.81
469.385	348.41
469.843	357.81
470.3	357.61
470.758	373.71
471.215	389.51
471.673	412.11
472.13	413.31
472.588	424.71
473.045	380.71
473.503	386.31
473.96	400.11
474.417	404.61
474.875	445.11
475.332	486.21
475.789	469.01
476.246	463.41
476.704	494.21
477.161	512.11
477.618	536.81
478.075	571.91
478.532	629.01
478.989	708.21
479.446	809.21
479.903	790.91
480.36	824.21
480.817	879.71
481.274	979.41
481.731	1075.81
482.188	1190.71
482.645	1310.01
483.102	1443.31
483.558	1567.71
484.015	1625.81
484.472	1582.11
484.929	1540.11
485.385	1498.51
485.842	1454.81
486.299	1386.31
486.755	1313.11
487.212	1103.51
487.668	934.21
488.125	857.61
488.582	785.31
489.038	753.81
489.494	716.01
489.951	698.01
490.407	671.91
490.864	657.71
491.32	660.01
491.776	646.91
492.233	663.31
492.689	621.61
493.145	624.11
493.602	597.51
494.058	619.51
494.514	629.81
494.97	651.41
495.426	653.31
495.882	625.81
496.338	624.81
496.794	642.81
497.251	639.31
497.707	639.81
498.163	646.31
498.618	663.21
499.074	661.81
499.53	693.91
499.986	675.31
500.442	666.91
500.898	638.91
501.354	633.01
501.809	643.31
502.265	648.61
502.721	680.91
503.177	678.11
503.632	676.21
504.088	685.41
504.543	718.01
504.999	719.91
505.455	668.01
505.91	643.01
506.366	634.61
506.821	626.01
507.277	627.01
507.732	629.01
508.187	633.01
508.643	643.81
509.098	642.91
509.553	662.91
510.009	672.51
510.464	671.01
510.919	699.21
511.375	704.31
511.83	717.91
512.285	738.51
512.74	773.91
513.195	792.71
513.65	769.11
514.105	780.41
514.56	771.51
515.015	805.61
515.47	822.71
515.925	798.81
516.38	801.31
516.835	807.61
517.29	800.21
517.745	789.61
518.2	781.81
518.655	766.41
519.109	754.51
519.564	750.01
520.019	739.61
520.474	732.21
520.928	732.81
521.383	725.31
521.838	726.81
522.292	718.71
522.747	720.91
523.201	709.31
523.656	712.11
524.11	697.51
524.565	701.41
525.019	694.41
525.474	711.31
525.928	713.11
526.382	704.01
526.837	705.81
527.291	706.71
527.745	712.11
528.2	713.11
528.654	711.71
529.108	692.31
529.562	702.81
530.016	706.81
530.47	704.61
530.925	694.01
531.379	701.71
531.833	714.21
532.287	709.31
532.741	705.21
533.195	718.81
533.649	719.21
534.103	731.81
534.556	724.81
535.01	723.11
535.464	711.21
535.918	724.41
536.372	725.11
536.826	719.61
537.279	702.21
537.733	720.21
538.187	720.41
538.64	724.71
539.094	735.41
539.548	748.01
540.001	726.91
540.455	732.21
540.908	734.51
541.362	747.61
541.815	755.41
542.269	768.01
542.722	760.31
543.175	778.31
543.629	774.61
544.082	790.11
544.536	795.91
544.989	791.61
545.442	801.11
545.895	790.11
546.349	795.01
546.802	788.61
547.255	802.01
547.708	803.81
548.161	816.11
548.614	834.21
549.067	832.01
549.52	831.31
549.973	806.41
550.426	815.11
550.879	796.91
551.332	805.21
551.785	810.81
552.238	811.41
552.691	821.91
553.144	844.61
553.596	848.81
554.049	864.81
554.502	899.71
554.955	921.31
555.407	912.61
555.86	909.41
556.313	896.01
556.765	890.41
557.218	902.01
557.67	894.41
558.123	882.11
558.576	870.11
559.028	881.31
559.48	887.91
559.933	877.01
560.385	841.11
560.838	813.91
561.29	794.11
561.742	785.61
562.195	775.61
562.647	758.71
563.099	783.71
563.551	768.11
564.004	786.31
564.456	774.91
564.908	759.21
565.36	749.51
565.812	738.01
566.264	720.91
566.716	726.51
567.168	718.61
567.62	724.51
568.072	704.41
568.524	704.01
568.976	685.71
569.428	673.81
569.88	672.21
570.332	676.91
570.784	690.91
571.235	691.41
571.687	702.81
572.139	705.11
572.59	720.31
573.042	705.81
573.494	715.71
573.945	700.11
574.397	693.91
574.849	691.91
575.3	696.61
575.752	685.31
576.203	688.21
576.655	687.71
577.106	676.61
577.557	671.81
578.009	665.31
578.46	677.31
578.912	670.51
579.363	663.11
579.814	671.51
580.265	660.31
580.717	674.41
581.168	659.41
581.619	665.71
582.07	681.51
582.521	679.21
582.972	682.01
583.423	680.51
583.875	682.11
584.326	702.81
584.777	752.21
585.227	814.11
585.678	895.41
586.129	987.31
586.58	1062.11
587.031	1139.31
587.482	1293.71
587.933	1457.21
588.384	1276.01
588.834	963.11
589.285	807.51
589.736	783.61
590.186	779.01
590.637	763.41
591.088	742.91
591.538	746.61
591.989	734.41
592.439	722.51
592.89	725.61
593.34	712.21
593.791	713.31
594.241	709.61
594.692	709.81
595.142	693.01
595.593	688.11
596.043	708.51
596.493	712.71
596.943	712.51
597.394	722.41
597.844	713.31
598.294	723.21
598.744	744.31
599.195	769.61
599.645	812.91
600.095	836.81
600.545	909.81
600.995	948.31
601.445	1029.11
601.895	1087.21
602.345	1123.21
602.795	1104.51
603.245	1062.11
603.695	1008.51
604.145	950.01
604.594	910.31
605.044	855.61
605.494	788.81
605.944	748.01
606.393	733.51
606.843	728.61
607.293	729.81
607.743	728.91
608.192	738.61
608.642	748.41
609.091	754.11
609.541	763.61
609.99	766.71
610.44	762.91
610.889	716.61
611.339	692.91
611.788	689.01
612.238	687.71
612.687	706.21
613.136	712.81
613.586	723.11
614.035	727.81
614.484	752.71
614.933	746.11
615.383	728.91
615.832	740.51
616.281	725.31
616.73	687.81
617.179	664.11
617.628	638.71
618.077	632.01
618.526	615.91
618.975	612.11
619.424	613.91
619.873	609.81
620.322	621.01
620.771	598.91
621.22	593.01
621.669	594.41
622.118	584.81
622.567	571.11
623.015	562.61
623.464	555.31
623.913	555.91
624.361	545.41
624.81	540.01
625.259	545.21
625.707	548.61
626.156	557.61
626.604	560.11
627.053	554.41
627.501	556.91
627.95	561.91
628.398	567.71
628.847	569.31
629.295	567.41
629.744	570.81
630.192	560.61
630.64	555.61
631.089	561.41
631.537	578.11
631.985	572.81
632.433	590.91
632.881	594.71
633.33	644.71
633.778	630.71
634.226	562.21
634.674	559.01
635.122	565.11
635.57	579.61
636.018	622.61
636.466	574.01
636.914	548.01
637.362	562.51
637.81	554.41
638.258	565.31
638.705	569.71
639.153	597.71
639.601	606.31
640.049	627.51
640.497	657.81
640.944	680.41
641.392	627.61
641.84	600.41
642.287	572.41
642.735	557.81
643.182	568.91
643.63	560.31
644.078	563.01
644.525	585.21
644.973	577.81
645.42	595.61
645.867	620.01
646.315	630.41
646.762	652.21
647.21	695.01
647.657	697.51
648.104	740.01
648.551	757.31
648.999	814.71
649.446	908.01
649.893	996.81
650.34	1136.81
650.787	1353.01
651.234	1679.91
651.682	2192.11
652.129	3002.31
652.576	4342.41
653.023	6423.11
653.47	8772.71
653.917	11038.21
654.363	12791.21
654.81	14209.91
655.257	13535.41
655.704	8861.81
656.151	5217.21
656.598	3375.61
657.044	2385.11
657.491	1825.51
657.938	1482.81
658.385	1227.71
658.831	1060.91
659.278	940.01
659.724	849.11
660.171	777.41
660.618	708.11
661.064	688.91
661.511	651.11
661.957	646.31
662.404	626.91
662.85	641.61
663.296	612.21
663.743	546.41
664.189	527.51
664.635	516.71
665.082	512.41
665.528	508.21
665.974	507.71
666.42	496.51
666.867	501.61
667.313	472.01
667.759	469.51
668.205	470.21
668.651	473.51
669.097	471.81
669.543	487.51
669.989	466.61
670.435	442.61
670.881	439.01
671.327	438.01
671.773	456.41
672.219	475.51
672.665	526.91
673.11	571.91
673.556	615.11
674.002	650.41
674.448	642.81
674.893	532.81
675.339	460.61
675.785	442.21
676.23	409.51
676.676	380.71
677.122	376.81
677.567	363.61
678.013	360.31
678.458	346.31
678.904	351.81
679.349	335.71
679.794	345.01
680.24	348.61
680.685	340.51
681.131	338.01
681.576	337.81
682.021	346.51
682.466	337.41
682.912	343.61
683.357	339.71
683.802	368.11
684.247	397.71
684.692	443.51
685.137	484.31
685.583	514.91
686.028	550.41
686.473	498.81
686.918	434.71
687.363	404.11
687.807	382.11
688.252	353.91
688.697	349.61
689.142	338.91
689.587	322.31
690.032	313.01
690.477	332.41
690.921	336.01
691.366	375.71
691.811	396.61
692.255	423.51
692.7	449.91
693.145	483.91
693.589	658.11
694.034	1079.81
694.478	1485.91
694.923	1699.51
695.367	2213.81
695.812	1167.61
696.256	484.71
696.701	366.71
697.145	345.21
697.59	320.21
698.034	318.51
698.478	329.61
698.922	317.91
699.367	318.31
699.811	329.51
700.255	340.11
700.699	378.21
701.143	405.71
701.588	468.61
702.032	500.01
702.476	505.41
702.92	479.51
703.364	474.21
703.808	610.41
704.252	986.91
704.696	1397.01
705.14	1618.61
705.584	2082.51
706.027	1032.71
706.471	504.41
706.915	389.31
707.359	342.11
707.803	314.21
708.246	297.61
708.69	303.11
709.134	300.81
709.577	299.21
710.021	310.71
710.465	306.81
710.908	285.71
711.352	286.91
711.795	308.31
712.239	333.81
712.682	373.61
713.126	405.41
713.569	450.91
714.012	361.11
714.456	317.81
714.899	292.01
715.342	269.01
715.786	251.51
716.229	254.61
716.672	253.31
717.115	236.11
717.558	243.21
718.002	241.21
718.445	257.21
718.888	279.51
719.331	278.91
719.774	304.11
720.217	293.91
720.66	279.81
721.103	265.21
721.546	248.01
721.989	241.31
722.432	226.01
722.874	233.41
723.317	221.81
723.76	226.61
724.203	250.71
724.645	304.41
725.088	421.91
725.531	550.31
725.974	624.41
726.416	529.41
726.859	296.81
727.301	230.51
727.744	226.61
728.187	227.21
728.629	238.11
729.071	237.31
729.514	246.91
729.956	262.51
730.399	272.21
730.841	281.11
731.283	264.61
731.726	261.91
732.168	250.71
732.61	263.31
733.053	276.11
733.495	304.01
733.937	336.51
734.379	388.01
734.821	427.91
735.263	523.41
735.705	789.51
736.148	1493.01
736.59	2473.31
737.032	2960.51
737.474	2423.71
737.916	778.31
738.357	421.71
738.799	317.71
739.241	282.81
739.683	277.71
740.125	275.31
740.567	292.51
741.008	307.11
741.45	299.51
741.892	307.11
742.334	337.01
742.775	352.91
743.217	321.31
743.658	259.61
744.1	246.41
744.542	251.51
744.983	299.61
745.425	334.91
745.866	328.51
746.307	275.01
746.749	273.51
747.19	307.21
747.632	427.41
748.073	825.11
748.514	1758.71
748.956	2744.71
749.397	3439.91
749.838	2852.81
750.279	2883.11
750.72	1445.51
751.162	525.91
751.603	301.41
752.044	245.81
752.485	210.31
752.926	192.81
753.367	200.31
753.808	180.91
754.249	185.51
754.69	178.31
755.131	179.81
755.572	170.71
756.013	170.51
756.453	173.41
756.894	178.41
757.335	189.11
757.776	188.71
758.216	184.71
758.657	194.31
759.098	194.71
759.538	218.71
759.979	252.71
760.42	359.41
760.86	657.11
761.301	1708.81
761.741	4189.71
762.182	6244.71
762.622	4407.81
763.063	1258.71
763.503	516.41
763.943	337.51
764.384	329.21
764.824	379.11
765.264	413.61
765.705	287.31
766.145	203.31
766.585	178.31
767.025	171.61
767.465	173.41
767.906	227.31
768.346	304.11
768.786	321.41
769.226	252.41
769.666	306.21
770.106	591.81
770.546	1460.81
770.986	2550.41
771.426	2306.91
771.866	779.21
772.306	321.51
772.745	201.81
773.185	167.41
773.625	162.91
774.065	166.21
774.505	194.01
774.944	290.41
775.384	646.51
775.824	1175.21
776.263	1159.01
776.703	481.91
777.142	213.11
777.582	153.31
778.021	132.11
778.461	135.81
778.9	133.61
779.34	128.21
779.779	113.61
780.219	109.71
780.658	102.01
781.097	109.91
781.537	107.61
781.976	107.41
782.415	101.11
782.855	98.51
783.294	99.11
783.733	102.31
784.172	104.11
784.611	102.01
785.05	104.91
785.489	112.41
785.928	112.81
786.367	119.11
786.806	114.41
787.245	128.41
787.684	140.31
788.123	139.91
788.562	127.61
789.001	124.81
789.44	117.51
789.879	111.81
790.317	116.71
790.756	124.71
791.195	118.51
791.634	139.41
792.072	188.81
792.511	345.41
792.95	940.31
793.388	2038.61
793.827	1887.41
794.265	660.91
794.704	268.21
795.142	180.61
795.581	146.11
796.019	135.21
796.458	123.91
796.896	112.51
797.334	124.71
797.773	148.31
798.211	214.31
798.649	413.81
799.087	977.91
799.526	1529.61
799.964	1923.91
800.402	1942.11
800.84	729.01
801.278	280.61
801.716	180.11
802.154	152.51
802.592	145.51
803.03	137.81
803.468	120.71
803.906	141.01
804.344	147.81
804.782	136.11
805.22	119.31
805.658	120.01
806.096	141.91
806.533	152.71
806.971	171.81
807.409	212.21
807.847	302.01
808.284	613.91
808.722	1760.71
809.16	3160.01
809.597	2967.31
810.035	5157.01
810.472	5648.01
810.91	2012.91
811.347	762.01
811.785	383.31
812.222	244.31
812.66	185.01
813.097	163.21
813.535	143.91
813.972	118.41
814.409	120.01
814.846	101.51
815.284	102.11
815.721	102.81
816.158	96.11
816.595	118.91
817.032	170.41
817.47	188.61
817.907	166.21
818.344	149.81
818.781	112.01
819.218	98.41
819.655	121.11
820.092	177.61
820.529	206.71
820.966	168.91
821.403	124.21
821.839	104.01
822.276	96.61
822.713	116.21
823.15	129.71
823.587	113.71
824.023	142.31
824.46	285.31
824.897	846.71
825.333	1307.21
825.77	566.61
826.206	221.21
826.643	132.81
827.08	98.11
827.516	77.11
827.953	78.81
828.389	75.61
828.825	66.01
829.262	61.41
829.698	56.61
830.135	62.41
830.571	64.11
831.007	57.61
831.443	63.41
831.88	59.11
832.316	58.61
832.752	58.61
833.188	59.61
833.624	57.31
834.06	66.21
834.497	62.81
834.933	71.81
835.369	67.81
835.805	63.31
836.241	77.21
836.677	76.81
837.112	86.71
837.548	96.81
837.984	125.51
838.42	185.81
838.856	457.61
839.292	1430.61
839.727	2237.31
840.163	1028.71
840.599	877.81
841.034	1930.71
841.47	2073.71
841.906	747.61
842.341	321.51
842.777	218.71
843.212	298.41
843.648	303.61
844.083	146.81
844.519	91.11
844.954	72.01
845.39	53.81
845.825	58.81
846.261	52.31
846.696	59.01
847.131	52.91
847.566	60.11
848.002	49.01
848.437	51.01
848.872	57.51
849.307	58.31
849.742	86.01
850.177	170.41
850.613	527.01
851.048	852.51
851.483	359.51
851.918	147.31
852.353	80.51
852.788	55.31
853.223	53.71
853.657	55.81
854.092	46.61
854.527	44.81
854.962	41.41
855.397	41.41
855.832	48.31
856.266	39.71
856.701	42.31
857.136	36.51
857.57	37.71
858.005	45.11
858.44	54.71
858.874	37.61
859.309	59.31
859.743	34.21
860.178	47.41
860.612	44.21
861.047	51.31
861.481	72.11
861.915	69.81
862.35	52.31
862.784	32.51
863.218	40.01
863.653	33.01
864.087	42.31
864.521	52.11
864.955	65.81
865.39	150.51
865.824	173.41
866.258	108.61
866.692	153.21
867.126	169.61
867.56	103.31
867.994	57.31
868.428	27.51
868.862	42.81
869.296	53.11
869.73	58.41
870.164	56.01
870.598	42.51
871.031	39.81
871.465	28.11
871.899	39.61
872.333	27.81
872.766	27.71
873.2	24.81
873.634	26.31
874.067	18.81
874.501	21.31
874.935	37.71
875.368	29.91
875.802	23.21
876.235	24.01
876.669	24.51
877.102	23.01
877.535	24.91
877.969	21.71
878.402	21.91
878.836	15.31
879.269	20.91
879.702	21.91
880.135	21.51
880.569	13.81
881.002	27.01
881.435	18.51
881.868	13.61
882.301	26.61
882.734	18.31
883.167	23.31
883.601	23.11
884.034	20.31
884.467	15.21
884.899	21.01
885.332	15.81
885.765	12.71
886.198	17.41
886.631	19.31
887.064	24.41
887.497	23.51
887.929	25.91
888.362	14.81
888.795	9.41
889.228	17.21
889.66	19.41
890.093	15.31
890.526	15.31
890.958	15.71
891.391	26.01
891.823	18.71
892.256	11.61
892.688	9.91
893.121	14.51
893.553	18.01
893.985	24.01
894.418	17.41
894.85	16.71
895.282	14.51
895.715	12.41
896.147	18.71
896.579	16.41
897.011	10.91
897.444	13.61
897.876	14.71
898.308	18.11
898.74	12.61
899.172	12.31
899.604	19.61
900.036	19.71
900.468	12.41
900.9	16.61
901.332	19.71
901.764	15.71
902.196	21.61
902.628	21.01
903.06	12.91
903.491	28.01
903.923	22.01
904.355	20.51
904.787	22.51
905.218	25.31
905.65	20.51
906.082	12.61
906.513	12.91
906.945	18.91
907.376	8.81
907.808	18.71
908.239	19.01
908.671	14.61
909.102	15.71
909.534	26.41
909.965	47.81
910.397	83.01
910.828	299.51
911.259	464.31
911.691	207.31
912.122	103.71
912.553	50.61
912.984	31.71
913.415	25.01
913.847	22.51
914.278	16.31
914.709	13.51
915.14	19.91
915.571	24.01
916.002	11.11
916.433	21.11
916.864	17.51
917.295	11.61
917.726	17.61
918.157	15.61
918.587	30.41
919.018	24.91
919.449	20.71
919.88	23.41
920.311	30.71
920.741	45.91
921.172	164.91
921.603	148.81
922.033	68.31
922.464	46.71
922.895	22.31
923.325	24.41
923.756	12.91
924.186	15.61
924.617	25.21
925.047	36.21
925.478	49.51
925.908	48.81
926.338	24.41
926.769	19.51
927.199	30.31
927.629	9.41
928.06	18.41
928.49	14.71
928.92	17.21
929.35	16.11
929.78	11.41
930.21	11.91
930.641	6.21
931.071	9.91
931.501	4.91
931.931	6.51
932.361	5.71
932.791	6.01
933.221	14.61
933.651	5.91
934.08	17.71
934.51	26.91
934.94	11.21
935.37	11.91
935.8	12.31
936.229	12.71
936.659	15.41
937.089	2.11
937.519	17.51
937.948	26.21
938.378	14.11
938.807	7.91
939.237	-0.89
939.666	10.01
940.096	-6.19
940.525	-0.39
940.955	0.51
941.384	5.61
941.814	-1.69
942.243	-1.09
942.672	3.71
943.102	-2.29
943.531	1.61
943.96	8.31
944.39	3.11
944.819	-0.09
945.248	2.81
945.677	7.81
946.106	7.31
946.535	8.31
946.964	-0.59
947.393	1.31
947.822	2.81
948.251	-1.49
948.68	2.21
949.109	5.31
949.538	5.01
949.967	4.51
950.396	1.31
950.825	2.61
951.254	7.71
951.682	-5.39
952.111	3.71
952.54	2.41
952.969	-0.89
953.397	-6.89
953.826	1.11
954.254	-2.39
954.683	3.11
955.112	1.21
955.54	3.11
955.969	1.21
956.397	5.21
956.826	-0.79
957.254	4.51
957.682	2.61
958.111	7.71
958.539	-3.09
958.967	3.11
959.396	0.11
959.824	5.11
960.252	2.71
960.68	-7.09
961.109	-7.49
961.537	-6.59
961.965	-2.49
962.393	2.81
962.821	-2.49
963.249	1.81
963.677	4.41
964.105	6.41
964.533	37.61
964.961	43.61
965.389	14.21
965.817	8.51
966.245	0.11
966.672	-0.79
967.1	-10.99
967.528	3.01
967.956	-6.49
968.383	1.61
968.811	-1.69
969.239	-6.79
969.666	-6.49
970.094	-2.59
970.522	0.51
970.949	-5.29
971.377	-3.89
971.804	-4.19
972.232	-1.69
972.659	1.91
973.087	-2.49
973.514	0.21
973.941	-2.29
974.369	4.91
974.796	3.61
975.223	6.61
975.651	-3.29
976.078	0.41
976.505	-5.39
976.932	8.11
977.359	17.81
977.786	10.21
978.214	4.21
978.641	-3.89
979.068	2.01
979.495	-4.39
979.922	-2.49
980.349	-4.89
980.776	4.31
981.202	-1.29
981.629	8.21
982.056	7.71
982.483	0.11
982.91	5.21
983.337	-6.89
983.763	10.01
984.19	-1.99
984.617	-4.99
985.043	-8.29
985.47	0.61
985.897	-1.29
986.323	-10.29
986.75	1.81
987.176	-2.59
987.603	0.91
988.029	-3.39
988.456	-1.09
988.882	-0.39
989.308	-6.79
989.735	-3.29
990.161	1.51
990.587	3.81
991.014	-3.09
991.44	6.31
991.866	-2.39
992.292	-7.29
992.719	-2.09
993.145	4.11
993.571	-3.09
993.997	-3.79
994.423	3.91
994.849	-2.19
995.275	1.91
995.701	1.21
996.127	-5.29
996.553	1.21
996.979	-4.29
997.405	-0.69
997.83	-4.99
998.256	-5.29
998.682	-9.79
999.108	-4.99
999.534	-6.19
999.959	0.71
1000.385	-2.29
1000.811	4.81
1001.236	-0.39
1001.662	-5.69
1002.087	-3.79
1002.513	1.91
1002.938	3.31
1003.364	-4.49
1003.789	2.31
1004.215	2.21
1004.64	-5.59
1005.066	3.31
1005.491	-1.09
1005.916	-3.59
1006.342	-5.79
1006.767	-4.89
1007.192	3.91
1007.617	5.31
1008.042	-5.29
1008.468	-5.29
1008.893	0.31
1009.318	-2.99
1009.743	-5.09
1010.168	-1.99
1010.593	6.21
1011.018	-3.79
1011.443	-1.79
1011.868	3.31
1012.293	-1.49
1012.718	-3.09
1013.143	-1.79
1013.567	3.21
1013.992	-4.39
1014.417	-8.29
1014.842	0.01
1015.267	-4.09
1015.691	-4.99
1016.116	-2.59
1016.541	2.41
1016.965	0.81
1017.39	2.91
1017.814	-2.89
1018.239	3.01
1018.663	-10.09
1019.088	-8.79
1019.512	-5.79
1019.937	-4.89
1020.361	-6.39
1020.785	-11.59
1021.21	-5.99
1021.634	-3.79
1022.058	4.91
1022.483	8.31
1022.907	-1.79
1023.331	-0.39
1023.755	2.21
1024.179	-5.09
1024.604	-4.69
1025.028	-1.09
1025.452	-3.29
1025.876	-2.69
1026.3	-4.69
1026.724	-10.29
1027.148	-5.29
1027.572	-4.69
1027.996	-4.79
1028.42	-4.39
1028.843	-3.09
1029.267	-9.99
1029.691	-0.39
1030.115	-3.89
1030.539	-9.59
1030.962	-7.29
1031.386	-11.09
1031.81	-0.99
1032.233	-4.89
1032.657	0.01
1033.08	-7.89
1033.504	-3.59
1033.927	-2.59
1034.351	-2.79
1034.774	-6.79
1035.198	-3.99
1035.621	-5.89
1036.045	-6.29
1036.468	1.21
1036.891	-8.69
1037.315	-2.69
1037.738	-12.79
1038.161	0.91
1038.584	-10.19
1039.008	-6.19
1039.431	2.21
1039.854	-3.79
1040.277	-6.69
1040.7	-12.09
1041.123	1.31
1041.546	-4.99
1041.969	-4.09
1042.392	-9.29
1042.815	0.31
1043.238	3.81
1043.661	7.81
1044.084	-11.19
1044.507	-4.09
1044.93	-5.19
1045.352	-8.79
1045.775	4.31
1046.198	-2.49
1046.621	-1.09
1047.043	-0.99
1047.466	4.91
1047.889	-2.39
1048.311	-6.09
1048.734	-3.39
1049.156	-8.89
1049.579	2.11
1050.001	-6.09
1050.424	-3.39
1050.846	1.01
1051.269	-2.09
1051.691	-2.59
1052.113	-8.29
1052.536	-5.19
1052.958	-5.59
1053.38	-2.89
1053.802	-11.99
1054.225	1.21
1054.647	-7.19
1055.069	-3.39
1055.491	-2.19
1055.913	-7.29
1056.335	3.91
1056.757	-5.69
1057.179	-7.49
1057.601	-3.89
1058.023	-6.89
1058.445	-7.79
1058.867	-4.39
1059.289	-1.99
1059.711	-8.49
1060.133	-1.89
1060.555	-3.79
1060.976	-16.09
1061.398	-4.79
1061.82	-3.99
1062.241	-8.59
1062.663	-4.49
1063.085	-2.99
1063.506	-3.89
1063.928	-9.09
1064.35	-5.19
1064.771	-11.19
1065.193	-5.59
1065.614	-7.29
1066.035	-4.39
1066.457	-2.79
1066.878	0.61
1067.3	-10.49
1067.721	-8.69
1068.142	-8.49
1068.564	-4.39
1068.985	-3.99
1069.406	-1.99
1069.827	-4.59
1070.248	1.41
1070.67	-3.59
1071.091	-3.49
1071.512	0.11
1071.933	-5.49
1072.354	-10.69
1072.775	-5.69
1073.196	-6.29
1073.617	-5.29
1074.038	-8.09
1074.459	-8.79
1074.88	-9.89
1075.3	3.61
1075.721	-1.89
1076.142	2.61
1076.563	2.31
1076.983	-9.09
1077.404	-7.49
1077.825	-10.99
1078.246	-8.79
1078.666	-10.29
1079.087	-5.89
1079.507	-6.19
1079.928	-1.49
1080.348	0.61
1080.769	-3.69
1081.189	-1.19
1081.61	2.41
1082.03	-5.59
1082.451	-4.89
1082.871	-4.59
1083.291	-4.39
1083.711	-7.49
1084.132	-3.49
1084.552	-4.79
1084.972	3.71
1085.392	-5.59
1085.813	-14.79
1086.233	-7.49
1086.653	-6.79
1087.073	-0.19
1087.493	-8.89
1087.913	-11.29
1088.333	-9.39
1088.753	-5.59
1089.173	-0.09
1089.593	0.71
1090.013	4.51
1090.433	3.01
1090.852	2.41
1091.272	-1.99
1091.692	-5.19
1092.112	-4.99
1092.531	-11.79
1092.951	-7.89
1093.371	-3.59
1093.79	0.51
1094.21	-1.89
1094.63	-8.29
1095.049	-6.29
1095.469	-2.79
1095.888	-7.19
1096.308	0.21
1096.727	5.11
1097.146	-10.29
1097.566	3.51
1097.985	-5.29
1098.405	-0.39
1098.824	-9.69
1099.243	-3.09
1099.662	-3.79
1100.082	-3.69
1100.501	1.91
1100.92	-9.19
1101.339	0.21
1101.758	-8.99
