Data from 20171114-ORNL-Ar_H_NY_Subt18_08-07-54-638.txt Node
Date: Tue Nov 14 08:07:54 EST 2017
User: Ender
Spectrometer: HR+D1039
Trigger mode: 0
Integration Time (sec): 2.730000E-2
Scans to average: 10
Electric dark correction enabled: true
Nonlinearity correction enabled: false
Boxcar width: 0
XAxis mode: Wavelengths
Number of Pixels in Spectrum: 2048
>>>>>Begin Spectral Data<<<<<
187.836	-1.93
188.309	-1.93
188.782	-1.93
189.255	-1.83
189.728	-3.13
190.201	2.97
190.674	-0.53
191.147	5.57
191.619	-8.43
192.092	4.87
192.565	3.17
193.038	-0.53
193.511	-1.83
193.984	-3.03
194.456	5.57
194.929	-1.73
195.402	-1.23
195.874	2.07
196.347	-4.43
196.82	-10.63
197.292	1.37
197.765	-8.73
198.237	-8.53
198.71	-1.93
199.182	-5.23
199.655	0.07
200.127	-0.43
200.6	-2.63
201.072	-0.03
201.544	-3.63
202.017	-4.63
202.489	1.67
202.961	-0.63
203.433	-1.03
203.906	-5.13
204.378	-7.73
204.85	-6.93
205.322	-6.93
205.794	-6.43
206.266	-3.63
206.739	-9.83
207.211	2.97
207.683	-10.33
208.155	-2.63
208.627	-8.73
209.099	-1.43
209.57	-13.63
210.042	-3.13
210.514	-11.63
210.986	-6.23
211.458	-9.93
211.93	-9.03
212.402	-2.33
212.873	-6.43
213.345	-8.83
213.817	-16.63
214.288	-8.23
214.76	-11.43
215.232	-4.83
215.703	-4.73
216.175	-5.53
216.646	-5.53
217.118	-8.73
217.589	-3.43
218.061	-9.23
218.532	-7.83
219.004	-2.13
219.475	-4.43
219.946	-0.23
220.418	-8.93
220.889	2.07
221.36	3.97
221.832	0.07
222.303	-6.43
222.774	-1.03
223.245	-5.73
223.717	-5.33
224.188	-8.73
224.659	-11.23
225.13	-10.13
225.601	-5.73
226.072	0.77
226.543	-4.13
227.014	-2.83
227.485	-4.93
227.956	-8.83
228.427	-1.23
228.898	-4.13
229.369	4.77
229.839	-5.83
230.31	-6.43
230.781	-0.83
231.252	1.37
231.722	-5.53
232.193	-6.03
232.664	-4.53
233.135	1.47
233.605	-2.03
234.076	-12.13
234.546	-0.23
235.017	0.37
235.487	-5.73
235.958	-1.73
236.428	-2.83
236.899	1.87
237.369	1.47
237.84	-3.63
238.31	1.27
238.78	4.57
239.251	-4.63
239.721	1.07
240.191	2.37
240.662	3.67
241.132	5.27
241.602	-5.83
242.072	3.77
242.542	7.07
243.013	6.17
243.483	2.37
243.953	1.27
244.423	-4.43
244.893	-0.83
245.363	5.87
245.833	0.47
246.303	-2.33
246.773	1.97
247.243	-3.03
247.712	-0.83
248.182	10.27
248.652	7.27
249.122	2.37
249.592	12.47
250.061	19.07
250.531	24.97
251.001	10.27
251.471	21.27
251.94	14.17
252.41	7.67
252.879	-6.63
253.349	9.17
253.818	8.27
254.288	5.57
254.757	5.37
255.227	0.97
255.696	2.47
256.166	3.87
256.635	3.57
257.105	6.77
257.574	2.07
258.043	6.57
258.513	11.47
258.982	14.17
259.451	6.87
259.92	9.67
260.389	4.77
260.859	21.97
261.328	10.97
261.797	17.97
262.266	6.37
262.735	3.47
263.204	4.17
263.673	0.47
264.142	9.67
264.611	-6.83
265.08	1.67
265.549	-1.93
266.018	2.87
266.487	-7.13
266.955	4.27
267.424	4.47
267.893	3.57
268.362	4.07
268.83	2.47
269.299	12.17
269.768	7.47
270.236	8.97
270.705	3.47
271.174	6.07
271.642	11.67
272.111	8.57
272.579	20.47
273.048	18.27
273.516	27.47
273.985	27.47
274.453	17.97
274.922	16.77
275.39	12.97
275.858	3.57
276.327	11.57
276.795	15.67
277.263	6.77
277.731	27.57
278.2	48.47
278.668	56.17
279.136	44.97
279.604	17.17
280.072	12.97
280.54	10.17
281.008	12.37
281.477	14.77
281.945	12.67
282.413	8.77
282.881	12.47
283.348	10.87
283.816	16.67
284.284	16.57
284.752	14.47
285.22	9.97
285.688	14.27
286.156	17.17
286.623	42.37
287.091	48.47
287.559	19.27
288.026	16.47
288.494	14.07
288.962	5.67
289.429	10.57
289.897	9.97
290.364	14.27
290.832	19.87
291.3	12.27
291.767	15.97
292.234	18.17
292.702	9.77
293.169	12.87
293.637	20.67
294.104	19.47
294.571	7.67
295.039	10.37
295.506	13.17
295.973	11.97
296.44	12.87
296.908	16.47
297.375	19.07
297.842	19.27
298.309	9.37
298.776	13.67
299.243	19.67
299.71	8.07
300.177	18.47
300.644	20.47
301.111	19.57
301.578	18.37
302.045	17.87
302.512	21.67
302.979	19.77
303.446	19.17
303.913	12.27
304.379	13.47
304.846	23.87
305.313	25.87
305.78	21.17
306.246	29.47
306.713	24.57
307.18	26.77
307.646	25.27
308.113	24.57
308.579	17.37
309.046	23.27
309.512	25.77
309.979	21.87
310.445	23.67
310.912	26.57
311.378	31.87
311.845	29.07
312.311	30.97
312.777	31.77
313.244	30.87
313.71	31.17
314.176	28.97
314.642	30.47
315.109	27.17
315.575	35.17
316.041	37.87
316.507	32.37
316.973	32.77
317.439	27.87
317.905	36.97
318.371	33.67
318.837	32.97
319.303	29.67
319.769	30.47
320.235	27.47
320.701	29.17
321.167	31.37
321.633	32.97
322.099	36.57
322.564	39.07
323.03	37.27
323.496	34.27
323.962	41.27
324.427	31.27
324.893	43.17
325.359	32.17
325.824	38.97
326.29	35.27
326.755	35.87
327.221	38.67
327.686	33.67
328.152	45.67
328.617	39.57
329.083	39.57
329.548	47.97
330.014	44.07
330.479	33.37
330.944	42.07
331.41	38.47
331.875	41.37
332.34	43.37
332.805	34.47
333.271	46.47
333.736	40.47
334.201	47.57
334.666	44.77
335.131	47.67
335.596	46.17
336.061	50.57
336.526	38.27
336.991	39.37
337.456	53.17
337.921	46.67
338.386	45.37
338.851	43.17
339.316	43.37
339.781	44.77
340.246	48.47
340.711	45.17
341.175	50.17
341.64	45.87
342.105	44.97
342.569	51.47
343.034	52.27
343.499	53.77
343.963	53.57
344.428	55.97
344.893	60.87
345.357	58.17
345.822	58.77
346.286	68.57
346.751	69.07
347.215	60.17
347.679	73.97
348.144	92.77
348.608	82.37
349.073	63.07
349.537	65.77
350.001	73.47
350.465	79.47
350.93	75.97
351.394	78.37
351.858	65.37
352.322	79.97
352.786	79.37
353.25	98.37
353.715	108.17
354.179	96.37
354.643	115.67
355.107	121.27
355.571	104.67
356.035	100.67
356.498	124.37
356.962	120.47
357.426	124.17
357.89	115.67
358.354	91.57
358.818	80.87
359.281	79.67
359.745	75.87
360.209	75.47
360.673	75.97
361.136	75.67
361.6	79.57
362.064	78.37
362.527	83.47
362.991	87.07
363.454	76.97
363.918	73.37
364.381	77.17
364.845	81.77
365.308	84.67
365.772	79.77
366.235	76.97
366.698	76.47
367.162	85.47
367.625	87.77
368.088	79.67
368.552	89.37
369.015	84.27
369.478	94.67
369.941	98.67
370.404	89.37
370.867	106.57
371.331	105.37
371.794	113.87
372.257	107.57
372.72	118.37
373.183	106.87
373.646	107.47
374.109	100.67
374.572	100.77
375.035	107.77
375.497	107.17
375.96	109.87
376.423	98.57
376.886	112.57
377.349	109.37
377.811	101.97
378.274	102.07
378.737	108.27
379.199	112.57
379.662	110.27
380.125	121.37
380.587	117.47
381.05	117.97
381.512	118.17
381.975	130.07
382.437	131.97
382.9	131.47
383.362	130.07
383.825	133.87
384.287	145.87
384.75	138.87
385.212	141.87
385.674	136.07
386.136	130.07
386.599	121.97
387.061	124.77
387.523	129.27
387.985	136.17
388.447	146.47
388.91	145.67
389.372	156.57
389.834	148.07
390.296	146.27
390.758	156.67
391.22	171.27
391.682	217.67
392.144	308.17
392.606	231.57
393.068	168.37
393.529	175.57
393.991	156.97
394.453	147.67
394.915	157.07
395.377	196.07
395.838	213.47
396.3	158.77
396.762	143.87
397.224	132.17
397.685	128.37
398.147	129.17
398.608	137.97
399.07	134.27
399.531	134.67
399.993	143.27
400.454	150.97
400.916	147.47
401.377	138.07
401.839	148.87
402.3	150.57
402.762	167.17
403.223	177.97
403.684	174.77
404.145	160.27
404.607	159.47
405.068	162.97
405.529	168.27
405.99	192.37
406.451	173.27
406.913	170.27
407.374	159.37
407.835	154.67
408.296	167.97
408.757	166.77
409.218	178.57
409.679	179.17
410.14	178.17
410.601	179.17
411.062	176.37
411.522	190.17
411.983	191.37
412.444	176.67
412.905	178.57
413.366	190.97
413.826	192.27
414.287	212.37
414.748	262.67
415.208	243.67
415.669	200.77
416.13	202.17
416.59	202.77
417.051	213.37
417.511	217.27
417.972	240.07
418.432	249.27
418.893	291.17
419.353	255.77
419.814	195.47
420.274	177.77
420.734	181.67
421.195	204.27
421.655	199.77
422.115	197.87
422.576	191.07
423.036	195.47
423.496	212.37
423.956	219.97
424.416	231.87
424.876	262.97
425.336	256.87
425.797	261.77
426.257	254.07
426.717	242.07
427.177	230.97
427.637	223.17
428.097	239.17
428.556	246.07
429.016	268.37
429.476	268.57
429.936	280.57
430.396	283.27
430.856	292.87
431.315	321.47
431.775	360.97
432.235	378.27
432.694	358.97
433.154	365.67
433.614	394.97
434.073	334.87
434.533	287.97
434.993	274.57
435.452	286.97
435.912	293.17
436.371	282.77
436.83	278.47
437.29	270.67
437.749	250.97
438.209	244.17
438.668	273.67
439.127	292.77
439.587	267.67
440.046	246.77
440.505	260.57
440.964	270.77
441.424	318.97
441.883	307.17
442.342	257.77
442.801	224.67
443.26	218.47
443.719	216.37
444.178	218.17
444.637	208.47
445.096	223.07
445.555	218.07
446.014	224.57
446.473	228.67
446.932	230.37
447.391	231.07
447.849	228.57
448.308	223.07
448.767	216.97
449.226	227.17
449.685	239.77
450.143	253.07
450.602	239.37
451.061	226.67
451.519	230.87
451.978	236.87
452.436	231.07
452.895	239.57
453.353	245.97
453.812	239.47
454.27	236.47
454.729	237.27
455.187	239.87
455.646	251.17
456.104	239.87
456.562	252.97
457.021	266.57
457.479	261.37
457.937	276.57
458.395	260.17
458.854	256.37
459.312	258.97
459.77	269.37
460.228	248.57
460.686	241.47
461.144	245.17
461.602	244.37
462.06	244.97
462.518	252.57
462.976	241.87
463.434	257.67
463.892	260.57
464.35	273.07
464.808	286.37
465.266	260.17
465.724	275.97
466.181	271.17
466.639	269.37
467.097	291.47
467.555	299.87
468.012	295.47
468.47	305.17
468.928	321.27
469.385	337.57
469.843	347.17
470.3	349.57
470.758	369.37
471.215	374.57
471.673	409.87
472.13	401.77
472.588	416.57
473.045	375.97
473.503	382.47
473.96	408.27
474.417	401.97
474.875	439.77
475.332	474.37
475.789	459.77
476.246	466.77
476.704	476.67
477.161	506.67
477.618	519.47
478.075	564.07
478.532	607.17
478.989	689.87
479.446	792.37
479.903	776.37
480.36	807.77
480.817	857.97
481.274	984.17
481.731	1071.97
482.188	1167.97
482.645	1307.87
483.102	1416.87
483.558	1548.57
484.015	1595.97
484.472	1575.27
484.929	1526.07
485.385	1477.37
485.842	1432.57
486.299	1360.37
486.755	1296.27
487.212	1092.47
487.668	926.17
488.125	855.37
488.582	778.27
489.038	745.47
489.494	710.17
489.951	675.47
490.407	664.97
490.864	645.37
491.32	648.27
491.776	639.47
492.233	639.77
492.689	600.97
493.145	599.77
493.602	585.07
494.058	605.37
494.514	616.37
494.97	632.77
495.426	636.97
495.882	618.87
496.338	605.97
496.794	620.77
497.251	604.17
497.707	623.87
498.163	626.17
498.618	637.57
499.074	633.07
499.53	666.87
499.986	674.87
500.442	653.27
500.898	630.87
501.354	613.77
501.809	623.07
502.265	640.87
502.721	665.47
503.177	675.97
503.632	652.77
504.088	675.97
504.543	710.97
504.999	702.37
505.455	647.67
505.91	633.97
506.366	631.97
506.821	619.17
507.277	615.07
507.732	614.57
508.187	613.87
508.643	625.37
509.098	631.67
509.553	645.87
510.009	657.47
510.464	663.87
510.919	676.67
511.375	691.17
511.83	701.47
512.285	711.77
512.74	750.97
513.195	776.17
513.65	767.87
514.105	751.87
514.56	759.47
515.015	778.07
515.47	791.67
515.925	780.77
516.38	778.67
516.835	775.87
517.29	774.47
517.745	766.57
518.2	751.97
518.655	740.07
519.109	732.77
519.564	728.87
520.019	731.77
520.474	709.37
520.928	714.67
521.383	707.57
521.838	700.17
522.292	709.67
522.747	695.67
523.201	694.47
523.656	692.97
524.11	692.87
524.565	692.47
525.019	679.27
525.474	694.37
525.928	690.57
526.382	687.37
526.837	696.97
527.291	691.97
527.745	689.77
528.2	690.57
528.654	684.27
529.108	680.17
529.562	682.77
530.016	679.67
530.47	684.57
530.925	680.07
531.379	688.27
531.833	708.67
532.287	706.17
532.741	695.27
533.195	700.57
533.649	702.37
534.103	707.87
534.556	693.87
535.01	701.47
535.464	689.27
535.918	710.87
536.372	710.87
536.826	706.77
537.279	699.57
537.733	701.07
538.187	706.47
538.64	711.37
539.094	716.87
539.548	722.77
540.001	711.57
540.455	724.47
540.908	710.97
541.362	729.37
541.815	739.67
542.269	742.87
542.722	748.27
543.175	770.67
543.629	766.97
544.082	785.57
544.536	779.87
544.989	775.67
545.442	786.37
545.895	778.27
546.349	775.27
546.802	780.47
547.255	782.47
547.708	794.27
548.161	809.57
548.614	815.97
549.067	808.77
549.52	812.27
549.973	799.77
550.426	796.47
550.879	786.37
551.332	790.17
551.785	802.47
552.238	803.87
552.691	804.47
553.144	807.47
553.596	830.17
554.049	857.97
554.502	894.97
554.955	892.27
555.407	891.97
555.86	886.87
556.313	884.07
556.765	868.97
557.218	865.07
557.67	877.57
558.123	867.37
558.576	865.57
559.028	868.67
559.48	877.17
559.933	861.87
560.385	830.67
560.838	795.97
561.29	775.97
561.742	774.37
562.195	753.87
562.647	759.27
563.099	774.87
563.551	750.87
564.004	776.07
564.456	760.77
564.908	750.77
565.36	732.07
565.812	730.87
566.264	717.67
566.716	718.17
567.168	713.57
567.62	720.17
568.072	695.27
568.524	694.77
568.976	683.47
569.428	669.57
569.88	674.27
570.332	676.27
570.784	683.37
571.235	664.57
571.687	685.27
572.139	683.47
572.59	697.27
573.042	702.77
573.494	699.47
573.945	695.47
574.397	676.47
574.849	685.47
575.3	690.17
575.752	675.27
576.203	669.17
576.655	688.77
577.106	657.87
577.557	655.27
578.009	668.47
578.46	663.37
578.912	664.57
579.363	658.97
579.814	660.27
580.265	648.57
580.717	661.17
581.168	662.37
581.619	672.17
582.07	684.77
582.521	668.67
582.972	667.77
583.423	678.17
583.875	673.07
584.326	698.77
584.777	745.67
585.227	832.97
585.678	924.47
586.129	1009.87
586.58	1096.57
587.031	1164.67
587.482	1323.37
587.933	1519.47
588.384	1325.27
588.834	977.57
589.285	800.57
589.736	778.27
590.186	771.27
590.637	759.27
591.088	738.67
591.538	734.37
591.989	727.87
592.439	727.57
592.89	716.57
593.34	704.67
593.791	703.97
594.241	703.97
594.692	701.87
595.142	697.07
595.593	685.37
596.043	709.17
596.493	714.87
596.943	709.67
597.394	722.17
597.844	715.77
598.294	719.37
598.744	742.87
599.195	774.37
599.645	813.37
600.095	853.07
600.545	909.97
600.995	965.97
601.445	1012.57
601.895	1079.37
602.345	1139.17
602.795	1106.07
603.245	1064.67
603.695	1006.97
604.145	952.97
604.594	909.17
605.044	851.27
605.494	788.97
605.944	736.97
606.393	737.17
606.843	729.67
607.293	740.47
607.743	726.07
608.192	738.17
608.642	770.07
609.091	757.47
609.541	775.67
609.99	773.87
610.44	759.97
610.889	713.47
611.339	707.47
611.788	684.47
612.238	694.67
612.687	718.57
613.136	720.27
613.586	740.47
614.035	728.67
614.484	754.27
614.933	752.27
615.383	740.17
615.832	731.57
616.281	725.47
616.73	685.47
617.179	658.07
617.628	651.47
618.077	637.77
618.526	617.07
618.975	617.17
619.424	613.47
619.873	612.07
620.322	615.57
620.771	607.67
621.22	595.57
621.669	591.97
622.118	584.27
622.567	583.47
623.015	556.67
623.464	568.67
623.913	554.07
624.361	548.77
624.81	546.07
625.259	553.47
625.707	550.17
626.156	552.17
626.604	565.87
627.053	561.57
627.501	556.67
627.95	562.97
628.398	578.87
628.847	564.87
629.295	568.27
629.744	568.77
630.192	571.67
630.64	569.37
631.089	562.37
631.537	586.07
631.985	591.27
632.433	605.77
632.881	610.37
633.33	667.07
633.778	650.57
634.226	564.67
634.674	573.47
635.122	581.37
635.57	597.27
636.018	634.57
636.466	580.07
636.914	551.67
637.362	567.87
637.81	571.67
638.258	570.17
638.705	588.57
639.153	607.77
639.601	614.97
640.049	638.87
640.497	669.97
640.944	694.97
641.392	641.87
641.84	608.37
642.287	579.47
642.735	572.77
643.182	581.57
643.63	576.47
644.078	570.97
644.525	591.57
644.973	601.47
645.42	611.47
645.867	621.97
646.315	636.47
646.762	665.57
647.21	688.27
647.657	702.77
648.104	754.47
648.551	778.87
648.999	847.67
649.446	914.57
649.893	1007.67
650.34	1173.27
650.787	1405.97
651.234	1759.77
651.682	2300.17
652.129	3165.97
652.576	4594.27
653.023	6767.27
653.47	9293.87
653.917	11511.97
654.363	13189.47
654.81	14516.47
655.257	13832.57
655.704	9054.77
656.151	5308.37
656.598	3439.87
657.044	2447.27
657.491	1870.37
657.938	1493.47
658.385	1242.17
658.831	1082.17
659.278	961.57
659.724	852.87
660.171	779.47
660.618	729.47
661.064	695.77
661.511	672.47
661.957	654.37
662.404	642.47
662.85	647.17
663.296	620.17
663.743	558.07
664.189	534.27
664.635	529.77
665.082	528.47
665.528	533.17
665.974	515.87
666.42	512.67
666.867	506.47
667.313	486.07
667.759	483.07
668.205	484.57
668.651	485.87
669.097	484.07
669.543	503.27
669.989	474.37
670.435	444.07
670.881	439.97
671.327	440.17
671.773	469.67
672.219	494.77
672.665	547.17
673.11	582.67
673.556	633.07
674.002	666.07
674.448	652.87
674.893	537.67
675.339	479.67
675.785	430.17
676.23	416.17
676.676	386.67
677.122	383.57
677.567	368.67
678.013	368.37
678.458	359.77
678.904	360.47
679.349	346.57
679.794	356.67
680.24	354.27
680.685	345.97
681.131	354.57
681.576	353.17
682.021	355.27
682.466	355.07
682.912	352.67
683.357	355.47
683.802	380.57
684.247	404.97
684.692	455.57
685.137	494.97
685.583	527.07
686.028	544.27
686.473	510.57
686.918	434.27
687.363	406.17
687.807	380.87
688.252	360.07
688.697	355.27
689.142	339.77
689.587	323.37
690.032	323.27
690.477	349.77
690.921	353.17
691.366	380.97
691.811	394.87
692.255	431.07
692.7	465.97
693.145	500.67
693.589	706.37
694.034	1135.27
694.478	1536.17
694.923	1719.47
695.367	2229.67
695.812	1165.87
696.256	494.07
696.701	374.87
697.145	340.37
697.59	324.77
698.034	325.57
698.478	334.17
698.922	327.07
699.367	327.47
699.811	341.37
700.255	358.17
700.699	381.47
701.143	431.47
701.588	475.97
702.032	509.07
702.476	508.37
702.92	488.17
703.364	497.57
703.808	646.57
704.252	1044.07
704.696	1442.67
705.14	1653.37
705.584	2106.27
706.027	1042.17
706.471	526.47
706.915	387.47
707.359	354.37
707.803	314.07
708.246	308.27
708.69	316.67
709.134	317.97
709.577	311.67
710.021	313.37
710.465	305.67
710.908	294.77
711.352	302.97
711.795	312.97
712.239	352.47
712.682	387.47
713.126	416.97
713.569	458.27
714.012	374.37
714.456	327.77
714.899	294.47
715.342	269.07
715.786	258.87
716.229	259.87
716.672	253.17
717.115	252.37
717.558	247.67
718.002	247.97
718.445	263.87
718.888	285.37
719.331	289.57
719.774	305.57
720.217	303.87
720.66	282.17
721.103	261.47
721.546	258.87
721.989	248.37
722.432	229.97
722.874	232.77
723.317	219.37
723.76	234.27
724.203	257.57
724.645	329.27
725.088	455.87
725.531	573.37
725.974	626.77
726.416	539.57
726.859	303.07
727.301	242.67
727.744	236.37
728.187	237.07
728.629	239.97
729.071	240.77
729.514	260.87
729.956	273.87
730.399	276.27
730.841	283.27
731.283	270.17
731.726	257.57
732.168	255.87
732.61	269.47
733.053	282.47
733.495	321.17
733.937	356.87
734.379	390.77
734.821	430.07
735.263	540.07
735.705	853.07
736.148	1601.97
736.59	2573.77
737.032	2995.77
737.474	2439.07
737.916	803.07
738.357	423.47
738.799	325.17
739.241	296.77
739.683	285.87
740.125	287.47
740.567	298.57
741.008	318.67
741.45	312.17
741.892	312.07
742.334	352.57
742.775	348.17
743.217	334.47
743.658	278.67
744.1	259.47
744.542	259.67
744.983	313.77
745.425	332.47
745.866	340.57
746.307	286.77
746.749	286.37
747.19	331.87
747.632	463.47
748.073	905.17
748.514	1877.77
748.956	2834.77
749.397	3544.67
749.838	2944.87
750.279	2899.17
750.72	1472.07
751.162	547.67
751.603	316.47
752.044	254.87
752.485	213.87
752.926	200.57
753.367	200.07
753.808	185.57
754.249	187.17
754.69	177.27
755.131	182.17
755.572	173.77
756.013	182.37
756.453	181.67
756.894	191.87
757.335	193.67
757.776	198.17
758.216	191.17
758.657	200.57
759.098	197.47
759.538	221.97
759.979	273.07
760.42	376.37
760.86	721.07
761.301	1864.87
761.741	4439.27
762.182	6292.67
762.622	4394.67
763.063	1292.77
763.503	536.47
763.943	343.97
764.384	343.07
764.824	408.97
765.264	444.37
765.705	308.37
766.145	202.87
766.585	196.97
767.025	182.97
767.465	190.97
767.906	242.57
768.346	316.97
768.786	338.07
769.226	267.77
769.666	327.67
770.106	641.67
770.546	1597.57
770.986	2598.67
771.426	2327.27
771.866	787.17
772.306	327.37
772.745	208.97
773.185	170.17
773.625	164.87
774.065	165.27
774.505	206.07
774.944	314.87
775.384	706.17
775.824	1274.87
776.263	1227.17
776.703	522.47
777.142	229.07
777.582	160.27
778.021	135.57
778.461	137.47
778.9	140.77
779.34	131.97
779.779	116.07
780.219	109.77
780.658	112.47
781.097	107.57
781.537	114.87
781.976	109.37
782.415	102.37
782.855	102.67
783.294	100.77
783.733	104.67
784.172	108.17
784.611	106.67
785.05	102.47
785.489	111.77
785.928	117.87
786.367	116.17
786.806	115.57
787.245	133.17
787.684	137.07
788.123	145.47
788.562	136.07
789.001	121.17
789.44	129.07
789.879	114.87
790.317	120.27
790.756	130.47
791.195	128.67
791.634	148.97
792.072	203.47
792.511	377.87
792.95	1030.47
793.388	2123.17
793.827	1879.57
794.265	668.77
794.704	280.27
795.142	171.87
795.581	154.97
796.019	134.77
796.458	124.97
796.896	122.07
797.334	129.37
797.773	152.37
798.211	216.97
798.649	448.07
799.087	1025.27
799.526	1598.37
799.964	2005.57
800.402	1943.57
800.84	740.47
801.278	297.77
801.716	190.77
802.154	157.97
802.592	148.27
803.03	141.07
803.468	139.97
803.906	139.57
804.344	149.77
804.782	140.07
805.22	137.67
805.658	127.87
806.096	154.67
806.533	155.27
806.971	173.37
807.409	208.07
807.847	316.07
808.284	672.57
808.722	1874.17
809.16	3233.67
809.597	3150.37
810.035	5420.17
810.472	5605.77
810.91	2038.77
811.347	777.77
811.785	396.67
812.222	253.07
812.66	194.77
813.097	165.17
813.535	138.27
813.972	124.67
814.409	116.77
814.846	106.57
815.284	112.47
815.721	108.27
816.158	106.27
816.595	119.17
817.032	184.57
817.47	190.07
817.907	163.47
818.344	152.17
818.781	126.57
819.218	104.97
819.655	121.57
820.092	185.27
820.529	203.87
820.966	178.87
821.403	129.07
821.839	108.57
822.276	98.77
822.713	119.77
823.15	135.97
823.587	113.07
824.023	156.47
824.46	308.27
824.897	903.77
825.333	1323.57
825.77	573.17
826.206	224.07
826.643	133.67
827.08	98.47
827.516	82.37
827.953	84.97
828.389	82.37
828.825	68.17
829.262	65.67
829.698	60.87
830.135	63.57
830.571	59.27
831.007	62.57
831.443	58.77
831.88	63.67
832.316	59.97
832.752	62.87
833.188	63.87
833.624	67.87
834.06	68.07
834.497	69.37
834.933	68.17
835.369	77.07
835.805	66.97
836.241	72.57
836.677	81.47
837.112	92.47
837.548	105.77
837.984	135.07
838.42	200.17
838.856	500.37
839.292	1531.47
839.727	2261.17
840.163	1058.37
840.599	942.07
841.034	2023.87
841.47	2068.67
841.906	765.47
842.341	329.37
842.777	235.97
843.212	322.27
843.648	311.17
844.083	150.67
844.519	96.37
844.954	80.37
845.39	56.57
845.825	54.27
846.261	61.87
846.696	57.47
847.131	58.87
847.566	59.27
848.002	49.67
848.437	52.97
848.872	60.37
849.307	63.27
849.742	81.57
850.177	185.17
850.613	562.47
851.048	857.57
851.483	376.67
851.918	146.17
852.353	89.97
852.788	58.67
853.223	52.57
853.657	52.07
854.092	48.37
854.527	41.07
854.962	43.07
855.397	40.47
855.832	48.47
856.266	40.27
856.701	33.57
857.136	38.47
857.57	40.47
858.005	53.47
858.44	51.67
858.874	47.17
859.309	53.37
859.743	36.97
860.178	53.37
860.612	45.57
861.047	58.27
861.481	56.77
861.915	66.27
862.35	53.17
862.784	37.87
863.218	38.47
863.653	31.57
864.087	42.97
864.521	52.17
864.955	68.47
865.39	161.67
865.824	176.67
866.258	111.97
866.692	160.97
867.126	164.97
867.56	100.37
867.994	48.67
868.428	37.87
868.862	46.97
869.296	53.17
869.73	56.07
870.164	47.97
870.598	46.27
871.031	33.97
871.465	27.47
871.899	27.87
872.333	25.37
872.766	22.37
873.2	29.77
873.634	27.97
874.067	24.07
874.501	29.77
874.935	31.37
875.368	32.27
875.802	26.37
876.235	25.97
876.669	22.77
877.102	15.17
877.535	27.07
877.969	24.47
878.402	23.97
878.836	19.17
879.269	24.37
879.702	25.37
880.135	25.37
880.569	23.47
881.002	21.07
881.435	18.77
881.868	15.57
882.301	19.67
882.734	16.97
883.167	21.47
883.601	21.27
884.034	14.27
884.467	16.67
884.899	22.57
885.332	22.77
885.765	19.77
886.198	11.17
886.631	15.47
887.064	19.17
887.497	19.77
887.929	25.57
888.362	19.87
888.795	8.97
889.228	17.17
889.66	20.67
890.093	14.67
890.526	14.07
890.958	17.77
891.391	15.67
891.823	23.97
892.256	15.87
892.688	11.47
893.121	12.27
893.553	13.97
893.985	20.07
894.418	19.97
894.85	13.07
895.282	20.37
895.715	13.07
896.147	17.87
896.579	17.97
897.011	13.57
897.444	16.67
897.876	10.37
898.308	14.67
898.74	14.77
899.172	15.97
899.604	25.97
900.036	19.47
900.468	13.77
900.9	14.87
901.332	16.47
901.764	16.37
902.196	15.17
902.628	15.27
903.06	19.27
903.491	27.57
903.923	20.37
904.355	15.27
904.787	30.27
905.218	22.87
905.65	21.47
906.082	15.27
906.513	12.57
906.945	12.87
907.376	12.77
907.808	22.57
908.239	16.77
908.671	19.77
909.102	26.67
909.534	25.97
909.965	44.47
910.397	88.07
910.828	315.67
911.259	461.17
911.691	215.17
912.122	105.07
912.553	49.07
912.984	27.77
913.415	21.97
913.847	23.67
914.278	15.07
914.709	12.57
915.14	15.97
915.571	17.97
916.002	9.27
916.433	20.37
916.864	18.47
917.295	17.77
917.726	19.57
918.157	14.57
918.587	29.07
919.018	17.47
919.449	23.87
919.88	19.37
920.311	32.27
920.741	45.97
921.172	168.17
921.603	144.17
922.033	70.97
922.464	46.77
922.895	23.37
923.325	17.87
923.756	9.67
924.186	18.17
924.617	27.37
925.047	48.97
925.478	57.37
925.908	46.17
926.338	29.57
926.769	15.77
927.199	14.67
927.629	9.87
928.06	11.77
928.49	16.27
928.92	14.17
929.35	16.17
929.78	11.57
930.21	3.87
930.641	5.07
931.071	10.77
931.501	0.07
931.931	12.67
932.361	11.47
932.791	0.97
933.221	7.87
933.651	2.97
934.08	16.87
934.51	25.77
934.94	10.07
935.37	0.37
935.8	6.57
936.229	6.27
936.659	12.27
937.089	1.37
937.519	13.67
937.948	16.97
938.378	17.97
938.807	4.67
939.237	3.97
939.666	5.67
940.096	-5.73
940.525	-0.13
940.955	-0.03
941.384	2.67
941.814	-2.63
942.243	-3.63
942.672	1.07
943.102	-4.73
943.531	6.37
943.96	0.77
944.39	7.87
944.819	2.17
945.248	6.97
945.677	-2.83
946.106	9.07
946.535	11.37
946.964	3.27
947.393	4.17
947.822	2.37
948.251	-7.03
948.68	2.07
949.109	-0.83
949.538	8.97
949.967	1.07
950.396	0.37
950.825	-5.23
951.254	1.37
951.682	-7.73
952.111	3.97
952.54	3.57
952.969	-9.33
953.397	-0.03
953.826	1.27
954.254	-6.83
954.683	4.97
955.112	-6.43
955.54	-6.43
955.969	1.07
956.397	-1.43
956.826	0.57
957.254	2.87
957.682	-5.03
958.111	2.97
958.539	-4.53
958.967	1.27
959.396	-6.93
959.824	-1.43
960.252	2.07
960.68	-6.93
961.109	-1.33
961.537	-4.13
961.965	-0.83
962.393	-1.23
962.821	-9.23
963.249	0.67
963.677	-2.03
964.105	7.17
964.533	48.37
964.961	33.47
965.389	26.37
965.817	12.97
966.245	5.07
966.672	0.67
967.1	-8.73
967.528	5.87
967.956	-5.23
968.383	1.67
968.811	-6.53
969.239	-0.13
969.666	-4.13
970.094	-5.03
970.522	-1.93
970.949	-3.33
971.377	-2.53
971.804	-4.63
972.232	-1.83
972.659	-0.03
973.087	-4.33
973.514	-9.33
973.941	-8.13
974.369	2.77
974.796	1.17
975.223	0.07
975.651	-2.73
976.078	0.17
976.505	-3.53
976.932	3.47
977.359	10.67
977.786	11.57
978.214	0.37
978.641	-4.23
979.068	-2.53
979.495	-7.33
979.922	3.67
980.349	1.67
980.776	5.47
981.202	-1.33
981.629	1.97
982.056	2.07
982.483	-0.03
982.91	3.47
983.337	-7.83
983.763	0.77
984.19	-8.73
984.617	-4.73
985.043	-9.33
985.47	-3.73
985.897	-5.03
986.323	-7.93
986.75	2.27
987.176	1.17
987.603	0.67
988.029	-4.53
988.456	-5.33
988.882	1.47
989.308	-10.33
989.735	-7.33
990.161	4.87
990.587	-2.63
991.014	-3.93
991.44	6.17
991.866	-0.03
992.292	-3.23
992.719	-1.63
993.145	3.67
993.571	-9.93
993.997	-2.13
994.423	-6.73
994.849	-6.13
995.275	-4.63
995.701	2.17
996.127	-1.73
996.553	-2.73
996.979	0.97
997.405	-1.83
997.83	-5.43
998.256	-4.53
998.682	-6.73
999.108	-9.03
999.534	-4.73
999.959	-6.83
1000.385	-3.33
1000.811	-2.13
1001.236	-9.43
1001.662	-3.23
1002.087	-11.53
1002.513	-7.53
1002.938	-0.53
1003.364	1.77
1003.789	0.57
1004.215	-3.13
1004.64	-5.43
1005.066	2.37
1005.491	-2.43
1005.916	6.17
1006.342	-4.63
1006.767	-3.83
1007.192	2.67
1007.617	-8.13
1008.042	-7.83
1008.468	-7.63
1008.893	-7.83
1009.318	-2.43
1009.743	-7.03
1010.168	2.57
1010.593	-4.53
1011.018	-11.83
1011.443	-3.33
1011.868	0.87
1012.293	-6.33
1012.718	-9.03
1013.143	-7.63
1013.567	4.57
1013.992	-7.03
1014.417	-13.83
1014.842	-1.83
1015.267	-3.93
1015.691	-5.63
1016.116	8.27
1016.541	-3.63
1016.965	0.47
1017.39	1.57
1017.814	-1.33
1018.239	-0.83
1018.663	-8.83
1019.088	-9.13
1019.512	-9.53
1019.937	-5.63
1020.361	-2.53
1020.785	-9.13
1021.21	-7.33
1021.634	-1.13
1022.058	1.67
1022.483	-0.03
1022.907	-7.23
1023.331	1.67
1023.755	-1.73
1024.179	-0.33
1024.604	-11.23
1025.028	-5.93
1025.452	-5.93
1025.876	-3.63
1026.3	3.67
1026.724	-12.13
1027.148	-7.33
1027.572	-10.53
1027.996	-2.93
1028.42	-3.93
1028.843	-9.93
1029.267	-16.23
1029.691	-3.93
1030.115	-9.83
1030.539	-10.43
1030.962	-6.43
1031.386	-12.43
1031.81	-2.63
1032.233	5.77
1032.657	0.97
1033.08	-5.53
1033.504	-9.83
1033.927	-1.63
1034.351	-2.73
1034.774	-13.93
1035.198	-8.53
1035.621	-7.13
1036.045	-9.83
1036.468	-6.63
1036.891	-6.43
1037.315	-10.33
1037.738	-6.63
1038.161	0.87
1038.584	-1.63
1039.008	-9.63
1039.431	-5.53
1039.854	-1.73
1040.277	-7.33
1040.7	-7.63
1041.123	-4.23
1041.546	-16.63
1041.969	-3.33
1042.392	-8.03
1042.815	-3.43
1043.238	-0.13
1043.661	-4.83
1044.084	-4.73
1044.507	-5.73
1044.93	-12.23
1045.352	-9.83
1045.775	0.67
1046.198	-1.13
1046.621	1.17
1047.043	-2.63
1047.466	10.37
1047.889	-5.23
1048.311	-6.83
1048.734	-8.03
1049.156	-3.53
1049.579	-3.73
1050.001	-2.53
1050.424	5.97
1050.846	-2.43
1051.269	-4.03
1051.691	-9.23
1052.113	-13.23
1052.536	-9.43
1052.958	-1.73
1053.38	-1.83
1053.802	-9.03
1054.225	-5.93
1054.647	-13.53
1055.069	-8.03
1055.491	-0.73
1055.913	-11.53
1056.335	-3.13
1056.757	-6.03
1057.179	-4.73
1057.601	-6.23
1058.023	-2.53
1058.445	-9.03
1058.867	-5.33
1059.289	-4.73
1059.711	-7.43
1060.133	-0.93
1060.555	-9.83
1060.976	-3.73
1061.398	-9.63
1061.82	-12.53
1062.241	-8.33
1062.663	-15.43
1063.085	-5.73
1063.506	0.27
1063.928	-2.43
1064.35	1.27
1064.771	-15.73
1065.193	-7.93
1065.614	-6.03
1066.035	-4.83
1066.457	-3.23
1066.878	0.07
1067.3	-3.93
1067.721	-7.03
1068.142	-5.23
1068.564	-7.73
1068.985	-7.83
1069.406	-7.23
1069.827	-3.93
1070.248	-6.43
1070.67	-5.33
1071.091	-7.03
1071.512	-10.33
1071.933	-11.33
1072.354	-5.83
1072.775	-7.83
1073.196	-8.53
1073.617	-10.33
1074.038	-11.93
1074.459	-5.53
1074.88	-16.13
1075.3	3.17
1075.721	-3.93
1076.142	1.47
1076.563	-7.03
1076.983	-9.53
1077.404	-5.53
1077.825	-5.63
1078.246	-5.63
1078.666	-6.13
1079.087	-4.83
1079.507	-9.53
1079.928	-0.53
1080.348	-2.43
1080.769	-7.93
1081.189	-2.03
1081.61	-3.23
1082.03	-6.23
1082.451	-5.23
1082.871	-10.33
1083.291	-2.33
1083.711	-14.43
1084.132	-6.63
1084.552	-2.83
1084.972	-0.23
1085.392	-7.53
1085.813	-13.23
1086.233	-6.93
1086.653	-5.53
1087.073	-2.83
1087.493	-9.83
1087.913	-14.73
1088.333	-8.83
1088.753	-0.53
1089.173	-1.03
1089.593	-8.03
1090.013	0.67
1090.433	0.77
1090.852	-8.13
1091.272	-1.03
1091.692	-6.03
1092.112	0.17
1092.531	-13.13
1092.951	-16.43
1093.371	-0.93
1093.79	-1.03
1094.21	-8.23
1094.63	-11.93
1095.049	-9.63
1095.469	1.57
1095.888	-4.03
1096.308	0.47
1096.727	2.47
1097.146	-12.63
1097.566	-0.93
1097.985	-5.73
1098.405	-5.13
1098.824	-9.93
1099.243	-7.43
1099.662	-12.03
1100.082	-5.33
1100.501	0.67
1100.92	-9.43
1101.339	-7.03
1101.758	-9.43
