Data from 20171114-ORNL-Ar_H_NY_Subt18_08-04-24-992.txt Node
Date: Tue Nov 14 08:04:24 EST 2017
User: Ender
Spectrometer: HR+D1039
Trigger mode: 0
Integration Time (sec): 2.730000E-2
Scans to average: 10
Electric dark correction enabled: true
Nonlinearity correction enabled: false
Boxcar width: 0
XAxis mode: Wavelengths
Number of Pixels in Spectrum: 2048
>>>>>Begin Spectral Data<<<<<
187.836	-0.73
188.309	-0.73
188.782	-0.73
189.255	0.77
189.728	-2.52
190.201	3.17
190.674	2.47
191.147	-0.03
191.619	-5.43
192.092	1.07
192.565	4.97
193.038	3.47
193.511	2.57
193.984	1.97
194.456	-6.83
194.929	-1.62
195.402	-1.93
195.874	-1.43
196.347	1.87
196.82	-4.53
197.292	8.97
197.765	0.67
198.237	-3.03
198.71	0.17
199.182	-0.93
199.655	3.17
200.127	1.27
200.6	1.67
201.072	-0.63
201.544	-5.43
202.017	-3.53
202.489	4.57
202.961	-1.33
203.433	2.17
203.906	-2.43
204.378	-2.43
204.85	-2.33
205.322	-12.13
205.794	5.17
206.266	-2.93
206.739	-2.43
207.211	8.77
207.683	-2.02
208.155	0.07
208.627	-2.23
209.099	-0.33
209.57	-6.93
210.042	1.17
210.514	-3.83
210.986	1.07
211.458	-10.43
211.93	-1.73
212.402	3.47
212.873	-5.03
213.345	-10.33
213.817	-11.43
214.288	-1.13
214.76	-7.23
215.232	-0.43
215.703	2.77
216.175	-1.43
216.646	-4.93
217.118	-4.23
217.589	-4.83
218.061	-2.33
218.532	-3.62
219.004	-0.73
219.475	-4.43
219.946	-0.73
220.418	0.48
220.889	7.47
221.36	6.48
221.832	-2.03
222.303	-10.43
222.774	-0.83
223.245	-13.02
223.717	-3.93
224.188	-2.93
224.659	1.87
225.13	-7.73
225.601	1.07
226.072	4.38
226.543	-1.13
227.014	-1.43
227.485	-1.43
227.956	1.38
228.427	-4.33
228.898	3.88
229.369	-2.33
229.839	-0.33
230.31	-2.13
230.781	3.27
231.252	5.17
231.722	-0.33
232.193	1.88
232.664	-3.12
233.135	5.57
233.605	6.27
234.076	0.07
234.546	0.77
235.017	8.07
235.487	9.77
235.958	-0.83
236.428	0.77
236.899	6.88
237.369	5.57
237.84	-1.93
238.31	6.07
238.78	5.77
239.251	1.77
239.721	6.88
240.191	4.88
240.662	2.57
241.132	3.87
241.602	3.67
242.072	5.07
242.542	8.47
243.013	1.07
243.483	3.17
243.953	9.88
244.423	0.07
244.893	-0.73
245.363	3.97
245.833	8.17
246.303	-1.43
246.773	7.67
247.243	-3.23
247.712	5.17
248.182	11.57
248.652	7.67
249.122	5.67
249.592	16.87
250.061	31.87
250.531	37.17
251.001	24.07
251.471	20.17
251.94	22.87
252.41	10.88
252.879	3.07
253.349	22.27
253.818	12.37
254.288	11.88
254.757	2.27
255.227	8.77
255.696	4.17
256.166	7.07
256.635	4.67
257.105	9.48
257.574	11.87
258.043	16.38
258.513	13.47
258.982	22.67
259.451	8.67
259.92	11.97
260.389	14.97
260.859	23.87
261.328	17.88
261.797	22.27
262.266	8.37
262.735	18.98
263.204	5.67
263.673	-1.23
264.142	8.57
264.611	6.27
265.08	-1.23
265.549	2.57
266.018	9.57
266.487	-5.93
266.955	3.87
267.424	3.57
267.893	10.48
268.362	1.57
268.83	11.47
269.299	13.57
269.768	10.27
270.236	14.57
270.705	9.87
271.174	5.67
271.642	10.47
272.111	18.88
272.579	18.07
273.048	25.57
273.516	25.27
273.985	35.77
274.453	24.07
274.922	19.47
275.39	14.77
275.858	3.07
276.327	10.57
276.795	18.38
277.263	18.07
277.731	34.67
278.2	54.87
278.668	61.27
279.136	53.57
279.604	20.17
280.072	15.88
280.54	18.27
281.008	12.67
281.477	17.67
281.945	13.87
282.413	18.37
282.881	12.07
283.348	13.98
283.816	13.57
284.284	15.17
284.752	23.77
285.22	18.57
285.688	16.27
286.156	21.77
286.623	43.37
287.091	51.77
287.559	25.87
288.026	17.57
288.494	17.17
288.962	10.37
289.429	14.87
289.897	21.77
290.364	19.87
290.832	18.48
291.3	12.07
291.767	23.98
292.234	21.37
292.702	14.57
293.169	20.38
293.637	20.38
294.104	30.47
294.571	11.17
295.039	14.47
295.506	14.17
295.973	16.37
296.44	20.77
296.908	21.98
297.375	22.47
297.842	24.57
298.309	19.47
298.776	17.67
299.243	17.97
299.71	18.47
300.177	23.67
300.644	25.77
301.111	23.38
301.578	27.67
302.045	22.07
302.512	24.88
302.979	26.27
303.446	25.87
303.913	22.48
304.379	21.87
304.846	29.67
305.313	24.97
305.78	25.87
306.246	25.67
306.713	29.77
307.18	28.98
307.646	31.37
308.113	28.97
308.579	29.87
309.046	28.17
309.512	26.27
309.979	21.57
310.445	27.87
310.912	28.77
311.378	29.07
311.845	30.07
312.311	32.07
312.777	33.07
313.244	31.67
313.71	39.37
314.176	34.27
314.642	31.77
315.109	29.27
315.575	35.38
316.041	46.67
316.507	35.67
316.973	38.67
317.439	32.77
317.905	33.88
318.371	34.77
318.837	35.07
319.303	35.37
319.769	39.38
320.235	38.07
320.701	29.17
321.167	38.47
321.633	37.57
322.099	41.07
322.564	40.67
323.03	43.07
323.496	37.38
323.962	42.48
324.427	44.27
324.893	42.17
325.359	44.77
325.824	36.97
326.29	39.57
326.755	35.77
327.221	46.27
327.686	36.47
328.152	42.38
328.617	36.97
329.083	44.47
329.548	49.67
330.014	43.38
330.479	45.47
330.944	46.77
331.41	45.87
331.875	47.67
332.34	44.47
332.805	47.97
333.271	47.97
333.736	45.67
334.201	50.17
334.666	49.67
335.131	53.77
335.596	57.77
336.061	50.57
336.526	38.77
336.991	51.57
337.456	53.27
337.921	49.87
338.386	43.27
338.851	49.27
339.316	45.97
339.781	48.47
340.246	47.97
340.711	45.47
341.175	53.57
341.64	49.07
342.105	55.07
342.569	48.57
343.034	60.07
343.499	57.77
343.963	53.07
344.428	62.77
344.893	59.77
345.357	58.87
345.822	62.97
346.286	64.77
346.751	73.57
347.215	66.77
347.679	69.17
348.144	85.57
348.608	75.77
349.073	66.17
349.537	73.57
350.001	74.57
350.465	88.17
350.93	67.77
351.394	74.07
351.858	75.27
352.322	83.77
352.786	78.98
353.25	93.77
353.715	102.27
354.179	94.87
354.643	117.27
355.107	118.87
355.571	103.27
356.035	100.07
356.498	111.67
356.962	112.97
357.426	124.47
357.89	109.97
358.354	82.67
358.818	78.87
359.281	70.17
359.745	77.57
360.209	71.38
360.673	73.07
361.136	78.77
361.6	88.37
362.064	82.17
362.527	83.47
362.991	82.77
363.454	76.97
363.918	74.37
364.381	75.67
364.845	71.47
365.308	78.87
365.772	81.97
366.235	77.07
366.698	80.87
367.162	82.27
367.625	82.07
368.088	80.57
368.552	81.97
369.015	87.57
369.478	83.27
369.941	97.17
370.404	92.57
370.867	103.67
371.331	102.87
371.794	107.17
372.257	104.97
372.72	104.27
373.183	102.77
373.646	100.07
374.109	99.57
374.572	107.37
375.035	90.27
375.497	104.67
375.96	98.07
376.423	96.67
376.886	105.17
377.349	105.17
377.811	96.88
378.274	107.17
378.737	100.07
379.199	100.27
379.662	106.87
380.125	112.57
380.587	110.77
381.05	114.57
381.512	125.37
381.975	132.77
382.437	119.97
382.9	115.27
383.362	120.07
383.825	132.07
384.287	134.97
384.75	133.47
385.212	131.07
385.674	130.77
386.136	130.67
386.599	115.07
387.061	123.07
387.523	120.67
387.985	125.87
388.447	136.17
388.91	128.97
389.372	146.27
389.834	146.17
390.296	133.97
390.758	142.27
391.22	154.87
391.682	194.77
392.144	274.97
392.606	210.57
393.068	153.17
393.529	153.07
393.991	150.57
394.453	133.07
394.915	149.17
395.377	175.07
395.838	204.38
396.3	146.57
396.762	134.67
397.224	123.67
397.685	120.67
398.147	124.98
398.608	120.97
399.07	114.67
399.531	121.38
399.993	131.17
400.454	139.57
400.916	140.67
401.377	145.88
401.839	139.07
402.3	135.37
402.762	153.27
403.223	167.67
403.684	155.67
404.145	152.67
404.607	145.17
405.068	154.37
405.529	161.17
405.99	163.67
406.451	155.77
406.913	159.37
407.374	155.97
407.835	146.97
408.296	154.17
408.757	163.57
409.218	171.87
409.679	164.07
410.14	166.98
410.601	165.77
411.062	167.57
411.522	178.27
411.983	174.87
412.444	164.47
412.905	164.27
413.366	169.87
413.826	180.97
414.287	194.27
414.748	244.88
415.208	226.97
415.669	196.97
416.13	188.17
416.59	187.77
417.051	191.67
417.511	206.17
417.972	217.27
418.432	223.67
418.893	257.67
419.353	230.87
419.814	182.57
420.274	165.47
420.734	170.47
421.195	179.47
421.655	182.07
422.115	174.97
422.576	175.37
423.036	182.57
423.496	190.87
423.956	202.27
424.416	214.47
424.876	244.57
425.336	233.77
425.797	238.48
426.257	235.77
426.717	217.77
427.177	216.58
427.637	200.87
428.097	211.97
428.556	221.77
429.016	247.47
429.476	240.57
429.936	244.07
430.396	251.88
430.856	263.67
431.315	285.87
431.775	320.07
432.235	342.88
432.694	326.48
433.154	332.88
433.614	346.37
434.073	305.48
434.533	258.37
434.993	238.17
435.452	256.07
435.912	264.27
436.371	262.57
436.83	253.37
437.29	242.57
437.749	219.27
438.209	217.77
438.668	239.57
439.127	256.27
439.587	233.07
440.046	220.77
440.505	236.98
440.964	252.67
441.424	283.48
441.883	277.77
442.342	233.57
442.801	198.27
443.26	204.38
443.719	206.67
444.178	197.88
444.637	192.68
445.096	200.48
445.555	204.57
446.014	202.77
446.473	214.88
446.932	205.77
447.391	209.67
447.849	209.67
448.308	198.27
448.767	200.77
449.226	208.48
449.685	224.07
450.143	223.17
450.602	211.37
451.061	202.38
451.519	214.68
451.978	207.07
452.436	214.77
452.895	224.27
453.353	223.98
453.812	217.98
454.27	215.97
454.729	223.77
455.187	216.47
455.646	223.98
456.104	224.08
456.562	237.67
457.021	241.97
457.479	236.17
457.937	254.87
458.395	235.67
458.854	227.67
459.312	231.58
459.77	237.67
460.228	234.17
460.686	222.67
461.144	226.67
461.602	221.67
462.06	225.87
462.518	225.67
462.976	231.67
463.434	231.77
463.892	240.67
464.35	257.07
464.808	267.27
465.266	248.47
465.724	249.07
466.181	255.58
466.639	242.97
467.097	266.27
467.555	277.67
468.012	285.57
468.47	279.58
468.928	303.27
469.385	310.07
469.843	313.47
470.3	305.68
470.758	326.58
471.215	349.17
471.673	363.77
472.13	370.48
472.588	374.67
473.045	333.77
473.503	345.18
473.96	358.67
474.417	368.17
474.875	394.67
475.332	430.58
475.789	415.48
476.246	421.37
476.704	441.48
477.161	461.77
477.618	472.67
478.075	502.57
478.532	555.77
478.989	619.08
479.446	726.77
479.903	703.48
480.36	726.27
480.817	776.57
481.274	883.97
481.731	974.28
482.188	1068.57
482.645	1204.47
483.102	1292.88
483.558	1422.77
484.015	1472.67
484.472	1449.47
484.929	1398.17
485.385	1359.57
485.842	1317.97
486.299	1244.47
486.755	1175.37
487.212	997.28
487.668	849.67
488.125	775.07
488.582	713.98
489.038	684.07
489.494	657.37
489.951	630.38
490.407	610.27
490.864	586.07
491.32	588.47
491.776	589.58
492.233	588.17
492.689	558.58
493.145	540.98
493.602	538.67
494.058	563.47
494.514	557.18
494.97	573.48
495.426	590.08
495.882	555.67
496.338	554.67
496.794	575.47
497.251	565.77
497.707	581.18
498.163	578.07
498.618	584.57
499.074	588.88
499.53	613.17
499.986	611.97
500.442	589.68
500.898	575.98
501.354	560.17
501.809	575.37
502.265	590.97
502.721	601.77
503.177	618.68
503.632	601.88
504.088	613.67
504.543	640.57
504.999	639.08
505.455	596.77
505.91	571.77
506.366	581.17
506.821	562.77
507.277	568.97
507.732	565.27
508.187	568.07
508.643	576.97
509.098	574.47
509.553	595.27
510.009	605.37
510.464	611.27
510.919	624.88
511.375	630.48
511.83	643.97
512.285	643.67
512.74	691.97
513.195	712.58
513.65	699.68
514.105	701.67
514.56	699.37
515.015	720.77
515.47	733.58
515.925	730.27
516.38	717.57
516.835	724.97
517.29	709.87
517.745	702.27
518.2	694.07
518.655	687.87
519.109	682.77
519.564	676.17
520.019	665.67
520.474	660.98
520.928	661.77
521.383	656.37
521.838	651.97
522.292	647.88
522.747	638.27
523.201	630.47
523.656	627.77
524.11	630.27
524.565	628.88
525.019	628.98
525.474	631.17
525.928	638.87
526.382	630.57
526.837	615.88
527.291	630.17
527.745	630.27
528.2	636.87
528.654	624.58
529.108	615.57
529.562	620.57
530.016	620.27
530.47	622.88
530.925	628.07
531.379	628.27
531.833	631.87
532.287	637.87
532.741	627.18
533.195	634.67
533.649	643.57
534.103	657.08
534.556	639.97
535.01	651.87
535.464	644.27
535.918	644.77
536.372	658.57
536.826	640.17
537.279	623.27
537.733	633.77
538.187	644.57
538.64	650.37
539.094	664.17
539.548	654.17
540.001	656.07
540.455	652.17
540.908	658.27
541.362	664.08
541.815	670.97
542.269	677.77
542.722	680.27
543.175	694.07
543.629	685.87
544.082	709.47
544.536	708.67
544.989	698.98
545.442	723.57
545.895	706.67
546.349	708.48
546.802	698.67
547.255	710.07
547.708	714.27
548.161	719.97
548.614	733.77
549.067	737.58
549.52	730.27
549.973	717.38
550.426	720.57
550.879	709.57
551.332	707.98
551.785	721.67
552.238	719.27
552.691	731.57
553.144	733.27
553.596	750.57
554.049	776.07
554.502	788.47
554.955	813.67
555.407	809.97
555.86	794.97
556.313	784.17
556.765	786.07
557.218	788.98
557.67	786.47
558.123	782.77
558.576	764.38
559.028	773.98
559.48	785.57
559.933	772.58
560.385	743.87
560.838	713.97
561.29	690.17
561.742	686.48
562.195	677.97
562.647	672.48
563.099	684.47
563.551	677.88
564.004	688.77
564.456	684.98
564.908	675.47
565.36	664.38
565.812	647.57
566.264	639.07
566.716	638.27
567.168	631.17
567.62	640.27
568.072	616.58
568.524	609.87
568.976	604.57
569.428	593.77
569.88	589.17
570.332	593.07
570.784	597.97
571.235	598.57
571.687	597.27
572.139	613.97
572.59	622.37
573.042	628.57
573.494	619.17
573.945	621.57
574.397	606.27
574.849	617.47
575.3	609.97
575.752	604.97
576.203	590.47
576.655	600.97
577.106	588.38
577.557	576.87
578.009	581.18
578.46	584.98
578.912	575.17
579.363	569.58
579.814	583.77
580.265	578.27
580.717	581.77
581.168	584.27
581.619	591.68
582.07	589.77
582.521	588.77
582.972	584.27
583.423	585.87
583.875	599.67
584.326	615.57
584.777	648.67
585.227	722.57
585.678	797.07
586.129	875.17
586.58	940.08
587.031	1025.47
587.482	1183.27
587.933	1332.87
588.384	1155.78
588.834	862.47
589.285	693.98
589.736	676.97
590.186	671.67
590.637	666.88
591.088	643.48
591.538	635.58
591.989	637.67
592.439	622.67
592.89	623.97
593.34	606.27
593.791	615.67
594.241	610.48
594.692	615.08
595.142	607.58
595.593	608.38
596.043	605.17
596.493	607.67
596.943	613.37
597.394	621.27
597.844	607.08
598.294	631.57
598.744	646.57
599.195	667.27
599.645	697.77
600.095	732.27
600.545	784.07
600.995	820.57
601.445	881.87
601.895	938.87
602.345	969.48
602.795	947.77
603.245	920.77
603.695	866.98
604.145	835.27
604.594	784.77
605.044	731.67
605.494	677.87
605.944	653.97
606.393	630.87
606.843	621.77
607.293	628.18
607.743	622.97
608.192	636.07
608.642	641.58
609.091	653.07
609.541	656.07
609.99	652.07
610.44	652.87
610.889	604.48
611.339	586.77
611.788	591.48
612.238	604.57
612.687	620.67
613.136	616.27
613.586	622.37
614.035	626.27
614.484	643.47
614.933	644.77
615.383	637.47
615.832	627.37
616.281	616.77
616.73	579.27
617.179	570.17
617.628	550.87
618.077	532.38
618.526	529.57
618.975	521.17
619.424	525.67
619.873	519.57
620.322	526.97
620.771	509.77
621.22	516.87
621.669	504.98
622.118	497.07
622.567	486.18
623.015	482.88
623.464	478.88
623.913	468.87
624.361	466.77
624.81	459.88
625.259	469.18
625.707	470.87
626.156	465.88
626.604	475.77
627.053	475.47
627.501	479.57
627.95	476.48
628.398	481.17
628.847	477.27
629.295	473.97
629.744	481.07
630.192	472.37
630.64	485.37
631.089	472.07
631.537	478.38
631.985	492.77
632.433	498.08
632.881	498.87
633.33	551.37
633.778	528.97
634.226	473.18
634.674	474.87
635.122	489.48
635.57	495.67
636.018	527.88
636.466	488.58
636.914	463.58
637.362	483.87
637.81	487.07
638.258	489.57
638.705	479.17
639.153	507.38
639.601	519.77
640.049	542.57
640.497	562.07
640.944	583.37
641.392	541.17
641.84	512.27
642.287	486.08
642.735	474.67
643.182	477.37
643.63	483.67
644.078	477.68
644.525	495.97
644.973	484.47
645.42	505.57
645.867	511.67
646.315	527.87
646.762	556.98
647.21	574.68
647.657	593.87
648.104	626.88
648.551	645.27
648.999	698.17
649.446	761.88
649.893	815.98
650.34	965.57
650.787	1159.17
651.234	1416.88
651.682	1834.67
652.129	2508.47
652.576	3633.17
653.023	5391.98
653.47	7436.98
653.917	9396.08
654.363	11049.98
654.81	12366.78
655.257	11768.58
655.704	7628.48
656.151	4458.98
656.598	2899.38
657.044	2047.97
657.491	1566.78
657.938	1265.97
658.385	1038.17
658.831	903.87
659.278	808.47
659.724	711.98
660.171	665.77
660.618	597.57
661.064	563.48
661.511	550.77
661.957	533.57
662.404	529.38
662.85	528.27
663.296	507.97
663.743	462.97
664.189	446.57
664.635	443.47
665.082	441.27
665.528	435.48
665.974	422.88
666.42	424.98
666.867	411.88
667.313	407.08
667.759	397.67
668.205	407.98
668.651	406.87
669.097	394.57
669.543	417.87
669.989	391.07
670.435	371.37
670.881	364.57
671.327	376.07
671.773	386.17
672.219	406.57
672.665	450.77
673.11	477.17
673.556	506.17
674.002	553.08
674.448	535.17
674.893	454.58
675.339	393.67
675.785	357.77
676.23	350.87
676.676	321.88
677.122	308.48
677.567	307.57
678.013	300.38
678.458	296.77
678.904	297.07
679.349	282.27
679.794	283.17
680.24	291.87
680.685	278.88
681.131	281.38
681.576	280.27
682.021	288.08
682.466	291.87
682.912	279.67
683.357	284.17
683.802	307.77
684.247	336.87
684.692	366.57
685.137	399.38
685.583	442.47
686.028	464.97
686.473	418.27
686.918	361.57
687.363	335.37
687.807	324.98
688.252	299.57
688.697	285.27
689.142	278.47
689.587	272.27
690.032	263.87
690.477	280.57
690.921	289.98
691.366	307.47
691.811	320.48
692.255	348.97
692.7	379.38
693.145	404.68
693.589	555.27
694.034	892.97
694.478	1237.58
694.923	1439.17
695.367	1906.07
695.812	986.17
696.256	415.87
696.701	302.37
697.145	280.47
697.59	263.37
698.034	268.97
698.478	270.77
698.922	270.18
699.367	269.67
699.811	268.07
700.255	288.68
700.699	313.47
701.143	343.18
701.588	385.57
702.032	427.58
702.476	425.27
702.92	402.68
703.364	397.47
703.808	501.87
704.252	816.77
704.696	1176.17
705.14	1382.67
705.584	1780.07
706.027	871.37
706.471	426.37
706.915	323.27
707.359	284.38
707.803	258.07
708.246	253.27
708.69	257.07
709.134	257.97
709.577	249.97
710.021	263.07
710.465	253.37
710.908	245.07
711.352	242.58
711.795	255.27
712.239	283.17
712.682	305.87
713.126	339.77
713.569	375.97
714.012	303.88
714.456	270.07
714.899	240.97
715.342	219.27
715.786	212.08
716.229	210.37
716.672	212.67
717.115	202.08
717.558	203.57
718.002	209.98
718.445	217.77
718.888	233.57
719.331	237.68
719.774	257.77
720.217	248.27
720.66	235.48
721.103	218.77
721.546	204.27
721.989	203.27
722.432	189.38
722.874	190.57
723.317	185.47
723.76	193.47
724.203	203.57
724.645	254.97
725.088	350.57
725.531	460.07
725.974	527.77
726.416	447.07
726.859	253.48
727.301	201.08
727.744	194.27
728.187	188.57
728.629	196.57
729.071	195.88
729.514	213.47
729.956	225.37
730.399	222.47
730.841	233.37
731.283	223.57
731.726	213.87
732.168	211.47
732.61	216.47
733.053	237.98
733.495	250.57
733.937	283.48
734.379	324.97
734.821	358.08
735.263	426.67
735.705	650.97
736.148	1228.47
736.59	2075.18
737.032	2552.57
737.474	2077.27
737.916	669.27
738.357	342.77
738.799	266.67
739.241	245.57
739.683	229.27
740.125	238.88
740.567	235.77
741.008	256.27
741.45	257.88
741.892	254.47
742.334	282.77
742.775	287.67
743.217	274.77
743.658	220.17
744.1	207.98
744.542	211.88
744.983	255.38
745.425	281.48
745.866	282.77
746.307	234.67
746.749	229.38
747.19	259.07
747.632	358.37
748.073	687.77
748.514	1463.27
748.956	2307.17
749.397	2891.97
749.838	2421.38
750.279	2483.38
750.72	1246.77
751.162	445.88
751.603	262.17
752.044	205.67
752.485	171.67
752.926	165.57
753.367	164.47
753.808	158.57
754.249	157.87
754.69	154.97
755.131	152.88
755.572	148.87
756.013	148.57
756.453	147.27
756.894	153.38
757.335	151.88
757.776	156.47
758.216	153.57
758.657	167.38
759.098	157.88
759.538	189.17
759.979	209.07
760.42	293.38
760.86	550.97
761.301	1408.37
761.741	3520.47
762.182	5461.77
762.622	3830.87
763.063	1073.38
763.503	441.77
763.943	277.67
764.384	276.87
764.824	336.27
765.264	373.77
765.705	258.57
766.145	170.37
766.585	147.27
767.025	151.07
767.465	146.17
767.906	199.58
768.346	264.48
768.786	286.87
769.226	210.17
769.666	255.87
770.106	476.77
770.546	1197.88
770.986	2184.57
771.426	1994.77
771.866	652.48
772.306	263.97
772.745	170.77
773.185	143.67
773.625	139.47
774.065	131.57
774.505	164.37
774.944	248.67
775.384	543.98
775.824	1027.58
776.263	1025.57
776.703	433.98
777.142	177.38
777.582	131.27
778.021	113.38
778.461	111.27
778.9	111.17
779.34	108.07
779.779	87.38
780.219	86.27
780.658	79.47
781.097	92.97
781.537	95.07
781.976	93.67
782.415	82.37
782.855	90.67
783.294	87.57
783.733	87.07
784.172	88.57
784.611	84.87
785.05	88.07
785.489	96.57
785.928	96.87
786.367	98.67
786.806	93.87
787.245	104.27
787.684	106.27
788.123	124.47
788.562	114.47
789.001	106.98
789.44	103.47
789.879	95.17
790.317	90.97
790.756	101.17
791.195	104.98
791.634	117.88
792.072	160.98
792.511	277.77
792.95	777.37
793.388	1766.77
793.827	1647.97
794.265	555.67
794.704	219.58
795.142	152.98
795.581	126.87
796.019	107.97
796.458	105.88
796.896	106.88
797.334	105.47
797.773	122.17
798.211	169.57
798.649	340.47
799.087	809.98
799.526	1292.28
799.964	1632.77
800.402	1715.97
800.84	623.57
801.278	241.27
801.716	145.17
802.154	125.87
802.592	119.88
803.03	110.88
803.468	106.48
803.906	118.07
804.344	121.38
804.782	116.88
805.22	106.37
805.658	105.47
806.096	119.77
806.533	131.07
806.971	142.27
807.409	180.17
807.847	248.98
808.284	513.27
808.722	1488.27
809.16	2734.07
809.597	2512.18
810.035	4442.28
810.472	4957.58
810.91	1761.28
811.347	655.18
811.785	337.77
812.222	212.67
812.66	157.77
813.097	136.27
813.535	115.27
813.972	109.67
814.409	96.67
814.846	91.17
815.284	82.87
815.721	81.97
816.158	87.77
816.595	93.07
817.032	145.57
817.47	168.77
817.907	143.77
818.344	123.97
818.781	99.48
819.218	83.38
819.655	100.57
820.092	151.87
820.529	178.07
820.966	151.57
821.403	110.97
821.839	89.07
822.276	80.88
822.713	100.17
823.15	109.98
823.587	97.47
824.023	118.17
824.46	229.57
824.897	709.38
825.333	1124.57
825.77	486.27
826.206	183.17
826.643	102.27
827.08	86.07
827.516	71.98
827.953	62.07
828.389	68.37
828.825	55.37
829.262	59.47
829.698	50.37
830.135	44.27
830.571	50.67
831.007	53.38
831.443	48.77
831.88	53.07
832.316	56.87
832.752	51.17
833.188	48.48
833.624	50.38
834.06	64.47
834.497	56.17
834.933	59.27
835.369	62.27
835.805	53.97
836.241	60.57
836.677	64.77
837.112	69.87
837.548	76.17
837.984	105.17
838.42	156.67
838.856	382.27
839.292	1224.77
839.727	1956.08
840.163	891.98
840.599	734.38
841.034	1648.97
841.47	1814.38
841.906	651.57
842.341	272.38
842.777	190.27
843.212	263.57
843.648	263.67
844.083	128.77
844.519	82.57
844.954	63.27
845.39	44.47
845.825	43.77
846.261	50.57
846.696	46.97
847.131	42.88
847.566	51.47
848.002	43.27
848.437	42.97
848.872	46.38
849.307	47.67
849.742	66.67
850.177	143.67
850.613	442.27
851.048	741.37
851.483	311.87
851.918	123.07
852.353	68.17
852.788	50.27
853.223	45.77
853.657	43.77
854.092	33.27
854.527	32.17
854.962	32.97
855.397	32.57
855.832	41.27
856.266	40.57
856.701	38.07
857.136	26.67
857.57	35.57
858.005	44.17
858.44	49.07
858.874	34.98
859.309	40.57
859.743	30.57
860.178	38.87
860.612	34.47
861.047	40.77
861.481	56.87
861.915	57.17
862.35	46.07
862.784	27.97
863.218	36.07
863.653	30.07
864.087	38.97
864.521	45.27
864.955	55.48
865.39	121.37
865.824	145.48
866.258	96.88
866.692	136.27
867.126	151.37
867.56	86.47
867.994	47.87
868.428	32.47
868.862	41.57
869.296	55.27
869.73	53.37
870.164	42.67
870.598	35.27
871.031	34.97
871.465	28.07
871.899	31.88
872.333	14.77
872.766	18.07
873.2	23.37
873.634	28.57
874.067	24.07
874.501	23.17
874.935	30.17
875.368	29.47
875.802	17.67
876.235	17.17
876.669	18.57
877.102	24.97
877.535	22.17
877.969	18.57
878.402	15.17
878.836	14.47
879.269	19.98
879.702	16.37
880.135	14.07
880.569	12.17
881.002	23.67
881.435	18.27
881.868	17.57
882.301	19.77
882.734	14.77
883.167	17.57
883.601	15.57
884.034	19.67
884.467	11.98
884.899	19.37
885.332	10.57
885.765	15.88
886.198	13.27
886.631	15.87
887.064	14.57
887.497	21.47
887.929	24.97
888.362	4.17
888.795	6.67
889.228	13.37
889.66	24.47
890.093	16.27
890.526	8.27
890.958	16.48
891.391	14.88
891.823	19.27
892.256	11.17
892.688	9.77
893.121	13.67
893.553	10.27
893.985	19.97
894.418	12.47
894.85	13.77
895.282	14.77
895.715	11.47
896.147	8.38
896.579	13.77
897.011	6.67
897.444	15.57
897.876	8.07
898.308	16.47
898.74	7.98
899.172	7.67
899.604	20.48
900.036	14.67
900.468	9.27
900.9	15.47
901.332	13.17
901.764	12.47
902.196	16.67
902.628	17.57
903.06	18.37
903.491	21.47
903.923	18.77
904.355	14.48
904.787	18.37
905.218	18.48
905.65	18.47
906.082	11.07
906.513	7.27
906.945	12.97
907.376	15.17
907.808	14.87
908.239	15.88
908.671	12.57
909.102	22.38
909.534	21.57
909.965	42.97
910.397	75.37
910.828	255.67
911.259	406.87
911.691	184.67
912.122	91.98
912.553	40.27
912.984	32.38
913.415	18.77
913.847	25.17
914.278	12.47
914.709	12.27
915.14	15.77
915.571	12.77
916.002	10.07
916.433	14.98
916.864	11.97
917.295	10.47
917.726	21.87
918.157	8.97
918.587	28.87
919.018	17.57
919.449	15.48
919.88	23.87
920.311	23.77
920.741	38.07
921.172	138.07
921.603	127.97
922.033	55.47
922.464	39.07
922.895	17.37
923.325	13.47
923.756	14.47
924.186	14.27
924.617	20.88
925.047	35.77
925.478	45.57
925.908	40.47
926.338	20.47
926.769	14.48
927.199	16.67
927.629	4.97
928.06	15.47
928.49	9.67
928.92	9.37
929.35	8.17
929.78	12.87
930.21	-0.23
930.641	6.77
931.071	3.07
931.501	1.17
931.931	6.07
932.361	11.88
932.791	7.27
933.221	9.67
933.651	2.27
934.08	14.57
934.51	23.17
934.94	10.27
935.37	10.07
935.8	13.87
936.229	9.47
936.659	10.07
937.089	6.17
937.519	12.07
937.948	27.67
938.378	10.38
938.807	8.77
939.237	-0.62
939.666	9.17
940.096	-4.83
940.525	-0.23
940.955	-1.02
941.384	2.17
941.814	-8.43
942.243	-1.83
942.672	1.27
943.102	-0.83
943.531	7.17
943.96	4.87
944.39	3.87
944.819	4.07
945.248	1.97
945.677	1.87
946.106	5.88
946.535	1.37
946.964	-4.13
947.393	4.77
947.822	5.77
948.251	-2.73
948.68	4.38
949.109	5.77
949.538	3.38
949.967	1.07
950.396	3.47
950.825	-0.43
951.254	4.27
951.682	-9.23
952.111	0.17
952.54	5.47
952.969	-4.03
953.397	-8.03
953.826	-6.13
954.254	-7.93
954.683	2.97
955.112	6.57
955.54	2.67
955.969	8.77
956.397	3.47
956.826	-5.33
957.254	-4.62
957.682	-0.23
958.111	6.77
958.539	-4.62
958.967	1.77
959.396	-5.73
959.824	1.38
960.252	4.07
960.68	-2.93
961.109	-5.03
961.537	-5.53
961.965	4.17
962.393	1.17
962.821	-2.83
963.249	-1.03
963.677	9.38
964.105	6.27
964.533	43.48
964.961	33.67
965.389	17.17
965.817	11.17
966.245	-1.43
966.672	-0.93
967.1	-9.02
967.528	2.27
967.956	-2.02
968.383	-3.53
968.811	0.88
969.239	-1.93
969.666	-5.43
970.094	-2.23
970.522	4.17
970.949	-2.83
971.377	-3.93
971.804	-2.03
972.232	-0.83
972.659	-4.73
973.087	-2.93
973.514	-4.63
973.941	-7.73
974.369	6.67
974.796	3.88
975.223	2.17
975.651	-10.33
976.078	8.97
976.505	-2.53
976.932	4.57
977.359	10.57
977.786	15.77
978.214	-5.03
978.641	-6.53
979.068	1.07
979.495	-2.03
979.922	4.17
980.349	-0.13
980.776	0.27
981.202	0.37
981.629	5.37
982.056	5.87
982.483	-1.83
982.91	3.67
983.337	-3.73
983.763	6.37
984.19	-5.33
984.617	-2.53
985.043	-1.23
985.47	-2.93
985.897	-1.73
986.323	-6.73
986.75	7.57
987.176	-2.23
987.603	-0.23
988.029	-1.13
988.456	-3.43
988.882	1.27
989.308	-9.43
989.735	4.07
990.161	-1.13
990.587	-3.83
991.014	0.17
991.44	4.57
991.866	-0.93
992.292	2.27
992.719	-3.53
993.145	2.47
993.571	-7.02
993.997	-3.03
994.423	-8.23
994.849	-3.43
995.275	3.77
995.701	0.67
996.127	-6.63
996.553	-3.62
996.979	2.67
997.405	-2.52
997.83	-5.33
998.256	-2.83
998.682	-5.93
999.108	-5.23
999.534	-1.23
999.959	1.47
1000.385	-0.23
1000.811	-2.53
1001.236	-4.53
1001.662	-5.43
1002.087	-9.73
1002.513	1.67
1002.938	1.98
1003.364	1.67
1003.789	-0.93
1004.215	1.47
1004.64	-3.43
1005.066	-1.12
1005.491	2.88
1005.916	-2.23
1006.342	-5.12
1006.767	-7.53
1007.192	4.77
1007.617	-10.03
1008.042	1.07
1008.468	-4.43
1008.893	-4.73
1009.318	-5.43
1009.743	-1.93
1010.168	-2.13
1010.593	-1.93
1011.018	-10.93
1011.443	-2.53
1011.868	1.98
1012.293	-5.23
1012.718	-10.33
1013.143	0.07
1013.567	-3.13
1013.992	-4.13
1014.417	-9.63
1014.842	1.07
1015.267	-4.83
1015.691	-2.12
1016.116	5.37
1016.541	-2.93
1016.965	-0.23
1017.39	-1.93
1017.814	-3.83
1018.239	0.67
1018.663	-3.83
1019.088	-4.83
1019.512	-5.83
1019.937	-1.63
1020.361	-3.63
1020.785	-9.13
1021.21	-0.83
1021.634	-6.12
1022.058	-2.23
1022.483	6.87
1022.907	-1.13
1023.331	-3.23
1023.755	-4.33
1024.179	1.17
1024.604	-1.73
1025.028	-4.43
1025.452	-2.23
1025.876	3.27
1026.3	0.07
1026.724	-8.13
1027.148	-3.03
1027.572	-5.23
1027.996	-4.03
1028.42	0.87
1028.843	-4.23
1029.267	-6.13
1029.691	0.27
1030.115	-5.43
1030.539	-5.63
1030.962	-6.63
1031.386	-13.83
1031.81	3.57
1032.233	-1.12
1032.657	-5.02
1033.08	-2.63
1033.504	-1.33
1033.927	-1.02
1034.351	-0.43
1034.774	-8.73
1035.198	-0.83
1035.621	-10.02
1036.045	-9.33
1036.468	-1.83
1036.891	-8.93
1037.315	-4.43
1037.738	-9.83
1038.161	3.77
1038.584	-7.73
1039.008	-3.83
1039.431	-0.73
1039.854	-2.13
1040.277	-10.83
1040.7	-9.43
1041.123	4.47
1041.546	-2.02
1041.969	-3.83
1042.392	-4.13
1042.815	-2.03
1043.238	-3.03
1043.661	-1.23
1044.084	-2.93
1044.507	-1.93
1044.93	-0.83
1045.352	-7.13
1045.775	-3.03
1046.198	1.77
1046.621	2.88
1047.043	-1.12
1047.466	4.38
1047.889	-2.83
1048.311	-6.12
1048.734	-2.93
1049.156	-4.93
1049.579	-1.73
1050.001	-2.23
1050.424	6.77
1050.846	0.87
1051.269	-8.02
1051.691	-7.33
1052.113	-2.73
1052.536	-3.93
1052.958	-0.23
1053.38	2.67
1053.802	-3.23
1054.225	3.27
1054.647	-11.83
1055.069	-7.13
1055.491	5.38
1055.913	-7.73
1056.335	0.77
1056.757	-5.83
1057.179	-3.23
1057.601	-6.83
1058.023	1.27
1058.445	-3.13
1058.867	-8.83
1059.289	-7.53
1059.711	-6.83
1060.133	-7.03
1060.555	-6.83
1060.976	-7.43
1061.398	-6.03
1061.82	-10.33
1062.241	-6.83
1062.663	-9.03
1063.085	-5.03
1063.506	-3.43
1063.928	-6.03
1064.35	-1.83
1064.771	-15.43
1065.193	2.77
1065.614	-5.23
1066.035	0.07
1066.457	-2.83
1066.878	1.07
1067.3	-0.13
1067.721	-3.43
1068.142	-6.83
1068.564	-1.73
1068.985	-9.13
1069.406	-2.93
1069.827	-3.13
1070.248	2.97
1070.67	-8.53
1071.091	-4.23
1071.512	-1.23
1071.933	-3.33
1072.354	-5.23
1072.775	-4.33
1073.196	-3.03
1073.617	0.77
1074.038	-5.12
1074.459	-4.33
1074.88	-3.62
1075.3	3.17
1075.721	-4.43
1076.142	2.17
1076.563	-3.73
1076.983	-12.93
1077.404	-13.52
1077.825	-3.73
1078.246	-6.73
1078.666	-3.73
1079.087	-3.73
1079.507	-3.23
1079.928	-3.73
1080.348	2.17
1080.769	-4.03
1081.189	-0.52
1081.61	-4.93
1082.03	-5.63
1082.451	-2.23
1082.871	-3.12
1083.291	-6.43
1083.711	-9.43
1084.132	-3.03
1084.552	2.87
1084.972	-2.93
1085.392	-4.63
1085.813	-13.23
1086.233	-2.63
1086.653	-8.43
1087.073	-5.73
1087.493	-10.03
1087.913	-4.43
1088.333	-7.03
1088.753	-6.63
1089.173	5.47
1089.593	-0.93
1090.013	2.07
1090.433	3.07
1090.852	-1.13
1091.272	-1.03
1091.692	1.67
1092.112	-1.83
1092.531	-14.33
1092.951	-10.73
1093.371	-4.23
1093.79	4.07
1094.21	-1.83
1094.63	-3.33
1095.049	-7.33
1095.469	-1.43
1095.888	1.87
1096.308	3.07
1096.727	6.67
1097.146	-6.62
1097.566	6.27
1097.985	-6.13
1098.405	-1.83
1098.824	-16.73
1099.243	-9.53
1099.662	-7.13
1100.082	-2.73
1100.501	-1.13
1100.92	-6.93
1101.339	-4.43
1101.758	-2.43
