Data from 20171114-ORNL-Ar_H_NY_Subt18_08-05-32-417.txt Node
Date: Tue Nov 14 08:05:32 EST 2017
User: Ender
Spectrometer: HR+D1039
Trigger mode: 0
Integration Time (sec): 2.730000E-2
Scans to average: 10
Electric dark correction enabled: true
Nonlinearity correction enabled: false
Boxcar width: 0
XAxis mode: Wavelengths
Number of Pixels in Spectrum: 2048
>>>>>Begin Spectral Data<<<<<
187.836	-3.04
188.309	-3.04
188.782	-3.04
189.255	3.76
189.728	2.96
190.201	2.86
190.674	-1.24
191.147	3.86
191.619	-5.14
192.092	1.86
192.565	2.26
193.038	-0.64
193.511	0.76
193.984	0.76
194.456	-3.94
194.929	-2.84
195.402	-3.44
195.874	1.16
196.347	-0.04
196.82	-6.64
197.292	4.36
197.765	-3.04
198.237	0.06
198.71	-0.14
199.182	-0.14
199.655	0.26
200.127	4.46
200.6	-1.44
201.072	-3.84
201.544	0.56
202.017	-3.04
202.489	4.66
202.961	-0.54
203.433	-5.24
203.906	-2.44
204.378	-1.44
204.85	-7.74
205.322	-5.44
205.794	-1.44
206.266	-2.84
206.739	-4.24
207.211	7.36
207.683	-0.04
208.155	1.96
208.627	-5.44
209.099	-4.84
209.57	-11.14
210.042	-5.54
210.514	-4.64
210.986	-7.74
211.458	-4.94
211.93	-1.24
212.402	2.56
212.873	0.36
213.345	-8.54
213.817	-5.84
214.288	-3.84
214.76	-13.84
215.232	-10.44
215.703	-1.74
216.175	-5.24
216.646	-2.34
217.118	-4.74
217.589	-1.54
218.061	3.26
218.532	-5.64
219.004	4.66
219.475	-6.94
219.946	4.06
220.418	-2.14
220.889	7.66
221.36	2.16
221.832	-3.24
222.303	-5.24
222.774	0.56
223.245	-6.94
223.717	-6.84
224.188	-1.44
224.659	-7.24
225.13	-8.34
225.601	-4.64
226.072	4.16
226.543	3.16
227.014	5.46
227.485	0.26
227.956	-2.84
228.427	-0.24
228.898	8.46
229.369	7.06
229.839	-1.14
230.31	-10.24
230.781	5.16
231.252	-6.24
231.722	-6.74
232.193	-2.04
232.664	2.56
233.135	-1.94
233.605	2.56
234.076	-8.24
234.546	3.06
235.017	8.26
235.487	1.26
235.958	1.66
236.428	-7.04
236.899	6.16
237.369	8.06
237.84	-1.54
238.31	4.66
238.78	4.66
239.251	0.96
239.721	5.96
240.191	3.86
240.662	-1.04
241.132	11.36
241.602	-1.04
242.072	3.06
242.542	4.66
243.013	3.56
243.483	10.96
243.953	6.66
244.423	1.06
244.893	-0.64
245.363	8.46
245.833	4.26
246.303	4.36
246.773	8.16
247.243	5.56
247.712	9.06
248.182	10.16
248.652	12.66
249.122	-0.44
249.592	15.66
250.061	23.16
250.531	35.06
251.001	15.16
251.471	21.76
251.94	19.76
252.41	9.46
252.879	-2.14
253.349	14.66
253.818	10.86
254.288	4.96
254.757	5.76
255.227	2.36
255.696	7.86
256.166	12.66
256.635	5.56
257.105	8.26
257.574	4.46
258.043	12.06
258.513	12.06
258.982	18.46
259.451	12.56
259.92	16.56
260.389	11.26
260.859	17.16
261.328	12.86
261.797	20.16
262.266	7.96
262.735	12.46
263.204	10.96
263.673	2.36
264.142	11.96
264.611	1.86
265.08	1.06
265.549	-1.04
266.018	6.36
266.487	3.76
266.955	-0.14
267.424	6.56
267.893	7.66
268.362	4.56
268.83	4.56
269.299	15.26
269.768	13.96
270.236	8.46
270.705	9.16
271.174	12.46
271.642	12.46
272.111	17.66
272.579	25.06
273.048	23.56
273.516	31.96
273.985	30.76
274.453	23.96
274.922	15.76
275.39	8.36
275.858	2.66
276.327	13.06
276.795	24.16
277.263	13.06
277.731	39.36
278.2	56.76
278.668	61.06
279.136	56.36
279.604	24.96
280.072	17.96
280.54	13.66
281.008	13.56
281.477	21.76
281.945	16.06
282.413	16.16
282.881	22.16
283.348	9.26
283.816	22.56
284.284	17.16
284.752	21.66
285.22	15.16
285.688	15.76
286.156	23.96
286.623	44.56
287.091	50.76
287.559	26.46
288.026	21.86
288.494	23.06
288.962	12.76
289.429	12.46
289.897	25.76
290.364	17.56
290.832	20.96
291.3	15.36
291.767	20.06
292.234	16.66
292.702	17.36
293.169	20.46
293.637	27.36
294.104	25.36
294.571	11.26
295.039	14.76
295.506	17.46
295.973	18.76
296.44	16.96
296.908	23.16
297.375	23.56
297.842	26.66
298.309	17.76
298.776	15.66
299.243	23.56
299.71	19.86
300.177	30.46
300.644	24.86
301.111	26.86
301.578	26.36
302.045	25.96
302.512	29.86
302.979	31.66
303.446	28.56
303.913	25.26
304.379	21.06
304.846	26.96
305.313	29.66
305.78	20.66
306.246	36.36
306.713	33.56
307.18	32.46
307.646	32.16
308.113	27.56
308.579	28.76
309.046	28.96
309.512	31.26
309.979	26.46
310.445	29.26
310.912	34.66
311.378	37.06
311.845	39.26
312.311	33.46
312.777	37.96
313.244	35.46
313.71	40.46
314.176	34.16
314.642	32.26
315.109	32.26
315.575	37.06
316.041	37.46
316.507	36.86
316.973	41.26
317.439	44.16
317.905	41.46
318.371	32.36
318.837	42.16
319.303	37.46
319.769	38.96
320.235	32.26
320.701	40.66
321.167	39.96
321.633	30.16
322.099	45.86
322.564	46.56
323.03	46.06
323.496	43.96
323.962	52.96
324.427	44.66
324.893	50.06
325.359	42.16
325.824	45.56
326.29	38.06
326.755	42.46
327.221	41.76
327.686	40.46
328.152	46.46
328.617	51.36
329.083	51.46
329.548	51.36
330.014	51.46
330.479	41.86
330.944	49.76
331.41	50.56
331.875	54.66
332.34	42.26
332.805	52.26
333.271	54.46
333.736	44.96
334.201	54.46
334.666	55.56
335.131	56.46
335.596	59.06
336.061	56.16
336.526	45.96
336.991	51.96
337.456	54.86
337.921	53.66
338.386	51.56
338.851	46.96
339.316	52.06
339.781	47.76
340.246	58.66
340.711	52.36
341.175	54.36
341.64	50.46
342.105	56.76
342.569	53.86
343.034	57.16
343.499	58.66
343.963	57.56
344.428	69.76
344.893	68.46
345.357	67.76
345.822	72.56
346.286	79.16
346.751	84.26
347.215	74.36
347.679	79.86
348.144	101.56
348.608	86.56
349.073	78.46
349.537	80.56
350.001	89.96
350.465	95.06
350.93	85.46
351.394	84.06
351.858	78.16
352.322	90.36
352.786	92.96
353.25	112.86
353.715	114.26
354.179	108.76
354.643	123.96
355.107	132.06
355.571	114.96
356.035	107.06
356.498	123.76
356.962	128.06
357.426	136.66
357.89	124.36
358.354	96.46
358.818	88.56
359.281	80.96
359.745	78.26
360.209	80.96
360.673	84.26
361.136	89.86
361.6	88.66
362.064	87.76
362.527	85.46
362.991	97.76
363.454	87.76
363.918	82.96
364.381	82.16
364.845	84.76
365.308	86.06
365.772	92.96
366.235	83.06
366.698	86.76
367.162	90.86
367.625	86.86
368.088	87.76
368.552	93.36
369.015	89.46
369.478	99.56
369.941	102.56
370.404	100.06
370.867	111.86
371.331	112.86
371.794	124.56
372.257	115.16
372.72	119.16
373.183	115.16
373.646	110.96
374.109	105.96
374.572	108.26
375.035	115.26
375.497	112.56
375.96	115.36
376.423	106.66
376.886	117.26
377.349	119.46
377.811	103.96
378.274	107.76
378.737	110.46
379.199	116.06
379.662	111.96
380.125	122.26
380.587	116.16
381.05	124.86
381.512	131.16
381.975	136.16
382.437	128.76
382.9	129.46
383.362	133.36
383.825	151.06
384.287	155.26
384.75	143.96
385.212	143.26
385.674	141.26
386.136	136.76
386.599	129.76
387.061	126.16
387.523	131.06
387.985	142.46
388.447	150.66
388.91	141.56
389.372	161.86
389.834	152.46
390.296	152.76
390.758	161.76
391.22	169.16
391.682	213.86
392.144	292.86
392.606	227.86
393.068	168.56
393.529	177.16
393.991	153.06
394.453	152.86
394.915	156.16
395.377	193.76
395.838	215.96
396.3	155.46
396.762	142.16
397.224	136.06
397.685	135.76
398.147	137.46
398.608	136.06
399.07	139.36
399.531	136.56
399.993	148.16
400.454	160.06
400.916	148.36
401.377	152.16
401.839	157.06
402.3	151.56
402.762	172.56
403.223	185.06
403.684	170.86
404.145	162.16
404.607	161.36
405.068	163.16
405.529	172.66
405.99	194.96
406.451	180.26
406.913	185.36
407.374	166.86
407.835	162.86
408.296	168.46
408.757	174.16
409.218	193.66
409.679	185.76
410.14	177.26
410.601	179.06
411.062	188.66
411.522	190.36
411.983	192.86
412.444	180.06
412.905	182.46
413.366	184.36
413.826	196.86
414.287	223.66
414.748	266.66
415.208	253.36
415.669	220.06
416.13	212.36
416.59	207.16
417.051	218.66
417.511	221.96
417.972	235.06
418.432	250.26
418.893	288.26
419.353	260.16
419.814	202.06
420.274	184.66
420.734	188.66
421.195	200.66
421.655	202.16
422.115	194.16
422.576	195.66
423.036	201.46
423.496	213.76
423.956	214.56
424.416	234.06
424.876	267.66
425.336	268.66
425.797	263.46
426.257	257.56
426.717	244.56
427.177	230.36
427.637	230.36
428.097	235.16
428.556	245.66
429.016	273.86
429.476	263.26
429.936	283.66
430.396	287.36
430.856	298.26
431.315	320.16
431.775	349.36
432.235	381.46
432.694	359.26
433.154	366.96
433.614	391.56
434.073	339.06
434.533	278.96
434.993	270.56
435.452	292.46
435.912	296.36
436.371	289.16
436.83	284.06
437.29	279.66
437.749	251.16
438.209	254.76
438.668	274.76
439.127	293.06
439.587	262.36
440.046	253.76
440.505	258.16
440.964	286.46
441.424	325.16
441.883	315.16
442.342	261.96
442.801	231.66
443.26	232.26
443.719	227.16
444.178	221.96
444.637	219.56
445.096	225.36
445.555	225.06
446.014	228.76
446.473	227.66
446.932	233.06
447.391	226.86
447.849	230.96
448.308	222.36
448.767	222.16
449.226	241.96
449.685	234.66
450.143	253.16
450.602	237.66
451.061	228.36
451.519	233.16
451.978	245.96
452.436	246.36
452.895	251.46
453.353	260.26
453.812	241.46
454.27	240.56
454.729	243.26
455.187	239.06
455.646	249.56
456.104	251.26
456.562	267.06
457.021	269.76
457.479	272.36
457.937	275.76
458.395	272.46
458.854	254.36
459.312	262.86
459.77	288.66
460.228	256.16
460.686	247.16
461.144	250.86
461.602	251.56
462.06	240.86
462.518	247.36
462.976	262.16
463.434	258.86
463.892	271.96
464.35	269.66
464.808	292.46
465.266	271.56
465.724	277.96
466.181	276.26
466.639	276.26
467.097	295.56
467.555	305.96
468.012	311.96
468.47	316.26
468.928	337.16
469.385	346.26
469.843	356.56
470.3	353.86
470.758	362.56
471.215	396.36
471.673	416.76
472.13	411.46
472.588	430.16
473.045	378.96
473.503	385.26
473.96	397.66
474.417	406.56
474.875	436.76
475.332	488.26
475.789	465.66
476.246	475.06
476.704	500.86
477.161	510.36
477.618	526.06
478.075	572.06
478.532	623.46
478.989	709.16
479.446	820.86
479.903	784.96
480.36	829.06
480.817	881.56
481.274	986.16
481.731	1082.86
482.188	1186.56
482.645	1324.66
483.102	1421.56
483.558	1566.06
484.015	1625.26
484.472	1593.76
484.929	1549.56
485.385	1495.36
485.842	1462.86
486.299	1395.06
486.755	1323.86
487.212	1119.16
487.668	941.96
488.125	856.16
488.582	800.66
489.038	766.06
489.494	729.16
489.951	700.36
490.407	682.66
490.864	657.26
491.32	661.56
491.776	657.56
492.233	660.06
492.689	619.46
493.145	618.76
493.602	609.46
494.058	636.56
494.514	630.76
494.97	653.56
495.426	662.76
495.882	625.36
496.338	621.46
496.794	631.96
497.251	633.46
497.707	657.26
498.163	651.26
498.618	663.86
499.074	665.76
499.53	691.06
499.986	688.56
500.442	674.36
500.898	651.26
501.354	638.46
501.809	633.96
502.265	650.16
502.721	664.66
503.177	683.76
503.632	669.86
504.088	691.56
504.543	729.66
504.999	725.66
505.455	677.06
505.91	653.46
506.366	647.76
506.821	644.36
507.277	636.76
507.732	636.46
508.187	628.96
508.643	643.36
509.098	647.36
509.553	673.76
510.009	671.86
510.464	683.16
510.919	697.66
511.375	706.36
511.83	714.46
512.285	731.46
512.74	779.96
513.195	803.06
513.65	789.86
514.105	786.76
514.56	788.86
515.015	805.06
515.47	832.96
515.925	810.36
516.38	805.46
516.835	807.06
517.29	789.86
517.745	788.06
518.2	774.66
518.655	761.66
519.109	758.46
519.564	752.46
520.019	740.66
520.474	747.36
520.928	739.76
521.383	729.96
521.838	718.16
522.292	718.96
522.747	723.16
523.201	721.46
523.656	702.86
524.11	691.66
524.565	705.36
525.019	704.36
525.474	710.86
525.928	706.46
526.382	694.66
526.837	713.66
527.291	705.26
527.745	706.36
528.2	716.16
528.654	705.66
529.108	696.46
529.562	704.36
530.016	702.56
530.47	706.76
530.925	704.16
531.379	703.16
531.833	715.56
532.287	715.46
532.741	713.76
533.195	712.06
533.649	731.86
534.103	733.36
534.556	716.16
535.01	726.16
535.464	723.16
535.918	728.16
536.372	722.76
536.826	723.56
537.279	722.96
537.733	723.76
538.187	726.66
538.64	718.56
539.094	737.46
539.548	743.36
540.001	733.16
540.455	724.96
540.908	732.46
541.362	747.86
541.815	752.76
542.269	768.76
542.722	768.26
543.175	765.26
543.629	770.06
544.082	787.46
544.536	791.66
544.989	798.06
545.442	802.06
545.895	803.86
546.349	790.56
546.802	790.46
547.255	814.66
547.708	810.56
548.161	823.16
548.614	843.46
549.067	839.26
549.52	835.16
549.973	815.26
550.426	821.46
550.879	812.26
551.332	803.66
551.785	807.36
552.238	812.26
552.691	840.36
553.144	841.66
553.596	856.16
554.049	862.26
554.502	905.56
554.955	925.56
555.407	928.36
555.86	910.76
556.313	908.26
556.765	892.66
557.218	887.96
557.67	896.56
558.123	879.56
558.576	876.66
559.028	884.86
559.48	886.16
559.933	884.16
560.385	840.16
560.838	813.26
561.29	795.96
561.742	783.66
562.195	766.96
562.647	774.26
563.099	775.16
563.551	781.36
564.004	783.46
564.456	783.16
564.908	760.96
565.36	748.56
565.812	742.56
566.264	738.46
566.716	726.56
567.168	717.76
567.62	724.56
568.072	711.46
568.524	700.26
568.976	692.26
569.428	684.96
569.88	677.56
570.332	684.76
570.784	685.86
571.235	678.36
571.687	686.66
572.139	702.96
572.59	721.46
573.042	720.96
573.494	715.16
573.945	712.86
574.397	686.76
574.849	699.66
575.3	685.66
575.752	688.06
576.203	675.66
576.655	686.26
577.106	672.56
577.557	662.06
578.009	673.66
578.46	659.46
578.912	659.96
579.363	660.86
579.814	671.76
580.265	664.96
580.717	672.36
581.168	674.76
581.619	679.96
582.07	684.96
582.521	678.36
582.972	677.66
583.423	685.46
583.875	679.96
584.326	713.16
584.777	742.46
585.227	814.06
585.678	900.86
586.129	982.46
586.58	1055.46
587.031	1155.76
587.482	1296.66
587.933	1485.76
588.384	1282.56
588.834	972.36
589.285	799.76
589.736	775.16
590.186	771.66
590.637	768.66
591.088	740.76
591.538	742.46
591.989	724.16
592.439	724.86
592.89	711.86
593.34	703.26
593.791	712.36
594.241	699.26
594.692	712.66
595.142	696.56
595.593	693.26
596.043	704.86
596.493	712.96
596.943	712.36
597.394	716.26
597.844	707.86
598.294	721.66
598.744	735.76
599.195	776.46
599.645	811.36
600.095	836.26
600.545	912.56
600.995	973.46
601.445	1024.16
601.895	1071.86
602.345	1123.76
602.795	1103.46
603.245	1061.66
603.695	1003.46
604.145	942.66
604.594	908.66
605.044	853.56
605.494	794.56
605.944	755.16
606.393	743.06
606.843	713.16
607.293	725.66
607.743	728.26
608.192	737.66
608.642	746.26
609.091	759.56
609.541	762.46
609.99	762.26
610.44	754.16
610.889	708.36
611.339	689.66
611.788	679.46
612.238	690.66
612.687	709.36
613.136	708.36
613.586	731.26
614.035	724.06
614.484	743.16
614.933	739.16
615.383	743.56
615.832	733.76
616.281	718.56
616.73	673.96
617.179	659.36
617.628	649.66
618.077	630.26
618.526	613.06
618.975	615.56
619.424	611.26
619.873	607.96
620.322	613.96
620.771	599.66
621.22	596.26
621.669	585.96
622.118	576.96
622.567	574.66
623.015	565.26
623.464	566.36
623.913	556.36
624.361	546.86
624.81	542.36
625.259	551.76
625.707	551.26
626.156	549.96
626.604	558.06
627.053	547.56
627.501	551.36
627.95	555.46
628.398	567.56
628.847	558.96
629.295	559.36
629.744	560.56
630.192	560.46
630.64	563.76
631.089	553.56
631.537	564.26
631.985	569.56
632.433	579.16
632.881	600.96
633.33	636.96
633.778	616.96
634.226	560.26
634.674	563.76
635.122	570.16
635.57	585.26
636.018	608.46
636.466	567.96
636.914	540.26
637.362	570.56
637.81	559.36
638.258	565.06
638.705	569.56
639.153	597.36
639.601	601.66
640.049	641.06
640.497	664.56
640.944	685.36
641.392	625.76
641.84	598.46
642.287	566.76
642.735	549.06
643.182	565.46
643.63	562.26
644.078	567.76
644.525	577.06
644.973	585.26
645.42	600.86
645.867	609.86
646.315	627.26
646.762	649.66
647.21	684.36
647.657	699.06
648.104	737.96
648.551	762.36
648.999	818.66
649.446	890.36
649.893	980.36
650.34	1127.56
650.787	1349.86
651.234	1686.16
651.682	2189.76
652.129	2978.86
652.576	4282.46
653.023	6345.86
653.47	8707.66
653.917	10945.36
654.363	12704.76
654.81	14134.26
655.257	13418.66
655.704	8773.26
656.151	5184.66
656.598	3357.36
657.044	2383.16
657.491	1822.56
657.938	1464.36
658.385	1220.26
658.831	1050.16
659.278	950.46
659.724	832.86
660.171	774.36
660.618	707.16
661.064	664.16
661.511	653.16
661.957	637.66
662.404	628.16
662.85	643.16
663.296	620.56
663.743	548.26
664.189	530.36
664.635	518.26
665.082	520.26
665.528	519.16
665.974	499.76
666.42	501.56
666.867	493.06
667.313	476.46
667.759	470.66
668.205	466.56
668.651	476.36
669.097	470.16
669.543	489.46
669.989	456.36
670.435	431.66
670.881	436.06
671.327	437.36
671.773	450.76
672.219	475.06
672.665	525.56
673.11	568.56
673.556	611.06
674.002	654.66
674.448	635.76
674.893	539.06
675.339	472.56
675.785	430.66
676.23	411.66
676.676	376.16
677.122	373.26
677.567	359.96
678.013	355.96
678.458	346.26
678.904	355.06
679.349	338.06
679.794	341.86
680.24	341.96
680.685	340.66
681.131	343.66
681.576	329.36
682.021	346.16
682.466	339.56
682.912	345.26
683.357	340.36
683.802	367.26
684.247	389.96
684.692	440.96
685.137	473.06
685.583	513.26
686.028	555.36
686.473	496.96
686.918	422.36
687.363	406.06
687.807	381.76
688.252	359.66
688.697	344.16
689.142	329.46
689.587	325.96
690.032	314.66
690.477	325.36
690.921	336.66
691.366	365.56
691.811	395.76
692.255	414.96
692.7	443.06
693.145	486.76
693.589	645.56
694.034	1081.16
694.478	1474.46
694.923	1683.16
695.367	2219.46
695.812	1154.56
696.256	485.16
696.701	364.66
697.145	331.16
697.59	319.26
698.034	315.66
698.478	310.66
698.922	316.46
699.367	322.86
699.811	329.96
700.255	346.06
700.699	369.16
701.143	409.06
701.588	452.06
702.032	496.56
702.476	495.96
702.92	473.16
703.364	478.66
703.808	603.66
704.252	973.76
704.696	1388.26
705.14	1612.96
705.584	2078.96
706.027	1028.26
706.471	503.36
706.915	380.76
707.359	332.36
707.803	304.46
708.246	299.76
708.69	306.06
709.134	310.86
709.577	303.36
710.021	305.16
710.465	290.26
710.908	288.06
711.352	292.66
711.795	308.96
712.239	339.16
712.682	368.76
713.126	396.26
713.569	449.36
714.012	358.06
714.456	302.86
714.899	291.86
715.342	264.66
715.786	255.26
716.229	255.66
716.672	249.36
717.115	244.56
717.558	241.56
718.002	245.66
718.445	255.66
718.888	275.06
719.331	278.56
719.774	295.86
720.217	296.66
720.66	275.76
721.103	254.16
721.546	237.36
721.989	242.26
722.432	223.86
722.874	228.26
723.317	217.46
723.76	221.66
724.203	242.86
724.645	300.66
725.088	421.06
725.531	543.86
725.974	630.96
726.416	524.16
726.859	289.46
727.301	238.96
727.744	231.66
728.187	222.56
728.629	228.36
729.071	233.76
729.514	245.46
729.956	257.66
730.399	271.96
730.841	270.56
731.283	266.46
731.726	256.66
732.168	254.76
732.61	260.16
733.053	272.56
733.495	303.46
733.937	338.46
734.379	382.36
734.821	414.16
735.263	509.96
735.705	790.96
736.148	1469.46
736.59	2441.56
737.032	2948.26
737.474	2412.36
737.916	775.36
738.357	412.86
738.799	315.36
739.241	281.46
739.683	269.56
740.125	281.66
740.567	289.06
741.008	303.86
741.45	300.56
741.892	302.46
742.334	327.26
742.775	346.66
743.217	331.76
743.658	250.86
744.1	241.86
744.542	252.46
744.983	299.36
745.425	320.26
745.866	332.46
746.307	278.86
746.749	275.16
747.19	306.66
747.632	432.56
748.073	823.56
748.514	1757.36
748.956	2726.66
749.397	3423.66
749.838	2840.46
750.279	2863.66
750.72	1449.96
751.162	519.26
751.603	309.86
752.044	244.76
752.485	206.06
752.926	196.26
753.367	192.66
753.808	191.56
754.249	182.26
754.69	185.36
755.131	170.06
755.572	175.26
756.013	175.76
756.453	181.76
756.894	179.16
757.335	182.46
757.776	186.76
758.216	182.36
758.657	190.16
759.098	198.66
759.538	217.46
759.979	254.66
760.42	341.16
760.86	658.96
761.301	1695.76
761.741	4163.26
762.182	6219.76
762.622	4375.06
763.063	1258.06
763.503	515.86
763.943	338.56
764.384	324.76
764.824	382.36
765.264	427.36
765.705	300.76
766.145	208.96
766.585	184.36
767.025	177.36
767.465	178.66
767.906	225.76
768.346	307.26
768.786	325.66
769.226	250.26
769.666	302.26
770.106	571.76
770.546	1451.96
770.986	2538.56
771.426	2306.76
771.866	768.36
772.306	310.66
772.745	203.16
773.185	166.76
773.625	176.06
774.065	149.86
774.505	191.56
774.944	287.26
775.384	628.16
775.824	1144.66
776.263	1140.76
776.703	483.86
777.142	211.56
777.582	153.56
778.021	136.86
778.461	134.56
778.9	135.26
779.34	133.26
779.779	112.66
780.219	109.06
780.658	104.86
781.097	107.76
781.537	115.06
781.976	106.46
782.415	112.16
782.855	101.96
783.294	102.16
783.733	106.96
784.172	109.56
784.611	101.46
785.05	107.16
785.489	111.16
785.928	114.16
786.367	121.26
786.806	115.86
787.245	126.76
787.684	131.16
788.123	146.26
788.562	132.36
789.001	125.06
789.44	116.96
789.879	109.56
790.317	116.96
790.756	121.66
791.195	120.36
791.634	135.36
792.072	191.86
792.511	343.26
792.95	939.76
793.388	2031.86
793.827	1883.36
794.265	651.96
794.704	269.56
795.142	178.36
795.581	145.16
796.019	130.46
796.458	123.66
796.896	114.36
797.334	124.06
797.773	148.76
798.211	201.36
798.649	416.26
799.087	955.96
799.526	1509.36
799.964	1913.26
800.402	1945.26
800.84	726.36
801.278	283.06
801.716	176.66
802.154	147.06
802.592	139.56
803.03	135.96
803.468	121.96
803.906	141.66
804.344	146.36
804.782	135.66
805.22	125.36
805.658	118.66
806.096	139.06
806.533	148.86
806.971	164.06
807.409	209.56
807.847	302.06
808.284	610.46
808.722	1745.76
809.16	3161.96
809.597	2945.66
810.035	5156.96
810.472	5619.26
810.91	2010.26
811.347	757.36
811.785	385.66
812.222	243.46
812.66	187.36
813.097	158.76
813.535	136.76
813.972	126.06
814.409	110.56
814.846	103.56
815.284	107.46
815.721	102.26
816.158	99.36
816.595	115.36
817.032	168.76
817.47	190.56
817.907	166.86
818.344	145.96
818.781	111.16
819.218	98.26
819.655	113.96
820.092	178.66
820.529	208.66
820.966	173.16
821.403	131.36
821.839	100.66
822.276	105.06
822.713	118.06
823.15	130.66
823.587	114.46
824.023	139.66
824.46	290.56
824.897	835.36
825.333	1310.26
825.77	563.86
826.206	223.76
826.643	126.66
827.08	101.96
827.516	77.66
827.953	78.26
828.389	74.16
828.825	65.26
829.262	67.66
829.698	66.66
830.135	58.16
830.571	61.86
831.007	67.46
831.443	68.36
831.88	61.16
832.316	59.36
832.752	61.16
833.188	64.76
833.624	63.76
834.06	65.26
834.497	67.66
834.933	67.76
835.369	68.76
835.805	61.16
836.241	76.76
836.677	76.76
837.112	85.16
837.548	103.26
837.984	127.56
838.42	190.36
838.856	452.26
839.292	1417.66
839.727	2222.86
840.163	1031.96
840.599	870.96
841.034	1925.46
841.47	2045.66
841.906	754.46
842.341	321.66
842.777	217.66
843.212	302.86
843.648	297.26
844.083	152.56
844.519	93.46
844.954	78.56
845.39	55.76
845.825	56.46
846.261	54.66
846.696	56.26
847.131	57.36
847.566	48.66
848.002	49.46
848.437	52.76
848.872	61.86
849.307	60.16
849.742	81.96
850.177	166.26
850.613	521.56
851.048	848.26
851.483	365.46
851.918	145.86
852.353	89.96
852.788	57.86
853.223	56.46
853.657	55.96
854.092	47.76
854.527	38.36
854.962	44.26
855.397	42.46
855.832	48.96
856.266	35.96
856.701	42.36
857.136	34.76
857.57	41.66
858.005	45.16
858.44	53.66
858.874	43.16
859.309	55.86
859.743	43.66
860.178	45.66
860.612	38.96
861.047	48.86
861.481	64.06
861.915	64.86
862.35	45.76
862.784	32.16
863.218	34.76
863.653	27.16
864.087	43.26
864.521	59.06
864.955	70.16
865.39	142.56
865.824	172.36
866.258	114.06
866.692	153.26
867.126	174.56
867.56	100.46
867.994	49.36
868.428	34.76
868.862	45.56
869.296	54.26
869.73	54.96
870.164	52.56
870.598	48.36
871.031	34.16
871.465	31.46
871.899	28.56
872.333	23.26
872.766	27.16
873.2	31.76
873.634	20.26
874.067	28.66
874.501	29.26
874.935	31.66
875.368	31.06
875.802	32.26
876.235	23.96
876.669	27.16
877.102	24.26
877.535	27.86
877.969	33.26
878.402	22.46
878.836	19.36
879.269	19.06
879.702	24.66
880.135	21.26
880.569	19.36
881.002	25.76
881.435	21.56
881.868	21.36
882.301	26.96
882.734	17.46
883.167	23.86
883.601	21.36
884.034	27.56
884.467	12.96
884.899	23.46
885.332	16.46
885.765	13.16
886.198	19.86
886.631	15.36
887.064	16.06
887.497	20.26
887.929	22.96
888.362	19.56
888.795	16.96
889.228	16.66
889.66	21.76
890.093	22.76
890.526	22.96
890.958	12.76
891.391	14.16
891.823	25.36
892.256	15.36
892.688	14.16
893.121	18.16
893.553	18.26
893.985	21.86
894.418	19.16
894.85	7.96
895.282	17.36
895.715	19.36
896.147	17.46
896.579	16.56
897.011	15.76
897.444	20.96
897.876	15.86
898.308	16.76
898.74	17.06
899.172	11.76
899.604	15.26
900.036	22.86
900.468	16.96
900.9	14.96
901.332	20.16
901.764	6.26
902.196	25.26
902.628	17.16
903.06	19.66
903.491	29.26
903.923	23.56
904.355	21.96
904.787	26.26
905.218	27.66
905.65	24.56
906.082	9.46
906.513	12.46
906.945	13.56
907.376	15.56
907.808	24.96
908.239	26.36
908.671	22.36
909.102	22.56
909.534	28.76
909.965	45.56
910.397	86.56
910.828	296.96
911.259	462.56
911.691	209.36
912.122	107.86
912.553	52.06
912.984	40.46
913.415	23.56
913.847	26.36
914.278	16.56
914.709	16.26
915.14	14.56
915.571	16.66
916.002	14.06
916.433	17.46
916.864	16.86
917.295	13.76
917.726	24.06
918.157	17.96
918.587	22.66
919.018	18.16
919.449	18.36
919.88	23.16
920.311	32.76
920.741	46.96
921.172	160.56
921.603	141.86
922.033	61.96
922.464	46.16
922.895	21.26
923.325	19.96
923.756	11.66
924.186	12.16
924.617	25.76
925.047	41.06
925.478	54.96
925.908	48.56
926.338	31.66
926.769	21.06
927.199	21.36
927.629	11.66
928.06	16.56
928.49	17.96
928.92	19.06
929.35	15.66
929.78	5.06
930.21	15.56
930.641	8.36
931.071	2.46
931.501	7.26
931.931	13.96
932.361	12.56
932.791	-2.24
933.221	3.26
933.651	4.96
934.08	17.66
934.51	29.46
934.94	14.46
935.37	8.96
935.8	13.16
936.229	4.46
936.659	10.86
937.089	9.16
937.519	12.16
937.948	19.96
938.378	18.16
938.807	3.86
939.237	4.56
939.666	11.16
940.096	-3.64
940.525	0.56
940.955	6.46
941.384	8.66
941.814	0.06
942.243	-5.44
942.672	7.96
943.102	5.56
943.531	4.76
943.96	5.36
944.39	1.36
944.819	0.76
945.248	5.26
945.677	0.96
946.106	4.26
946.535	7.66
946.964	2.16
947.393	9.96
947.822	6.76
948.251	-0.74
948.68	5.16
949.109	4.56
949.538	5.86
949.967	-0.04
950.396	0.86
950.825	-2.34
951.254	1.76
951.682	-3.74
952.111	3.56
952.54	7.66
952.969	2.76
953.397	-3.94
953.826	6.26
954.254	0.76
954.683	4.96
955.112	-0.84
955.54	1.76
955.969	0.26
956.397	8.86
956.826	-2.14
957.254	4.86
957.682	0.16
958.111	9.16
958.539	0.16
958.967	4.56
959.396	1.36
959.824	-0.94
960.252	3.66
960.68	-8.54
961.109	3.86
961.537	-5.44
961.965	3.96
962.393	1.16
962.821	1.56
963.249	6.56
963.677	11.26
964.105	8.36
964.533	42.36
964.961	45.46
965.389	17.36
965.817	7.26
966.245	3.66
966.672	0.36
967.1	-8.84
967.528	4.36
967.956	1.16
968.383	1.76
968.811	3.76
969.239	0.76
969.666	-1.04
970.094	-0.44
970.522	4.96
970.949	-2.54
971.377	-4.14
971.804	-1.84
972.232	-1.04
972.659	-10.74
973.087	-3.14
973.514	-1.64
973.941	-1.64
974.369	3.86
974.796	-0.64
975.223	3.16
975.651	1.76
976.078	-1.74
976.505	0.26
976.932	7.76
977.359	23.76
977.786	18.76
978.214	6.66
978.641	-7.34
979.068	-5.44
979.495	-7.34
979.922	-5.74
980.349	-0.44
980.776	6.06
981.202	-1.34
981.629	1.56
982.056	3.46
982.483	-6.44
982.91	8.76
983.337	-10.24
983.763	2.96
984.19	-0.54
984.617	-4.34
985.043	-5.44
985.47	2.46
985.897	-2.04
986.323	-9.74
986.75	7.26
987.176	3.86
987.603	-0.04
988.029	-0.24
988.456	-1.74
988.882	6.06
989.308	-6.34
989.735	0.96
990.161	3.56
990.587	1.46
991.014	6.46
991.44	9.56
991.866	4.86
992.292	-2.84
992.719	2.66
993.145	8.26
993.571	-7.04
993.997	-0.74
994.423	2.36
994.849	-2.44
995.275	2.36
995.701	6.06
996.127	-2.64
996.553	6.26
996.979	-8.84
997.405	-1.84
997.83	-5.94
998.256	-6.34
998.682	-6.74
999.108	-10.74
999.534	-1.34
999.959	-0.14
1000.385	-5.24
1000.811	-0.74
1001.236	-10.44
1001.662	-9.14
1002.087	-10.94
1002.513	-0.04
1002.938	2.86
1003.364	0.36
1003.789	3.16
1004.215	2.36
1004.64	-1.84
1005.066	2.46
1005.491	3.06
1005.916	1.06
1006.342	-2.34
1006.767	-7.84
1007.192	2.16
1007.617	-1.34
1008.042	-1.74
1008.468	-8.94
1008.893	-2.94
1009.318	-3.34
1009.743	-1.64
1010.168	2.36
1010.593	6.26
1011.018	-7.24
1011.443	1.86
1011.868	7.86
1012.293	1.76
1012.718	-1.44
1013.143	0.46
1013.567	6.96
1013.992	-1.34
1014.417	-6.24
1014.842	4.56
1015.267	-4.04
1015.691	0.96
1016.116	5.96
1016.541	-2.14
1016.965	2.66
1017.39	6.76
1017.814	-2.24
1018.239	-1.44
1018.663	-4.24
1019.088	-9.14
1019.512	-0.74
1019.937	1.76
1020.361	-4.54
1020.785	-3.64
1021.21	-0.74
1021.634	0.76
1022.058	1.46
1022.483	5.46
1022.907	2.16
1023.331	-6.84
1023.755	-5.34
1024.179	1.96
1024.604	-13.64
1025.028	-6.24
1025.452	0.66
1025.876	-2.54
1026.3	5.26
1026.724	-10.34
1027.148	0.06
1027.572	-3.54
1027.996	0.16
1028.42	-5.94
1028.843	-1.24
1029.267	0.56
1029.691	1.66
1030.115	-5.44
1030.539	-1.74
1030.962	-1.94
1031.386	-7.94
1031.81	0.06
1032.233	1.06
1032.657	1.56
1033.08	-1.64
1033.504	-2.64
1033.927	-2.84
1034.351	4.66
1034.774	-0.94
1035.198	-4.24
1035.621	-2.94
1036.045	-4.14
1036.468	-1.54
1036.891	-10.84
1037.315	-9.74
1037.738	-12.64
1038.161	-2.64
1038.584	-8.14
1039.008	-6.04
1039.431	-1.04
1039.854	-2.24
1040.277	-7.64
1040.7	-8.34
1041.123	-1.64
1041.546	-8.04
1041.969	-4.44
1042.392	-9.64
1042.815	3.76
1043.238	9.26
1043.661	-2.24
1044.084	-3.54
1044.507	-2.54
1044.93	-7.14
1045.352	-6.64
1045.775	7.16
1046.198	4.06
1046.621	1.36
1047.043	-1.64
1047.466	6.06
1047.889	-0.34
1048.311	-5.14
1048.734	-0.04
1049.156	-1.84
1049.579	4.36
1050.001	-3.94
1050.424	0.56
1050.846	-0.34
1051.269	-4.44
1051.691	-8.44
1052.113	-3.44
1052.536	4.66
1052.958	-0.54
1053.38	-3.64
1053.802	-13.64
1054.225	-4.44
1054.647	-9.54
1055.069	-0.44
1055.491	-0.54
1055.913	-9.64
1056.335	3.46
1056.757	-2.14
1057.179	-0.04
1057.601	-8.24
1058.023	1.56
1058.445	-5.24
1058.867	0.46
1059.289	-0.44
1059.711	-3.74
1060.133	-1.94
1060.555	-5.04
1060.976	-3.14
1061.398	-1.24
1061.82	-5.64
1062.241	-0.14
1062.663	-6.24
1063.085	-12.34
1063.506	-0.64
1063.928	-5.84
1064.35	-2.14
1064.771	-11.94
1065.193	-3.04
1065.614	-8.14
1066.035	-0.64
1066.457	-6.64
1066.878	3.76
1067.3	-3.24
1067.721	-4.34
1068.142	-0.64
1068.564	-2.14
1068.985	-1.14
1069.406	-3.74
1069.827	-5.64
1070.248	0.66
1070.67	-5.14
1071.091	-7.04
1071.512	-3.84
1071.933	-5.84
1072.354	-4.94
1072.775	-1.44
1073.196	1.66
1073.617	-4.94
1074.038	-9.14
1074.459	-1.24
1074.88	-4.14
1075.3	-0.24
1075.721	-3.04
1076.142	9.46
1076.563	-2.54
1076.983	-6.34
1077.404	-0.84
1077.825	-9.34
1078.246	-3.84
1078.666	-12.74
1079.087	-6.04
1079.507	-3.54
1079.928	7.26
1080.348	-1.24
1080.769	-6.74
1081.189	7.66
1081.61	4.36
1082.03	-4.44
1082.451	-8.74
1082.871	-8.54
1083.291	-7.74
1083.711	-10.64
1084.132	-5.64
1084.552	-4.34
1084.972	-0.74
1085.392	-6.64
1085.813	-10.94
1086.233	-8.84
1086.653	0.16
1087.073	1.36
1087.493	-6.04
1087.913	-12.84
1088.333	1.76
1088.753	-1.44
1089.173	2.56
1089.593	-1.14
1090.013	2.16
1090.433	-3.04
1090.852	1.26
1091.272	-0.74
1091.692	-3.34
1092.112	-4.44
1092.531	-7.04
1092.951	-11.64
1093.371	-0.94
1093.79	0.66
1094.21	-3.04
1094.63	-5.14
1095.049	1.56
1095.469	-3.24
1095.888	-0.94
1096.308	1.76
1096.727	8.56
1097.146	-5.44
1097.566	-0.34
1097.985	-7.44
1098.405	-0.14
1098.824	-3.84
1099.243	-3.34
1099.662	-6.44
1100.082	-4.54
1100.501	2.06
1100.92	-1.04
1101.339	-0.44
1101.758	-5.34
