Data from 20171114-ORNL-Ar_H_NY_Subt18_08-08-47-896.txt Node
Date: Tue Nov 14 08:08:47 EST 2017
User: Ender
Spectrometer: HR+D1039
Trigger mode: 0
Integration Time (sec): 2.730000E-2
Scans to average: 10
Electric dark correction enabled: true
Nonlinearity correction enabled: false
Boxcar width: 0
XAxis mode: Wavelengths
Number of Pixels in Spectrum: 2048
>>>>>Begin Spectral Data<<<<<
187.836	-4.14
188.309	-4.14
188.782	-4.14
189.255	2.26
189.728	-3.84
190.201	5.86
190.674	5.16
191.147	2.66
191.619	-3.44
192.092	-0.14
192.565	3.86
193.038	-2.24
193.511	1.06
193.984	3.26
194.456	-8.84
194.929	-0.74
195.402	-0.54
195.874	-0.24
196.347	-5.64
196.82	-10.04
197.292	4.56
197.765	3.46
198.237	-6.24
198.71	-1.94
199.182	-0.84
199.655	-0.44
200.127	1.76
200.6	-6.14
201.072	-4.14
201.544	-0.54
202.017	-3.24
202.489	1.36
202.961	-2.74
203.433	-5.64
203.906	-6.54
204.378	-6.34
204.85	-4.94
205.322	-7.64
205.794	-0.44
206.266	-7.44
206.739	-7.74
207.211	4.66
207.683	-11.04
208.155	-10.14
208.627	-7.24
209.099	-2.74
209.57	-11.14
210.042	-7.34
210.514	-2.94
210.986	-3.34
211.458	-12.04
211.93	1.76
212.402	0.86
212.873	-4.44
213.345	-8.24
213.817	-9.74
214.288	-7.04
214.76	-13.04
215.232	-8.44
215.703	-7.84
216.175	-0.84
216.646	-3.54
217.118	-8.94
217.589	-9.74
218.061	-0.44
218.532	-4.94
219.004	-7.44
219.475	-3.44
219.946	-5.54
220.418	-6.84
220.889	-0.44
221.36	0.56
221.832	-4.44
222.303	-10.44
222.774	-2.14
223.245	-12.54
223.717	-10.64
224.188	-2.14
224.659	-6.94
225.13	-8.84
225.601	-2.64
226.072	0.46
226.543	4.36
227.014	-3.14
227.485	-7.14
227.956	-7.64
228.427	-2.54
228.898	-1.04
229.369	5.06
229.839	-3.94
230.31	-9.24
230.781	2.06
231.252	-5.94
231.722	-11.74
232.193	-7.54
232.664	-4.24
233.135	-6.84
233.605	-5.44
234.076	-7.74
234.546	-2.84
235.017	-2.24
235.487	-3.94
235.958	-1.94
236.428	-5.94
236.899	-5.74
237.369	4.26
237.84	-5.64
238.31	1.76
238.78	-4.64
239.251	-11.14
239.721	-3.84
240.191	-3.24
240.662	-6.74
241.132	-5.14
241.602	-9.24
242.072	-2.14
242.542	3.16
243.013	-11.34
243.483	-0.04
243.953	-2.14
244.423	-1.24
244.893	-6.54
245.363	-2.84
245.833	-5.04
246.303	-7.44
246.773	3.96
247.243	-4.14
247.712	-0.44
248.182	-2.44
248.652	7.56
249.122	-10.54
249.592	2.46
250.061	4.66
250.531	10.76
251.001	-0.84
251.471	-1.84
251.94	4.56
252.41	-2.44
252.879	-2.54
253.349	3.26
253.818	0.06
254.288	1.56
254.757	-1.34
255.227	-7.54
255.696	-0.14
256.166	-1.74
256.635	7.56
257.105	-1.44
257.574	-3.64
258.043	0.76
258.513	-4.54
258.982	1.06
259.451	-2.74
259.92	-3.14
260.389	2.76
260.859	3.66
261.328	0.66
261.797	-2.74
262.266	6.46
262.735	7.46
263.204	1.56
263.673	1.16
264.142	5.46
264.611	-4.04
265.08	-2.84
265.549	-5.34
266.018	-2.94
266.487	-2.04
266.955	-8.84
267.424	-5.64
267.893	6.66
268.362	-4.34
268.83	-1.84
269.299	3.96
269.768	-1.44
270.236	-1.24
270.705	-2.04
271.174	-3.04
271.642	1.56
272.111	4.36
272.579	-3.44
273.048	0.86
273.516	2.36
273.985	2.06
274.453	5.66
274.922	4.36
275.39	7.16
275.858	-10.64
276.327	9.56
276.795	14.16
277.263	0.86
277.731	14.86
278.2	14.46
278.668	8.76
279.136	11.26
279.604	4.66
280.072	6.46
280.54	8.26
281.008	-0.94
281.477	8.86
281.945	-0.04
282.413	11.26
282.881	7.06
283.348	-1.54
283.816	10.56
284.284	7.16
284.752	13.36
285.22	7.36
285.688	15.46
286.156	2.96
286.623	11.46
287.091	8.56
287.559	10.16
288.026	11.56
288.494	8.66
288.962	3.36
289.429	2.76
289.897	11.36
290.364	7.96
290.832	12.96
291.3	10.56
291.767	12.96
292.234	9.26
292.702	0.86
293.169	10.86
293.637	14.96
294.104	16.96
294.571	0.76
295.039	7.36
295.506	7.86
295.973	11.16
296.44	9.96
296.908	14.06
297.375	5.76
297.842	9.76
298.309	11.66
298.776	0.66
299.243	18.26
299.71	6.06
300.177	15.96
300.644	16.46
301.111	14.36
301.578	14.06
302.045	9.46
302.512	17.86
302.979	17.06
303.446	12.06
303.913	8.66
304.379	12.76
304.846	17.26
305.313	17.66
305.78	14.66
306.246	20.76
306.713	16.76
307.18	18.76
307.646	18.26
308.113	16.96
308.579	22.56
309.046	19.76
309.512	19.66
309.979	14.06
310.445	19.86
310.912	22.76
311.378	19.06
311.845	19.56
312.311	23.26
312.777	25.86
313.244	21.76
313.71	31.76
314.176	20.66
314.642	18.36
315.109	14.56
315.575	27.36
316.041	35.26
316.507	18.66
316.973	24.26
317.439	26.16
317.905	27.56
318.371	26.16
318.837	28.36
319.303	25.36
319.769	24.56
320.235	25.26
320.701	25.06
321.167	29.46
321.633	21.56
322.099	27.76
322.564	31.06
323.03	30.76
323.496	31.36
323.962	31.56
324.427	33.56
324.893	36.66
325.359	32.66
325.824	25.86
326.29	26.56
326.755	25.66
327.221	29.26
327.686	35.46
328.152	38.16
328.617	33.06
329.083	34.46
329.548	36.56
330.014	40.16
330.479	29.16
330.944	32.16
331.41	30.26
331.875	35.36
332.34	33.26
332.805	33.96
333.271	33.16
333.736	29.26
334.201	43.16
334.666	42.36
335.131	41.96
335.596	44.36
336.061	44.06
336.526	31.46
336.991	43.56
337.456	43.66
337.921	41.36
338.386	38.06
338.851	38.26
339.316	36.56
339.781	43.26
340.246	37.36
340.711	40.76
341.175	45.36
341.64	35.26
342.105	47.76
342.569	48.06
343.034	49.96
343.499	40.56
343.963	51.76
344.428	55.26
344.893	46.56
345.357	50.56
345.822	47.36
346.286	61.56
346.751	57.46
347.215	57.96
347.679	58.36
348.144	76.16
348.608	74.36
349.073	57.96
349.537	74.46
350.001	65.86
350.465	71.96
350.93	63.96
351.394	68.66
351.858	59.96
352.322	65.26
352.786	68.96
353.25	83.46
353.715	97.06
354.179	78.56
354.643	108.06
355.107	98.16
355.571	89.16
356.035	82.86
356.498	97.26
356.962	101.56
357.426	100.66
357.89	103.46
358.354	70.76
358.818	80.06
359.281	72.46
359.745	72.76
360.209	62.36
360.673	68.96
361.136	73.36
361.6	73.06
362.064	71.06
362.527	71.26
362.991	87.06
363.454	73.66
363.918	78.96
364.381	60.76
364.845	73.36
365.308	75.46
365.772	80.16
366.235	80.06
366.698	75.46
367.162	76.66
367.625	76.36
368.088	73.16
368.552	78.86
369.015	82.56
369.478	85.36
369.941	93.86
370.404	85.96
370.867	89.16
371.331	91.76
371.794	93.96
372.257	93.46
372.72	95.46
373.183	96.96
373.646	84.76
374.109	85.46
374.572	84.56
375.035	88.26
375.497	97.06
375.96	92.06
376.423	91.16
376.886	98.66
377.349	98.96
377.811	91.76
378.274	97.06
378.737	96.96
379.199	108.26
379.662	100.26
380.125	99.06
380.587	95.96
381.05	104.86
381.512	112.36
381.975	120.56
382.437	109.26
382.9	111.06
383.362	118.96
383.825	130.16
384.287	122.86
384.75	111.06
385.212	112.86
385.674	124.56
386.136	119.26
386.599	110.36
387.061	117.66
387.523	118.06
387.985	116.16
388.447	129.66
388.91	127.06
389.372	123.76
389.834	124.76
390.296	125.56
390.758	126.86
391.22	131.86
391.682	140.26
392.144	161.46
392.606	145.56
393.068	137.26
393.529	138.36
393.991	132.76
394.453	123.36
394.915	135.26
395.377	135.06
395.838	138.86
396.3	132.56
396.762	129.06
397.224	128.56
397.685	122.76
398.147	127.36
398.608	121.86
399.07	129.86
399.531	129.06
399.993	143.66
400.454	157.76
400.916	138.16
401.377	138.76
401.839	143.46
402.3	149.36
402.762	159.26
403.223	169.36
403.684	158.76
404.145	153.06
404.607	159.06
405.068	148.86
405.529	163.56
405.99	181.26
406.451	168.36
406.913	171.66
407.374	164.06
407.835	159.96
408.296	166.56
408.757	163.36
409.218	181.36
409.679	176.86
410.14	171.56
410.601	173.66
411.062	179.76
411.522	179.36
411.983	171.56
412.444	175.26
412.905	183.96
413.366	181.66
413.826	197.76
414.287	213.46
414.748	263.16
415.208	254.66
415.669	211.36
416.13	209.46
416.59	208.36
417.051	216.16
417.511	226.26
417.972	235.56
418.432	238.46
418.893	295.06
419.353	250.96
419.814	200.36
420.274	184.06
420.734	176.06
421.195	200.06
421.655	190.56
422.115	195.86
422.576	192.36
423.036	204.06
423.496	211.56
423.956	220.06
424.416	228.46
424.876	267.16
425.336	258.76
425.797	264.36
426.257	259.76
426.717	235.76
427.177	236.16
427.637	223.06
428.097	222.96
428.556	241.96
429.016	260.96
429.476	262.06
429.936	268.66
430.396	272.46
430.856	282.96
431.315	305.06
431.775	342.16
432.235	375.66
432.694	339.36
433.154	352.76
433.614	384.76
434.073	321.46
434.533	280.16
434.993	267.46
435.452	279.16
435.912	287.96
436.371	285.66
436.83	279.16
437.29	261.46
437.749	246.86
438.209	236.46
438.668	279.96
439.127	277.66
439.587	261.26
440.046	244.86
440.505	259.76
440.964	271.96
441.424	321.56
441.883	313.26
442.342	257.46
442.801	232.66
443.26	226.56
443.719	229.06
444.178	223.86
444.637	221.86
445.096	225.66
445.555	225.86
446.014	232.26
446.473	236.66
446.932	242.06
447.391	235.16
447.849	235.56
448.308	222.16
448.767	228.76
449.226	249.16
449.685	250.26
450.143	248.06
450.602	244.76
451.061	230.56
451.519	243.66
451.978	247.36
452.436	240.26
452.895	246.66
453.353	257.86
453.812	247.96
454.27	250.46
454.729	245.76
455.187	246.86
455.646	248.76
456.104	250.76
456.562	267.66
457.021	270.86
457.479	266.36
457.937	283.86
458.395	264.96
458.854	263.46
459.312	265.76
459.77	281.46
460.228	268.46
460.686	250.36
461.144	256.46
461.602	256.86
462.06	251.96
462.518	266.46
462.976	260.26
463.434	262.86
463.892	268.66
464.35	284.66
464.808	297.86
465.266	277.06
465.724	277.26
466.181	283.36
466.639	286.16
467.097	299.36
467.555	315.86
468.012	310.56
468.47	318.66
468.928	337.86
469.385	343.06
469.843	350.06
470.3	355.26
470.758	372.86
471.215	386.76
471.673	419.06
472.13	416.96
472.588	430.06
473.045	388.06
473.503	388.56
473.96	410.66
474.417	415.46
474.875	445.96
475.332	486.56
475.789	472.96
476.246	470.76
476.704	492.86
477.161	504.26
477.618	529.36
478.075	561.86
478.532	622.16
478.989	689.66
479.446	788.26
479.903	770.26
480.36	794.66
480.817	852.66
481.274	930.96
481.731	1019.56
482.188	1085.06
482.645	1206.76
483.102	1305.46
483.558	1421.86
484.015	1468.86
484.472	1451.46
484.929	1402.46
485.385	1351.86
485.842	1336.76
486.299	1277.36
486.755	1233.16
487.212	1062.76
487.668	914.86
488.125	841.26
488.582	769.46
489.038	743.36
489.494	706.66
489.951	694.66
490.407	675.86
490.864	649.06
491.32	642.56
491.776	651.76
492.233	660.76
492.689	616.26
493.145	626.16
493.602	611.86
494.058	629.16
494.514	627.36
494.97	646.16
495.426	655.96
495.882	621.76
496.338	614.66
496.794	629.36
497.251	624.66
497.707	644.26
498.163	642.16
498.618	647.06
499.074	655.76
499.53	678.16
499.986	669.76
500.442	660.96
500.898	630.76
501.354	631.96
501.809	634.66
502.265	643.26
502.721	649.16
503.177	654.06
503.632	663.76
504.088	662.56
504.543	698.86
504.999	712.16
505.455	673.06
505.91	650.16
506.366	657.36
506.821	640.36
507.277	651.46
507.732	650.06
508.187	641.86
508.643	651.96
509.098	664.66
509.553	682.86
510.009	697.66
510.464	693.46
510.919	704.46
511.375	724.66
511.83	729.76
512.285	744.46
512.74	769.36
513.195	795.46
513.65	781.36
514.105	775.66
514.56	792.16
515.015	798.16
515.47	823.36
515.925	793.66
516.38	796.56
516.835	802.16
517.29	787.26
517.745	789.36
518.2	777.76
518.655	764.76
519.109	757.26
519.564	763.96
520.019	753.56
520.474	743.16
520.928	749.66
521.383	738.76
521.838	732.26
522.292	731.46
522.747	732.06
523.201	726.56
523.656	726.76
524.11	719.16
524.565	713.56
525.019	713.06
525.474	724.86
525.928	713.96
526.382	709.66
526.837	719.06
527.291	725.06
527.745	717.96
528.2	722.76
528.654	706.96
529.108	718.66
529.562	709.96
530.016	707.96
530.47	698.56
530.925	716.46
531.379	712.86
531.833	716.26
532.287	716.56
532.741	715.06
533.195	715.66
533.649	727.86
534.103	742.36
534.556	717.46
535.01	718.96
535.464	727.86
535.918	735.36
536.372	742.66
536.826	734.66
537.279	720.96
537.733	725.46
538.187	735.76
538.64	730.16
539.094	744.16
539.548	747.56
540.001	749.56
540.455	731.26
540.908	755.96
541.362	771.76
541.815	767.16
542.269	779.16
542.722	773.26
543.175	795.26
543.629	797.16
544.082	807.26
544.536	815.46
544.989	811.06
545.442	821.76
545.895	814.06
546.349	819.36
546.802	817.66
547.255	824.06
547.708	841.76
548.161	838.86
548.614	846.16
549.067	852.66
549.52	847.86
549.973	834.56
550.426	838.36
550.879	834.06
551.332	834.36
551.785	830.26
552.238	839.06
552.691	847.76
553.144	863.96
553.596	871.76
554.049	892.16
554.502	927.16
554.955	940.96
555.407	940.86
555.86	928.26
556.313	922.96
556.765	905.76
557.218	916.46
557.67	905.36
558.123	891.56
558.576	902.76
559.028	910.76
559.48	928.06
559.933	909.36
560.385	878.86
560.838	838.26
561.29	823.16
561.742	813.36
562.195	799.86
562.647	807.56
563.099	798.76
563.551	802.86
564.004	809.36
564.456	793.06
564.908	787.76
565.36	764.86
565.812	752.06
566.264	745.36
566.716	742.26
567.168	738.26
567.62	741.66
568.072	729.76
568.524	720.36
568.976	724.96
569.428	706.16
569.88	702.66
570.332	713.76
570.784	714.56
571.235	706.26
571.687	728.56
572.139	729.96
572.59	735.16
573.042	746.16
573.494	741.96
573.945	727.46
574.397	711.26
574.849	725.06
575.3	719.76
575.752	706.06
576.203	696.56
576.655	713.36
577.106	690.56
577.557	692.06
578.009	691.06
578.46	687.26
578.912	687.76
579.363	694.86
579.814	697.66
580.265	686.86
580.717	688.46
581.168	697.26
581.619	701.16
582.07	704.86
582.521	706.36
582.972	693.46
583.423	706.66
583.875	710.46
584.326	703.16
584.777	725.46
585.227	758.56
585.678	776.66
586.129	803.56
586.58	831.86
587.031	856.56
587.482	904.86
587.933	944.76
588.384	911.26
588.834	840.56
589.285	810.36
589.736	798.66
590.186	795.56
590.637	796.16
591.088	774.66
591.538	773.96
591.989	760.36
592.439	753.56
592.89	744.36
593.34	725.06
593.791	731.96
594.241	727.76
594.692	726.76
595.142	734.66
595.593	723.86
596.043	728.46
596.493	742.36
596.943	732.16
597.394	742.16
597.844	748.16
598.294	758.46
598.744	780.06
599.195	813.86
599.645	851.66
600.095	894.66
600.545	953.56
600.995	1009.16
601.445	1074.86
601.895	1122.86
602.345	1179.26
602.795	1159.66
603.245	1107.96
603.695	1058.76
604.145	998.26
604.594	949.36
605.044	904.36
605.494	832.36
605.944	780.06
606.393	780.16
606.843	754.76
607.293	760.16
607.743	751.86
608.192	764.96
608.642	774.96
609.091	782.76
609.541	781.86
609.99	783.86
610.44	781.26
610.889	740.56
611.339	720.36
611.788	701.86
612.238	721.36
612.687	731.06
613.136	725.26
613.586	737.36
614.035	725.36
614.484	739.76
614.933	726.66
615.383	736.56
615.832	739.46
616.281	728.16
616.73	704.66
617.179	684.66
617.628	668.36
618.077	650.46
618.526	647.06
618.975	641.56
619.424	637.66
619.873	630.76
620.322	639.16
620.771	637.86
621.22	628.06
621.669	610.06
622.118	603.46
622.567	597.56
623.015	595.36
623.464	591.96
623.913	584.26
624.361	582.66
624.81	563.56
625.259	579.86
625.707	576.86
626.156	578.26
626.604	593.96
627.053	585.86
627.501	587.66
627.95	594.66
628.398	596.66
628.847	588.46
629.295	591.76
629.744	604.46
630.192	587.56
630.64	582.06
631.089	566.56
631.537	565.86
631.985	550.36
632.433	558.46
632.881	559.36
633.33	562.96
633.778	556.66
634.226	543.56
634.674	563.96
635.122	560.96
635.57	573.16
636.018	598.16
636.466	580.86
636.914	583.36
637.362	587.96
637.81	604.56
638.258	602.66
638.705	603.36
639.153	646.56
639.601	646.86
640.049	672.86
640.497	698.86
640.944	729.86
641.392	673.06
641.84	634.46
642.287	610.06
642.735	583.56
643.182	587.96
643.63	580.46
644.078	583.66
644.525	602.16
644.973	609.26
645.42	617.26
645.867	640.46
646.315	664.96
646.762	677.56
647.21	706.96
647.657	732.16
648.104	764.66
648.551	771.76
648.999	844.76
649.446	917.56
649.893	1011.66
650.34	1157.06
650.787	1375.16
651.234	1686.26
651.682	2182.96
652.129	2958.06
652.576	4204.66
653.023	6155.46
653.47	8321.16
653.917	10240.56
654.363	11740.76
654.81	12865.06
655.257	12207.26
655.704	8071.16
656.151	4869.16
656.598	3217.56
657.044	2303.06
657.491	1800.56
657.938	1446.06
658.385	1217.56
658.831	1061.06
659.278	954.06
659.724	847.76
660.171	798.96
660.618	735.06
661.064	687.66
661.511	677.06
661.957	670.66
662.404	651.26
662.85	666.66
663.296	650.16
663.743	576.96
664.189	561.66
664.635	545.86
665.082	548.16
665.528	541.86
665.974	538.16
666.42	530.86
666.867	514.66
667.313	513.96
667.759	487.36
668.205	482.56
668.651	474.46
669.097	464.56
669.543	475.66
669.989	467.66
670.435	460.16
670.881	469.76
671.327	479.56
671.773	495.36
672.219	520.76
672.665	580.66
673.11	613.76
673.556	662.96
674.002	693.06
674.448	680.96
674.893	582.86
675.339	495.06
675.785	463.96
676.23	440.46
676.676	410.06
677.122	409.96
677.567	393.46
678.013	380.46
678.458	388.36
678.904	375.16
679.349	372.46
679.794	374.96
680.24	359.56
680.685	372.66
681.131	366.96
681.576	375.56
682.021	374.16
682.466	372.56
682.912	362.76
683.357	374.86
683.802	398.46
684.247	438.06
684.692	474.46
685.137	526.66
685.583	567.56
686.028	590.16
686.473	550.16
686.918	470.26
687.363	447.36
687.807	419.66
688.252	386.66
688.697	372.06
689.142	358.76
689.587	358.86
690.032	341.46
690.477	355.46
690.921	368.06
691.366	411.56
691.811	419.96
692.255	455.16
692.7	478.66
693.145	541.36
693.589	756.36
694.034	1232.16
694.478	1656.86
694.923	1825.26
695.367	2359.76
695.812	1262.86
696.256	525.16
696.701	381.76
697.145	369.06
697.59	349.26
698.034	342.26
698.478	342.46
698.922	339.66
699.367	335.16
699.811	350.06
700.255	365.16
700.699	398.56
701.143	446.96
701.588	505.56
702.032	540.26
702.476	539.96
702.92	520.56
703.364	534.56
703.808	693.16
704.252	1135.56
704.696	1571.26
705.14	1759.26
705.584	2234.36
706.027	1117.26
706.471	554.76
706.915	418.46
707.359	377.26
707.803	345.06
708.246	327.56
708.69	326.46
709.134	329.96
709.577	330.86
710.021	339.96
710.465	321.76
710.908	314.36
711.352	309.06
711.795	326.16
712.239	372.16
712.682	403.56
713.126	435.96
713.569	481.86
714.012	384.46
714.456	322.16
714.899	304.56
715.342	289.76
715.786	272.56
716.229	276.16
716.672	269.16
717.115	260.26
717.558	265.46
718.002	263.06
718.445	276.46
718.888	300.36
719.331	315.76
719.774	320.46
720.217	316.06
720.66	297.56
721.103	279.96
721.546	270.16
721.989	261.86
722.432	246.96
722.874	256.56
723.317	248.56
723.76	253.36
724.203	275.66
724.645	340.56
725.088	490.06
725.531	603.16
725.974	671.36
726.416	571.86
726.859	335.66
727.301	263.26
727.744	253.86
728.187	245.76
728.629	250.66
729.071	253.56
729.514	272.46
729.956	286.36
730.399	293.76
730.841	299.06
731.283	297.06
731.726	284.06
732.168	277.06
732.61	286.86
733.053	302.36
733.495	336.66
733.937	382.16
734.379	424.46
734.821	468.06
735.263	592.16
735.705	919.36
736.148	1733.76
736.59	2792.76
737.032	3201.26
737.474	2592.96
737.916	857.36
738.357	454.76
738.799	346.76
739.241	320.26
739.683	298.56
740.125	306.76
740.567	308.26
741.008	331.66
741.45	330.66
741.892	336.46
742.334	355.96
742.775	387.06
743.217	363.26
743.658	290.76
744.1	282.56
744.542	279.46
744.983	339.36
745.425	363.96
745.866	356.66
746.307	293.96
746.749	300.76
747.19	351.36
747.632	504.96
748.073	992.16
748.514	2050.96
748.956	3039.16
749.397	3838.46
749.838	3191.96
750.279	3100.86
750.72	1594.46
751.162	591.86
751.603	340.06
752.044	273.76
752.485	230.76
752.926	218.56
753.367	213.96
753.808	212.86
754.249	199.16
754.69	198.26
755.131	192.16
755.572	190.36
756.013	190.36
756.453	198.66
756.894	202.76
757.335	201.56
757.776	213.06
758.216	210.66
758.657	208.16
759.098	223.86
759.538	242.16
759.979	289.56
760.42	402.36
760.86	797.46
761.301	2062.06
761.741	4861.36
762.182	6718.46
762.622	4744.26
763.063	1392.56
763.503	565.06
763.943	346.46
764.384	299.86
764.824	285.66
765.264	269.36
765.705	224.46
766.145	194.26
766.585	188.36
767.025	176.66
767.465	175.26
767.906	201.56
768.346	216.86
768.786	236.56
769.226	230.96
769.666	342.06
770.106	705.16
770.546	1721.86
770.986	2793.96
771.426	2466.56
771.866	842.66
772.306	352.86
772.745	218.16
773.185	176.76
773.625	175.66
774.065	162.36
774.505	174.36
774.944	231.66
775.384	410.46
775.824	659.16
776.263	627.76
776.703	312.46
777.142	172.56
777.582	142.16
778.021	133.46
778.461	128.66
778.9	137.26
779.34	132.66
779.779	120.96
780.219	109.86
780.658	120.06
781.097	111.66
781.537	120.96
781.976	117.16
782.415	115.16
782.855	110.76
783.294	109.06
783.733	113.26
784.172	113.66
784.611	110.56
785.05	113.16
785.489	116.66
785.928	125.46
786.367	129.76
786.806	120.86
787.245	132.26
787.684	142.46
788.123	150.26
788.562	145.56
789.001	136.86
789.44	128.26
789.879	124.66
790.317	128.36
790.756	131.76
791.195	133.16
791.634	159.16
792.072	217.06
792.511	414.16
792.95	1125.16
793.388	2256.86
793.827	1998.96
794.265	716.76
794.704	304.36
795.142	190.56
795.581	160.56
796.019	141.56
796.458	138.06
796.896	125.36
797.334	138.96
797.773	165.26
798.211	236.96
798.649	491.76
799.087	1112.66
799.526	1730.26
799.964	2178.56
800.402	2093.26
800.84	810.06
801.278	324.06
801.716	203.36
802.154	167.86
802.592	159.06
803.03	153.26
803.468	147.86
803.906	149.76
804.344	153.96
804.782	147.26
805.22	145.46
805.658	139.96
806.096	159.36
806.533	171.06
806.971	193.16
807.409	233.96
807.847	343.56
808.284	749.56
808.722	2054.76
809.16	3496.86
809.597	3432.36
810.035	5865.76
810.472	6025.66
810.91	2217.16
811.347	853.56
811.785	433.56
812.222	269.96
812.66	214.66
813.097	167.96
813.535	151.66
813.972	139.16
814.409	122.36
814.846	112.76
815.284	109.96
815.721	105.76
816.158	111.46
816.595	117.86
817.032	163.76
817.47	189.96
817.907	135.56
818.344	106.56
818.781	110.26
819.218	98.46
819.655	129.26
820.092	202.76
820.529	226.16
820.966	179.06
821.403	132.56
821.839	99.56
822.276	107.36
822.713	139.86
823.15	144.06
823.587	125.36
824.023	159.16
824.46	330.86
824.897	993.16
825.333	1414.26
825.77	613.26
826.206	240.46
826.643	145.76
827.08	105.96
827.516	90.06
827.953	80.96
828.389	81.36
828.825	79.46
829.262	74.16
829.698	65.26
830.135	65.76
830.571	66.06
831.007	64.76
831.443	60.66
831.88	57.66
832.316	68.36
832.752	72.86
833.188	65.96
833.624	68.16
834.06	67.66
834.497	63.06
834.933	76.76
835.369	72.86
835.805	73.86
836.241	82.46
836.677	88.96
837.112	100.86
837.548	110.96
837.984	145.26
838.42	223.76
838.856	558.36
839.292	1641.86
839.727	2426.06
840.163	1147.76
840.599	1023.16
841.034	2199.06
841.47	2214.96
841.906	828.86
842.341	354.06
842.777	209.46
843.212	222.16
843.648	201.56
844.083	121.66
844.519	92.96
844.954	76.86
845.39	68.56
845.825	61.86
846.261	59.16
846.696	57.46
847.131	58.66
847.566	61.36
848.002	47.46
848.437	57.16
848.872	64.36
849.307	67.26
849.742	96.46
850.177	202.86
850.613	606.76
851.048	913.36
851.483	400.06
851.918	167.76
852.353	89.16
852.788	59.46
853.223	51.76
853.657	56.36
854.092	52.36
854.527	35.06
854.962	45.96
855.397	40.96
855.832	49.36
856.266	46.66
856.701	39.46
857.136	39.56
857.57	43.66
858.005	58.46
858.44	57.86
858.874	51.86
859.309	55.76
859.743	44.56
860.178	47.66
860.612	36.66
861.047	50.56
861.481	74.26
861.915	79.46
862.35	53.16
862.784	34.86
863.218	37.16
863.653	39.56
864.087	51.26
864.521	59.16
864.955	72.66
865.39	167.76
865.824	181.76
866.258	121.06
866.692	169.16
867.126	189.26
867.56	116.76
867.994	57.46
868.428	40.16
868.862	45.16
869.296	53.86
869.73	59.46
870.164	59.66
870.598	53.26
871.031	39.76
871.465	32.26
871.899	28.56
872.333	19.66
872.766	26.76
873.2	24.66
873.634	28.56
874.067	27.46
874.501	25.76
874.935	38.36
875.368	27.66
875.802	29.96
876.235	22.46
876.669	25.06
877.102	19.26
877.535	30.26
877.969	21.86
878.402	22.86
878.836	17.76
879.269	26.16
879.702	23.86
880.135	21.36
880.569	29.46
881.002	28.96
881.435	23.26
881.868	18.76
882.301	23.06
882.734	16.36
883.167	22.96
883.601	19.16
884.034	19.46
884.467	17.36
884.899	23.06
885.332	18.96
885.765	18.46
886.198	16.26
886.631	19.26
887.064	13.76
887.497	22.16
887.929	22.66
888.362	13.16
888.795	15.76
889.228	21.56
889.66	19.76
890.093	19.56
890.526	14.56
890.958	13.36
891.391	21.36
891.823	21.96
892.256	18.36
892.688	14.26
893.121	17.46
893.553	10.26
893.985	23.26
894.418	22.56
894.85	10.06
895.282	15.06
895.715	22.36
896.147	16.56
896.579	9.86
897.011	17.56
897.444	16.16
897.876	17.46
898.308	18.96
898.74	16.76
899.172	10.66
899.604	21.86
900.036	21.76
900.468	15.06
900.9	16.26
901.332	19.46
901.764	22.66
902.196	21.66
902.628	19.06
903.06	18.36
903.491	34.56
903.923	22.96
904.355	18.66
904.787	26.26
905.218	21.76
905.65	21.56
906.082	17.26
906.513	11.56
906.945	16.66
907.376	11.86
907.808	19.56
908.239	20.56
908.671	18.56
909.102	23.66
909.534	27.06
909.965	48.16
910.397	101.76
910.828	345.36
911.259	498.16
911.691	235.96
912.122	125.26
912.553	55.36
912.984	32.86
913.415	25.06
913.847	22.36
914.278	15.06
914.709	15.86
915.14	16.06
915.571	20.76
916.002	12.06
916.433	20.46
916.864	19.36
917.295	13.46
917.726	24.26
918.157	18.36
918.587	24.86
919.018	19.86
919.449	20.06
919.88	19.56
920.311	30.26
920.741	53.96
921.172	176.76
921.603	159.56
922.033	79.06
922.464	49.06
922.895	19.46
923.325	24.26
923.756	15.16
924.186	12.96
924.617	17.16
925.047	19.56
925.478	26.76
925.908	25.56
926.338	15.76
926.769	8.56
927.199	18.76
927.629	11.96
928.06	15.76
928.49	14.46
928.92	13.46
929.35	13.56
929.78	9.16
930.21	6.86
930.641	13.16
931.071	9.36
931.501	2.56
931.931	8.36
932.361	2.86
932.791	-0.34
933.221	8.46
933.651	2.76
934.08	19.06
934.51	29.76
934.94	13.66
935.37	8.16
935.8	14.26
936.229	10.96
936.659	12.06
937.089	1.06
937.519	12.66
937.948	22.56
938.378	17.06
938.807	4.96
939.237	0.86
939.666	5.46
940.096	-6.84
940.525	-1.74
940.955	1.06
941.384	3.86
941.814	-3.44
942.243	-2.74
942.672	1.26
943.102	-1.94
943.531	0.06
943.96	-1.14
944.39	4.06
944.819	-2.24
945.248	2.76
945.677	3.86
946.106	7.66
946.535	4.06
946.964	-2.94
947.393	7.16
947.822	-2.54
948.251	-10.64
948.68	3.26
949.109	7.46
949.538	4.96
949.967	1.86
950.396	0.46
950.825	-1.94
951.254	-4.64
951.682	-8.94
952.111	3.46
952.54	3.46
952.969	0.66
953.397	-2.64
953.826	3.26
954.254	-5.24
954.683	0.46
955.112	-6.84
955.54	-0.14
955.969	-0.84
956.397	0.16
956.826	2.06
957.254	-1.24
957.682	1.46
958.111	3.06
958.539	-3.64
958.967	1.36
959.396	-3.44
959.824	1.66
960.252	3.46
960.68	-7.24
961.109	-3.24
961.537	-2.14
961.965	1.56
962.393	0.36
962.821	-2.94
963.249	4.36
963.677	5.76
964.105	4.16
964.533	51.56
964.961	43.06
965.389	23.46
965.817	9.66
966.245	6.56
966.672	1.66
967.1	-3.44
967.528	-2.74
967.956	-5.94
968.383	-2.44
968.811	2.96
969.239	-4.84
969.666	-7.24
970.094	-0.14
970.522	0.66
970.949	-2.44
971.377	0.96
971.804	-3.14
972.232	-3.94
972.659	-0.44
973.087	-1.04
973.514	-1.84
973.941	-6.34
974.369	6.96
974.796	5.46
975.223	-3.34
975.651	-2.44
976.078	4.36
976.505	-3.54
976.932	5.26
977.359	16.86
977.786	12.56
978.214	2.26
978.641	-1.24
979.068	2.76
979.495	-9.64
979.922	-2.34
980.349	-5.54
980.776	2.76
981.202	-2.74
981.629	2.76
982.056	9.76
982.483	-3.14
982.91	3.66
983.337	-8.74
983.763	2.96
984.19	-3.54
984.617	-5.24
985.043	-4.84
985.47	-1.84
985.897	-4.04
986.323	-9.84
986.75	2.96
987.176	-0.34
987.603	2.96
988.029	0.56
988.456	-7.74
988.882	-1.64
989.308	-5.44
989.735	-2.24
990.161	1.06
990.587	-7.44
991.014	4.26
991.44	10.36
991.866	-0.54
992.292	-6.44
992.719	-3.14
993.145	5.76
993.571	-7.24
993.997	-4.14
994.423	4.96
994.849	-10.64
995.275	-8.64
995.701	-2.04
996.127	-0.34
996.553	-3.74
996.979	-0.94
997.405	-2.54
997.83	-3.54
998.256	-5.94
998.682	-5.84
999.108	-8.34
999.534	0.66
999.959	0.56
1000.385	-5.24
1000.811	5.96
1001.236	-8.94
1001.662	-1.84
1002.087	-3.24
1002.513	1.66
1002.938	2.36
1003.364	-1.04
1003.789	2.56
1004.215	-0.44
1004.64	-4.74
1005.066	0.96
1005.491	0.16
1005.916	-1.84
1006.342	-0.94
1006.767	-10.14
1007.192	9.36
1007.617	-0.14
1008.042	0.16
1008.468	-10.64
1008.893	-5.24
1009.318	-8.14
1009.743	-0.34
1010.168	-4.64
1010.593	1.96
1011.018	-9.44
1011.443	-2.24
1011.868	-0.24
1012.293	-1.04
1012.718	-4.04
1013.143	-2.24
1013.567	-2.04
1013.992	-2.44
1014.417	-13.54
1014.842	2.16
1015.267	-7.34
1015.691	-0.54
1016.116	2.66
1016.541	1.76
1016.965	2.16
1017.39	0.06
1017.814	-2.64
1018.239	-6.64
1018.663	-6.54
1019.088	-8.74
1019.512	0.76
1019.937	-3.54
1020.361	-6.24
1020.785	-9.44
1021.21	-2.14
1021.634	-4.24
1022.058	0.46
1022.483	3.76
1022.907	-1.44
1023.331	-9.24
1023.755	-3.44
1024.179	-9.04
1024.604	-11.54
1025.028	-7.34
1025.452	-0.34
1025.876	-5.14
1026.3	-8.04
1026.724	-11.94
1027.148	-2.24
1027.572	-13.64
1027.996	-1.94
1028.42	-2.04
1028.843	-5.44
1029.267	-4.34
1029.691	-2.54
1030.115	-8.54
1030.539	-2.94
1030.962	-10.44
1031.386	-8.94
1031.81	-0.34
1032.233	-1.24
1032.657	-4.84
1033.08	-3.24
1033.504	1.46
1033.927	0.06
1034.351	-3.94
1034.774	-11.14
1035.198	-3.64
1035.621	-7.94
1036.045	0.36
1036.468	-1.84
1036.891	-13.54
1037.315	-8.44
1037.738	-10.64
1038.161	-4.04
1038.584	-9.14
1039.008	-8.34
1039.431	-5.34
1039.854	-1.54
1040.277	-8.04
1040.7	-13.24
1041.123	-2.74
1041.546	-7.94
1041.969	-8.04
1042.392	-9.34
1042.815	0.56
1043.238	-1.54
1043.661	2.86
1044.084	-1.74
1044.507	-6.04
1044.93	-2.54
1045.352	-3.94
1045.775	-1.24
1046.198	-5.94
1046.621	0.26
1047.043	-0.94
1047.466	3.56
1047.889	-5.54
1048.311	-6.54
1048.734	0.16
1049.156	-5.74
1049.579	-4.74
1050.001	-2.34
1050.424	6.46
1050.846	0.86
1051.269	-1.34
1051.691	-10.54
1052.113	-6.84
1052.536	-8.24
1052.958	-7.44
1053.38	-5.44
1053.802	-12.14
1054.225	0.16
1054.647	-8.74
1055.069	-6.44
1055.491	-3.94
1055.913	-8.94
1056.335	-2.14
1056.757	-3.34
1057.179	-7.64
1057.601	-2.24
1058.023	-4.24
1058.445	-2.64
1058.867	-9.34
1059.289	-2.24
1059.711	-10.24
1060.133	-0.44
1060.555	-3.74
1060.976	-4.54
1061.398	-0.44
1061.82	-10.14
1062.241	-5.84
1062.663	-7.04
1063.085	-5.64
1063.506	-3.54
1063.928	-6.14
1064.35	-0.34
1064.771	-5.44
1065.193	-8.34
1065.614	-7.34
1066.035	-2.04
1066.457	-3.74
1066.878	-1.54
1067.3	-6.94
1067.721	-4.04
1068.142	-5.24
1068.564	-2.64
1068.985	-5.14
1069.406	-7.54
1069.827	-4.34
1070.248	-3.24
1070.67	-6.84
1071.091	-0.84
1071.512	-3.64
1071.933	-7.34
1072.354	-6.54
1072.775	-4.44
1073.196	-10.94
1073.617	-4.34
1074.038	-9.34
1074.459	-6.24
1074.88	-13.54
1075.3	2.46
1075.721	-10.54
1076.142	0.16
1076.563	-8.94
1076.983	-8.54
1077.404	-4.64
1077.825	-6.34
1078.246	-4.94
1078.666	-9.74
1079.087	-1.94
1079.507	-8.14
1079.928	-3.64
1080.348	-3.14
1080.769	-2.54
1081.189	-5.64
1081.61	-5.54
1082.03	-1.14
1082.451	-9.14
1082.871	-1.24
1083.291	-13.44
1083.711	-7.74
1084.132	-2.64
1084.552	-3.04
1084.972	-3.24
1085.392	-10.64
1085.813	-14.04
1086.233	-2.24
1086.653	-7.44
1087.073	-6.34
1087.493	-3.64
1087.913	-8.94
1088.333	-8.94
1088.753	-7.54
1089.173	-0.74
1089.593	-3.24
1090.013	-0.64
1090.433	-3.94
1090.852	-8.74
1091.272	0.76
1091.692	-5.24
1092.112	-8.54
1092.531	-9.74
1092.951	-10.64
1093.371	-4.24
1093.79	-0.54
1094.21	-10.74
1094.63	-5.64
1095.049	-5.64
1095.469	-7.14
1095.888	-4.54
1096.308	-0.34
1096.727	2.76
1097.146	-2.54
1097.566	-6.64
1097.985	-3.14
1098.405	-3.14
1098.824	-3.54
1099.243	-9.14
1099.662	-11.14
1100.082	-1.24
1100.501	1.26
1100.92	-4.34
1101.339	-1.34
1101.758	-3.34
