Data from 20171114-ORNL-Ar_H_NY_Subt18_08-05-22-044.txt Node
Date: Tue Nov 14 08:05:22 EST 2017
User: Ender
Spectrometer: HR+D1039
Trigger mode: 0
Integration Time (sec): 2.730000E-2
Scans to average: 10
Electric dark correction enabled: true
Nonlinearity correction enabled: false
Boxcar width: 0
XAxis mode: Wavelengths
Number of Pixels in Spectrum: 2048
>>>>>Begin Spectral Data<<<<<
187.836	-6.78
188.309	-6.78
188.782	-6.78
189.255	3.62
189.728	2.02
190.201	0.62
190.674	5.02
191.147	-0.08
191.619	-1.58
192.092	3.12
192.565	0.82
193.038	-4.58
193.511	1.72
193.984	-0.28
194.456	-0.18
194.929	3.52
195.402	-5.88
195.874	-1.18
196.347	-1.08
196.82	-3.38
197.292	7.92
197.765	2.32
198.237	-4.48
198.71	6.32
199.182	-4.08
199.655	0.62
200.127	1.22
200.6	2.82
201.072	3.52
201.544	-5.08
202.017	-8.18
202.489	2.52
202.961	3.32
203.433	2.32
203.906	-3.48
204.378	-2.58
204.85	-0.98
205.322	0.32
205.794	-3.68
206.266	-2.08
206.739	-3.18
207.211	5.32
207.683	-6.58
208.155	-5.78
208.627	-2.48
209.099	-4.68
209.57	-3.58
210.042	-1.78
210.514	0.42
210.986	-1.48
211.458	-7.28
211.93	-2.58
212.402	4.62
212.873	-7.08
213.345	-13.08
213.817	-7.48
214.288	-3.78
214.76	-7.18
215.232	0.82
215.703	-7.28
216.175	0.72
216.646	-6.68
217.118	-6.78
217.589	3.32
218.061	1.72
218.532	-2.78
219.004	-0.78
219.475	-2.68
219.946	2.02
220.418	-3.08
220.889	2.32
221.36	2.02
221.832	-0.28
222.303	-3.38
222.774	7.22
223.245	-4.88
223.717	-11.08
224.188	-6.78
224.659	-5.68
225.13	-6.08
225.601	-2.18
226.072	10.02
226.543	7.72
227.014	3.52
227.485	4.82
227.956	-14.48
228.427	-0.48
228.898	10.02
229.369	1.82
229.839	5.02
230.31	-9.88
230.781	-0.28
231.252	-0.48
231.722	-0.58
232.193	-4.48
232.664	2.62
233.135	2.82
233.605	-1.48
234.076	-5.48
234.546	0.72
235.017	9.22
235.487	1.92
235.958	4.42
236.428	0.22
236.899	10.52
237.369	7.32
237.84	0.62
238.31	7.02
238.78	7.42
239.251	2.42
239.721	3.62
240.191	4.92
240.662	-0.28
241.132	4.32
241.602	2.42
242.072	5.72
242.542	7.92
243.013	4.62
243.483	10.12
243.953	3.42
244.423	2.32
244.893	5.12
245.363	1.52
245.833	6.52
246.303	2.22
246.773	15.62
247.243	1.92
247.712	10.22
248.182	10.42
248.652	10.52
249.122	0.02
249.592	13.92
250.061	23.92
250.531	35.52
251.001	20.12
251.471	23.72
251.94	19.42
252.41	5.12
252.879	5.92
253.349	10.92
253.818	9.72
254.288	7.42
254.757	7.92
255.227	-0.28
255.696	1.22
256.166	7.42
256.635	6.22
257.105	9.42
257.574	4.52
258.043	13.52
258.513	15.82
258.982	17.52
259.451	11.22
259.92	17.72
260.389	14.12
260.859	17.02
261.328	13.82
261.797	22.02
262.266	12.52
262.735	0.52
263.204	8.02
263.673	2.52
264.142	5.82
264.611	-1.58
265.08	-2.58
265.549	3.62
266.018	2.12
266.487	4.32
266.955	2.92
267.424	1.32
267.893	10.72
268.362	3.42
268.83	8.22
269.299	16.82
269.768	10.62
270.236	5.62
270.705	6.82
271.174	9.82
271.642	13.52
272.111	8.62
272.579	23.72
273.048	29.42
273.516	30.12
273.985	30.12
274.453	25.42
274.922	23.52
275.39	15.42
275.858	10.22
276.327	12.42
276.795	19.42
277.263	11.02
277.731	39.62
278.2	66.92
278.668	65.92
279.136	58.42
279.604	23.52
280.072	21.62
280.54	13.72
281.008	13.12
281.477	19.32
281.945	13.72
282.413	16.92
282.881	26.72
283.348	17.12
283.816	21.92
284.284	13.02
284.752	23.22
285.22	15.52
285.688	16.92
286.156	24.22
286.623	48.12
287.091	52.62
287.559	30.42
288.026	18.32
288.494	18.02
288.962	10.62
289.429	13.82
289.897	23.42
290.364	15.32
290.832	15.92
291.3	21.22
291.767	23.52
292.234	25.02
292.702	18.32
293.169	17.62
293.637	28.12
294.104	20.52
294.571	13.12
295.039	19.12
295.506	22.42
295.973	22.12
296.44	17.12
296.908	20.22
297.375	20.82
297.842	25.22
298.309	25.12
298.776	19.72
299.243	29.72
299.71	23.12
300.177	26.52
300.644	23.62
301.111	25.62
301.578	21.22
302.045	21.12
302.512	28.12
302.979	29.02
303.446	23.82
303.913	24.42
304.379	21.22
304.846	26.32
305.313	27.12
305.78	25.22
306.246	30.82
306.713	34.72
307.18	34.32
307.646	28.52
308.113	32.02
308.579	25.52
309.046	24.92
309.512	35.02
309.979	19.22
310.445	36.02
310.912	31.72
311.378	33.22
311.845	32.62
312.311	36.12
312.777	31.32
313.244	32.72
313.71	39.82
314.176	31.82
314.642	41.62
315.109	31.42
315.575	41.42
316.041	39.72
316.507	39.72
316.973	41.12
317.439	38.22
317.905	40.42
318.371	38.62
318.837	41.22
319.303	41.12
319.769	35.92
320.235	39.92
320.701	44.22
321.167	44.92
321.633	41.02
322.099	45.62
322.564	44.82
323.03	50.52
323.496	35.72
323.962	44.32
324.427	39.72
324.893	42.52
325.359	41.12
325.824	44.82
326.29	41.82
326.755	44.02
327.221	40.52
327.686	45.92
328.152	52.32
328.617	44.72
329.083	50.52
329.548	53.22
330.014	52.42
330.479	48.72
330.944	46.82
331.41	47.62
331.875	47.92
332.34	51.32
332.805	48.82
333.271	50.72
333.736	45.42
334.201	57.52
334.666	50.42
335.131	55.82
335.596	52.52
336.061	56.42
336.526	48.32
336.991	55.72
337.456	51.02
337.921	56.62
338.386	47.92
338.851	50.82
339.316	51.82
339.781	59.42
340.246	58.12
340.711	49.02
341.175	55.02
341.64	51.12
342.105	55.32
342.569	60.12
343.034	61.72
343.499	60.02
343.963	56.92
344.428	64.42
344.893	60.32
345.357	64.82
345.822	59.72
346.286	73.42
346.751	77.42
347.215	73.92
347.679	80.32
348.144	106.62
348.608	84.52
349.073	79.52
349.537	79.92
350.001	86.42
350.465	93.72
350.93	84.82
351.394	79.62
351.858	79.02
352.322	95.02
352.786	88.02
353.25	104.52
353.715	112.62
354.179	105.82
354.643	123.12
355.107	133.22
355.571	118.42
356.035	111.52
356.498	119.72
356.962	126.42
357.426	136.92
357.89	124.12
358.354	97.22
358.818	86.62
359.281	91.92
359.745	79.82
360.209	80.82
360.673	83.92
361.136	83.02
361.6	91.32
362.064	84.22
362.527	82.12
362.991	93.62
363.454	87.02
363.918	78.32
364.381	81.52
364.845	85.32
365.308	84.62
365.772	94.32
366.235	93.42
366.698	93.82
367.162	88.42
367.625	94.52
368.088	95.52
368.552	95.32
369.015	97.72
369.478	95.12
369.941	99.72
370.404	100.42
370.867	111.82
371.331	106.02
371.794	113.42
372.257	110.92
372.72	121.82
373.183	114.52
373.646	104.12
374.109	102.52
374.572	110.52
375.035	109.82
375.497	108.72
375.96	107.32
376.423	109.32
376.886	119.12
377.349	117.02
377.811	106.42
378.274	108.42
378.737	107.42
379.199	117.22
379.662	110.02
380.125	120.82
380.587	118.32
381.05	122.42
381.512	135.52
381.975	135.82
382.437	129.42
382.9	131.62
383.362	140.92
383.825	142.32
384.287	155.52
384.75	133.32
385.212	140.92
385.674	141.72
386.136	138.12
386.599	133.02
387.061	131.52
387.523	133.62
387.985	130.92
388.447	153.32
388.91	146.42
389.372	156.32
389.834	154.42
390.296	149.12
390.758	160.42
391.22	160.42
391.682	209.52
392.144	301.22
392.606	235.22
393.068	168.92
393.529	171.92
393.991	159.72
394.453	159.82
394.915	160.52
395.377	189.42
395.838	217.12
396.3	168.52
396.762	143.12
397.224	133.42
397.685	137.72
398.147	144.62
398.608	137.62
399.07	127.42
399.531	136.42
399.993	142.02
400.454	146.82
400.916	152.52
401.377	143.72
401.839	154.82
402.3	157.22
402.762	169.82
403.223	180.62
403.684	167.52
404.145	167.52
404.607	167.72
405.068	178.02
405.529	173.92
405.99	194.32
406.451	175.32
406.913	185.52
407.374	172.12
407.835	167.02
408.296	171.12
408.757	170.92
409.218	191.42
409.679	177.32
410.14	179.92
410.601	179.02
411.062	183.52
411.522	191.72
411.983	190.72
412.444	176.42
412.905	188.42
413.366	190.42
413.826	196.02
414.287	220.12
414.748	264.32
415.208	251.92
415.669	214.92
416.13	205.42
416.59	204.32
417.051	214.52
417.511	221.52
417.972	236.92
418.432	251.92
418.893	297.42
419.353	253.32
419.814	199.32
420.274	185.22
420.734	190.12
421.195	195.82
421.655	200.82
422.115	197.32
422.576	191.42
423.036	200.02
423.496	216.92
423.956	223.23
424.416	241.22
424.876	270.92
425.336	264.42
425.797	272.02
426.257	259.32
426.717	244.82
427.177	229.52
427.637	226.72
428.097	239.02
428.556	250.42
429.016	277.72
429.476	265.52
429.936	282.82
430.396	275.52
430.856	288.22
431.315	320.92
431.775	360.42
432.235	385.82
432.694	357.72
433.154	361.52
433.614	392.52
434.073	336.32
434.533	287.42
434.993	276.22
435.452	287.22
435.912	301.92
436.371	294.02
436.83	280.12
437.29	265.42
437.749	247.52
438.209	246.72
438.668	278.92
439.127	289.42
439.587	270.32
440.046	257.12
440.505	268.62
440.964	283.92
441.424	327.02
441.883	320.22
442.342	269.42
442.801	227.22
443.26	215.22
443.719	219.42
444.178	225.82
444.637	215.23
445.096	220.52
445.555	228.52
446.014	229.92
446.473	228.12
446.932	232.22
447.391	230.12
447.849	231.12
448.308	220.02
448.767	224.62
449.226	239.22
449.685	236.32
450.143	248.32
450.602	246.22
451.061	228.42
451.519	236.42
451.978	239.02
452.436	236.22
452.895	239.02
453.353	255.22
453.812	243.92
454.27	241.12
454.729	244.12
455.187	242.32
455.646	245.12
456.104	256.82
456.562	262.72
457.021	275.02
457.479	268.62
457.937	278.22
458.395	266.82
458.854	247.12
459.312	256.02
459.77	278.02
460.228	250.22
460.686	244.02
461.144	251.62
461.602	243.42
462.06	251.42
462.518	256.12
462.976	258.72
463.434	252.52
463.892	268.02
464.35	283.82
464.808	299.22
465.266	267.12
465.724	282.23
466.181	281.62
466.639	271.82
467.097	292.32
467.555	309.12
468.012	312.92
468.47	316.32
468.928	340.42
469.385	353.73
469.843	350.72
470.3	345.42
470.758	361.22
471.215	399.72
471.673	411.72
472.13	415.92
472.588	423.12
473.045	378.52
473.503	386.92
473.96	404.62
474.417	407.72
474.875	428.62
475.332	480.82
475.789	464.82
476.246	474.12
476.704	497.82
477.161	510.62
477.618	529.02
478.075	564.52
478.532	631.42
478.989	702.32
479.446	812.52
479.903	783.02
480.36	816.52
480.817	864.52
481.274	974.82
481.731	1081.53
482.188	1172.32
482.645	1307.33
483.102	1411.22
483.558	1556.82
484.015	1611.43
484.472	1589.32
484.929	1534.12
485.385	1485.42
485.842	1441.12
486.299	1379.12
486.755	1305.23
487.212	1098.03
487.668	935.02
488.125	858.52
488.582	782.82
489.038	755.22
489.494	725.32
489.951	691.82
490.407	679.52
490.864	647.02
491.32	650.22
491.776	643.62
492.233	656.02
492.689	611.42
493.145	608.32
493.602	606.02
494.058	625.42
494.514	623.12
494.97	634.52
495.426	655.32
495.882	625.72
496.338	619.02
496.794	632.32
497.251	629.02
497.707	651.92
498.163	644.72
498.618	654.32
499.074	655.12
499.53	676.82
499.986	691.32
500.442	650.12
500.898	646.32
501.354	634.42
501.809	647.52
502.265	650.12
502.721	668.02
503.177	683.02
503.632	676.92
504.088	683.92
504.543	722.22
504.999	716.62
505.455	662.72
505.91	642.92
506.366	645.12
506.821	631.72
507.277	631.42
507.732	630.52
508.187	621.62
508.643	642.02
509.098	630.62
509.553	661.22
510.009	665.62
510.464	672.72
510.919	694.02
511.375	705.62
511.83	719.62
512.285	731.02
512.74	763.32
513.195	790.12
513.65	781.23
514.105	779.12
514.56	775.32
515.015	802.62
515.47	813.92
515.925	806.02
516.38	799.52
516.835	797.02
517.29	795.12
517.745	776.02
518.2	769.82
518.655	756.62
519.109	750.62
519.564	743.92
520.019	742.52
520.474	739.62
520.928	733.82
521.383	731.42
521.838	719.92
522.292	719.02
522.747	715.12
523.201	720.52
523.656	704.32
524.11	705.23
524.565	699.82
525.019	692.92
525.474	699.92
525.928	706.73
526.382	698.52
526.837	710.72
527.291	717.22
527.745	702.22
528.2	712.12
528.654	708.02
529.108	705.12
529.562	684.22
530.016	690.02
530.47	692.92
530.925	697.92
531.379	698.12
531.833	713.92
532.287	712.92
532.741	703.82
533.195	712.12
533.649	719.52
534.103	729.52
534.556	710.72
535.01	718.22
535.464	716.52
535.918	728.32
536.372	729.12
536.826	720.02
537.279	715.02
537.733	715.82
538.187	717.12
538.64	710.92
539.094	726.42
539.548	731.52
540.001	724.92
540.455	723.62
540.908	744.02
541.362	748.62
541.815	751.52
542.269	762.32
542.722	761.02
543.175	771.52
543.629	767.82
544.082	782.52
544.536	786.12
544.989	788.23
545.442	785.82
545.895	788.62
546.349	785.92
546.802	796.32
547.255	804.32
547.708	800.62
548.161	806.82
548.614	821.42
549.067	828.32
549.52	818.92
549.973	799.12
550.426	804.12
550.879	790.12
551.332	805.52
551.785	810.02
552.238	809.72
552.691	817.82
553.144	842.42
553.596	844.73
554.049	856.92
554.502	896.72
554.955	922.62
555.407	917.12
555.86	894.82
556.313	899.12
556.765	882.92
557.218	885.92
557.67	893.32
558.123	878.02
558.576	876.72
559.028	868.52
559.48	889.52
559.933	872.62
560.385	829.02
560.838	804.22
561.29	774.42
561.742	782.82
562.195	752.42
562.647	763.23
563.099	775.02
563.551	772.02
564.004	782.72
564.456	769.92
564.908	768.02
565.36	736.82
565.812	739.42
566.264	721.12
566.716	719.12
567.168	711.52
567.62	724.32
568.072	702.62
568.524	693.23
568.976	693.72
569.428	672.12
569.88	663.42
570.332	675.12
570.784	668.32
571.235	680.02
571.687	691.32
572.139	702.72
572.59	700.92
573.042	709.12
573.494	715.22
573.945	697.32
574.397	686.92
574.849	685.82
575.3	685.22
575.752	684.92
576.203	675.92
576.655	681.72
577.106	663.82
577.557	662.52
578.009	666.12
578.46	655.62
578.912	650.72
579.363	657.52
579.814	661.32
580.265	658.92
580.717	662.02
581.168	664.52
581.619	667.52
582.07	681.42
582.521	669.12
582.972	667.82
583.423	676.32
583.875	676.82
584.326	704.42
584.777	734.82
585.227	808.32
585.678	897.82
586.129	975.82
586.58	1039.02
587.031	1133.32
587.482	1277.52
587.933	1444.03
588.384	1258.82
588.834	949.02
589.285	785.92
589.736	772.42
590.186	760.12
590.637	754.22
591.088	733.82
591.538	718.72
591.989	717.02
592.439	713.72
592.89	714.72
593.34	690.72
593.791	695.32
594.241	693.52
594.692	691.32
595.142	700.92
595.593	683.52
596.043	691.62
596.493	707.42
596.943	703.42
597.394	704.42
597.844	709.72
598.294	709.82
598.744	734.92
599.195	771.92
599.645	801.02
600.095	849.12
600.545	899.32
600.995	945.72
601.445	1001.62
601.895	1063.12
602.345	1110.02
602.795	1090.62
603.245	1047.03
603.695	1003.32
604.145	946.23
604.594	884.62
605.044	842.12
605.494	775.82
605.944	731.42
606.393	723.72
606.843	708.82
607.293	716.23
607.743	724.72
608.192	733.52
608.642	740.02
609.091	752.12
609.541	744.42
609.99	746.82
610.44	747.92
610.889	695.62
611.339	683.62
611.788	660.82
612.238	687.82
612.687	694.72
613.136	701.72
613.586	717.12
614.035	717.42
614.484	728.02
614.933	738.32
615.383	734.92
615.832	718.82
616.281	705.42
616.73	668.92
617.179	654.92
617.628	629.82
618.077	617.12
618.526	595.92
618.975	606.32
619.424	601.62
619.873	587.02
620.322	604.52
620.771	590.02
621.22	589.82
621.669	577.42
622.118	574.72
622.567	562.62
623.015	550.82
623.464	555.92
623.913	542.82
624.361	545.22
624.81	541.92
625.259	542.62
625.707	540.62
626.156	542.02
626.604	553.82
627.053	553.32
627.501	535.62
627.95	552.82
628.398	559.72
628.847	548.92
629.295	556.82
629.744	550.82
630.192	550.62
630.64	552.12
631.089	546.02
631.537	556.12
631.985	571.02
632.433	574.12
632.881	583.82
633.33	640.22
633.778	611.32
634.226	551.82
634.674	550.82
635.122	559.42
635.57	577.42
636.018	602.12
636.466	561.22
636.914	542.82
637.362	561.23
637.81	555.32
638.258	562.12
638.705	555.02
639.153	586.52
639.601	596.22
640.049	622.82
640.497	650.72
640.944	675.32
641.392	630.82
641.84	586.32
642.287	556.82
642.735	554.42
643.182	548.12
643.63	552.92
644.078	554.12
644.525	566.12
644.973	577.72
645.42	577.92
645.867	602.02
646.315	605.82
646.762	630.52
647.21	657.73
647.657	686.12
648.104	725.22
648.551	735.22
648.999	807.52
649.446	876.32
649.893	962.82
650.34	1103.22
650.787	1310.82
651.234	1633.93
651.682	2123.82
652.129	2920.82
652.576	4182.22
653.023	6182.02
653.47	8487.32
653.917	10664.22
654.363	12428.12
654.81	13803.12
655.257	13123.12
655.704	8567.22
656.151	5070.72
656.598	3263.62
657.044	2337.32
657.491	1791.33
657.938	1436.62
658.385	1205.62
658.831	1031.42
659.278	933.42
659.724	830.62
660.171	763.82
660.618	687.32
661.064	667.52
661.511	633.92
661.957	624.42
662.404	618.62
662.85	610.12
663.296	595.22
663.743	540.72
664.189	518.12
664.635	512.12
665.082	509.82
665.528	508.22
665.974	493.32
666.42	487.72
666.867	479.02
667.313	467.72
667.759	461.32
668.205	455.82
668.651	461.92
669.097	458.32
669.543	477.52
669.989	451.12
670.435	432.62
670.881	425.02
671.327	434.92
671.773	440.52
672.219	467.82
672.665	519.42
673.11	550.82
673.556	612.12
674.002	640.72
674.448	638.02
674.893	520.22
675.339	449.22
675.785	422.62
676.23	397.32
676.676	375.22
677.122	361.22
677.567	354.42
678.013	350.52
678.458	338.52
678.904	342.62
679.349	327.82
679.794	338.12
680.24	340.62
680.685	339.12
681.131	326.62
681.576	342.72
682.021	336.02
682.466	338.32
682.912	334.52
683.357	341.82
683.802	354.73
684.247	384.32
684.692	424.32
685.137	457.12
685.583	508.42
686.028	530.92
686.473	486.22
686.918	421.72
687.363	392.82
687.807	380.02
688.252	360.52
688.697	328.52
689.142	319.72
689.587	317.12
690.032	310.12
690.477	324.22
690.921	333.02
691.366	362.72
691.811	378.92
692.255	413.22
692.7	441.42
693.145	480.02
693.589	642.62
694.034	1044.43
694.478	1445.83
694.923	1639.43
695.367	2157.53
695.812	1133.62
696.256	471.62
696.701	357.12
697.145	324.62
697.59	310.32
698.034	297.62
698.478	307.42
698.922	302.82
699.367	312.12
699.811	319.62
700.255	342.23
700.699	366.22
701.143	404.32
701.588	453.72
702.032	493.02
702.476	490.52
702.92	469.92
703.364	460.22
703.808	591.72
704.252	967.32
704.696	1349.23
705.14	1568.42
705.584	2020.43
706.027	1009.02
706.471	497.72
706.915	376.52
707.359	328.12
707.803	298.12
708.246	298.73
708.69	299.12
709.134	305.32
709.577	297.12
710.021	299.32
710.465	288.22
710.908	289.82
711.352	283.82
711.795	291.62
712.239	324.72
712.682	354.02
713.126	400.82
713.569	438.72
714.012	346.52
714.456	306.32
714.899	285.02
715.342	256.42
715.786	245.02
716.229	245.92
716.672	246.82
717.115	234.92
717.558	234.32
718.002	235.12
718.445	245.12
718.888	265.72
719.331	273.62
719.774	289.22
720.217	293.82
720.66	273.72
721.103	252.82
721.546	242.92
721.989	234.02
722.432	223.62
722.874	225.42
723.317	214.02
723.76	224.32
724.203	250.22
724.645	299.62
725.088	416.12
725.531	537.22
725.974	617.82
726.416	519.32
726.859	293.82
727.301	232.72
727.744	226.42
728.187	227.32
728.629	222.52
729.071	226.32
729.514	239.62
729.956	265.42
730.399	266.12
730.841	282.52
731.283	260.23
731.726	249.12
732.168	247.22
732.61	245.92
733.053	268.92
733.495	292.52
733.937	331.82
734.379	376.62
734.821	419.42
735.263	512.62
735.705	759.22
736.148	1454.22
736.59	2416.02
737.032	2903.93
737.474	2375.62
737.916	759.22
738.357	400.22
738.799	312.02
739.241	280.82
739.683	258.42
740.125	279.22
740.567	280.62
741.008	294.82
741.45	295.82
741.892	301.02
742.334	330.12
742.775	338.52
743.217	329.12
743.658	257.72
744.1	241.92
744.542	242.62
744.983	291.52
745.425	329.02
745.866	328.72
746.307	274.72
746.749	268.92
747.19	299.52
747.632	413.12
748.073	797.32
748.514	1715.13
748.956	2668.03
749.397	3343.73
749.838	2776.32
750.279	2816.22
750.72	1434.73
751.162	516.72
751.603	299.42
752.044	236.52
752.485	201.32
752.926	196.02
753.367	187.42
753.808	183.82
754.249	174.02
754.69	183.12
755.131	177.12
755.572	175.42
756.013	174.82
756.453	172.22
756.894	171.72
757.335	177.92
757.776	188.02
758.216	179.12
758.657	182.02
759.098	189.52
759.538	211.82
759.979	252.42
760.42	346.72
760.86	641.82
761.301	1649.12
761.741	4086.42
762.182	6120.02
762.622	4345.22
763.063	1238.93
763.503	501.22
763.943	323.72
764.384	318.22
764.824	379.52
765.264	395.02
765.705	297.52
766.145	197.52
766.585	178.72
767.025	169.32
767.465	175.92
767.906	218.52
768.346	298.62
768.786	313.12
769.226	245.62
769.666	298.62
770.106	556.72
770.546	1415.22
770.986	2513.93
771.426	2270.32
771.866	745.73
772.306	307.82
772.745	194.72
773.185	166.42
773.625	164.32
774.065	155.32
774.505	176.92
774.944	270.02
775.384	605.62
775.824	1114.83
776.263	1099.62
776.703	462.82
777.142	210.92
777.582	150.72
778.021	129.72
778.461	129.72
778.9	131.72
779.34	125.42
779.779	109.42
780.219	109.62
780.658	104.32
781.097	95.72
781.537	111.32
781.976	97.22
782.415	95.12
782.855	98.12
783.294	96.82
783.733	99.52
784.172	106.12
784.611	98.22
785.05	108.22
785.489	110.92
785.928	116.72
786.367	113.42
786.806	114.52
787.245	126.92
787.684	129.72
788.123	146.12
788.562	122.12
789.001	126.32
789.44	114.02
789.879	104.62
790.317	111.32
790.756	123.62
791.195	123.22
791.634	137.02
792.072	195.12
792.511	331.42
792.95	905.32
793.388	1998.12
793.827	1840.62
794.265	643.82
794.704	270.52
795.142	172.52
795.581	138.82
796.019	128.12
796.458	118.82
796.896	116.42
797.334	123.02
797.773	145.92
798.211	204.02
798.649	395.62
799.087	946.62
799.526	1478.53
799.964	1857.53
800.402	1925.22
800.84	720.62
801.278	291.02
801.716	179.42
802.154	146.92
802.592	137.42
803.03	127.32
803.468	123.02
803.906	129.32
804.344	134.42
804.782	137.92
805.22	130.72
805.658	116.22
806.096	142.32
806.533	147.82
806.971	163.82
807.409	208.72
807.847	293.32
808.284	598.62
808.722	1708.52
809.16	3093.43
809.597	2877.82
810.035	5056.72
810.472	5566.22
810.91	1985.03
811.347	746.92
811.785	378.42
812.222	240.72
812.66	186.42
813.097	149.82
813.535	138.92
813.972	124.32
814.409	107.92
814.846	100.12
815.284	104.92
815.721	98.52
816.158	99.92
816.595	114.72
817.032	161.12
817.47	194.52
817.907	161.82
818.344	144.62
818.781	111.52
819.218	95.62
819.655	124.02
820.092	172.92
820.529	206.02
820.966	170.12
821.403	138.32
821.839	102.92
822.276	99.12
822.713	111.32
823.15	132.12
823.587	112.72
824.023	137.02
824.46	271.92
824.897	825.82
825.333	1277.33
825.77	546.82
826.206	222.62
826.643	130.42
827.08	89.02
827.516	83.52
827.953	71.72
828.389	75.12
828.825	67.92
829.262	65.32
829.698	59.12
830.135	68.52
830.571	63.72
831.007	57.02
831.443	68.52
831.88	51.42
832.316	65.42
832.752	54.62
833.188	63.92
833.624	66.92
834.06	55.12
834.497	74.72
834.933	67.12
835.369	76.72
835.805	62.82
836.241	69.82
836.677	80.92
837.112	81.72
837.548	89.62
837.984	125.62
838.42	187.12
838.856	450.72
839.292	1402.53
839.727	2181.82
840.163	1008.53
840.599	853.72
841.034	1887.93
841.47	2031.03
841.906	738.42
842.341	318.52
842.777	218.62
843.212	290.12
843.648	284.62
844.083	142.52
844.519	88.22
844.954	76.02
845.39	51.32
845.825	58.52
846.261	55.02
846.696	50.92
847.131	50.02
847.566	58.62
848.002	49.72
848.437	52.82
848.872	60.12
849.307	60.62
849.742	81.22
850.177	170.22
850.613	521.23
851.048	852.22
851.483	364.62
851.918	145.42
852.353	81.72
852.788	56.22
853.223	53.42
853.657	52.72
854.092	47.62
854.527	43.82
854.962	44.62
855.397	40.12
855.832	47.92
856.266	44.92
856.701	41.42
857.136	34.02
857.57	41.92
858.005	41.52
858.44	57.02
858.874	45.52
859.309	54.72
859.743	38.12
860.178	41.02
860.612	42.12
861.047	53.92
861.481	56.02
861.915	67.82
862.35	43.72
862.784	34.32
863.218	28.92
863.653	32.32
864.087	42.12
864.521	61.02
864.955	72.82
865.39	155.02
865.824	159.72
866.258	106.42
866.692	156.62
867.126	180.62
867.56	102.82
867.994	52.82
868.428	33.82
868.862	44.52
869.296	56.42
869.73	63.22
870.164	53.22
870.598	45.22
871.031	37.32
871.465	32.02
871.899	32.22
872.333	23.72
872.766	25.72
873.2	22.12
873.634	28.42
874.067	20.82
874.501	33.92
874.935	32.42
875.368	30.32
875.802	23.82
876.235	30.32
876.669	23.02
877.102	25.22
877.535	30.12
877.969	19.62
878.402	21.82
878.836	17.22
879.269	27.42
879.702	22.52
880.135	18.72
880.569	21.02
881.002	27.92
881.435	23.32
881.868	14.52
882.301	19.62
882.734	16.62
883.167	24.12
883.601	17.62
884.034	22.72
884.467	11.02
884.899	21.62
885.332	20.02
885.765	16.22
886.198	19.02
886.631	14.52
887.064	20.62
887.497	16.92
887.929	26.02
888.362	8.92
888.795	17.82
889.228	15.42
889.66	28.22
890.093	20.22
890.526	13.72
890.958	18.12
891.391	19.22
891.823	22.62
892.256	17.62
892.688	14.12
893.121	15.02
893.553	15.12
893.985	19.22
894.418	18.42
894.85	12.72
895.282	13.22
895.715	23.02
896.147	17.22
896.579	19.22
897.011	15.32
897.444	19.92
897.876	15.82
898.308	17.12
898.74	17.92
899.172	10.92
899.604	27.22
900.036	18.32
900.468	20.22
900.9	18.62
901.332	16.92
901.764	7.02
902.196	16.32
902.628	17.02
903.06	11.12
903.491	28.52
903.923	24.22
904.355	22.52
904.787	24.42
905.218	21.72
905.65	10.22
906.082	12.32
906.513	15.02
906.945	14.42
907.376	16.92
907.808	21.92
908.239	21.52
908.671	17.22
909.102	22.62
909.534	20.82
909.965	47.32
910.397	83.82
910.828	295.42
911.259	450.62
911.691	209.62
912.122	106.62
912.553	52.92
912.984	32.02
913.415	25.22
913.847	25.52
914.278	16.52
914.709	19.42
915.14	22.52
915.571	21.12
916.002	10.22
916.433	15.12
916.864	17.42
917.295	12.42
917.726	19.92
918.157	18.72
918.587	32.92
919.018	23.02
919.449	18.92
919.88	28.92
920.311	35.12
920.741	45.22
921.172	155.32
921.603	150.72
922.033	61.62
922.464	46.02
922.895	24.42
923.325	24.72
923.756	14.32
924.186	19.72
924.617	23.92
925.047	36.52
925.478	46.42
925.908	44.32
926.338	27.62
926.769	25.92
927.199	23.52
927.629	13.42
928.06	16.42
928.49	16.62
928.92	10.62
929.35	16.82
929.78	12.22
930.21	7.62
930.641	9.22
931.071	5.12
931.501	5.72
931.931	6.52
932.361	9.42
932.791	4.92
933.221	8.32
933.651	7.22
934.08	17.82
934.51	27.02
934.94	10.82
935.37	6.82
935.8	15.62
936.229	11.22
936.659	8.32
937.089	4.72
937.519	13.22
937.948	17.42
938.378	17.72
938.807	2.92
939.237	6.82
939.666	6.82
940.096	-7.08
940.525	0.82
940.955	3.02
941.384	4.22
941.814	-4.48
942.243	-1.88
942.672	7.62
943.102	0.32
943.531	-1.88
943.96	4.72
944.39	3.52
944.819	3.02
945.248	6.72
945.677	2.62
946.106	8.32
946.535	3.22
946.964	3.82
947.393	5.02
947.822	1.52
948.251	-5.68
948.68	6.32
949.109	5.02
949.538	10.62
949.967	2.92
950.396	-1.38
950.825	-4.58
951.254	-2.38
951.682	-4.48
952.111	5.12
952.54	12.22
952.969	-3.88
953.397	-4.58
953.826	1.52
954.254	-6.48
954.683	-0.78
955.112	0.72
955.54	-0.28
955.969	-2.88
956.397	1.32
956.826	-1.58
957.254	6.32
957.682	2.02
958.111	6.82
958.539	0.32
958.967	5.02
959.396	1.32
959.824	2.72
960.252	4.72
960.68	-2.78
961.109	4.82
961.537	-4.68
961.965	3.42
962.393	-3.88
962.821	-7.18
963.249	1.92
963.677	1.42
964.105	7.32
964.533	45.62
964.961	42.02
965.389	16.32
965.817	5.42
966.245	-2.58
966.672	0.22
967.1	-6.48
967.528	1.52
967.956	0.32
968.383	2.22
968.811	0.22
969.239	3.72
969.666	0.02
970.094	3.52
970.522	4.42
970.949	1.52
971.377	-3.48
971.804	-0.18
972.232	-3.98
972.659	1.32
973.087	-4.08
973.514	-2.38
973.941	-6.18
974.369	8.72
974.796	5.02
975.223	3.52
975.651	3.92
976.078	2.12
976.505	-1.78
976.932	3.62
977.359	18.22
977.786	16.82
978.214	3.72
978.641	-6.78
979.068	-4.78
979.495	-7.28
979.922	-3.88
980.349	3.32
980.776	7.02
981.202	5.42
981.629	-2.68
982.056	6.02
982.483	-3.28
982.91	1.02
983.337	-3.08
983.763	6.52
984.19	-0.88
984.617	0.62
985.043	-5.68
985.47	-0.48
985.897	-1.68
986.323	-6.98
986.75	2.12
987.176	1.62
987.603	0.12
988.029	-0.68
988.456	-2.38
988.882	3.82
989.308	-8.28
989.735	-7.48
990.161	6.62
990.587	-1.78
991.014	-1.68
991.44	8.22
991.866	0.42
992.292	-7.48
992.719	-3.38
993.145	3.02
993.571	-9.38
993.997	-6.68
994.423	1.02
994.849	-3.48
995.275	-1.48
995.701	3.32
996.127	-4.88
996.553	-0.18
996.979	-4.08
997.405	-6.68
997.83	-3.38
998.256	-2.58
998.682	-3.68
999.108	-10.18
999.534	0.32
999.959	-4.28
1000.385	-0.18
1000.811	2.12
1001.236	-9.58
1001.662	-5.28
1002.087	-7.98
1002.513	5.22
1002.938	7.02
1003.364	4.52
1003.789	6.12
1004.215	4.72
1004.64	-2.78
1005.066	-0.38
1005.491	1.02
1005.916	-5.38
1006.342	-5.48
1006.767	-2.48
1007.192	4.72
1007.617	-10.68
1008.042	-5.78
1008.468	-7.08
1008.893	-3.38
1009.318	-3.88
1009.743	0.52
1010.168	-0.88
1010.593	3.82
1011.018	-7.28
1011.443	-0.68
1011.868	1.92
1012.293	-9.58
1012.718	1.32
1013.143	-1.78
1013.567	6.62
1013.992	-3.28
1014.417	-8.18
1014.842	3.52
1015.267	-8.98
1015.691	0.52
1016.116	10.22
1016.541	0.02
1016.965	3.22
1017.39	10.12
1017.814	3.52
1018.239	-3.98
1018.663	-3.78
1019.088	-6.58
1019.512	1.72
1019.937	-0.48
1020.361	-3.58
1020.785	-8.08
1021.21	-0.78
1021.634	-3.08
1022.058	-0.88
1022.483	6.22
1022.907	-0.78
1023.331	-2.88
1023.755	0.42
1024.179	-4.98
1024.604	-7.08
1025.028	-1.28
1025.452	-4.78
1025.876	-1.58
1026.3	3.12
1026.724	-6.98
1027.148	-2.58
1027.572	-5.28
1027.996	0.22
1028.42	6.62
1028.843	-1.58
1029.267	-8.28
1029.691	1.92
1030.115	-1.38
1030.539	-7.28
1030.962	-7.08
1031.386	-2.58
1031.81	-3.28
1032.233	-6.08
1032.657	-0.88
1033.08	-1.38
1033.504	-7.18
1033.927	-5.28
1034.351	-0.98
1034.774	-4.48
1035.198	-0.08
1035.621	-3.28
1036.045	-12.58
1036.468	9.12
1036.891	-8.48
1037.315	-6.18
1037.738	-9.28
1038.161	0.92
1038.584	0.02
1039.008	-9.08
1039.431	-2.58
1039.854	-3.68
1040.277	-2.98
1040.7	-12.78
1041.123	3.12
1041.546	-11.18
1041.969	-7.68
1042.392	-8.38
1042.815	5.02
1043.238	4.52
1043.661	2.82
1044.084	-4.48
1044.507	-4.68
1044.93	-6.58
1045.352	-2.88
1045.775	-5.98
1046.198	-7.08
1046.621	0.42
1047.043	0.82
1047.466	-0.68
1047.889	-3.68
1048.311	-4.78
1048.734	-1.48
1049.156	-4.58
1049.579	-1.98
1050.001	-4.98
1050.424	-1.58
1050.846	-0.28
1051.269	-0.98
1051.691	-5.78
1052.113	-2.68
1052.536	-0.88
1052.958	-4.88
1053.38	-0.38
1053.802	-15.38
1054.225	3.32
1054.647	-5.48
1055.069	-2.28
1055.491	-0.38
1055.913	-9.48
1056.335	7.82
1056.757	-4.88
1057.179	-3.98
1057.601	-5.58
1058.023	-1.48
1058.445	-2.88
1058.867	-3.48
1059.289	-4.38
1059.711	-4.58
1060.133	3.62
1060.555	-1.58
1060.976	-4.38
1061.398	-0.58
1061.82	-5.68
1062.241	-3.38
1062.663	-7.18
1063.085	-6.18
1063.506	3.02
1063.928	-1.18
1064.35	-2.88
1064.771	-12.68
1065.193	-1.58
1065.614	-7.28
1066.035	2.82
1066.457	-2.88
1066.878	0.42
1067.3	-4.78
1067.721	1.62
1068.142	-8.98
1068.564	-5.18
1068.985	-3.48
1069.406	-5.38
1069.827	-3.98
1070.248	-2.58
1070.67	-4.18
1071.091	-4.48
1071.512	-2.38
1071.933	-5.08
1072.354	-2.48
1072.775	-5.28
1073.196	-9.18
1073.617	-1.28
1074.038	-6.98
1074.459	-0.48
1074.88	-5.88
1075.3	6.62
1075.721	-7.68
1076.142	1.92
1076.563	-6.58
1076.983	-8.48
1077.404	-2.78
1077.825	-8.28
1078.246	-1.28
1078.666	-6.78
1079.087	-2.08
1079.507	-2.08
1079.928	-2.18
1080.348	2.42
1080.769	-1.58
1081.189	-2.78
1081.61	0.42
1082.03	-8.18
1082.451	-7.38
1082.871	-0.08
1083.291	-5.48
1083.711	-7.98
1084.132	-8.68
1084.552	-0.68
1084.972	-2.28
1085.392	-14.08
1085.813	-10.28
1086.233	-6.78
1086.653	-6.48
1087.073	-5.38
1087.493	-7.68
1087.913	-4.08
1088.333	-8.38
1088.753	-6.48
1089.173	0.82
1089.593	-1.68
1090.013	-4.78
1090.433	4.12
1090.852	0.42
1091.272	1.52
1091.692	-1.38
1092.112	2.22
1092.531	-8.98
1092.951	-9.48
1093.371	1.12
1093.79	3.72
1094.21	0.42
1094.63	-8.98
1095.049	-5.08
1095.469	-6.68
1095.888	-7.68
1096.308	-0.28
1096.727	6.12
1097.146	-7.88
1097.566	-0.48
1097.985	-6.88
1098.405	1.72
1098.824	-4.48
1099.243	-6.88
1099.662	-4.58
1100.082	-4.58
1100.501	-1.08
1100.92	-5.28
1101.339	-3.48
1101.758	-6.78
