Data from 20171114-ORNL-Ar_H_NY_Subt18_08-04-01-516.txt Node
Date: Tue Nov 14 08:04:01 EST 2017
User: Ender
Spectrometer: HR+D1039
Trigger mode: 0
Integration Time (sec): 2.730000E-2
Scans to average: 10
Electric dark correction enabled: true
Nonlinearity correction enabled: false
Boxcar width: 0
XAxis mode: Wavelengths
Number of Pixels in Spectrum: 2048
>>>>>Begin Spectral Data<<<<<
187.836	-4.13
188.309	-4.13
188.782	-4.13
189.255	5.97
189.728	-2.43
190.201	3.57
190.674	3.67
191.147	6.37
191.619	-5.93
192.092	2.47
192.565	-3.23
193.038	1.17
193.511	-1.73
193.984	0.27
194.456	2.27
194.929	-3.03
195.402	-2.13
195.874	-3.13
196.347	-0.43
196.82	-6.63
197.292	8.27
197.765	3.87
198.237	-3.73
198.71	-1.33
199.182	-1.23
199.655	5.57
200.127	5.37
200.6	-1.63
201.072	-4.93
201.544	-1.23
202.017	-2.83
202.489	3.77
202.961	-4.33
203.433	1.57
203.906	-2.53
204.378	-1.03
204.85	-0.23
205.322	-11.63
205.794	-2.63
206.266	-7.13
206.739	-4.13
207.211	3.67
207.683	-4.83
208.155	-5.93
208.627	-6.03
209.099	-1.73
209.57	-3.53
210.042	-5.93
210.514	-5.63
210.986	0.87
211.458	-8.83
211.93	-0.43
212.402	-1.63
212.873	-6.63
213.345	-4.73
213.817	-11.43
214.288	-8.23
214.76	-13.93
215.232	-6.13
215.703	-0.13
216.175	-6.03
216.646	1.27
217.118	-2.13
217.589	0.77
218.061	-3.13
218.532	-5.03
219.004	-2.53
219.475	-0.73
219.946	0.57
220.418	-2.93
220.889	-1.63
221.36	-1.73
221.832	-5.43
222.303	-7.33
222.774	0.67
223.245	-9.03
223.717	-9.33
224.188	0.97
224.659	-4.13
225.13	-4.43
225.601	-3.33
226.072	0.07
226.543	0.17
227.014	2.87
227.485	-0.83
227.956	-5.13
228.427	-1.43
228.898	-2.53
229.369	1.17
229.839	-2.93
230.31	-4.93
230.781	-0.93
231.252	-4.23
231.722	-4.33
232.193	-5.93
232.664	-2.83
233.135	4.37
233.605	0.67
234.076	-6.33
234.546	-4.03
235.017	-0.03
235.487	1.97
235.958	-5.03
236.428	-0.23
236.899	1.77
237.369	-3.23
237.84	-6.03
238.31	-1.13
238.78	-0.43
239.251	4.17
239.721	3.57
240.191	2.87
240.662	2.47
241.132	-0.13
241.602	-5.43
242.072	-2.63
242.542	2.17
243.013	-4.43
243.483	1.07
243.953	2.77
244.423	-2.03
244.893	-6.83
245.363	1.37
245.833	1.67
246.303	-3.03
246.773	9.07
247.243	4.27
247.712	3.27
248.182	8.97
248.652	5.97
249.122	-5.23
249.592	4.67
250.061	11.37
250.531	20.97
251.001	9.27
251.471	9.47
251.94	16.27
252.41	0.37
252.879	-0.83
253.349	9.07
253.818	4.77
254.288	-0.53
254.757	-3.13
255.227	2.37
255.696	3.67
256.166	6.27
256.635	5.97
257.105	8.37
257.574	3.87
258.043	-0.73
258.513	-1.83
258.982	5.97
259.451	1.57
259.92	12.47
260.389	7.87
260.859	18.27
261.328	6.97
261.797	8.77
262.266	-2.83
262.735	11.87
263.204	-0.13
263.673	-0.63
264.142	-1.43
264.611	-7.03
265.08	-4.53
265.549	-7.73
266.018	0.47
266.487	0.87
266.955	0.87
267.424	-1.13
267.893	0.77
268.362	1.17
268.83	1.37
269.299	6.57
269.768	0.67
270.236	1.57
270.705	1.57
271.174	0.47
271.642	5.47
272.111	7.07
272.579	8.27
273.048	8.57
273.516	12.67
273.985	17.07
274.453	9.27
274.922	16.77
275.39	9.47
275.858	-2.53
276.327	2.87
276.795	13.77
277.263	8.07
277.731	25.77
278.2	36.47
278.668	32.87
279.136	30.67
279.604	6.67
280.072	12.67
280.54	6.27
281.008	3.17
281.477	7.67
281.945	11.17
282.413	10.47
282.881	4.87
283.348	1.27
283.816	10.27
284.284	5.07
284.752	14.77
285.22	6.57
285.688	10.17
286.156	8.57
286.623	25.07
287.091	25.87
287.559	15.17
288.026	14.57
288.494	7.07
288.962	1.87
289.429	-0.03
289.897	15.27
290.364	8.67
290.832	10.07
291.3	14.07
291.767	11.37
292.234	6.57
292.702	3.07
293.169	15.67
293.637	18.67
294.104	15.87
294.571	5.07
295.039	8.47
295.506	7.57
295.973	12.17
296.44	11.67
296.908	9.37
297.375	7.57
297.842	10.77
298.309	8.17
298.776	5.67
299.243	18.07
299.71	-1.83
300.177	12.77
300.644	11.17
301.111	14.37
301.578	12.57
302.045	11.57
302.512	8.07
302.979	16.67
303.446	14.97
303.913	12.77
304.379	11.37
304.846	18.87
305.313	15.67
305.78	19.47
306.246	19.77
306.713	21.77
307.18	18.87
307.646	22.57
308.113	13.07
308.579	16.37
309.046	13.07
309.512	18.67
309.979	12.37
310.445	22.77
310.912	23.17
311.378	23.07
311.845	23.37
312.311	26.07
312.777	26.87
313.244	21.27
313.71	29.17
314.176	22.37
314.642	18.77
315.109	22.17
315.575	23.87
316.041	30.37
316.507	20.57
316.973	21.47
317.439	21.77
317.905	28.07
318.371	26.97
318.837	30.07
319.303	25.57
319.769	29.27
320.235	22.17
320.701	26.27
321.167	29.67
321.633	24.77
322.099	28.37
322.564	34.27
323.03	31.77
323.496	31.77
323.962	29.57
324.427	24.67
324.893	33.07
325.359	28.67
325.824	21.17
326.29	25.47
326.755	25.87
327.221	29.57
327.686	27.07
328.152	38.27
328.617	32.07
329.083	35.57
329.548	35.47
330.014	37.97
330.479	33.57
330.944	33.47
331.41	35.57
331.875	37.07
332.34	34.27
332.805	30.87
333.271	36.07
333.736	34.37
334.201	41.17
334.666	42.07
335.131	43.07
335.596	45.07
336.061	39.87
336.526	24.77
336.991	42.97
337.456	40.77
337.921	43.47
338.386	29.37
338.851	41.17
339.316	38.17
339.781	40.57
340.246	44.77
340.711	40.07
341.175	45.67
341.64	36.97
342.105	40.07
342.569	40.47
343.034	48.77
343.499	48.17
343.963	35.77
344.428	52.97
344.893	51.47
345.357	47.17
345.822	50.47
346.286	54.97
346.751	57.27
347.215	50.07
347.679	52.57
348.144	69.17
348.608	64.37
349.073	51.37
349.537	59.27
350.001	56.57
350.465	73.57
350.93	61.77
351.394	65.57
351.858	59.97
352.322	71.37
352.786	66.77
353.25	72.87
353.715	79.57
354.179	75.77
354.643	88.87
355.107	94.47
355.571	84.27
356.035	74.17
356.498	89.17
356.962	86.77
357.426	96.47
357.89	81.97
358.354	71.87
358.818	73.57
359.281	67.57
359.745	64.37
360.209	64.57
360.673	62.67
361.136	71.17
361.6	67.67
362.064	72.37
362.527	70.57
362.991	78.47
363.454	65.37
363.918	60.67
364.381	69.07
364.845	71.37
365.308	80.67
365.772	71.47
366.235	69.87
366.698	66.07
367.162	75.57
367.625	74.07
368.088	77.07
368.552	72.17
369.015	75.87
369.478	84.57
369.941	80.07
370.404	75.07
370.867	91.07
371.331	86.57
371.794	90.97
372.257	96.67
372.72	95.17
373.183	99.27
373.646	81.67
374.109	86.57
374.572	90.37
375.035	88.67
375.497	88.57
375.96	93.77
376.423	89.47
376.886	93.17
377.349	96.27
377.811	85.07
378.274	93.47
378.737	95.67
379.199	98.17
379.662	97.17
380.125	97.47
380.587	100.17
381.05	105.37
381.512	108.07
381.975	121.97
382.437	113.67
382.9	108.67
383.362	115.37
383.825	115.67
384.287	117.47
384.75	116.17
385.212	127.27
385.674	121.77
386.136	113.47
386.599	117.17
387.061	115.07
387.523	110.97
387.985	111.07
388.447	127.87
388.91	123.47
389.372	134.17
389.834	128.87
390.296	119.47
390.758	135.27
391.22	138.57
391.682	168.77
392.144	226.77
392.606	183.97
393.068	144.57
393.529	141.67
393.991	136.07
394.453	127.37
394.915	136.87
395.377	153.37
395.838	173.77
396.3	136.17
396.762	127.57
397.224	111.47
397.685	120.67
398.147	119.87
398.608	113.37
399.07	114.97
399.531	125.07
399.993	133.17
400.454	138.77
400.916	135.47
401.377	125.97
401.839	133.17
402.3	132.67
402.762	144.37
403.223	155.07
403.684	152.87
404.145	144.87
404.607	143.07
405.068	145.37
405.529	150.37
405.99	168.67
406.451	147.17
406.913	149.67
407.374	153.57
407.835	149.57
408.296	146.57
408.757	150.57
409.218	167.87
409.679	163.67
410.14	156.47
410.601	160.97
411.062	169.07
411.522	172.07
411.983	168.37
412.444	151.57
412.905	164.67
413.366	170.07
413.826	185.77
414.287	202.97
414.748	244.17
415.208	224.97
415.669	194.67
416.13	188.27
416.59	182.87
417.051	193.07
417.511	202.77
417.972	217.17
418.432	226.77
418.893	269.77
419.353	234.47
419.814	189.47
420.274	172.77
420.734	162.47
421.195	175.67
421.655	177.17
422.115	167.27
422.576	172.87
423.036	164.77
423.496	188.87
423.956	198.77
424.416	206.87
424.876	238.27
425.336	234.97
425.797	232.37
426.257	239.47
426.717	223.27
427.177	213.17
427.637	204.27
428.097	216.27
428.556	218.37
429.016	246.27
429.476	233.37
429.936	242.97
430.396	243.07
430.856	260.27
431.315	283.47
431.775	303.77
432.235	333.57
432.694	317.17
433.154	313.07
433.614	327.57
434.073	290.67
434.533	256.87
434.993	241.27
435.452	250.77
435.912	247.87
436.371	244.37
436.83	247.07
437.29	238.87
437.749	212.17
438.209	208.87
438.668	224.37
439.127	247.27
439.587	223.87
440.046	216.47
440.505	223.77
440.964	234.97
441.424	258.57
441.883	255.67
442.342	229.47
442.801	196.47
443.26	203.07
443.719	199.47
444.178	199.07
444.637	190.37
445.096	200.17
445.555	203.97
446.014	204.87
446.473	205.87
446.932	202.87
447.391	197.27
447.849	212.47
448.308	204.17
448.767	201.07
449.226	222.87
449.685	216.27
450.143	226.47
450.602	222.47
451.061	202.67
451.519	214.67
451.978	210.97
452.436	208.37
452.895	216.77
453.353	220.27
453.812	211.97
454.27	218.17
454.729	212.47
455.187	207.77
455.646	219.07
456.104	219.87
456.562	225.57
457.021	227.77
457.479	227.57
457.937	238.57
458.395	230.77
458.854	213.87
459.312	221.37
459.77	235.87
460.228	220.87
460.686	213.77
461.144	222.97
461.602	220.27
462.06	217.87
462.518	235.37
462.976	229.17
463.434	233.77
463.892	243.27
464.35	245.97
464.808	255.27
465.266	239.77
465.724	243.27
466.181	248.87
466.639	245.57
467.097	260.97
467.555	264.67
468.012	269.47
468.47	272.97
468.928	290.97
469.385	297.77
469.843	303.37
470.3	302.87
470.758	317.87
471.215	323.97
471.673	345.77
472.13	343.47
472.588	352.57
473.045	320.17
473.503	340.27
473.96	355.77
474.417	355.07
474.875	381.97
475.332	416.87
475.789	404.07
476.246	410.87
476.704	428.67
477.161	440.97
477.618	456.87
478.075	493.47
478.532	533.07
478.989	579.77
479.446	671.87
479.903	670.77
480.36	700.57
480.817	766.47
481.274	842.87
481.731	939.67
482.188	1002.17
482.645	1123.27
483.102	1227.87
483.558	1341.97
484.015	1388.17
484.472	1368.17
484.929	1332.97
485.385	1297.97
485.842	1263.97
486.299	1201.27
486.755	1119.37
487.212	948.57
487.668	820.87
488.125	765.47
488.582	692.67
489.038	666.67
489.494	633.17
489.951	617.87
490.407	589.67
490.864	565.07
491.32	563.97
491.776	562.17
492.233	562.07
492.689	541.07
493.145	520.27
493.602	523.77
494.058	539.27
494.514	543.07
494.97	540.27
495.426	551.97
495.882	537.17
496.338	542.57
496.794	552.57
497.251	533.87
497.707	550.47
498.163	545.77
498.618	547.87
499.074	550.77
499.53	579.97
499.986	568.67
500.442	553.97
500.898	537.77
501.354	542.77
501.809	554.57
502.265	556.07
502.721	571.37
503.177	576.87
503.632	567.87
504.088	576.77
504.543	603.67
504.999	598.07
505.455	566.17
505.91	548.97
506.366	557.97
506.821	553.17
507.277	545.57
507.732	551.37
508.187	546.77
508.643	547.47
509.098	551.67
509.553	578.07
510.009	582.77
510.464	578.97
510.919	598.17
511.375	590.57
511.83	612.37
512.285	623.57
512.74	635.47
513.195	660.97
513.65	655.67
514.105	659.17
514.56	671.87
515.015	677.27
515.47	693.37
515.925	675.87
516.38	675.87
516.835	694.07
517.29	675.77
517.745	660.87
518.2	662.37
518.655	647.57
519.109	647.27
519.564	637.27
520.019	635.47
520.474	630.97
520.928	626.47
521.383	621.47
521.838	617.27
522.292	615.77
522.747	613.07
523.201	597.77
523.656	603.67
524.11	596.87
524.565	603.97
525.019	591.37
525.474	600.17
525.928	603.37
526.382	597.17
526.837	587.17
527.291	596.67
527.745	597.67
528.2	598.87
528.654	586.87
529.108	580.37
529.562	573.77
530.016	586.87
530.47	581.17
530.925	579.17
531.379	591.17
531.833	592.27
532.287	594.17
532.741	596.67
533.195	595.87
533.649	593.27
534.103	605.87
534.556	594.37
535.01	592.87
535.464	591.97
535.918	591.77
536.372	593.47
536.826	607.57
537.279	592.07
537.733	595.97
538.187	608.37
538.64	595.07
539.094	601.77
539.548	603.77
540.001	608.37
540.455	605.47
540.908	618.77
541.362	620.27
541.815	626.17
542.269	635.07
542.722	635.97
543.175	644.67
543.629	640.47
544.082	658.87
544.536	656.97
544.989	663.57
545.442	665.07
545.895	658.67
546.349	660.47
546.802	660.87
547.255	666.47
547.708	664.27
548.161	688.87
548.614	688.87
549.067	684.77
549.52	689.47
549.973	676.47
550.426	665.97
550.879	655.47
551.332	666.77
551.785	667.87
552.238	664.47
552.691	674.37
553.144	682.27
553.596	695.57
554.049	709.47
554.502	729.97
554.955	748.87
555.407	747.17
555.86	735.67
556.313	736.87
556.765	722.87
557.218	718.07
557.67	719.17
558.123	701.97
558.576	719.07
559.028	719.67
559.48	721.17
559.933	715.57
560.385	684.77
560.838	657.37
561.29	643.37
561.742	637.57
562.195	629.17
562.647	618.67
563.099	640.87
563.551	639.67
564.004	632.67
564.456	621.97
564.908	626.77
565.36	605.67
565.812	591.37
566.264	588.57
566.716	589.77
567.168	572.87
567.62	583.87
568.072	569.27
568.524	566.17
568.976	563.67
569.428	546.47
569.88	536.67
570.332	548.07
570.784	554.57
571.235	550.87
571.687	563.97
572.139	560.37
572.59	569.77
573.042	566.77
573.494	570.07
573.945	566.67
574.397	553.47
574.849	548.97
575.3	542.97
575.752	537.17
576.203	542.87
576.655	551.37
577.106	536.37
577.557	525.47
578.009	543.27
578.46	528.67
578.912	529.77
579.363	522.17
579.814	534.17
580.265	519.97
580.717	532.07
581.168	535.97
581.619	541.07
582.07	540.37
582.521	532.97
582.972	532.07
583.423	542.67
583.875	540.67
584.326	555.57
584.777	590.57
585.227	642.97
585.678	698.07
586.129	762.47
586.58	828.87
587.031	890.07
587.482	1020.17
587.933	1150.77
588.384	1007.77
588.834	761.77
589.285	618.57
589.736	614.77
590.186	602.07
590.637	612.07
591.088	583.17
591.538	573.87
591.989	576.87
592.439	573.07
592.89	565.17
593.34	554.87
593.791	554.37
594.241	551.77
594.692	550.17
595.142	542.87
595.593	546.47
596.043	551.57
596.493	544.47
596.943	543.77
597.394	556.37
597.844	552.37
598.294	573.67
598.744	586.87
599.195	597.57
599.645	630.97
600.095	664.17
600.545	702.27
600.995	745.57
601.445	794.57
601.895	843.97
602.345	885.97
602.795	864.27
603.245	821.87
603.695	779.47
604.145	735.97
604.594	705.07
605.044	672.17
605.494	612.67
605.944	575.77
606.393	561.17
606.843	556.47
607.293	567.27
607.743	560.27
608.192	568.07
608.642	568.77
609.091	584.77
609.541	582.27
609.99	576.57
610.44	579.97
610.889	549.77
611.339	535.57
611.788	522.07
612.238	526.47
612.687	553.57
613.136	542.17
613.586	559.87
614.035	554.97
614.484	577.27
614.933	564.27
615.383	563.37
615.832	558.17
616.281	537.57
616.73	525.57
617.179	509.97
617.628	499.77
618.077	485.67
618.526	474.57
618.975	467.57
619.424	468.67
619.873	461.47
620.322	470.87
620.771	461.57
621.22	462.87
621.669	449.47
622.118	449.97
622.567	436.27
623.015	420.47
623.464	424.27
623.913	418.77
624.361	415.57
624.81	416.17
625.259	413.37
625.707	416.47
626.156	413.97
626.604	430.17
627.053	426.77
627.501	424.17
627.95	435.87
628.398	433.07
628.847	422.87
629.295	428.27
629.744	436.67
630.192	427.77
630.64	421.57
631.089	418.97
631.537	417.87
631.985	424.37
632.433	431.37
632.881	430.47
633.33	463.27
633.778	437.37
634.226	415.77
634.674	418.67
635.122	416.77
635.57	426.47
636.018	440.37
636.466	425.37
636.914	413.27
637.362	420.57
637.81	422.97
638.258	433.97
638.705	431.97
639.153	456.77
639.601	458.87
640.049	472.57
640.497	504.37
640.944	518.87
641.392	473.47
641.84	449.77
642.287	444.37
642.735	416.07
643.182	424.27
643.63	425.37
644.078	417.07
644.525	429.47
644.973	434.37
645.42	447.07
645.867	463.57
646.315	469.37
646.762	479.07
647.21	509.47
647.657	519.17
648.104	546.47
648.551	564.87
648.999	599.47
649.446	673.47
649.893	713.67
650.34	836.07
650.787	996.27
651.234	1228.57
651.682	1580.17
652.129	2155.37
652.576	3063.47
653.023	4562.57
653.47	6369.07
653.917	8019.17
654.363	9486.67
654.81	10744.57
655.257	10206.67
655.704	6665.37
656.151	3898.27
656.598	2515.67
657.044	1778.07
657.491	1359.77
657.938	1078.67
658.385	906.07
658.831	784.17
659.278	703.57
659.724	631.47
660.171	581.57
660.618	520.57
661.064	501.07
661.511	479.67
661.957	462.77
662.404	451.07
662.85	457.07
663.296	432.47
663.743	404.37
664.189	398.27
664.635	393.77
665.082	385.97
665.528	378.77
665.974	371.67
666.42	372.27
666.867	362.47
667.313	345.87
667.759	347.47
668.205	346.17
668.651	347.67
669.097	347.77
669.543	357.87
669.989	339.27
670.435	326.97
670.881	329.67
671.327	333.37
671.773	344.17
672.219	354.97
672.665	392.17
673.11	422.37
673.556	461.77
674.002	501.07
674.448	477.67
674.893	405.17
675.339	347.67
675.785	326.27
676.23	300.27
676.676	280.77
677.122	271.17
677.567	267.77
678.013	265.37
678.458	257.07
678.904	261.67
679.349	247.37
679.794	254.77
680.24	249.67
680.685	249.87
681.131	253.37
681.576	257.27
682.021	257.67
682.466	254.87
682.912	253.87
683.357	245.17
683.802	275.77
684.247	298.17
684.692	328.37
685.137	356.57
685.583	393.17
686.028	415.07
686.473	381.07
686.918	320.17
687.363	300.07
687.807	294.57
688.252	262.77
688.697	259.87
689.142	242.37
689.587	240.37
690.032	230.87
690.477	250.57
690.921	244.77
691.366	269.77
691.811	285.57
692.255	322.47
692.7	331.97
693.145	363.97
693.589	481.97
694.034	788.87
694.478	1100.67
694.923	1289.47
695.367	1726.67
695.812	895.17
696.256	366.87
696.701	275.37
697.145	249.07
697.59	231.97
698.034	235.27
698.478	239.37
698.922	232.57
699.367	230.47
699.811	243.67
700.255	255.17
700.699	270.47
701.143	300.97
701.588	346.57
702.032	383.97
702.476	377.27
702.92	356.47
703.364	355.27
703.808	441.47
704.252	722.17
704.696	1032.77
705.14	1249.47
705.584	1621.47
706.027	785.77
706.471	380.47
706.915	286.67
707.359	245.97
707.803	224.27
708.246	220.07
708.69	226.27
709.134	227.87
709.577	226.07
710.021	237.87
710.465	222.57
710.908	213.87
711.352	216.37
711.795	222.27
712.239	251.47
712.682	272.47
713.126	305.77
713.569	336.57
714.012	263.17
714.456	226.47
714.899	210.87
715.342	203.07
715.786	186.17
716.229	183.57
716.672	185.07
717.115	177.27
717.558	176.87
718.002	175.97
718.445	189.17
718.888	209.77
719.331	210.97
719.774	225.17
720.217	217.37
720.66	201.17
721.103	186.27
721.546	177.17
721.989	180.97
722.432	160.47
722.874	165.97
723.317	161.67
723.76	161.37
724.203	182.17
724.645	219.37
725.088	312.87
725.531	401.57
725.974	469.47
726.416	405.37
726.859	221.07
727.301	175.27
727.744	174.17
728.187	167.97
728.629	169.97
729.071	177.67
729.514	189.67
729.956	195.17
730.399	201.67
730.841	205.67
731.283	193.17
731.726	195.27
732.168	185.07
732.61	192.27
733.053	199.87
733.495	223.87
733.937	257.67
734.379	278.87
734.821	313.17
735.263	377.67
735.705	582.67
736.148	1093.27
736.59	1854.47
737.032	2326.37
737.474	1880.87
737.916	596.07
738.357	308.27
738.799	235.07
739.241	208.97
739.683	199.87
740.125	207.87
740.567	221.17
741.008	225.97
741.45	231.07
741.892	226.67
742.334	250.47
742.775	266.27
743.217	252.97
743.658	190.77
744.1	184.47
744.542	185.77
744.983	223.67
745.425	256.77
745.866	257.67
746.307	206.67
746.749	208.07
747.19	232.17
747.632	319.37
748.073	597.37
748.514	1300.87
748.956	2073.07
749.397	2592.27
749.838	2174.97
750.279	2248.07
750.72	1129.47
751.162	398.27
751.603	231.87
752.044	185.67
752.485	151.07
752.926	151.37
753.367	138.07
753.808	135.07
754.249	135.87
754.69	129.37
755.131	121.17
755.572	130.77
756.013	124.37
756.453	132.87
756.894	129.67
757.335	135.97
757.776	129.47
758.216	138.87
758.657	136.47
759.098	143.57
759.538	162.27
759.979	197.57
760.42	264.27
760.86	486.17
761.301	1264.07
761.741	3191.77
762.182	4969.97
762.622	3529.47
763.063	986.37
763.503	401.87
763.943	243.97
764.384	238.57
764.824	282.57
765.264	316.67
765.705	216.67
766.145	145.17
766.585	131.37
767.025	128.57
767.465	128.27
767.906	167.27
768.346	225.77
768.786	251.07
769.226	187.87
769.666	220.67
770.106	418.97
770.546	1076.07
770.986	1970.67
771.426	1827.97
771.866	597.47
772.306	239.07
772.745	152.87
773.185	126.37
773.625	125.97
774.065	111.77
774.505	134.17
774.944	201.37
775.384	422.67
775.824	811.17
776.263	815.47
776.703	341.27
777.142	149.97
777.582	107.57
778.021	98.17
778.461	95.57
778.9	95.77
779.34	97.57
779.779	77.27
780.219	75.07
780.658	80.77
781.097	74.57
781.537	80.47
781.976	79.17
782.415	72.47
782.855	71.07
783.294	71.77
783.733	73.67
784.172	79.27
784.611	77.07
785.05	76.27
785.489	83.27
785.928	87.07
786.367	91.97
786.806	83.07
787.245	93.87
787.684	98.57
788.123	102.57
788.562	99.57
789.001	87.87
789.44	88.67
789.879	73.87
790.317	84.57
790.756	90.37
791.195	86.17
791.634	100.77
792.072	146.87
792.511	254.87
792.95	692.57
793.388	1581.17
793.827	1498.27
794.265	498.77
794.704	201.37
795.142	134.37
795.581	119.17
796.019	97.67
796.458	95.77
796.896	90.87
797.334	92.07
797.773	108.67
798.211	153.57
798.649	299.07
799.087	725.87
799.526	1156.27
799.964	1472.07
800.402	1560.97
800.84	574.57
801.278	216.27
801.716	133.47
802.154	106.87
802.592	108.97
803.03	102.37
803.468	92.57
803.906	104.97
804.344	107.47
804.782	99.67
805.22	92.97
805.658	82.67
806.096	106.37
806.533	119.87
806.971	129.47
807.409	159.47
807.847	223.67
808.284	462.67
808.722	1334.87
809.16	2480.67
809.597	2279.87
810.035	4087.77
810.472	4612.77
810.91	1635.67
811.347	593.47
811.785	299.07
812.222	190.57
812.66	144.27
813.097	117.57
813.535	107.57
813.972	96.57
814.409	87.07
814.846	77.17
815.284	81.97
815.721	70.27
816.158	77.17
816.595	78.17
817.032	131.87
817.47	145.27
817.907	119.37
818.344	104.27
818.781	71.07
819.218	68.87
819.655	87.67
820.092	144.57
820.529	160.17
820.966	126.37
821.403	98.17
821.839	77.97
822.276	71.77
822.713	88.87
823.15	100.37
823.587	79.17
824.023	105.07
824.46	201.77
824.897	636.27
825.333	1039.17
825.77	444.37
826.206	170.87
826.643	99.07
827.08	79.77
827.516	57.47
827.953	55.77
828.389	60.37
828.825	54.87
829.262	49.47
829.698	45.67
830.135	45.67
830.571	44.97
831.007	38.07
831.443	43.27
831.88	43.47
832.316	38.07
832.752	41.87
833.188	46.37
833.624	44.87
834.06	45.37
834.497	52.17
834.933	47.17
835.369	55.57
835.805	47.37
836.241	58.17
836.677	54.07
837.112	58.17
837.548	75.07
837.984	98.97
838.42	143.87
838.856	341.97
839.292	1105.77
839.727	1783.37
840.163	819.97
840.599	664.67
841.034	1502.57
841.47	1685.67
841.906	599.67
842.341	247.27
842.777	168.67
843.212	210.17
843.648	221.07
844.083	105.87
844.519	67.07
844.954	51.47
845.39	42.27
845.825	43.17
846.261	39.67
846.696	41.37
847.131	34.67
847.566	43.87
848.002	38.47
848.437	37.47
848.872	46.27
849.307	43.27
849.742	65.87
850.177	121.27
850.613	391.77
851.048	673.17
851.483	281.47
851.918	109.57
852.353	56.87
852.788	42.77
853.223	39.87
853.657	46.57
854.092	35.17
854.527	26.37
854.962	25.07
855.397	27.77
855.832	36.57
856.266	28.67
856.701	30.97
857.136	25.17
857.57	30.77
858.005	31.67
858.44	44.97
858.874	28.37
859.309	38.77
859.743	25.77
860.178	35.47
860.612	24.07
861.047	40.97
861.481	53.47
861.915	54.97
862.35	39.87
862.784	20.37
863.218	33.57
863.653	20.57
864.087	40.07
864.521	39.97
864.955	50.47
865.39	111.07
865.824	134.47
866.258	85.07
866.692	122.97
867.126	145.47
867.56	80.07
867.994	40.47
868.428	23.57
868.862	37.77
869.296	42.47
869.73	40.67
870.164	38.67
870.598	40.17
871.031	28.77
871.465	24.17
871.899	21.97
872.333	14.17
872.766	22.07
873.2	16.17
873.634	22.67
874.067	18.07
874.501	16.67
874.935	26.67
875.368	19.77
875.802	18.87
876.235	13.77
876.669	17.27
877.102	14.57
877.535	19.97
877.969	14.17
878.402	11.67
878.836	18.67
879.269	14.17
879.702	16.87
880.135	17.87
880.569	13.67
881.002	19.57
881.435	14.57
881.868	6.97
882.301	19.07
882.734	16.77
883.167	17.17
883.601	14.67
884.034	17.77
884.467	12.37
884.899	12.47
885.332	10.37
885.765	11.07
886.198	8.37
886.631	17.17
887.064	13.87
887.497	15.87
887.929	20.07
888.362	11.97
888.795	2.17
889.228	9.47
889.66	12.37
890.093	12.87
890.526	11.17
890.958	12.47
891.391	14.27
891.823	10.97
892.256	8.07
892.688	8.27
893.121	14.07
893.553	11.77
893.985	23.47
894.418	16.37
894.85	8.87
895.282	8.47
895.715	13.07
896.147	14.07
896.579	14.37
897.011	9.57
897.444	14.67
897.876	0.87
898.308	6.17
898.74	8.37
899.172	10.87
899.604	21.77
900.036	16.67
900.468	-1.13
900.9	10.37
901.332	11.37
901.764	11.47
902.196	14.07
902.628	11.37
903.06	13.57
903.491	22.27
903.923	16.57
904.355	16.47
904.787	18.37
905.218	14.17
905.65	12.37
906.082	7.47
906.513	4.77
906.945	10.57
907.376	4.47
907.808	17.97
908.239	18.27
908.671	11.67
909.102	18.67
909.534	17.77
909.965	34.57
910.397	68.57
910.828	236.67
911.259	382.37
911.691	173.17
912.122	79.57
912.553	31.67
912.984	24.97
913.415	20.17
913.847	16.27
914.278	9.37
914.709	12.37
915.14	13.77
915.571	12.77
916.002	-3.83
916.433	22.47
916.864	17.27
917.295	5.27
917.726	19.67
918.157	14.17
918.587	24.87
919.018	12.17
919.449	14.87
919.88	13.17
920.311	22.57
920.741	36.87
921.172	127.77
921.603	113.27
922.033	50.37
922.464	32.77
922.895	19.17
923.325	16.57
923.756	13.27
924.186	12.07
924.617	22.87
925.047	29.57
925.478	33.07
925.908	34.77
926.338	12.57
926.769	8.47
927.199	18.17
927.629	3.67
928.06	17.77
928.49	10.57
928.92	13.07
929.35	8.07
929.78	7.67
930.21	7.97
930.641	6.37
931.071	8.07
931.501	5.57
931.931	6.37
932.361	4.07
932.791	-0.03
933.221	7.97
933.651	4.97
934.08	7.47
934.51	18.37
934.94	6.77
935.37	6.27
935.8	9.77
936.229	8.87
936.659	9.57
937.089	0.97
937.519	9.57
937.948	19.17
938.378	9.17
938.807	5.47
939.237	-2.13
939.666	4.27
940.096	-6.53
940.525	1.27
940.955	-1.73
941.384	2.27
941.814	-2.03
942.243	-2.23
942.672	-1.83
943.102	0.17
943.531	0.47
943.96	1.47
944.39	1.97
944.819	-1.23
945.248	-5.43
945.677	3.17
946.106	3.17
946.535	5.97
946.964	0.27
947.393	6.07
947.822	1.67
948.251	-5.93
948.68	2.07
949.109	-0.73
949.538	0.97
949.967	-4.33
950.396	1.97
950.825	-3.63
951.254	1.97
951.682	-9.63
952.111	2.47
952.54	5.47
952.969	-6.73
953.397	-4.83
953.826	3.87
954.254	-3.83
954.683	-1.83
955.112	-2.73
955.54	-5.23
955.969	1.57
956.397	-1.13
956.826	-2.23
957.254	-3.93
957.682	-3.33
958.111	6.97
958.539	-1.33
958.967	6.87
959.396	-0.83
959.824	-0.53
960.252	6.17
960.68	-6.43
961.109	-3.53
961.537	-3.43
961.965	-2.33
962.393	0.07
962.821	1.37
963.249	-0.03
963.677	-1.03
964.105	1.57
964.533	34.57
964.961	28.87
965.389	12.17
965.817	8.67
966.245	-2.63
966.672	3.67
967.1	-6.63
967.528	0.17
967.956	-6.13
968.383	-0.83
968.811	-7.83
969.239	-0.43
969.666	-1.43
970.094	1.27
970.522	-1.93
970.949	-5.33
971.377	-4.73
971.804	4.37
972.232	0.27
972.659	-2.43
973.087	-4.53
973.514	-3.83
973.941	-2.53
974.369	4.67
974.796	-4.03
975.223	-0.33
975.651	-1.13
976.078	-0.83
976.505	-3.13
976.932	2.77
977.359	7.07
977.786	11.47
978.214	0.87
978.641	-8.63
979.068	-0.83
979.495	-5.33
979.922	2.57
980.349	3.77
980.776	-4.13
981.202	-3.73
981.629	1.97
982.056	7.27
982.483	-4.93
982.91	1.07
983.337	-10.63
983.763	-0.73
984.19	-4.03
984.617	-5.23
985.043	-9.53
985.47	1.27
985.897	0.57
986.323	-6.73
986.75	2.57
987.176	0.27
987.603	5.77
988.029	-3.93
988.456	-0.03
988.882	3.57
989.308	-0.93
989.735	-10.83
990.161	3.97
990.587	-0.63
991.014	-2.13
991.44	9.67
991.866	-3.43
992.292	-3.53
992.719	-4.43
993.145	0.47
993.571	-9.63
993.997	-0.33
994.423	-3.13
994.849	-3.03
995.275	5.17
995.701	0.57
996.127	-1.83
996.553	2.17
996.979	-2.73
997.405	-7.63
997.83	-6.73
998.256	-7.33
998.682	-6.83
999.108	-5.03
999.534	0.67
999.959	-2.53
1000.385	-4.83
1000.811	1.87
1001.236	-9.83
1001.662	-3.13
1002.087	-5.43
1002.513	0.27
1002.938	1.87
1003.364	-2.13
1003.789	-1.63
1004.215	6.97
1004.64	-3.33
1005.066	4.67
1005.491	0.57
1005.916	-2.13
1006.342	-5.93
1006.767	-7.63
1007.192	1.97
1007.617	-8.13
1008.042	-4.23
1008.468	-6.43
1008.893	0.57
1009.318	-1.43
1009.743	-3.63
1010.168	6.67
1010.593	-1.73
1011.018	-3.63
1011.443	-2.63
1011.868	3.87
1012.293	-1.93
1012.718	-7.03
1013.143	-6.13
1013.567	1.87
1013.992	4.07
1014.417	-8.73
1014.842	6.57
1015.267	1.97
1015.691	-7.73
1016.116	5.77
1016.541	0.87
1016.965	5.87
1017.39	-0.13
1017.814	-0.73
1018.239	-2.13
1018.663	-7.13
1019.088	-8.63
1019.512	-1.53
1019.937	2.67
1020.361	-6.53
1020.785	-3.43
1021.21	-0.93
1021.634	-5.33
1022.058	4.97
1022.483	8.67
1022.907	-3.03
1023.331	-6.03
1023.755	-5.93
1024.179	-3.53
1024.604	-2.63
1025.028	-3.53
1025.452	-3.23
1025.876	1.57
1026.3	-0.73
1026.724	-13.73
1027.148	0.97
1027.572	-9.53
1027.996	-7.73
1028.42	0.97
1028.843	-0.83
1029.267	-4.73
1029.691	-2.73
1030.115	-5.53
1030.539	-4.73
1030.962	-11.63
1031.386	-13.33
1031.81	1.87
1032.233	-1.33
1032.657	0.07
1033.08	-4.83
1033.504	-3.03
1033.927	-2.43
1034.351	-1.73
1034.774	-1.23
1035.198	-4.83
1035.621	-6.53
1036.045	-8.83
1036.468	0.07
1036.891	-8.73
1037.315	-7.93
1037.738	-6.63
1038.161	-1.83
1038.584	-2.63
1039.008	-4.43
1039.431	0.37
1039.854	-1.73
1040.277	-7.23
1040.7	-5.73
1041.123	-7.83
1041.546	-0.23
1041.969	0.17
1042.392	-5.63
1042.815	-2.63
1043.238	0.87
1043.661	2.97
1044.084	-6.23
1044.507	-3.53
1044.93	-10.23
1045.352	-2.53
1045.775	-4.63
1046.198	-3.53
1046.621	5.17
1047.043	4.47
1047.466	2.47
1047.889	-1.83
1048.311	-1.73
1048.734	1.17
1049.156	-1.83
1049.579	0.27
1050.001	2.17
1050.424	-0.73
1050.846	-1.03
1051.269	-3.93
1051.691	-6.53
1052.113	-4.23
1052.536	1.57
1052.958	0.87
1053.38	0.27
1053.802	-2.93
1054.225	2.47
1054.647	-0.83
1055.069	-2.83
1055.491	0.57
1055.913	-7.83
1056.335	-0.33
1056.757	-6.43
1057.179	-6.63
1057.601	-6.73
1058.023	2.17
1058.445	-1.93
1058.867	0.27
1059.289	-5.43
1059.711	-6.23
1060.133	3.17
1060.555	-6.63
1060.976	-14.53
1061.398	-1.53
1061.82	-5.93
1062.241	-0.93
1062.663	-2.43
1063.085	-8.73
1063.506	2.77
1063.928	-4.63
1064.35	1.17
1064.771	-13.43
1065.193	0.07
1065.614	-7.43
1066.035	0.17
1066.457	-6.93
1066.878	-0.03
1067.3	-9.33
1067.721	-7.13
1068.142	-3.33
1068.564	-0.43
1068.985	-2.43
1069.406	-6.63
1069.827	-3.63
1070.248	-1.73
1070.67	-3.93
1071.091	-7.13
1071.512	-0.23
1071.933	-4.03
1072.354	-0.63
1072.775	-7.63
1073.196	-5.23
1073.617	-2.83
1074.038	-4.43
1074.459	-3.23
1074.88	-3.13
1075.3	-8.73
1075.721	-5.83
1076.142	2.07
1076.563	-4.13
1076.983	-8.73
1077.404	-7.63
1077.825	-11.03
1078.246	-7.13
1078.666	-8.23
1079.087	-6.63
1079.507	-4.83
1079.928	1.87
1080.348	1.47
1080.769	-4.33
1081.189	-2.63
1081.61	-2.93
1082.03	-10.53
1082.451	-7.43
1082.871	-3.73
1083.291	-4.73
1083.711	-6.23
1084.132	-7.53
1084.552	-1.53
1084.972	6.07
1085.392	-10.23
1085.813	-9.23
1086.233	-5.93
1086.653	-9.93
1087.073	2.67
1087.493	-6.93
1087.913	-6.43
1088.333	-5.43
1088.753	-2.73
1089.173	2.67
1089.593	-5.53
1090.013	2.67
1090.433	-3.73
1090.852	-4.33
1091.272	0.47
1091.692	-1.43
1092.112	-7.43
1092.531	-12.43
1092.951	-10.03
1093.371	0.57
1093.79	3.27
1094.21	-2.63
1094.63	-3.33
1095.049	-4.93
1095.469	1.87
1095.888	-6.23
1096.308	0.87
1096.727	6.37
1097.146	-8.43
1097.566	-3.73
1097.985	-4.33
1098.405	-5.23
1098.824	-11.33
1099.243	-7.93
1099.662	-10.63
1100.082	-2.73
1100.501	1.87
1100.92	-7.33
1101.339	-3.53
1101.758	-6.73
