Data from 20171114-ORNL-Ar_H_NY_Subt18_08-05-43-063.txt Node
Date: Tue Nov 14 08:05:43 EST 2017
User: Ender
Spectrometer: HR+D1039
Trigger mode: 0
Integration Time (sec): 2.730000E-2
Scans to average: 10
Electric dark correction enabled: true
Nonlinearity correction enabled: false
Boxcar width: 0
XAxis mode: Wavelengths
Number of Pixels in Spectrum: 2048
>>>>>Begin Spectral Data<<<<<
187.836	-6.32
188.309	-6.32
188.782	-6.32
189.255	4.18
189.728	-3.12
190.201	2.38
190.674	1.98
191.147	4.08
191.619	-2.72
192.092	-3.52
192.565	8.18
193.038	2.48
193.511	-0.12
193.984	-1.72
194.456	-4.62
194.929	-1.12
195.402	0.48
195.874	-0.52
196.347	-2.62
196.82	-6.02
197.292	5.18
197.765	-0.52
198.237	-6.32
198.71	0.28
199.182	2.98
199.655	2.58
200.127	1.08
200.6	-6.12
201.072	-2.82
201.544	-2.02
202.017	-2.92
202.489	9.38
202.961	-2.72
203.433	-0.32
203.906	-9.22
204.378	-0.02
204.85	-5.92
205.322	-10.42
205.794	-1.82
206.266	-1.12
206.739	-4.82
207.211	1.28
207.683	-6.22
208.155	-4.92
208.627	-2.82
209.099	-6.42
209.57	-10.02
210.042	-4.12
210.514	-3.22
210.986	0.48
211.458	-4.32
211.93	-0.02
212.402	4.28
212.873	-2.22
213.345	-16.42
213.817	-14.62
214.288	-7.32
214.76	-9.12
215.232	-5.42
215.703	3.08
216.175	-1.92
216.646	-5.42
217.118	-3.82
217.589	-1.82
218.061	-1.12
218.532	-8.62
219.004	1.28
219.475	-3.22
219.946	2.58
220.418	0.68
220.889	4.58
221.36	3.98
221.832	-6.22
222.303	2.68
222.774	7.78
223.245	-2.52
223.717	1.88
224.188	-2.32
224.659	-8.52
225.13	-4.82
225.601	-1.12
226.072	-1.62
226.543	1.18
227.014	-0.92
227.485	-3.52
227.956	-11.42
228.427	-4.72
228.898	3.08
229.369	4.68
229.839	-0.62
230.31	-6.12
230.781	2.48
231.252	2.38
231.722	-5.32
232.193	-3.22
232.664	0.28
233.135	3.08
233.605	-0.92
234.076	-7.62
234.546	-3.72
235.017	4.08
235.487	-5.92
235.958	5.78
236.428	-6.12
236.899	4.28
237.369	6.78
237.84	2.18
238.31	7.08
238.78	4.88
239.251	4.88
239.721	11.68
240.191	8.78
240.662	0.08
241.132	0.38
241.602	-0.22
242.072	3.98
242.542	7.58
243.013	1.58
243.483	11.58
243.953	3.28
244.423	7.78
244.893	-0.72
245.363	7.38
245.833	2.58
246.303	-0.12
246.773	13.18
247.243	2.08
247.712	-0.72
248.182	6.88
248.652	11.38
249.122	-0.92
249.592	15.68
250.061	25.98
250.531	37.68
251.001	18.08
251.471	27.48
251.94	20.38
252.41	7.38
252.879	3.28
253.349	18.98
253.818	14.58
254.288	4.48
254.757	5.18
255.227	5.38
255.696	5.88
256.166	16.88
256.635	13.28
257.105	12.18
257.574	3.58
258.043	22.78
258.513	12.18
258.982	20.08
259.451	11.58
259.92	13.88
260.389	14.78
260.859	18.58
261.328	15.38
261.797	17.38
262.266	14.08
262.735	5.78
263.204	11.18
263.673	6.18
264.142	10.68
264.611	-4.32
265.08	4.68
265.549	6.78
266.018	7.88
266.487	6.38
266.955	-0.92
267.424	5.18
267.893	12.98
268.362	5.88
268.83	7.88
269.299	13.98
269.768	9.88
270.236	7.58
270.705	6.88
271.174	2.98
271.642	7.98
272.111	13.18
272.579	21.28
273.048	20.88
273.516	30.98
273.985	26.68
274.453	34.28
274.922	21.58
275.39	14.78
275.858	5.38
276.327	16.58
276.795	23.88
277.263	18.28
277.731	32.98
278.2	62.48
278.668	62.08
279.136	51.98
279.604	20.08
280.072	19.68
280.54	17.98
281.008	8.38
281.477	14.98
281.945	15.38
282.413	15.68
282.881	15.78
283.348	12.58
283.816	15.98
284.284	22.48
284.752	24.18
285.22	16.38
285.688	15.68
286.156	23.48
286.623	45.48
287.091	59.98
287.559	32.18
288.026	19.98
288.494	23.28
288.962	7.58
289.429	14.88
289.897	15.98
290.364	13.18
290.832	19.08
291.3	17.08
291.767	18.38
292.234	19.68
292.702	26.98
293.169	21.08
293.637	23.78
294.104	24.38
294.571	16.08
295.039	14.08
295.506	12.38
295.973	21.98
296.44	15.58
296.908	22.78
297.375	20.08
297.842	19.48
298.309	26.68
298.776	16.78
299.243	25.78
299.71	14.98
300.177	26.98
300.644	23.88
301.111	29.08
301.578	19.28
302.045	23.78
302.512	20.28
302.979	21.88
303.446	22.48
303.913	20.38
304.379	24.98
304.846	32.28
305.313	26.38
305.78	26.48
306.246	25.18
306.713	35.18
307.18	27.78
307.646	32.98
308.113	36.58
308.579	29.28
309.046	27.88
309.512	32.48
309.979	19.68
310.445	32.18
310.912	28.38
311.378	36.58
311.845	30.78
312.311	35.48
312.777	33.58
313.244	29.08
313.71	49.38
314.176	29.58
314.642	37.28
315.109	31.58
315.575	37.08
316.041	43.88
316.507	36.78
316.973	43.68
317.439	36.28
317.905	43.18
318.371	42.08
318.837	37.08
319.303	42.58
319.769	38.08
320.235	35.48
320.701	40.28
321.167	44.68
321.633	42.68
322.099	47.78
322.564	53.08
323.03	40.48
323.496	38.58
323.962	48.28
324.427	41.88
324.893	44.08
325.359	43.58
325.824	36.88
326.29	44.08
326.755	39.98
327.221	43.98
327.686	39.78
328.152	51.38
328.617	49.58
329.083	51.98
329.548	54.28
330.014	51.68
330.479	47.08
330.944	49.78
331.41	50.88
331.875	51.18
332.34	51.38
332.805	52.08
333.271	51.68
333.736	49.78
334.201	52.98
334.666	58.48
335.131	54.38
335.596	56.28
336.061	56.58
336.526	42.18
336.991	48.48
337.456	60.08
337.921	54.18
338.386	42.88
338.851	52.98
339.316	46.28
339.781	52.98
340.246	54.08
340.711	62.88
341.175	54.48
341.64	42.98
342.105	53.18
342.569	55.38
343.034	63.78
343.499	53.68
343.963	60.18
344.428	65.68
344.893	66.08
345.357	65.08
345.822	65.58
346.286	70.68
346.751	79.68
347.215	68.88
347.679	73.98
348.144	107.28
348.608	89.68
349.073	74.68
349.537	80.28
350.001	87.68
350.465	87.18
350.93	87.38
351.394	86.88
351.858	80.58
352.322	90.68
352.786	88.68
353.25	108.38
353.715	115.98
354.179	103.18
354.643	122.28
355.107	126.38
355.571	110.68
356.035	110.48
356.498	117.68
356.962	129.48
357.426	143.78
357.89	128.88
358.354	94.48
358.818	92.98
359.281	87.38
359.745	81.78
360.209	78.08
360.673	83.38
361.136	82.28
361.6	86.58
362.064	90.18
362.527	93.38
362.991	94.98
363.454	83.78
363.918	76.48
364.381	82.18
364.845	87.78
365.308	84.18
365.772	92.28
366.235	88.48
366.698	92.98
367.162	90.78
367.625	85.48
368.088	97.08
368.552	92.88
369.015	89.68
369.478	100.68
369.941	110.18
370.404	99.48
370.867	113.88
371.331	110.58
371.794	118.28
372.257	116.08
372.72	116.48
373.183	106.38
373.646	107.08
374.109	110.78
374.572	119.98
375.035	114.78
375.497	115.08
375.96	105.58
376.423	114.28
376.886	120.68
377.349	115.58
377.811	106.98
378.274	113.18
378.737	108.68
379.199	116.88
379.662	115.88
380.125	127.58
380.587	121.08
381.05	123.88
381.512	125.68
381.975	132.28
382.437	131.68
382.9	125.98
383.362	134.08
383.825	146.08
384.287	148.48
384.75	148.68
385.212	142.78
385.674	145.48
386.136	141.88
386.599	128.98
387.061	130.58
387.523	129.38
387.985	138.38
388.447	149.38
388.91	142.78
389.372	152.18
389.834	157.08
390.296	153.78
390.758	156.28
391.22	171.88
391.682	215.88
392.144	300.68
392.606	234.68
393.068	174.88
393.529	167.08
393.991	157.68
394.453	150.18
394.915	161.38
395.377	195.58
395.838	219.68
396.3	156.98
396.762	142.98
397.224	137.48
397.685	133.98
398.147	138.58
398.608	137.08
399.07	127.88
399.531	136.28
399.993	144.88
400.454	152.08
400.916	154.18
401.377	151.78
401.839	156.78
402.3	157.88
402.762	172.68
403.223	184.18
403.684	176.18
404.145	162.08
404.607	161.28
405.068	170.68
405.529	182.28
405.99	200.68
406.451	180.28
406.913	178.28
407.374	175.88
407.835	168.08
408.296	179.98
408.757	178.18
409.218	188.78
409.679	177.18
410.14	186.78
410.601	187.68
411.062	183.18
411.522	190.88
411.983	191.38
412.444	177.48
412.905	180.78
413.366	186.58
413.826	198.38
414.287	221.98
414.748	275.88
415.208	250.78
415.669	217.18
416.13	203.68
416.59	202.28
417.051	212.88
417.511	224.68
417.972	243.88
418.432	259.08
418.893	291.68
419.353	247.58
419.814	207.88
420.274	183.38
420.734	186.38
421.195	199.08
421.655	198.98
422.115	194.48
422.576	196.78
423.036	201.78
423.496	214.68
423.956	217.98
424.416	239.28
424.876	271.98
425.336	266.58
425.797	264.18
426.257	264.58
426.717	245.58
427.177	238.48
427.637	233.88
428.097	244.98
428.556	249.58
429.016	281.68
429.476	269.08
429.936	286.58
430.396	283.18
430.856	294.28
431.315	326.28
431.775	357.98
432.235	378.48
432.694	361.18
433.154	362.28
433.614	395.18
434.073	349.88
434.533	286.28
434.993	279.88
435.452	286.18
435.912	303.58
436.371	295.88
436.83	291.98
437.29	280.78
437.749	255.98
438.209	252.58
438.668	275.48
439.127	295.78
439.587	277.48
440.046	255.58
440.505	269.18
440.964	290.58
441.424	333.28
441.883	322.48
442.342	264.38
442.801	232.78
443.26	235.88
443.719	225.78
444.178	226.88
444.637	215.58
445.096	226.38
445.555	228.08
446.014	231.48
446.473	232.28
446.932	239.48
447.391	227.18
447.849	227.88
448.308	230.88
448.767	224.58
449.226	237.78
449.685	238.08
450.143	256.28
450.602	248.28
451.061	232.78
451.519	238.88
451.978	235.48
452.436	239.98
452.895	252.08
453.353	259.18
453.812	242.38
454.27	246.48
454.729	239.18
455.187	243.28
455.646	244.88
456.104	252.18
456.562	267.08
457.021	269.68
457.479	273.18
457.937	273.38
458.395	266.28
458.854	254.08
459.312	264.08
459.77	280.28
460.228	254.98
460.686	246.48
461.144	252.98
461.602	250.68
462.06	251.28
462.518	256.78
462.976	265.28
463.434	265.88
463.892	274.88
464.35	279.68
464.808	298.28
465.266	268.48
465.724	270.08
466.181	277.98
466.639	267.98
467.097	286.88
467.555	312.18
468.012	306.98
468.47	320.08
468.928	336.18
469.385	345.18
469.843	352.58
470.3	359.38
470.758	370.58
471.215	388.28
471.673	411.48
472.13	409.38
472.588	425.38
473.045	381.08
473.503	389.18
473.96	401.58
474.417	417.08
474.875	444.78
475.332	480.98
475.789	465.48
476.246	480.78
476.704	489.98
477.161	522.18
477.618	537.58
478.075	577.68
478.532	625.58
478.989	701.88
479.446	823.18
479.903	782.18
480.36	820.48
480.817	877.48
481.274	986.78
481.731	1091.48
482.188	1190.08
482.645	1321.08
483.102	1433.68
483.558	1570.68
484.015	1635.48
484.472	1595.98
484.929	1552.48
485.385	1503.88
485.842	1469.68
486.299	1396.48
486.755	1323.58
487.212	1114.98
487.668	948.68
488.125	873.58
488.582	791.08
489.038	755.38
489.494	725.78
489.951	710.58
490.407	682.58
490.864	648.68
491.32	657.88
491.776	649.98
492.233	662.28
492.689	622.68
493.145	624.08
493.602	611.68
494.058	628.18
494.514	638.28
494.97	651.48
495.426	656.18
495.882	624.78
496.338	626.48
496.794	634.58
497.251	639.58
497.707	640.48
498.163	640.38
498.618	658.58
499.074	660.58
499.53	694.38
499.986	690.48
500.442	663.18
500.898	655.58
501.354	642.48
501.809	656.28
502.265	649.88
502.721	671.48
503.177	668.68
503.632	686.88
504.088	678.08
504.543	723.98
504.999	714.78
505.455	671.68
505.91	635.98
506.366	653.58
506.821	644.98
507.277	651.78
507.732	633.78
508.187	637.38
508.643	648.28
509.098	640.48
509.553	661.48
510.009	671.48
510.464	680.38
510.919	704.28
511.375	704.38
511.83	718.78
512.285	738.58
512.74	781.08
513.195	801.08
513.65	783.28
514.105	777.18
514.56	795.48
515.015	804.48
515.47	818.18
515.925	797.98
516.38	799.58
516.835	811.98
517.29	790.78
517.745	790.88
518.2	780.18
518.655	768.98
519.109	766.68
519.564	746.78
520.019	746.48
520.474	740.88
520.928	725.48
521.383	732.78
521.838	721.98
522.292	714.98
522.747	717.78
523.201	714.58
523.656	691.58
524.11	704.08
524.565	697.78
525.019	702.38
525.474	718.88
525.928	712.68
526.382	708.58
526.837	711.08
527.291	707.08
527.745	698.48
528.2	709.78
528.654	703.68
529.108	702.48
529.562	698.78
530.016	700.78
530.47	702.98
530.925	710.48
531.379	711.38
531.833	717.08
532.287	709.58
532.741	712.98
533.195	710.38
533.649	730.28
534.103	733.18
534.556	720.98
535.01	727.18
535.464	724.78
535.918	729.88
536.372	729.08
536.826	723.38
537.279	719.28
537.733	725.58
538.187	719.58
538.64	731.08
539.094	731.28
539.548	742.58
540.001	728.78
540.455	730.78
540.908	731.38
541.362	741.68
541.815	756.48
542.269	758.78
542.722	767.08
543.175	777.68
543.629	783.38
544.082	789.28
544.536	805.48
544.989	793.18
545.442	806.18
545.895	796.28
546.349	798.48
546.802	796.48
547.255	814.78
547.708	816.48
548.161	819.38
548.614	831.98
549.067	830.68
549.52	829.18
549.973	822.38
550.426	818.28
550.879	792.48
551.332	810.78
551.785	816.38
552.238	817.78
552.691	826.48
553.144	830.38
553.596	857.58
554.049	866.08
554.502	911.38
554.955	927.88
555.407	922.28
555.86	907.28
556.313	900.28
556.765	896.18
557.218	882.68
557.67	907.98
558.123	885.58
558.576	884.98
559.028	883.48
559.48	893.28
559.933	879.58
560.385	845.98
560.838	813.18
561.29	783.88
561.742	788.38
562.195	777.88
562.647	771.88
563.099	784.88
563.551	777.28
564.004	790.28
564.456	773.18
564.908	764.18
565.36	752.28
565.812	733.58
566.264	730.88
566.716	730.58
567.168	713.88
567.62	735.98
568.072	714.08
568.524	708.78
568.976	693.48
569.428	674.98
569.88	677.08
570.332	686.18
570.784	697.08
571.235	699.68
571.687	706.28
572.139	706.38
572.59	707.08
573.042	722.38
573.494	713.28
573.945	710.68
574.397	698.58
574.849	692.18
575.3	694.78
575.752	691.38
576.203	678.68
576.655	694.98
577.106	676.38
577.557	663.68
578.009	667.88
578.46	666.28
578.912	671.58
579.363	669.98
579.814	665.78
580.265	666.78
580.717	673.88
581.168	686.48
581.619	673.28
582.07	684.78
582.521	679.38
582.972	679.68
583.423	681.88
583.875	685.38
584.326	702.98
584.777	738.78
585.227	815.28
585.678	911.48
586.129	993.18
586.58	1066.38
587.031	1138.58
587.482	1295.38
587.933	1465.18
588.384	1287.68
588.834	960.68
589.285	794.58
589.736	779.28
590.186	780.28
590.637	766.48
591.088	738.98
591.538	732.28
591.989	736.68
592.439	728.08
592.89	716.98
593.34	705.48
593.791	707.88
594.241	706.18
594.692	707.88
595.142	709.08
595.593	691.98
596.043	706.78
596.493	717.88
596.943	717.68
597.394	722.88
597.844	718.28
598.294	718.18
598.744	750.08
599.195	773.78
599.645	800.88
600.095	855.28
600.545	915.18
600.995	963.78
601.445	1014.48
601.895	1072.28
602.345	1125.38
602.795	1111.18
603.245	1066.68
603.695	1011.58
604.145	966.58
604.594	912.98
605.044	859.18
605.494	798.38
605.944	742.68
606.393	741.98
606.843	714.38
607.293	730.08
607.743	722.68
608.192	740.58
608.642	748.18
609.091	761.68
609.541	761.58
609.99	764.08
610.44	762.88
610.889	721.18
611.339	711.38
611.788	677.28
612.238	690.38
612.687	698.58
613.136	705.88
613.586	734.28
614.035	742.98
614.484	751.88
614.933	749.68
615.383	747.18
615.832	736.18
616.281	711.28
616.73	681.48
617.179	656.48
617.628	649.68
618.077	630.68
618.526	633.08
618.975	612.98
619.424	609.18
619.873	607.18
620.322	612.38
620.771	592.88
621.22	594.38
621.669	592.38
622.118	582.68
622.567	578.38
623.015	560.78
623.464	569.38
623.913	556.78
624.361	558.78
624.81	549.68
625.259	546.78
625.707	546.98
626.156	550.18
626.604	562.88
627.053	546.58
627.501	555.78
627.95	565.98
628.398	573.48
628.847	567.08
629.295	573.78
629.744	563.28
630.192	560.98
630.64	562.58
631.089	560.38
631.537	569.08
631.985	579.48
632.433	591.78
632.881	589.38
633.33	647.28
633.778	624.88
634.226	552.78
634.674	559.78
635.122	569.98
635.57	585.18
636.018	619.28
636.466	577.38
636.914	548.08
637.362	559.08
637.81	567.68
638.258	564.88
638.705	576.38
639.153	594.28
639.601	610.48
640.049	633.48
640.497	658.88
640.944	681.28
641.392	639.98
641.84	602.98
642.287	572.68
642.735	558.48
643.182	562.88
643.63	565.78
644.078	565.78
644.525	587.28
644.973	584.68
645.42	602.88
645.867	608.98
646.315	635.78
646.762	643.08
647.21	677.88
647.657	705.18
648.104	733.88
648.551	759.68
648.999	826.18
649.446	891.18
649.893	981.68
650.34	1130.18
650.787	1351.48
651.234	1685.28
651.682	2197.08
652.129	3004.98
652.576	4318.98
653.023	6368.28
653.47	8770.18
653.917	10991.68
654.363	12782.38
654.81	14161.18
655.257	13457.88
655.704	8826.58
656.151	5208.98
656.598	3357.08
657.044	2384.48
657.491	1850.08
657.938	1474.68
658.385	1221.98
658.831	1059.88
659.278	945.28
659.724	838.38
660.171	781.08
660.618	713.98
661.064	677.58
661.511	658.28
661.957	643.88
662.404	632.88
662.85	628.48
663.296	615.28
663.743	548.68
664.189	527.98
664.635	519.28
665.082	500.78
665.528	525.68
665.974	496.78
666.42	506.68
666.867	490.48
667.313	480.28
667.759	471.38
668.205	465.28
668.651	478.28
669.097	476.08
669.543	495.58
669.989	465.08
670.435	434.58
670.881	433.38
671.327	446.38
671.773	462.68
672.219	482.98
672.665	528.78
673.11	563.98
673.556	605.58
674.002	654.98
674.448	632.38
674.893	536.18
675.339	459.68
675.785	429.88
676.23	419.88
676.676	394.08
677.122	372.28
677.567	365.28
678.013	357.28
678.458	352.28
678.904	350.48
679.349	339.88
679.794	353.48
680.24	341.58
680.685	338.18
681.131	339.18
681.576	336.38
682.021	336.68
682.466	334.38
682.912	338.78
683.357	352.78
683.802	364.28
684.247	397.88
684.692	444.08
685.137	477.38
685.583	520.78
686.028	538.38
686.473	506.28
686.918	435.28
687.363	407.38
687.807	391.48
688.252	360.88
688.697	350.18
689.142	327.18
689.587	322.58
690.032	315.98
690.477	333.98
690.921	341.18
691.366	367.58
691.811	388.38
692.255	413.58
692.7	450.18
693.145	484.58
693.589	666.98
694.034	1082.48
694.478	1482.98
694.923	1680.18
695.367	2211.38
695.812	1175.18
696.256	490.88
696.701	354.08
697.145	334.98
697.59	318.08
698.034	316.18
698.478	326.18
698.922	313.28
699.367	319.78
699.811	324.48
700.255	353.98
700.699	372.08
701.143	405.58
701.588	461.88
702.032	494.48
702.476	501.48
702.92	469.38
703.364	484.68
703.808	611.58
704.252	992.88
704.696	1386.78
705.14	1608.98
705.584	2066.18
706.027	1045.68
706.471	506.88
706.915	382.48
707.359	345.38
707.803	307.58
708.246	304.48
708.69	304.28
709.134	313.48
709.577	299.88
710.021	306.48
710.465	296.18
710.908	286.08
711.352	290.88
711.795	300.78
712.239	342.08
712.682	371.48
713.126	403.68
713.569	455.28
714.012	359.98
714.456	310.88
714.899	283.08
715.342	268.38
715.786	254.58
716.229	245.28
716.672	250.18
717.115	241.58
717.558	246.88
718.002	248.98
718.445	254.58
718.888	277.58
719.331	292.88
719.774	296.38
720.217	295.68
720.66	265.78
721.103	262.28
721.546	245.68
721.989	247.48
722.432	215.78
722.874	230.28
723.317	225.28
723.76	230.58
724.203	250.48
724.645	309.88
725.088	425.68
725.531	546.08
725.974	627.48
726.416	519.28
726.859	293.68
727.301	238.78
727.744	233.18
728.187	225.08
728.629	228.18
729.071	234.18
729.514	248.08
729.956	264.18
730.399	276.38
730.841	278.38
731.283	266.48
731.726	251.28
732.168	255.58
732.61	257.48
733.053	273.68
733.495	306.78
733.937	343.88
734.379	390.18
734.821	413.08
735.263	522.88
735.705	798.68
736.148	1501.48
736.59	2475.28
737.032	2960.58
737.474	2409.48
737.916	776.58
738.357	412.98
738.799	316.38
739.241	293.68
739.683	276.28
740.125	278.28
740.567	288.78
741.008	306.08
741.45	304.68
741.892	304.78
742.334	335.88
742.775	351.38
743.217	331.08
743.658	263.68
744.1	247.48
744.542	256.08
744.983	304.18
745.425	333.08
745.866	338.68
746.307	272.08
746.749	275.38
747.19	315.78
747.632	426.68
748.073	827.68
748.514	1753.98
748.956	2743.48
749.397	3432.58
749.838	2845.88
750.279	2875.08
750.72	1452.38
751.162	528.18
751.603	306.48
752.044	248.78
752.485	206.68
752.926	202.78
753.367	199.18
753.808	192.08
754.249	186.08
754.69	178.48
755.131	179.48
755.572	178.68
756.013	171.78
756.453	170.58
756.894	178.38
757.335	188.08
757.776	197.98
758.216	191.28
758.657	189.58
759.098	187.28
759.538	219.78
759.979	260.88
760.42	352.18
760.86	661.78
761.301	1699.18
761.741	4184.38
762.182	6235.78
762.622	4387.78
763.063	1265.98
763.503	516.68
763.943	334.48
764.384	327.98
764.824	389.28
765.264	408.88
765.705	292.58
766.145	204.18
766.585	183.48
767.025	173.28
767.465	178.38
767.906	225.88
768.346	299.88
768.786	324.28
769.226	251.58
769.666	301.08
770.106	574.78
770.546	1461.58
770.986	2537.38
771.426	2309.18
771.866	760.38
772.306	311.78
772.745	205.08
773.185	174.28
773.625	164.88
774.065	157.78
774.505	194.78
774.944	286.98
775.384	631.48
775.824	1154.38
776.263	1143.48
776.703	490.88
777.142	207.18
777.582	154.58
778.021	131.68
778.461	135.78
778.9	137.48
779.34	126.98
779.779	113.88
780.219	106.28
780.658	104.08
781.097	110.78
781.537	112.38
781.976	99.78
782.415	101.98
782.855	95.68
783.294	100.18
783.733	107.38
784.172	106.88
784.611	98.78
785.05	109.28
785.489	111.08
785.928	111.88
786.367	116.38
786.806	116.28
787.245	129.38
787.684	135.48
788.123	144.48
788.562	139.68
789.001	121.48
789.44	118.68
789.879	117.58
790.317	118.98
790.756	122.08
791.195	120.78
791.634	140.88
792.072	197.78
792.511	340.18
792.95	939.28
793.388	2067.78
793.827	1902.98
794.265	649.18
794.704	276.58
795.142	176.88
795.581	148.18
796.019	139.18
796.458	121.28
796.896	114.88
797.334	124.98
797.773	144.18
798.211	207.18
798.649	406.38
799.087	968.98
799.526	1528.58
799.964	1910.28
800.402	1940.18
800.84	720.88
801.278	287.28
801.716	178.88
802.154	146.58
802.592	142.28
803.03	136.48
803.468	123.78
803.906	137.58
804.344	147.18
804.782	138.68
805.22	133.08
805.658	126.38
806.096	142.38
806.533	147.78
806.971	169.68
807.409	203.88
807.847	300.08
808.284	611.98
808.722	1746.28
809.16	3163.98
809.597	2960.58
810.035	5168.18
810.472	5652.78
810.91	2018.08
811.347	765.58
811.785	395.68
812.222	249.38
812.66	188.88
813.097	159.88
813.535	139.08
813.972	128.08
814.409	116.28
814.846	106.78
815.284	111.98
815.721	100.28
816.158	105.18
816.595	117.68
817.032	172.28
817.47	189.08
817.907	168.48
818.344	143.28
818.781	113.68
819.218	95.78
819.655	120.18
820.092	181.98
820.529	211.38
820.966	174.98
821.403	126.98
821.839	99.58
822.276	95.88
822.713	111.48
823.15	130.98
823.587	117.28
824.023	137.18
824.46	278.58
824.897	841.78
825.333	1318.48
825.77	565.98
826.206	222.38
826.643	137.18
827.08	102.28
827.516	82.08
827.953	75.68
828.389	79.48
828.825	63.98
829.262	60.48
829.698	62.68
830.135	66.28
830.571	56.68
831.007	59.68
831.443	64.98
831.88	60.98
832.316	70.18
832.752	59.98
833.188	62.68
833.624	61.18
834.06	62.68
834.497	66.68
834.933	65.18
835.369	75.18
835.805	68.58
836.241	75.28
836.677	77.08
837.112	85.98
837.548	102.48
837.984	127.68
838.42	191.08
838.856	460.58
839.292	1422.98
839.727	2238.58
840.163	1032.08
840.599	880.78
841.034	1917.18
841.47	2075.88
841.906	757.28
842.341	324.98
842.777	217.08
843.212	299.08
843.648	303.98
844.083	150.98
844.519	96.38
844.954	71.98
845.39	60.68
845.825	57.58
846.261	54.98
846.696	51.88
847.131	56.38
847.566	53.58
848.002	49.18
848.437	54.78
848.872	53.08
849.307	60.58
849.742	78.28
850.177	172.38
850.613	522.98
851.048	850.48
851.483	375.08
851.918	149.58
852.353	83.38
852.788	64.28
853.223	57.08
853.657	56.88
854.092	50.98
854.527	40.98
854.962	37.68
855.397	47.18
855.832	46.08
856.266	41.18
856.701	37.68
857.136	33.58
857.57	44.38
858.005	51.78
858.44	55.68
858.874	46.18
859.309	51.48
859.743	42.98
860.178	46.68
860.612	41.58
861.047	53.48
861.481	63.68
861.915	68.08
862.35	49.98
862.784	36.28
863.218	36.38
863.653	34.78
864.087	51.28
864.521	56.88
864.955	66.28
865.39	145.68
865.824	172.08
866.258	108.08
866.692	158.58
867.126	172.28
867.56	105.48
867.994	53.58
868.428	36.88
868.862	41.08
869.296	54.08
869.73	60.08
870.164	50.78
870.598	48.98
871.031	35.88
871.465	31.38
871.899	31.88
872.333	18.98
872.766	24.28
873.2	27.08
873.634	33.28
874.067	28.08
874.501	27.48
874.935	32.78
875.368	28.68
875.802	25.98
876.235	26.08
876.669	22.28
877.102	19.08
877.535	22.58
877.969	23.58
878.402	26.38
878.836	19.28
879.269	29.88
879.702	21.78
880.135	21.28
880.569	15.28
881.002	26.18
881.435	22.78
881.868	21.48
882.301	28.38
882.734	17.08
883.167	27.88
883.601	19.98
884.034	22.68
884.467	20.78
884.899	21.48
885.332	20.98
885.765	15.08
886.198	22.38
886.631	19.88
887.064	25.08
887.497	19.88
887.929	29.48
888.362	8.08
888.795	14.18
889.228	14.48
889.66	20.48
890.093	18.38
890.526	19.38
890.958	21.38
891.391	12.08
891.823	23.98
892.256	12.28
892.688	12.28
893.121	17.58
893.553	11.68
893.985	24.68
894.418	15.98
894.85	20.28
895.282	14.68
895.715	16.48
896.147	14.38
896.579	19.78
897.011	18.18
897.444	13.68
897.876	16.18
898.308	15.18
898.74	17.88
899.172	15.48
899.604	28.78
900.036	14.78
900.468	18.78
900.9	13.38
901.332	21.38
901.764	16.38
902.196	21.88
902.628	18.58
903.06	18.68
903.491	26.88
903.923	22.28
904.355	26.88
904.787	25.78
905.218	18.18
905.65	17.18
906.082	6.38
906.513	13.98
906.945	13.98
907.376	21.78
907.808	19.88
908.239	25.18
908.671	17.98
909.102	21.18
909.534	23.38
909.965	42.68
910.397	89.58
910.828	292.78
911.259	459.48
911.691	206.98
912.122	109.18
912.553	57.28
912.984	32.48
913.415	24.68
913.847	22.28
914.278	14.98
914.709	14.18
915.14	20.48
915.571	18.38
916.002	13.48
916.433	22.08
916.864	25.28
917.295	13.78
917.726	23.68
918.157	20.58
918.587	26.28
919.018	24.98
919.449	23.78
919.88	26.18
920.311	30.38
920.741	48.38
921.172	154.88
921.603	148.58
922.033	67.18
922.464	43.58
922.895	19.28
923.325	19.98
923.756	16.98
924.186	13.88
924.617	24.28
925.047	40.38
925.478	56.68
925.908	43.88
926.338	25.88
926.769	20.48
927.199	18.98
927.629	15.88
928.06	16.88
928.49	20.68
928.92	15.78
929.35	11.78
929.78	17.78
930.21	14.08
930.641	18.48
931.071	13.38
931.501	12.68
931.931	5.08
932.361	7.08
932.791	5.38
933.221	3.78
933.651	4.78
934.08	15.88
934.51	28.48
934.94	9.18
935.37	11.38
935.8	9.88
936.229	11.88
936.659	7.98
937.089	0.58
937.519	11.58
937.948	23.48
938.378	18.78
938.807	4.48
939.237	6.68
939.666	10.38
940.096	-4.52
940.525	4.08
940.955	3.58
941.384	2.48
941.814	-9.42
942.243	3.48
942.672	9.08
943.102	6.58
943.531	2.78
943.96	5.28
944.39	-1.32
944.819	-0.52
945.248	4.38
945.677	3.28
946.106	10.18
946.535	2.88
946.964	-0.82
947.393	5.18
947.822	-1.02
948.251	-3.82
948.68	3.48
949.109	18.08
949.538	6.38
949.967	-0.52
950.396	-0.72
950.825	5.38
951.254	2.48
951.682	-7.62
952.111	1.98
952.54	7.48
952.969	2.08
953.397	-3.52
953.826	3.38
954.254	-12.22
954.683	-1.62
955.112	-7.32
955.54	-2.82
955.969	2.88
956.397	0.58
956.826	-1.42
957.254	2.38
957.682	2.08
958.111	2.88
958.539	0.08
958.967	2.48
959.396	0.28
959.824	-0.72
960.252	-1.52
960.68	-3.52
961.109	1.28
961.537	0.08
961.965	-3.52
962.393	8.08
962.821	-4.62
963.249	3.08
963.677	-1.22
964.105	11.48
964.533	44.08
964.961	40.38
965.389	22.18
965.817	3.38
966.245	-4.02
966.672	3.68
967.1	-6.32
967.528	0.08
967.956	-2.52
968.383	-0.82
968.811	-7.02
969.239	1.08
969.666	-2.72
970.094	3.78
970.522	3.08
970.949	1.18
971.377	-3.62
971.804	6.28
972.232	-1.72
972.659	2.18
973.087	-1.22
973.514	-0.72
973.941	-1.02
974.369	4.08
974.796	2.38
975.223	-6.32
975.651	0.78
976.078	1.78
976.505	-1.12
976.932	1.28
977.359	15.68
977.786	16.38
978.214	2.08
978.641	1.08
979.068	-2.32
979.495	-2.82
979.922	-1.92
980.349	-1.22
980.776	7.28
981.202	1.18
981.629	12.88
982.056	-1.82
982.483	-0.52
982.91	10.58
983.337	-0.72
983.763	3.08
984.19	-4.82
984.617	-0.62
985.043	-0.82
985.47	-4.82
985.897	1.18
986.323	-2.22
986.75	-1.42
987.176	-2.12
987.603	-0.42
988.029	4.58
988.456	-0.32
988.882	6.38
989.308	-6.72
989.735	-2.12
990.161	1.48
990.587	-3.72
991.014	1.08
991.44	9.58
991.866	-1.32
992.292	-12.82
992.719	1.08
993.145	3.28
993.571	-9.42
993.997	-6.52
994.423	-1.82
994.849	-0.62
995.275	-0.22
995.701	0.68
996.127	-1.92
996.553	5.88
996.979	-1.02
997.405	-4.62
997.83	-4.42
998.256	-3.62
998.682	-6.32
999.108	-5.62
999.534	-5.32
999.959	-0.12
1000.385	1.78
1000.811	5.98
1001.236	-7.92
1001.662	-4.12
1002.087	-8.82
1002.513	4.48
1002.938	1.38
1003.364	4.18
1003.789	-1.52
1004.215	3.38
1004.64	-0.82
1005.066	6.18
1005.491	1.78
1005.916	1.68
1006.342	-0.02
1006.767	-7.22
1007.192	8.08
1007.617	-11.42
1008.042	-7.52
1008.468	0.08
1008.893	-2.82
1009.318	-3.62
1009.743	1.28
1010.168	1.28
1010.593	-1.32
1011.018	-9.12
1011.443	-3.72
1011.868	-0.22
1012.293	-0.02
1012.718	-5.82
1013.143	2.28
1013.567	0.28
1013.992	-0.22
1014.417	-12.92
1014.842	12.28
1015.267	-6.12
1015.691	-3.62
1016.116	6.98
1016.541	5.58
1016.965	6.28
1017.39	-0.52
1017.814	4.38
1018.239	1.48
1018.663	-3.72
1019.088	-7.42
1019.512	-3.12
1019.937	-1.72
1020.361	-4.82
1020.785	-5.02
1021.21	-3.22
1021.634	2.08
1022.058	0.38
1022.483	3.98
1022.907	-4.22
1023.331	-4.72
1023.755	-1.62
1024.179	-0.12
1024.604	-7.12
1025.028	-1.82
1025.452	-12.12
1025.876	-3.22
1026.3	6.48
1026.724	-9.82
1027.148	0.18
1027.572	-10.22
1027.996	-7.32
1028.42	-3.32
1028.843	-4.72
1029.267	-2.42
1029.691	-2.52
1030.115	-5.12
1030.539	-9.32
1030.962	1.18
1031.386	-9.42
1031.81	2.58
1032.233	-0.42
1032.657	-0.62
1033.08	3.68
1033.504	-3.52
1033.927	-1.42
1034.351	-2.42
1034.774	2.18
1035.198	-3.62
1035.621	-4.62
1036.045	-7.22
1036.468	1.88
1036.891	-10.62
1037.315	-6.42
1037.738	-7.42
1038.161	0.18
1038.584	-5.72
1039.008	-10.02
1039.431	0.98
1039.854	-4.02
1040.277	-4.72
1040.7	-8.32
1041.123	-1.62
1041.546	-2.32
1041.969	-8.92
1042.392	-4.02
1042.815	-6.22
1043.238	5.88
1043.661	1.48
1044.084	-3.52
1044.507	-3.02
1044.93	-4.22
1045.352	-1.22
1045.775	-4.42
1046.198	2.98
1046.621	-11.02
1047.043	-0.32
1047.466	5.68
1047.889	-2.12
1048.311	-3.02
1048.734	2.98
1049.156	-3.92
1049.579	-0.12
1050.001	-3.32
1050.424	-5.52
1050.846	-3.62
1051.269	-1.52
1051.691	-1.42
1052.113	-3.72
1052.536	-3.62
1052.958	0.48
1053.38	-2.12
1053.802	-12.32
1054.225	3.88
1054.647	-5.12
1055.069	-1.72
1055.491	2.98
1055.913	-8.82
1056.335	0.98
1056.757	-6.32
1057.179	-6.32
1057.601	-6.52
1058.023	-1.62
1058.445	-0.52
1058.867	-3.92
1059.289	-6.12
1059.711	-3.42
1060.133	2.68
1060.555	-2.02
1060.976	-6.72
1061.398	-2.52
1061.82	-6.82
1062.241	-2.62
1062.663	-2.72
1063.085	-3.22
1063.506	-2.52
1063.928	-2.52
1064.35	2.18
1064.771	-11.42
1065.193	-1.52
1065.614	-9.72
1066.035	-0.72
1066.457	-1.02
1066.878	7.68
1067.3	-5.32
1067.721	5.98
1068.142	-0.62
1068.564	-4.52
1068.985	-1.22
1069.406	-1.72
1069.827	-3.92
1070.248	-6.62
1070.67	-6.82
1071.091	-6.72
1071.512	1.78
1071.933	-6.12
1072.354	-6.82
1072.775	-2.72
1073.196	-6.32
1073.617	-1.42
1074.038	-3.82
1074.459	1.18
1074.88	-6.22
1075.3	1.08
1075.721	-3.22
1076.142	5.38
1076.563	1.08
1076.983	-11.02
1077.404	-5.32
1077.825	-6.42
1078.246	-5.12
1078.666	-15.32
1079.087	0.48
1079.507	-0.72
1079.928	3.58
1080.348	-0.52
1080.769	-6.32
1081.189	2.48
1081.61	-0.62
1082.03	-6.12
1082.451	-12.62
1082.871	-3.52
1083.291	-12.92
1083.711	-8.02
1084.132	-7.12
1084.552	-5.12
1084.972	-1.42
1085.392	-14.22
1085.813	-7.42
1086.233	-5.02
1086.653	-1.02
1087.073	-0.22
1087.493	-4.22
1087.913	-6.62
1088.333	-6.22
1088.753	-4.32
1089.173	0.28
1089.593	-3.02
1090.013	-2.52
1090.433	4.18
1090.852	-4.52
1091.272	3.78
1091.692	2.98
1092.112	-1.02
1092.531	-6.52
1092.951	-8.42
1093.371	-1.02
1093.79	2.28
1094.21	-2.02
1094.63	-6.62
1095.049	-6.42
1095.469	1.48
1095.888	0.78
1096.308	6.48
1096.727	4.48
1097.146	-7.22
1097.566	3.48
1097.985	-8.42
1098.405	-0.32
1098.824	-1.72
1099.243	-2.72
1099.662	-10.12
1100.082	3.08
1100.501	-4.72
1100.92	-3.82
1101.339	-1.92
1101.758	-5.82
