Data from 20171114-ORNL-Ar_H_NY_Subt18_08-05-42-790.txt Node
Date: Tue Nov 14 08:05:42 EST 2017
User: Ender
Spectrometer: HR+D1039
Trigger mode: 0
Integration Time (sec): 2.730000E-2
Scans to average: 10
Electric dark correction enabled: true
Nonlinearity correction enabled: false
Boxcar width: 0
XAxis mode: Wavelengths
Number of Pixels in Spectrum: 2048
>>>>>Begin Spectral Data<<<<<
187.836	-4.63
188.309	-4.63
188.782	-4.63
189.255	0.87
189.728	-3.73
190.201	8.57
190.674	-1.03
191.147	3.97
191.619	-4.83
192.092	5.77
192.565	3.57
193.038	0.07
193.511	1.17
193.984	0.87
194.456	-6.73
194.929	-2.83
195.402	-2.03
195.874	0.97
196.347	0.87
196.82	-10.83
197.292	3.77
197.765	-0.03
198.237	-5.63
198.71	4.27
199.182	-1.63
199.655	4.07
200.127	5.07
200.6	-2.13
201.072	-4.43
201.544	-4.83
202.017	0.37
202.489	2.37
202.961	-5.53
203.433	-3.63
203.906	-5.33
204.378	-9.83
204.85	0.07
205.322	-4.23
205.794	0.87
206.266	-7.43
206.739	-12.63
207.211	-1.93
207.683	-7.83
208.155	-5.83
208.627	-6.83
209.099	-1.73
209.57	-14.53
210.042	-7.63
210.514	-2.73
210.986	-5.23
211.458	-6.43
211.93	-1.73
212.402	-3.73
212.873	-1.63
213.345	-8.13
213.817	-11.03
214.288	-1.13
214.76	-8.03
215.232	-9.83
215.703	-3.73
216.175	-3.03
216.646	-4.03
217.118	-7.53
217.589	-3.83
218.061	-0.13
218.532	-5.53
219.004	1.57
219.475	-0.93
219.946	3.27
220.418	-10.63
220.889	2.57
221.36	0.27
221.832	-4.23
222.303	-6.93
222.774	-0.13
223.245	-3.43
223.717	-10.73
224.188	-4.33
224.659	-9.43
225.13	-6.73
225.601	-1.43
226.072	-4.23
226.543	1.67
227.014	3.87
227.485	-7.03
227.956	-9.73
228.427	0.27
228.898	-1.73
229.369	1.17
229.839	-1.43
230.31	-4.43
230.781	2.97
231.252	-0.63
231.722	-5.43
232.193	-1.23
232.664	0.97
233.135	-0.53
233.605	-4.53
234.076	-7.53
234.546	-1.23
235.017	3.77
235.487	6.27
235.958	-1.13
236.428	-6.73
236.899	2.77
237.369	5.07
237.84	-0.43
238.31	8.37
238.78	5.67
239.251	-2.43
239.721	6.47
240.191	3.97
240.662	-2.23
241.132	4.77
241.602	-2.43
242.072	-4.03
242.542	4.77
243.013	-5.03
243.483	4.87
243.953	7.37
244.423	-2.83
244.893	-1.53
245.363	1.87
245.833	3.87
246.303	0.37
246.773	13.07
247.243	3.37
247.712	-1.43
248.182	9.37
248.652	8.07
249.122	-2.33
249.592	7.37
250.061	16.67
250.531	34.87
251.001	17.47
251.471	20.87
251.94	18.97
252.41	13.87
252.879	7.17
253.349	14.57
253.818	7.77
254.288	3.47
254.757	0.87
255.227	1.17
255.696	-2.83
256.166	11.27
256.635	2.47
257.105	8.87
257.574	9.77
258.043	8.17
258.513	8.67
258.982	12.47
259.451	8.27
259.92	12.97
260.389	12.57
260.859	20.47
261.328	13.57
261.797	14.87
262.266	10.27
262.735	3.67
263.204	3.67
263.673	-1.33
264.142	6.87
264.611	-1.93
265.08	2.57
265.549	1.87
266.018	8.77
266.487	-6.43
266.955	-4.73
267.424	0.77
267.893	6.37
268.362	6.77
268.83	3.37
269.299	12.77
269.768	6.87
270.236	2.37
270.705	4.57
271.174	5.27
271.642	9.37
272.111	10.77
272.579	16.57
273.048	22.87
273.516	28.07
273.985	31.07
274.453	28.57
274.922	23.27
275.39	14.37
275.858	5.17
276.327	9.57
276.795	21.27
277.263	14.27
277.731	33.17
278.2	51.67
278.668	64.97
279.136	52.27
279.604	23.27
280.072	21.57
280.54	11.67
281.008	17.07
281.477	12.87
281.945	15.87
282.413	17.17
282.881	18.47
283.348	5.67
283.816	15.27
284.284	12.17
284.752	18.07
285.22	13.07
285.688	17.77
286.156	20.07
286.623	42.57
287.091	59.77
287.559	27.27
288.026	19.47
288.494	17.07
288.962	5.57
289.429	13.47
289.897	16.17
290.364	17.17
290.832	11.97
291.3	11.77
291.767	19.27
292.234	18.77
292.702	16.37
293.169	17.37
293.637	29.07
294.104	23.37
294.571	15.57
295.039	7.27
295.506	13.77
295.973	15.97
296.44	19.67
296.908	19.17
297.375	26.87
297.842	20.77
298.309	21.97
298.776	19.27
299.243	20.87
299.71	18.77
300.177	21.67
300.644	26.97
301.111	22.77
301.578	19.07
302.045	15.87
302.512	20.77
302.979	29.57
303.446	21.97
303.913	27.67
304.379	17.87
304.846	32.77
305.313	26.27
305.78	17.17
306.246	18.37
306.713	27.37
307.18	27.17
307.646	26.17
308.113	33.97
308.579	20.67
309.046	32.37
309.512	25.37
309.979	19.17
310.445	30.67
310.912	31.07
311.378	36.37
311.845	30.97
312.311	31.17
312.777	39.17
313.244	36.27
313.71	42.47
314.176	32.87
314.642	28.37
315.109	30.67
315.575	38.87
316.041	44.77
316.507	27.87
316.973	40.07
317.439	35.67
317.905	32.57
318.371	40.37
318.837	29.47
319.303	35.97
319.769	33.77
320.235	32.57
320.701	35.67
321.167	40.77
321.633	27.87
322.099	39.47
322.564	44.97
323.03	37.37
323.496	40.17
323.962	44.57
324.427	36.67
324.893	45.57
325.359	43.17
325.824	41.67
326.29	40.97
326.755	41.47
327.221	38.17
327.686	37.07
328.152	49.37
328.617	48.57
329.083	50.37
329.548	53.47
330.014	46.37
330.479	39.07
330.944	41.97
331.41	42.67
331.875	44.67
332.34	46.27
332.805	43.27
333.271	52.97
333.736	49.67
334.201	53.87
334.666	52.57
335.131	58.27
335.596	55.87
336.061	56.57
336.526	45.87
336.991	50.87
337.456	58.87
337.921	52.77
338.386	47.67
338.851	42.87
339.316	45.47
339.781	45.27
340.246	52.57
340.711	48.87
341.175	49.97
341.64	50.27
342.105	54.87
342.569	58.87
343.034	56.77
343.499	56.57
343.963	60.47
344.428	69.17
344.893	65.97
345.357	62.97
345.822	63.57
346.286	66.47
346.751	70.47
347.215	68.37
347.679	74.27
348.144	97.27
348.608	81.37
349.073	70.77
349.537	75.37
350.001	85.77
350.465	83.97
350.93	83.47
351.394	84.27
351.858	69.97
352.322	85.87
352.786	80.97
353.25	106.17
353.715	114.87
354.179	100.67
354.643	124.87
355.107	130.57
355.571	104.97
356.035	107.27
356.498	123.07
356.962	121.17
357.426	132.57
357.89	121.77
358.354	95.27
358.818	85.67
359.281	76.17
359.745	83.87
360.209	79.97
360.673	77.97
361.136	80.97
361.6	87.87
362.064	86.37
362.527	86.37
362.991	93.17
363.454	88.37
363.918	81.47
364.381	84.77
364.845	80.77
365.308	90.27
365.772	86.27
366.235	84.17
366.698	89.37
367.162	82.67
367.625	88.77
368.088	87.67
368.552	93.67
369.015	92.47
369.478	100.37
369.941	101.87
370.404	94.97
370.867	110.57
371.331	111.07
371.794	118.37
372.257	116.57
372.72	120.37
373.183	109.77
373.646	111.47
374.109	103.87
374.572	107.87
375.035	111.17
375.497	117.77
375.96	105.17
376.423	107.77
376.886	118.67
377.349	108.37
377.811	95.57
378.274	107.07
378.737	106.67
379.199	113.27
379.662	114.57
380.125	119.37
380.587	109.17
381.05	123.57
381.512	132.27
381.975	137.47
382.437	128.07
382.9	122.07
383.362	133.07
383.825	146.57
384.287	143.47
384.75	142.47
385.212	144.67
385.674	139.37
386.136	138.97
386.599	130.87
387.061	136.97
387.523	127.47
387.985	133.57
388.447	145.27
388.91	143.27
389.372	161.87
389.834	160.17
390.296	146.77
390.758	153.07
391.22	175.07
391.682	199.37
392.144	298.17
392.606	221.97
393.068	169.37
393.529	174.37
393.991	152.57
394.453	151.67
394.915	161.07
395.377	187.47
395.838	212.37
396.3	155.87
396.762	142.97
397.224	127.47
397.685	126.97
398.147	131.97
398.608	131.47
399.07	126.07
399.531	130.37
399.993	144.07
400.454	151.97
400.916	144.77
401.377	152.67
401.839	151.07
402.3	152.77
402.762	163.97
403.223	178.07
403.684	175.67
404.145	165.97
404.607	161.77
405.068	170.47
405.529	171.97
405.99	186.57
406.451	175.57
406.913	172.17
407.374	164.07
407.835	164.27
408.296	168.77
408.757	176.07
409.218	184.07
409.679	176.57
410.14	172.87
410.601	185.77
411.062	182.77
411.522	191.77
411.983	185.07
412.444	175.47
412.905	176.97
413.366	176.07
413.826	187.87
414.287	215.57
414.748	258.57
415.208	246.97
415.669	211.37
416.13	211.97
416.59	202.57
417.051	211.67
417.511	216.67
417.972	236.47
418.432	246.47
418.893	288.07
419.353	250.87
419.814	195.37
420.274	188.57
420.734	182.27
421.195	198.47
421.655	199.97
422.115	190.57
422.576	190.37
423.036	196.07
423.496	204.27
423.956	215.37
424.416	229.17
424.876	268.07
425.336	260.07
425.797	262.67
426.257	256.07
426.717	244.47
427.177	230.37
427.637	218.37
428.097	241.57
428.556	252.87
429.016	270.67
429.476	260.17
429.936	281.77
430.396	281.77
430.856	300.87
431.315	322.07
431.775	354.97
432.235	384.97
432.694	356.57
433.154	364.07
433.614	390.87
434.073	337.77
434.533	285.47
434.993	281.37
435.452	286.17
435.912	296.67
436.371	289.87
436.83	283.07
437.29	274.47
437.749	245.27
438.209	245.97
438.668	272.57
439.127	290.27
439.587	270.47
440.046	258.27
440.505	261.67
440.964	283.37
441.424	332.87
441.883	314.37
442.342	263.17
442.801	226.47
443.26	226.97
443.719	224.57
444.178	215.87
444.637	207.27
445.096	221.07
445.555	224.07
446.014	220.07
446.473	226.97
446.932	234.27
447.391	219.87
447.849	222.17
448.308	218.47
448.767	220.17
449.226	229.57
449.685	245.87
450.143	253.07
450.602	239.17
451.061	228.17
451.519	235.97
451.978	233.87
452.436	232.37
452.895	245.47
453.353	253.67
453.812	242.17
454.27	242.57
454.729	235.57
455.187	245.27
455.646	240.77
456.104	246.67
456.562	259.47
457.021	272.97
457.479	252.97
457.937	272.77
458.395	268.87
458.854	244.67
459.312	252.47
459.77	275.07
460.228	256.17
460.686	239.97
461.144	251.67
461.602	245.97
462.06	241.07
462.518	249.77
462.976	254.17
463.434	265.67
463.892	261.87
464.35	280.97
464.808	293.27
465.266	268.17
465.724	270.07
466.181	272.77
466.639	276.37
467.097	287.37
467.555	307.07
468.012	302.97
468.47	311.77
468.928	324.47
469.385	339.57
469.843	353.37
470.3	355.97
470.758	363.87
471.215	391.27
471.673	408.87
472.13	410.17
472.588	430.37
473.045	372.47
473.503	383.97
473.96	397.17
474.417	407.47
474.875	434.77
475.332	483.77
475.789	462.37
476.246	464.87
476.704	482.07
477.161	508.57
477.618	526.37
478.075	570.17
478.532	624.77
478.989	701.47
479.446	812.27
479.903	785.87
480.36	803.07
480.817	864.07
481.274	973.17
481.731	1073.97
482.188	1163.17
482.645	1312.37
483.102	1413.17
483.558	1542.87
484.015	1609.67
484.472	1584.57
484.929	1533.37
485.385	1493.77
485.842	1451.47
486.299	1373.67
486.755	1315.17
487.212	1091.57
487.668	932.27
488.125	856.57
488.582	783.77
489.038	753.37
489.494	724.57
489.951	691.47
490.407	677.87
490.864	641.67
491.32	650.07
491.776	649.27
492.233	651.87
492.689	613.37
493.145	603.77
493.602	592.47
494.058	624.07
494.514	623.77
494.97	651.17
495.426	658.07
495.882	613.07
496.338	613.77
496.794	629.17
497.251	620.87
497.707	636.67
498.163	642.47
498.618	641.97
499.074	656.07
499.53	681.77
499.986	685.67
500.442	659.77
500.898	641.47
501.354	637.47
501.809	637.57
502.265	650.37
502.721	668.07
503.177	679.67
503.632	670.17
504.088	685.17
504.543	713.07
504.999	717.37
505.455	655.47
505.91	646.47
506.366	628.67
506.821	622.67
507.277	626.47
507.732	638.37
508.187	624.67
508.643	627.67
509.098	640.37
509.553	653.37
510.009	666.27
510.464	675.77
510.919	682.57
511.375	695.57
511.83	707.97
512.285	731.27
512.74	764.37
513.195	791.17
513.65	786.07
514.105	777.17
514.56	776.27
515.015	788.07
515.47	823.97
515.925	805.47
516.38	802.37
516.835	804.47
517.29	791.67
517.745	782.17
518.2	769.17
518.655	757.37
519.109	747.77
519.564	746.37
520.019	730.47
520.474	733.37
520.928	733.87
521.383	720.97
521.838	714.57
522.292	719.77
522.747	706.67
523.201	703.27
523.656	698.87
524.11	686.77
524.565	697.77
525.019	697.37
525.474	702.37
525.928	704.77
526.382	698.07
526.837	709.07
527.291	702.87
527.745	695.67
528.2	707.07
528.654	688.27
529.108	696.37
529.562	698.17
530.016	691.37
530.47	689.87
530.925	692.07
531.379	699.07
531.833	709.87
532.287	699.97
532.741	707.77
533.195	708.17
533.649	714.27
534.103	727.97
534.556	714.47
535.01	714.07
535.464	705.07
535.918	721.17
536.372	730.47
536.826	719.97
537.279	704.17
537.733	713.87
538.187	707.97
538.64	713.57
539.094	733.07
539.548	724.87
540.001	720.47
540.455	726.37
540.908	735.67
541.362	737.27
541.815	749.17
542.269	756.27
542.722	760.17
543.175	767.97
543.629	767.47
544.082	788.37
544.536	794.97
544.989	784.77
545.442	791.37
545.895	792.97
546.349	789.97
546.802	781.27
547.255	787.07
547.708	803.07
548.161	818.07
548.614	823.77
549.067	826.77
549.52	824.57
549.973	806.77
550.426	804.97
550.879	799.07
551.332	797.37
551.785	811.17
552.238	811.77
552.691	819.17
553.144	834.57
553.596	843.47
554.049	863.77
554.502	885.87
554.955	911.37
555.407	902.07
555.86	897.77
556.313	895.47
556.765	886.87
557.218	874.77
557.67	874.77
558.123	882.27
558.576	865.07
559.028	876.37
559.48	883.57
559.933	876.07
560.385	842.57
560.838	812.97
561.29	781.77
561.742	786.27
562.195	765.47
562.647	766.77
563.099	773.97
563.551	766.27
564.004	783.07
564.456	767.17
564.908	761.27
565.36	744.67
565.812	734.17
566.264	716.57
566.716	733.07
567.168	725.17
567.62	718.27
568.072	710.07
568.524	691.77
568.976	683.37
569.428	664.67
569.88	671.47
570.332	668.57
570.784	672.17
571.235	680.07
571.687	686.47
572.139	698.17
572.59	704.57
573.042	717.27
573.494	707.17
573.945	705.07
574.397	674.37
574.849	678.57
575.3	681.47
575.752	685.27
576.203	673.07
576.655	673.97
577.106	668.87
577.557	658.07
578.009	658.67
578.46	661.27
578.912	649.87
579.363	655.07
579.814	663.67
580.265	656.87
580.717	659.87
581.168	670.07
581.619	676.47
582.07	674.07
582.521	663.47
582.972	660.77
583.423	670.37
583.875	673.87
584.326	691.87
584.777	737.27
585.227	810.87
585.678	905.37
586.129	988.37
586.58	1049.17
587.031	1133.67
587.482	1283.77
587.933	1461.47
588.384	1266.37
588.834	958.67
589.285	790.87
589.736	771.67
590.186	758.27
590.637	755.17
591.088	733.97
591.538	732.87
591.989	719.67
592.439	716.07
592.89	712.07
593.34	704.97
593.791	701.97
594.241	702.77
594.692	701.87
595.142	691.47
595.593	687.97
596.043	697.67
596.493	705.37
596.943	704.87
597.394	716.37
597.844	712.77
598.294	726.17
598.744	741.37
599.195	763.87
599.645	795.97
600.095	838.87
600.545	903.57
600.995	957.07
601.445	996.07
601.895	1069.87
602.345	1105.97
602.795	1085.27
603.245	1048.07
603.695	994.37
604.145	935.87
604.594	894.47
605.044	843.87
605.494	789.47
605.944	742.27
606.393	727.67
606.843	726.97
607.293	723.27
607.743	726.47
608.192	730.27
608.642	739.57
609.091	756.07
609.541	758.97
609.99	762.67
610.44	752.37
610.889	715.07
611.339	688.17
611.788	668.87
612.238	685.07
612.687	710.47
613.136	716.07
613.586	719.47
614.035	718.07
614.484	741.67
614.933	740.97
615.383	739.77
615.832	721.47
616.281	710.07
616.73	669.47
617.179	646.47
617.628	642.37
618.077	619.07
618.526	615.47
618.975	610.57
619.424	601.87
619.873	609.67
620.322	594.97
620.771	596.77
621.22	584.77
621.669	589.87
622.118	583.57
622.567	572.37
623.015	558.27
623.464	558.57
623.913	541.97
624.361	548.27
624.81	540.77
625.259	542.07
625.707	546.27
626.156	543.77
626.604	552.57
627.053	545.77
627.501	550.77
627.95	552.87
628.398	562.87
628.847	561.47
629.295	559.97
629.744	557.37
630.192	553.17
630.64	553.27
631.089	557.27
631.537	563.57
631.985	570.07
632.433	576.17
632.881	570.47
633.33	645.37
633.778	623.67
634.226	563.57
634.674	563.97
635.122	561.67
635.57	584.67
636.018	622.77
636.466	564.37
636.914	541.67
637.362	552.57
637.81	556.77
638.258	557.77
638.705	558.47
639.153	594.17
639.601	606.77
640.049	633.97
640.497	656.27
640.944	683.47
641.392	632.07
641.84	591.47
642.287	577.67
642.735	549.97
643.182	561.17
643.63	559.47
644.078	557.67
644.525	575.87
644.973	577.07
645.42	589.67
645.867	605.17
646.315	619.47
646.762	644.17
647.21	680.47
647.657	693.57
648.104	731.57
648.551	755.87
648.999	818.27
649.446	894.27
649.893	976.87
650.34	1128.67
650.787	1348.47
651.234	1664.07
651.682	2184.97
652.129	2970.77
652.576	4277.77
653.023	6322.67
653.47	8720.97
653.917	10893.07
654.363	12658.77
654.81	14072.27
655.257	13394.67
655.704	8784.17
656.151	5164.37
656.598	3345.47
657.044	2386.57
657.491	1805.77
657.938	1453.47
658.385	1220.57
658.831	1058.07
659.278	947.77
659.724	821.37
660.171	760.17
660.618	703.87
661.064	666.87
661.511	653.77
661.957	642.97
662.404	626.77
662.85	638.97
663.296	607.57
663.743	553.67
664.189	520.97
664.635	525.87
665.082	514.87
665.528	514.97
665.974	506.87
666.42	489.67
666.867	487.37
667.313	482.67
667.759	459.37
668.205	456.07
668.651	468.27
669.097	471.97
669.543	488.27
669.989	447.37
670.435	435.57
670.881	430.97
671.327	431.27
671.773	454.77
672.219	471.57
672.665	522.77
673.11	560.47
673.556	608.97
674.002	649.27
674.448	634.27
674.893	530.97
675.339	460.77
675.785	415.67
676.23	399.17
676.676	378.87
677.122	371.57
677.567	359.27
678.013	350.77
678.458	348.07
678.904	341.17
679.349	343.17
679.794	341.57
680.24	332.87
680.685	332.07
681.131	335.97
681.576	338.07
682.021	341.37
682.466	332.37
682.912	338.07
683.357	343.57
683.802	365.47
684.247	401.37
684.692	431.47
685.137	475.07
685.583	509.07
686.028	535.57
686.473	497.27
686.918	426.87
687.363	400.67
687.807	383.77
688.252	353.07
688.697	346.57
689.142	321.47
689.587	325.17
690.032	311.17
690.477	320.77
690.921	343.27
691.366	365.37
691.811	382.07
692.255	416.37
692.7	446.07
693.145	475.27
693.589	649.97
694.034	1063.87
694.478	1461.47
694.923	1662.87
695.367	2184.57
695.812	1153.47
696.256	478.37
696.701	353.07
697.145	322.57
697.59	316.17
698.034	301.57
698.478	308.77
698.922	311.87
699.367	310.47
699.811	325.47
700.255	343.67
700.699	368.77
701.143	405.97
701.588	457.57
702.032	494.37
702.476	493.77
702.92	472.87
703.364	464.47
703.808	602.37
704.252	986.97
704.696	1379.17
705.14	1613.67
705.584	2054.87
706.027	1030.87
706.471	498.57
706.915	379.67
707.359	339.77
707.803	304.87
708.246	294.77
708.69	301.47
709.134	301.47
709.577	297.87
710.021	309.97
710.465	296.47
710.908	296.77
711.352	283.07
711.795	299.87
712.239	329.77
712.682	369.47
713.126	399.27
713.569	452.87
714.012	357.17
714.456	307.07
714.899	285.67
715.342	269.97
715.786	252.37
716.229	246.37
716.672	250.87
717.115	237.97
717.558	239.47
718.002	242.47
718.445	246.87
718.888	277.77
719.331	277.67
719.774	291.07
720.217	288.27
720.66	266.07
721.103	256.07
721.546	241.37
721.989	237.97
722.432	221.57
722.874	227.67
723.317	217.87
723.76	223.07
724.203	246.57
724.645	301.67
725.088	422.37
725.531	542.27
725.974	621.77
726.416	532.87
726.859	296.97
727.301	233.17
727.744	231.97
728.187	223.37
728.629	228.07
729.071	227.57
729.514	248.97
729.956	264.77
730.399	274.07
730.841	276.27
731.283	259.57
731.726	253.77
732.168	244.87
732.61	252.97
733.053	273.27
733.495	302.27
733.937	333.47
734.379	376.17
734.821	410.17
735.263	501.47
735.705	787.27
736.148	1469.77
736.59	2428.17
737.032	2942.77
737.474	2396.57
737.916	774.67
738.357	410.87
738.799	295.67
739.241	282.37
739.683	274.37
740.125	278.57
740.567	282.07
741.008	297.27
741.45	296.07
741.892	300.27
742.334	331.37
742.775	352.17
743.217	326.17
743.658	255.37
744.1	241.37
744.542	249.87
744.983	286.07
745.425	330.17
745.866	334.57
746.307	272.77
746.749	264.47
747.19	310.87
747.632	423.17
748.073	814.87
748.514	1745.77
748.956	2709.57
749.397	3392.57
749.838	2826.17
750.279	2840.17
750.72	1445.17
751.162	521.67
751.603	311.97
752.044	236.27
752.485	206.77
752.926	197.47
753.367	184.97
753.808	174.97
754.249	183.07
754.69	179.67
755.131	171.57
755.572	174.97
756.013	169.87
756.453	179.27
756.894	179.87
757.335	185.97
757.776	189.57
758.216	191.77
758.657	187.37
759.098	193.97
759.538	213.37
759.979	258.27
760.42	349.67
760.86	658.97
761.301	1690.87
761.741	4143.87
762.182	6183.37
762.622	4355.27
763.063	1243.37
763.503	520.17
763.943	329.77
764.384	321.57
764.824	373.47
765.264	403.17
765.705	285.37
766.145	198.27
766.585	182.57
767.025	171.37
767.465	171.07
767.906	223.17
768.346	296.77
768.786	314.47
769.226	244.87
769.666	301.17
770.106	580.27
770.546	1448.67
770.986	2521.07
771.426	2271.87
771.866	762.47
772.306	307.57
772.745	204.47
773.185	166.17
773.625	166.77
774.065	155.67
774.505	186.07
774.944	283.87
775.384	623.37
775.824	1161.47
776.263	1145.97
776.703	478.97
777.142	212.57
777.582	142.47
778.021	132.97
778.461	135.27
778.9	132.47
779.34	125.77
779.779	110.37
780.219	101.47
780.658	102.57
781.097	109.87
781.537	104.17
781.976	105.17
782.415	102.57
782.855	98.87
783.294	96.47
783.733	98.87
784.172	98.47
784.611	96.07
785.05	109.77
785.489	105.67
785.928	110.17
786.367	120.37
786.806	112.07
787.245	121.37
787.684	128.97
788.123	137.77
788.562	127.07
789.001	118.77
789.44	115.57
789.879	110.17
790.317	117.77
790.756	124.57
791.195	125.57
791.634	135.87
792.072	187.67
792.511	338.57
792.95	931.17
793.388	2031.77
793.827	1866.77
794.265	642.47
794.704	267.27
795.142	175.87
795.581	149.57
796.019	128.87
796.458	122.17
796.896	118.77
797.334	122.27
797.773	146.67
798.211	203.47
798.649	400.87
799.087	955.47
799.526	1516.07
799.964	1884.67
800.402	1931.07
800.84	726.47
801.278	285.07
801.716	177.87
802.154	147.97
802.592	137.07
803.03	134.17
803.468	130.57
803.906	134.67
804.344	142.97
804.782	129.97
805.22	127.37
805.658	116.47
806.096	136.87
806.533	148.37
806.971	167.07
807.409	206.87
807.847	299.57
808.284	612.47
808.722	1742.67
809.16	3142.47
809.597	2920.17
810.035	5117.47
810.472	5574.77
810.91	1994.77
811.347	753.27
811.785	380.47
812.222	236.67
812.66	185.47
813.097	150.67
813.535	132.57
813.972	118.47
814.409	109.17
814.846	96.97
815.284	102.47
815.721	99.27
816.158	103.17
816.595	110.47
817.032	163.97
817.47	191.17
817.907	165.37
818.344	141.97
818.781	114.07
819.218	97.57
819.655	116.17
820.092	178.47
820.529	207.67
820.966	171.57
821.403	132.77
821.839	103.17
822.276	93.27
822.713	117.17
823.15	129.37
823.587	112.07
824.023	136.27
824.46	283.57
824.897	847.67
825.333	1294.67
825.77	558.47
826.206	217.07
826.643	124.27
827.08	95.47
827.516	78.07
827.953	74.57
828.389	74.57
828.825	71.67
829.262	65.27
829.698	55.67
830.135	57.57
830.571	61.17
831.007	58.47
831.443	60.27
831.88	60.87
832.316	62.37
832.752	55.67
833.188	60.87
833.624	55.07
834.06	60.57
834.497	68.77
834.933	66.07
835.369	69.97
835.805	59.37
836.241	71.97
836.677	75.37
837.112	88.47
837.548	98.27
837.984	128.97
838.42	182.77
838.856	457.27
839.292	1425.37
839.727	2208.47
840.163	1022.97
840.599	869.27
841.034	1917.17
841.47	2050.97
841.906	752.17
842.341	318.77
842.777	222.87
843.212	295.07
843.648	295.97
844.083	136.97
844.519	93.07
844.954	77.87
845.39	52.77
845.825	53.97
846.261	55.27
846.696	57.57
847.131	48.97
847.566	57.17
848.002	48.97
848.437	48.77
848.872	56.17
849.307	60.07
849.742	81.37
850.177	161.77
850.613	514.77
851.048	839.07
851.483	361.17
851.918	147.57
852.353	81.77
852.788	62.37
853.223	58.47
853.657	53.67
854.092	50.97
854.527	41.17
854.962	40.87
855.397	37.37
855.832	45.57
856.266	42.07
856.701	38.57
857.136	40.57
857.57	38.67
858.005	40.47
858.44	55.47
858.874	40.97
859.309	52.17
859.743	37.27
860.178	45.17
860.612	41.37
861.047	46.17
861.481	68.57
861.915	70.47
862.35	46.17
862.784	31.97
863.218	35.97
863.653	28.27
864.087	42.17
864.521	54.87
864.955	68.87
865.39	142.17
865.824	161.67
866.258	112.57
866.692	154.37
867.126	169.57
867.56	101.37
867.994	54.77
868.428	43.87
868.862	44.17
869.296	55.37
869.73	55.67
870.164	42.27
870.598	35.67
871.031	32.37
871.465	29.57
871.899	33.47
872.333	27.37
872.766	21.37
873.2	24.77
873.634	28.87
874.067	22.37
874.501	17.37
874.935	32.27
875.368	29.57
875.802	30.77
876.235	23.37
876.669	26.57
877.102	26.07
877.535	29.87
877.969	23.97
878.402	25.17
878.836	19.47
879.269	19.97
879.702	23.07
880.135	24.57
880.569	21.37
881.002	29.37
881.435	20.77
881.868	17.07
882.301	25.37
882.734	12.37
883.167	20.17
883.601	17.87
884.034	17.57
884.467	11.87
884.899	10.97
885.332	18.87
885.765	16.67
886.198	17.77
886.631	18.87
887.064	22.67
887.497	24.47
887.929	24.37
888.362	15.07
888.795	16.67
889.228	16.77
889.66	24.27
890.093	14.27
890.526	10.77
890.958	18.47
891.391	23.27
891.823	19.97
892.256	13.07
892.688	12.67
893.121	15.97
893.553	13.57
893.985	19.37
894.418	13.07
894.85	7.07
895.282	17.57
895.715	14.97
896.147	12.97
896.579	16.77
897.011	12.07
897.444	18.77
897.876	15.57
898.308	17.37
898.74	12.47
899.172	6.27
899.604	20.37
900.036	17.07
900.468	17.97
900.9	13.67
901.332	18.17
901.764	9.37
902.196	12.07
902.628	19.07
903.06	16.17
903.491	30.57
903.923	18.57
904.355	14.87
904.787	24.67
905.218	23.77
905.65	24.37
906.082	12.87
906.513	8.47
906.945	17.37
907.376	14.77
907.808	17.17
908.239	17.47
908.671	20.87
909.102	12.97
909.534	15.27
909.965	43.47
910.397	89.47
910.828	294.57
911.259	455.27
911.691	209.27
912.122	97.07
912.553	52.57
912.984	31.77
913.415	26.27
913.847	26.67
914.278	12.47
914.709	10.87
915.14	16.47
915.571	18.17
916.002	13.97
916.433	16.27
916.864	12.17
917.295	13.77
917.726	14.57
918.157	18.57
918.587	29.27
919.018	21.57
919.449	18.97
919.88	24.67
920.311	32.37
920.741	46.87
921.172	151.97
921.603	147.27
922.033	66.07
922.464	41.77
922.895	23.87
923.325	17.97
923.756	16.97
924.186	16.67
924.617	22.97
925.047	42.67
925.478	53.67
925.908	47.17
926.338	24.77
926.769	16.27
927.199	22.87
927.629	7.27
928.06	13.47
928.49	15.47
928.92	20.57
929.35	8.87
929.78	8.57
930.21	7.27
930.641	5.17
931.071	4.57
931.501	2.37
931.931	7.07
932.361	8.97
932.791	2.47
933.221	5.57
933.651	7.67
934.08	15.37
934.51	31.97
934.94	10.47
935.37	7.47
935.8	8.37
936.229	5.07
936.659	10.67
937.089	3.57
937.519	17.67
937.948	22.87
938.378	16.67
938.807	5.07
939.237	5.07
939.666	10.27
940.096	-4.13
940.525	2.27
940.955	5.97
941.384	7.97
941.814	-4.33
942.243	-1.43
942.672	2.47
943.102	-9.53
943.531	2.17
943.96	2.17
944.39	1.57
944.819	4.27
945.248	-3.33
945.677	5.07
946.106	8.27
946.535	6.17
946.964	-2.93
947.393	4.67
947.822	-0.13
948.251	-1.53
948.68	4.97
949.109	5.97
949.538	5.97
949.967	0.07
950.396	2.67
950.825	-1.53
951.254	0.67
951.682	-7.03
952.111	6.47
952.54	9.97
952.969	-3.53
953.397	-6.63
953.826	5.77
954.254	-3.73
954.683	-0.53
955.112	1.57
955.54	2.17
955.969	2.87
956.397	-1.73
956.826	0.67
957.254	4.07
957.682	-0.53
958.111	8.87
958.539	-2.43
958.967	1.57
959.396	-4.53
959.824	3.17
960.252	1.97
960.68	-5.03
961.109	3.27
961.537	-1.23
961.965	1.57
962.393	-3.43
962.821	-2.83
963.249	-2.63
963.677	1.27
964.105	4.87
964.533	42.47
964.961	45.37
965.389	22.17
965.817	6.07
966.245	-1.13
966.672	3.97
967.1	-12.23
967.528	-0.43
967.956	-2.43
968.383	3.77
968.811	-2.33
969.239	-2.53
969.666	-7.43
970.094	-1.03
970.522	-2.43
970.949	2.87
971.377	-2.43
971.804	-5.63
972.232	-5.43
972.659	1.47
973.087	-0.53
973.514	-5.23
973.941	-10.43
974.369	1.27
974.796	2.17
975.223	1.57
975.651	0.17
976.078	-4.63
976.505	0.97
976.932	5.07
977.359	17.27
977.786	12.37
978.214	-3.23
978.641	0.97
979.068	-0.93
979.495	-5.03
979.922	-2.43
980.349	-0.53
980.776	-0.13
981.202	-2.23
981.629	5.07
982.056	3.37
982.483	4.97
982.91	11.47
983.337	-0.63
983.763	5.27
984.19	-4.23
984.617	-1.43
985.043	-6.73
985.47	-4.93
985.897	-0.73
986.323	-8.33
986.75	7.27
987.176	-4.43
987.603	2.47
988.029	-0.03
988.456	-2.83
988.882	0.97
989.308	-10.33
989.735	-5.23
990.161	-0.43
990.587	2.77
991.014	-2.83
991.44	2.87
991.866	1.67
992.292	-7.83
992.719	-2.73
993.145	-3.03
993.571	-10.13
993.997	-6.53
994.423	-1.03
994.849	-6.03
995.275	0.27
995.701	2.67
996.127	-5.43
996.553	3.47
996.979	-4.03
997.405	4.27
997.83	0.17
998.256	-6.33
998.682	-8.53
999.108	-3.93
999.534	-1.73
999.959	-7.23
1000.385	1.47
1000.811	0.17
1001.236	-8.73
1001.662	-8.03
1002.087	-4.33
1002.513	-1.53
1002.938	0.37
1003.364	-1.93
1003.789	-2.83
1004.215	3.97
1004.64	-3.63
1005.066	-0.03
1005.491	-5.53
1005.916	-1.33
1006.342	-3.13
1006.767	-3.33
1007.192	10.17
1007.617	-4.33
1008.042	-1.83
1008.468	-6.53
1008.893	-6.13
1009.318	-2.53
1009.743	-3.33
1010.168	-2.03
1010.593	0.87
1011.018	-2.33
1011.443	-3.53
1011.868	-1.93
1012.293	-3.73
1012.718	-3.63
1013.143	1.37
1013.567	8.97
1013.992	-1.63
1014.417	-13.33
1014.842	0.07
1015.267	-2.83
1015.691	-1.63
1016.116	-3.23
1016.541	1.27
1016.965	2.07
1017.39	0.67
1017.814	-1.93
1018.239	0.97
1018.663	-11.73
1019.088	-11.73
1019.512	-8.53
1019.937	-6.03
1020.361	-7.53
1020.785	-12.53
1021.21	-8.83
1021.634	-10.13
1022.058	-4.53
1022.483	-2.03
1022.907	-4.03
1023.331	-7.43
1023.755	-4.53
1024.179	-4.33
1024.604	-11.93
1025.028	-8.93
1025.452	-5.83
1025.876	-4.73
1026.3	0.17
1026.724	-8.03
1027.148	-5.63
1027.572	-10.23
1027.996	-3.13
1028.42	-7.33
1028.843	-6.93
1029.267	-6.73
1029.691	-4.13
1030.115	-8.63
1030.539	-5.03
1030.962	-4.43
1031.386	-14.33
1031.81	-8.03
1032.233	0.97
1032.657	-3.53
1033.08	0.77
1033.504	-0.03
1033.927	-0.03
1034.351	-3.23
1034.774	-10.03
1035.198	-3.73
1035.621	-6.63
1036.045	-5.73
1036.468	4.77
1036.891	-12.23
1037.315	-10.83
1037.738	-6.93
1038.161	-1.33
1038.584	-7.53
1039.008	-4.43
1039.431	-3.03
1039.854	-1.53
1040.277	-5.83
1040.7	-14.13
1041.123	4.77
1041.546	-9.73
1041.969	2.17
1042.392	-10.03
1042.815	-8.33
1043.238	-0.53
1043.661	2.57
1044.084	-5.23
1044.507	-7.53
1044.93	-5.33
1045.352	-11.63
1045.775	-5.03
1046.198	-4.73
1046.621	-4.93
1047.043	-1.63
1047.466	4.17
1047.889	-3.53
1048.311	-3.93
1048.734	-1.73
1049.156	-3.13
1049.579	-6.63
1050.001	-8.73
1050.424	-3.03
1050.846	-0.53
1051.269	-4.63
1051.691	-7.53
1052.113	-7.23
1052.536	-0.23
1052.958	-1.33
1053.38	-6.73
1053.802	-6.53
1054.225	4.87
1054.647	-9.73
1055.069	1.67
1055.491	-0.03
1055.913	-8.13
1056.335	0.67
1056.757	-8.83
1057.179	-5.33
1057.601	-4.23
1058.023	-0.53
1058.445	-4.63
1058.867	-5.93
1059.289	-2.03
1059.711	-8.03
1060.133	-0.33
1060.555	-5.83
1060.976	-9.23
1061.398	-4.63
1061.82	-7.13
1062.241	-6.73
1062.663	-9.33
1063.085	-6.73
1063.506	0.17
1063.928	-2.13
1064.35	-2.13
1064.771	-13.93
1065.193	-4.33
1065.614	-9.43
1066.035	-4.93
1066.457	-2.63
1066.878	4.07
1067.3	-3.63
1067.721	-2.93
1068.142	-6.53
1068.564	-6.43
1068.985	-6.53
1069.406	-10.03
1069.827	-4.23
1070.248	-2.43
1070.67	-10.03
1071.091	-6.43
1071.512	-1.93
1071.933	-2.13
1072.354	-3.03
1072.775	-6.33
1073.196	-14.03
1073.617	-4.03
1074.038	-5.93
1074.459	0.67
1074.88	-4.33
1075.3	1.17
1075.721	-3.63
1076.142	4.37
1076.563	-3.33
1076.983	-2.93
1077.404	-3.03
1077.825	-13.33
1078.246	-7.73
1078.666	-8.13
1079.087	-7.83
1079.507	-8.33
1079.928	2.17
1080.348	-1.93
1080.769	-12.13
1081.189	-3.13
1081.61	-4.03
1082.03	-2.43
1082.451	-7.03
1082.871	-7.23
1083.291	-8.23
1083.711	-4.23
1084.132	-6.83
1084.552	-7.93
1084.972	-4.13
1085.392	-12.33
1085.813	-19.83
1086.233	-12.13
1086.653	-6.53
1087.073	-0.43
1087.493	-9.03
1087.913	-6.33
1088.333	-5.53
1088.753	-5.03
1089.173	-2.63
1089.593	-8.43
1090.013	-2.93
1090.433	-1.33
1090.852	-7.83
1091.272	-4.63
1091.692	2.57
1092.112	-1.53
1092.531	-4.33
1092.951	-11.03
1093.371	-2.93
1093.79	-0.23
1094.21	-8.53
1094.63	-7.03
1095.049	-1.53
1095.469	-3.33
1095.888	-0.23
1096.308	-2.83
1096.727	1.37
1097.146	-12.23
1097.566	-3.73
1097.985	-6.43
1098.405	-3.43
1098.824	-7.43
1099.243	-8.73
1099.662	-7.43
1100.082	-7.13
1100.501	-3.93
1100.92	-10.63
1101.339	-7.33
1101.758	-5.03
