Data from 20171114-ORNL-Ar_H_NY_Subt18_08-06-55-129.txt Node
Date: Tue Nov 14 08:06:55 EST 2017
User: Ender
Spectrometer: HR+D1039
Trigger mode: 0
Integration Time (sec): 2.730000E-2
Scans to average: 10
Electric dark correction enabled: true
Nonlinearity correction enabled: false
Boxcar width: 0
XAxis mode: Wavelengths
Number of Pixels in Spectrum: 2048
>>>>>Begin Spectral Data<<<<<
187.836	-2.47
188.309	-2.47
188.782	-2.47
189.255	-0.88
189.728	4.43
190.201	8.43
190.674	3.53
191.147	1.12
191.619	-8.57
192.092	-2.37
192.565	5.23
193.038	-0.97
193.511	3.23
193.984	-0.07
194.456	0.33
194.929	-3.67
195.402	-0.88
195.874	-6.37
196.347	-3.77
196.82	-7.57
197.292	8.33
197.765	0.03
198.237	-10.47
198.71	-1.38
199.182	-4.97
199.655	2.33
200.127	9.23
200.6	-2.57
201.072	-1.77
201.544	-3.77
202.017	-3.07
202.489	-0.57
202.961	3.03
203.433	-3.88
203.906	-5.67
204.378	-3.17
204.85	1.12
205.322	-8.17
205.794	-0.77
206.266	-6.57
206.739	-6.77
207.211	0.13
207.683	-9.97
208.155	-8.17
208.627	-7.97
209.099	-4.17
209.57	-4.37
210.042	-4.98
210.514	-0.67
210.986	-3.57
211.458	-8.17
211.93	-1.88
212.402	-1.57
212.873	-0.38
213.345	-9.97
213.817	-11.38
214.288	-7.57
214.76	-11.27
215.232	-2.27
215.703	-4.47
216.175	-1.17
216.646	-5.07
217.118	-7.88
217.589	-9.47
218.061	-1.17
218.532	-6.47
219.004	5.73
219.475	0.53
219.946	-4.47
220.418	-8.97
220.889	2.93
221.36	1.03
221.832	-5.67
222.303	-9.27
222.774	-0.67
223.245	-7.37
223.717	-5.57
224.188	-8.27
224.659	-7.88
225.13	-10.97
225.601	-5.77
226.072	0.23
226.543	1.33
227.014	-0.17
227.485	-2.38
227.956	-0.27
228.427	-3.47
228.898	-6.07
229.369	-1.17
229.839	-3.47
230.31	-7.38
230.781	-2.07
231.252	-2.17
231.722	-8.88
232.193	-1.67
232.664	-2.07
233.135	-1.77
233.605	-2.67
234.076	-6.38
234.546	-5.88
235.017	-2.97
235.487	-0.67
235.958	-1.87
236.428	-5.97
236.899	-5.27
237.369	-5.77
237.84	-8.47
238.31	-2.17
238.78	-4.47
239.251	-7.77
239.721	-10.47
240.191	-5.47
240.662	4.03
241.132	-4.17
241.602	-4.27
242.072	-0.47
242.542	5.53
243.013	-3.38
243.483	5.63
243.953	-0.17
244.423	-4.87
244.893	-5.07
245.363	-1.48
245.833	-4.07
246.303	-4.47
246.773	0.53
247.243	-4.27
247.712	-0.98
248.182	7.52
248.652	-3.88
249.122	-9.67
249.592	-3.67
250.061	4.13
250.531	4.63
251.001	-3.97
251.471	1.23
251.94	10.12
252.41	-2.87
252.879	-2.37
253.349	9.93
253.818	5.93
254.288	-0.77
254.757	-1.47
255.227	-1.47
255.696	2.03
256.166	5.23
256.635	2.53
257.105	-0.07
257.574	-2.38
258.043	1.33
258.513	-1.77
258.982	-2.67
259.451	-7.47
259.92	-1.37
260.389	-1.67
260.859	3.83
261.328	4.33
261.797	4.03
262.266	2.73
262.735	6.53
263.204	1.33
263.673	-1.07
264.142	2.53
264.611	-0.47
265.08	-3.17
265.549	-0.17
266.018	-1.27
266.487	-4.38
266.955	-0.97
267.424	-4.67
267.893	3.53
268.362	-8.87
268.83	1.23
269.299	6.83
269.768	4.73
270.236	3.73
270.705	-0.07
271.174	6.43
271.642	6.03
272.111	2.93
272.579	2.02
273.048	7.12
273.516	-1.07
273.985	6.23
274.453	2.33
274.922	12.33
275.39	9.12
275.858	-1.77
276.327	9.63
276.795	10.03
277.263	-0.67
277.731	12.93
278.2	9.23
278.668	10.23
279.136	8.13
279.604	4.33
280.072	9.73
280.54	8.43
281.008	4.12
281.477	13.83
281.945	5.93
282.413	11.73
282.881	13.23
283.348	9.43
283.816	12.12
284.284	10.12
284.752	16.73
285.22	5.73
285.688	19.73
286.156	8.63
286.623	16.13
287.091	11.63
287.559	5.53
288.026	7.13
288.494	10.33
288.962	6.43
289.429	5.73
289.897	18.33
290.364	10.53
290.832	13.93
291.3	9.43
291.767	15.63
292.234	9.33
292.702	12.43
293.169	11.13
293.637	22.13
294.104	16.43
294.571	5.73
295.039	13.23
295.506	10.43
295.973	13.12
296.44	5.83
296.908	16.43
297.375	9.93
297.842	15.33
298.309	12.23
298.776	9.03
299.243	13.43
299.71	9.03
300.177	15.83
300.644	23.23
301.111	10.53
301.578	23.53
302.045	19.13
302.512	20.03
302.979	21.13
303.446	18.33
303.913	16.73
304.379	15.83
304.846	24.93
305.313	19.83
305.78	13.12
306.246	15.83
306.713	27.23
307.18	20.53
307.646	23.02
308.113	24.53
308.579	17.83
309.046	20.03
309.512	19.43
309.979	14.93
310.445	22.23
310.912	28.93
311.378	27.43
311.845	24.53
312.311	24.53
312.777	28.23
313.244	28.73
313.71	31.03
314.176	22.33
314.642	20.43
315.109	22.03
315.575	27.03
316.041	35.13
316.507	26.12
316.973	32.33
317.439	29.03
317.905	27.93
318.371	29.03
318.837	29.03
319.303	29.23
319.769	22.83
320.235	31.33
320.701	29.73
321.167	27.93
321.633	27.53
322.099	35.33
322.564	34.63
323.03	29.33
323.496	28.53
323.962	33.33
324.427	31.53
324.893	37.23
325.359	34.73
325.824	34.83
326.29	35.62
326.755	36.43
327.221	34.12
327.686	35.13
328.152	44.73
328.617	38.73
329.083	36.73
329.548	49.62
330.014	41.53
330.479	31.02
330.944	37.43
331.41	37.43
331.875	38.33
332.34	44.13
332.805	33.33
333.271	38.23
333.736	33.73
334.201	44.43
334.666	45.93
335.131	43.43
335.596	44.43
336.061	47.53
336.526	35.62
336.991	41.53
337.456	52.43
337.921	47.73
338.386	40.53
338.851	40.23
339.316	42.43
339.781	38.93
340.246	43.23
340.711	38.33
341.175	43.43
341.64	41.33
342.105	50.23
342.569	48.83
343.034	50.12
343.499	47.13
343.963	45.13
344.428	61.13
344.893	58.43
345.357	57.62
345.822	56.62
346.286	65.93
346.751	68.13
347.215	64.83
347.679	71.33
348.144	90.93
348.608	75.73
349.073	61.23
349.537	67.53
350.001	71.43
350.465	78.23
350.93	62.23
351.394	71.73
351.858	66.73
352.322	81.83
352.786	73.93
353.25	85.43
353.715	99.33
354.179	89.33
354.643	108.33
355.107	105.63
355.571	94.43
356.035	79.83
356.498	99.23
356.962	105.02
357.426	111.33
357.89	102.73
358.354	73.93
358.818	83.23
359.281	77.23
359.745	70.93
360.209	70.43
360.673	67.03
361.136	76.03
361.6	76.33
362.064	72.13
362.527	79.23
362.991	84.73
363.454	76.13
363.918	77.53
364.381	72.62
364.845	81.23
365.308	80.73
365.772	79.73
366.235	82.73
366.698	73.93
367.162	85.02
367.625	83.53
368.088	84.43
368.552	83.12
369.015	79.33
369.478	90.53
369.941	84.53
370.404	81.62
370.867	101.23
371.331	91.83
371.794	100.73
372.257	99.43
372.72	97.23
373.183	94.13
373.646	86.33
374.109	90.23
374.572	93.33
375.035	96.43
375.497	97.02
375.96	97.13
376.423	100.83
376.886	103.83
377.349	98.73
377.811	94.33
378.274	92.43
378.737	99.33
379.199	102.93
379.662	112.23
380.125	106.23
380.587	98.23
381.05	100.53
381.512	110.02
381.975	113.83
382.437	112.53
382.9	114.73
383.362	123.83
383.825	122.43
384.287	122.23
384.75	111.12
385.212	115.12
385.674	127.62
386.136	131.23
386.599	112.43
387.061	120.93
387.523	120.43
387.985	120.52
388.447	129.73
388.91	127.33
389.372	125.93
389.834	126.33
390.296	123.93
390.758	124.23
391.22	132.23
391.682	144.43
392.144	149.73
392.606	147.62
393.068	136.33
393.529	151.93
393.991	134.53
394.453	132.83
394.915	128.73
395.377	130.13
395.838	135.62
396.3	136.73
396.762	131.63
397.224	136.33
397.685	133.23
398.147	133.33
398.608	123.93
399.07	133.83
399.531	137.33
399.993	145.73
400.454	154.53
400.916	148.03
401.377	148.03
401.839	148.83
402.3	145.53
402.762	156.13
403.223	175.03
403.684	169.83
404.145	164.93
404.607	163.03
405.068	159.03
405.529	167.53
405.99	176.63
406.451	176.62
406.913	170.93
407.374	162.13
407.835	165.73
408.296	167.33
408.757	172.73
409.218	184.93
409.679	171.93
410.14	177.33
410.601	175.73
411.062	180.43
411.522	182.03
411.983	175.23
412.444	175.73
412.905	181.13
413.366	192.53
413.826	193.93
414.287	215.73
414.748	269.93
415.208	262.32
415.669	220.43
416.13	218.43
416.59	202.93
417.051	216.23
417.511	230.02
417.972	243.53
418.432	254.62
418.893	298.83
419.353	258.03
419.814	201.12
420.274	188.12
420.734	186.02
421.195	195.02
421.655	195.93
422.115	197.52
422.576	196.93
423.036	206.52
423.496	213.93
423.956	216.03
424.416	237.73
424.876	277.52
425.336	261.73
425.797	263.63
426.257	253.13
426.717	245.63
427.177	237.33
427.637	226.02
428.097	235.02
428.556	246.83
429.016	271.62
429.476	263.93
429.936	270.73
430.396	277.12
430.856	286.43
431.315	311.82
431.775	353.73
432.235	370.03
432.694	341.63
433.154	346.62
433.614	385.73
434.073	336.73
434.533	276.02
434.993	273.43
435.452	284.53
435.912	284.73
436.371	283.43
436.83	284.23
437.29	262.73
437.749	248.03
438.209	249.23
438.668	280.73
439.127	286.03
439.587	270.53
440.046	247.23
440.505	261.53
440.964	285.13
441.424	330.63
441.883	318.02
442.342	277.63
442.801	231.43
443.26	223.33
443.719	233.23
444.178	224.62
444.637	224.43
445.096	229.13
445.555	230.92
446.014	234.43
446.473	241.33
446.932	240.83
447.391	238.42
447.849	242.13
448.308	231.73
448.767	234.23
449.226	244.23
449.685	251.33
450.143	263.03
450.602	252.93
451.061	239.53
451.519	244.53
451.978	238.42
452.436	244.12
452.895	250.03
453.353	266.02
453.812	256.03
454.27	250.92
454.729	249.23
455.187	255.23
455.646	257.83
456.104	263.73
456.562	276.33
457.021	283.83
457.479	270.42
457.937	287.13
458.395	280.63
458.854	260.83
459.312	265.83
459.77	285.73
460.228	267.52
460.686	259.33
461.144	263.23
461.602	252.43
462.06	258.13
462.518	268.52
462.976	264.82
463.434	275.23
463.892	275.43
464.35	289.82
464.808	298.93
465.266	284.12
465.724	282.63
466.181	294.53
466.639	285.12
467.097	306.03
467.555	318.93
468.012	313.33
468.47	328.73
468.928	347.63
469.385	363.23
469.843	358.03
470.3	366.23
470.758	382.93
471.215	402.12
471.673	420.92
472.13	421.23
472.588	432.53
473.045	395.33
473.503	404.53
473.96	419.12
474.417	429.62
474.875	448.93
475.332	481.23
475.789	474.93
476.246	492.52
476.704	508.23
477.161	532.43
477.618	540.33
478.075	583.83
478.532	632.53
478.989	701.43
479.446	805.63
479.903	785.73
480.36	808.53
480.817	851.02
481.274	945.33
481.731	1050.43
482.188	1118.43
482.645	1239.33
483.102	1332.93
483.558	1458.12
484.015	1493.23
484.472	1472.33
484.929	1432.43
485.385	1391.13
485.842	1351.33
486.299	1302.63
486.755	1271.73
487.212	1089.03
487.668	921.63
488.125	852.12
488.582	792.43
489.038	760.92
489.494	724.02
489.951	704.23
490.407	678.13
490.864	661.73
491.32	664.73
491.776	663.03
492.233	673.82
492.689	639.62
493.145	641.02
493.602	623.12
494.058	640.83
494.514	642.23
494.97	671.23
495.426	667.43
495.882	652.12
496.338	638.53
496.794	649.93
497.251	647.83
497.707	656.73
498.163	656.53
498.618	666.02
499.074	679.93
499.53	695.33
499.986	701.13
500.442	675.23
500.898	652.02
501.354	645.73
501.809	642.52
502.265	651.43
502.721	652.82
503.177	659.03
503.632	662.53
504.088	677.83
504.543	698.33
504.999	723.43
505.455	686.13
505.91	660.33
506.366	673.92
506.821	664.23
507.277	658.93
507.732	664.52
508.187	664.73
508.643	680.23
509.098	678.93
509.553	691.43
510.009	705.33
510.464	720.23
510.919	726.73
511.375	726.73
511.83	745.73
512.285	772.73
512.74	802.03
513.195	822.62
513.65	817.43
514.105	798.02
514.56	798.43
515.015	831.13
515.47	839.12
515.925	820.13
516.38	818.23
516.835	825.23
517.29	829.83
517.745	820.13
518.2	814.73
518.655	782.02
519.109	786.23
519.564	778.83
520.019	758.83
520.474	776.83
520.928	768.23
521.383	760.82
521.838	756.23
522.292	751.43
522.747	745.03
523.201	736.93
523.656	731.83
524.11	730.03
524.565	732.73
525.019	727.93
525.474	737.62
525.928	739.63
526.382	735.42
526.837	736.62
527.291	747.53
527.745	736.63
528.2	739.33
528.654	734.62
529.108	720.03
529.562	731.73
530.016	733.23
530.47	723.42
530.925	719.73
531.379	718.83
531.833	747.43
532.287	736.32
532.741	734.53
533.195	739.33
533.649	746.53
534.103	753.12
534.556	738.23
535.01	746.33
535.464	735.23
535.918	759.23
536.372	750.73
536.826	753.52
537.279	736.43
537.733	751.62
538.187	760.12
538.64	755.43
539.094	755.12
539.548	770.23
540.001	754.73
540.455	762.73
540.908	769.53
541.362	781.03
541.815	784.93
542.269	798.63
542.722	797.92
543.175	820.73
543.629	813.43
544.082	830.92
544.536	825.62
544.989	826.53
545.442	831.83
545.895	835.52
546.349	830.63
546.802	838.23
547.255	851.92
547.708	856.03
548.161	859.32
548.614	864.52
549.067	870.12
549.52	863.12
549.973	859.83
550.426	847.82
550.879	843.83
551.332	844.43
551.785	851.42
552.238	854.23
552.691	864.73
553.144	878.73
553.596	890.53
554.049	919.53
554.502	939.33
554.955	963.83
555.407	964.12
555.86	957.12
556.313	940.23
556.765	935.43
557.218	922.33
557.67	937.13
558.123	923.82
558.576	919.53
559.028	936.42
559.48	934.03
559.933	925.03
560.385	886.82
560.838	862.02
561.29	826.53
561.742	835.73
562.195	818.93
562.647	811.93
563.099	811.02
563.551	817.23
564.004	832.13
564.456	808.43
564.908	803.52
565.36	785.33
565.812	761.13
566.264	761.43
566.716	760.03
567.168	738.93
567.62	745.52
568.072	731.03
568.524	733.53
568.976	727.82
569.428	714.73
569.88	711.42
570.332	730.43
570.784	718.63
571.235	726.93
571.687	741.23
572.139	737.52
572.59	759.23
573.042	756.43
573.494	753.83
573.945	751.13
574.397	725.93
574.849	725.92
575.3	727.53
575.752	717.42
576.203	714.13
576.655	716.32
577.106	710.23
577.557	697.03
578.009	703.13
578.46	702.63
578.912	690.52
579.363	698.62
579.814	708.23
580.265	703.52
580.717	702.62
581.168	706.33
581.619	716.13
582.07	723.73
582.521	711.82
582.972	703.13
583.423	709.02
583.875	702.23
584.326	713.63
584.777	737.02
585.227	748.62
585.678	762.73
586.129	771.52
586.58	806.33
587.031	818.53
587.482	847.23
587.933	877.93
588.384	860.83
588.834	822.73
589.285	804.52
589.736	815.62
590.186	803.93
590.637	798.83
591.088	772.23
591.538	771.03
591.989	767.12
592.439	756.73
592.89	760.73
593.34	741.73
593.791	733.52
594.241	728.43
594.692	734.83
595.142	727.93
595.593	724.53
596.043	730.23
596.493	740.73
596.943	743.43
597.394	756.73
597.844	751.03
598.294	763.23
598.744	798.92
599.195	812.03
599.645	872.53
600.095	907.52
600.545	965.12
600.995	1019.62
601.445	1082.02
601.895	1140.03
602.345	1188.32
602.795	1169.62
603.245	1127.43
603.695	1066.72
604.145	1015.23
604.594	971.23
605.044	907.83
605.494	847.23
605.944	805.53
606.393	781.02
606.843	765.53
607.293	762.83
607.743	759.62
608.192	770.73
608.642	789.73
609.091	783.33
609.541	792.42
609.99	803.03
610.44	786.73
610.889	743.63
611.339	726.23
611.788	716.23
612.238	717.93
612.687	733.32
613.136	731.73
613.586	738.02
614.035	733.73
614.484	736.92
614.933	736.53
615.383	734.33
615.832	741.23
616.281	734.43
616.73	700.83
617.179	682.43
617.628	675.52
618.077	653.92
618.526	648.02
618.975	643.02
619.424	644.13
619.873	634.73
620.322	646.33
620.771	635.93
621.22	630.73
621.669	621.23
622.118	611.02
622.567	610.23
623.015	591.73
623.464	596.83
623.913	577.33
624.361	581.23
624.81	582.12
625.259	579.83
625.707	578.33
626.156	578.73
626.604	586.63
627.053	586.13
627.501	588.02
627.95	598.63
628.398	595.63
628.847	595.13
629.295	598.83
629.744	601.73
630.192	593.02
630.64	585.23
631.089	578.02
631.537	565.62
631.985	545.33
632.433	554.33
632.881	552.13
633.33	552.02
633.778	546.12
634.226	546.13
634.674	558.73
635.122	558.13
635.57	571.73
636.018	574.23
636.466	583.83
636.914	579.83
637.362	582.63
637.81	602.93
638.258	597.93
638.705	601.12
639.153	634.12
639.601	644.33
640.049	663.13
640.497	704.33
640.944	729.73
641.392	680.62
641.84	638.83
642.287	603.03
642.735	575.23
643.182	585.13
643.63	581.23
644.078	581.93
644.525	589.52
644.973	606.03
645.42	612.93
645.867	645.03
646.315	652.93
646.762	677.83
647.21	695.03
647.657	725.23
648.104	764.53
648.551	778.33
648.999	845.23
649.446	902.23
649.893	1004.03
650.34	1141.93
650.787	1341.12
651.234	1667.83
651.682	2140.83
652.129	2887.93
652.576	4097.32
653.023	5976.72
653.47	8124.23
653.917	10097.23
654.363	11589.73
654.81	12815.73
655.257	12089.43
655.704	8037.92
656.151	4855.72
656.598	3187.53
657.044	2280.62
657.491	1773.83
657.938	1437.73
658.385	1211.13
658.831	1055.33
659.278	947.62
659.724	846.52
660.171	795.82
660.618	724.83
661.064	688.73
661.511	675.43
661.957	664.43
662.404	656.73
662.85	650.93
663.296	643.42
663.743	578.93
664.189	546.52
664.635	554.53
665.082	548.53
665.528	543.73
665.974	532.83
666.42	524.63
666.867	524.62
667.313	499.62
667.759	473.43
668.205	462.83
668.651	472.33
669.097	459.82
669.543	445.82
669.989	459.53
670.435	455.83
670.881	454.13
671.327	472.23
671.773	490.43
672.219	513.73
672.665	568.13
673.11	610.82
673.556	659.03
674.002	688.53
674.448	690.32
674.893	579.62
675.339	492.23
675.785	460.83
676.23	436.83
676.676	408.23
677.122	401.13
677.567	390.42
678.013	383.03
678.458	363.73
678.904	377.43
679.349	355.62
679.794	373.73
680.24	366.52
680.685	370.23
681.131	360.12
681.576	364.63
682.021	373.93
682.466	363.13
682.912	366.23
683.357	369.23
683.802	403.83
684.247	422.52
684.692	479.63
685.137	509.73
685.583	556.12
686.028	576.02
686.473	545.93
686.918	464.93
687.363	437.02
687.807	407.43
688.252	389.63
688.697	374.02
689.142	347.83
689.587	339.23
690.032	340.23
690.477	353.63
690.921	363.63
691.366	398.92
691.811	425.73
692.255	447.62
692.7	469.33
693.145	525.53
693.589	726.23
694.034	1187.93
694.478	1608.63
694.923	1815.13
695.367	2374.33
695.812	1260.12
696.256	527.63
696.701	390.13
697.145	358.23
697.59	341.93
698.034	328.63
698.478	339.23
698.922	334.83
699.367	337.93
699.811	345.62
700.255	361.33
700.699	404.73
701.143	444.33
701.588	493.43
702.032	542.83
702.476	534.63
702.92	517.23
703.364	522.63
703.808	664.43
704.252	1100.03
704.696	1532.03
705.14	1748.12
705.584	2240.93
706.027	1117.33
706.471	547.73
706.915	414.63
707.359	371.92
707.803	340.73
708.246	327.93
708.69	328.83
709.134	326.73
709.577	328.43
710.021	327.73
710.465	321.52
710.908	310.12
711.352	307.33
711.795	323.52
712.239	365.53
712.682	407.82
713.126	423.02
713.569	477.12
714.012	372.23
714.456	313.63
714.899	297.73
715.342	278.93
715.786	268.73
716.229	263.73
716.672	270.73
717.115	263.73
717.558	262.63
718.002	261.43
718.445	273.73
718.888	295.02
719.331	303.33
719.774	320.73
720.217	317.62
720.66	299.23
721.103	280.43
721.546	268.33
721.989	256.93
722.432	243.03
722.874	246.43
723.317	237.62
723.76	248.33
724.203	267.52
724.645	331.43
725.088	463.13
725.531	600.63
725.974	665.82
726.416	575.93
726.859	316.02
727.301	253.62
727.744	242.83
728.187	240.13
728.629	244.32
729.071	257.33
729.514	266.53
729.956	276.23
730.399	297.62
730.841	300.13
731.283	287.13
731.726	278.33
732.168	274.83
732.61	285.13
733.053	297.63
733.495	333.93
733.937	369.53
734.379	417.13
734.821	467.62
735.263	578.73
735.705	883.33
736.148	1661.63
736.59	2738.43
737.032	3196.82
737.474	2604.73
737.916	850.03
738.357	462.03
738.799	346.73
739.241	314.83
739.683	297.82
740.125	305.12
740.567	315.42
741.008	322.52
741.45	336.93
741.892	335.93
742.334	370.53
742.775	380.32
743.217	363.23
743.658	283.83
744.1	268.03
744.542	281.33
744.983	330.73
745.425	365.93
745.866	364.73
746.307	291.53
746.749	290.12
747.19	337.43
747.632	465.83
748.073	929.03
748.514	1973.83
748.956	3010.03
749.397	3781.93
749.838	3133.73
750.279	3129.03
750.72	1582.83
751.162	575.53
751.603	345.83
752.044	268.02
752.485	232.62
752.926	218.13
753.367	213.32
753.808	203.82
754.249	200.93
754.69	193.23
755.131	191.13
755.572	194.52
756.013	183.93
756.453	188.73
756.894	194.43
757.335	203.33
757.776	201.02
758.216	201.13
758.657	208.83
759.098	206.73
759.538	238.53
759.979	286.13
760.42	397.53
760.86	753.92
761.301	1939.12
761.741	4695.52
762.182	6745.23
762.622	4773.32
763.063	1395.12
763.503	567.13
763.943	342.13
764.384	276.13
764.824	256.73
765.264	241.23
765.705	218.63
766.145	191.12
766.585	179.53
767.025	180.02
767.465	170.73
767.906	187.43
768.346	202.63
768.786	217.33
769.226	233.62
769.666	330.52
770.106	655.93
770.546	1641.43
770.986	2767.12
771.426	2489.53
771.866	836.13
772.306	348.73
772.745	214.12
773.185	178.03
773.625	171.03
774.065	159.93
774.505	166.52
774.944	218.73
775.384	376.13
775.824	611.03
776.263	588.43
776.703	289.93
777.142	167.33
777.582	144.12
778.021	134.63
778.461	129.33
778.9	125.03
779.34	122.03
779.779	121.43
780.219	113.03
780.658	112.03
781.097	118.83
781.537	113.63
781.976	113.52
782.415	108.02
782.855	116.43
783.294	99.53
783.733	109.13
784.172	113.43
784.611	105.23
785.05	116.33
785.489	110.93
785.928	126.63
786.367	126.93
786.806	124.93
787.245	138.62
787.684	133.73
788.123	150.13
788.562	139.93
789.001	137.03
789.44	121.83
789.879	116.53
790.317	126.43
790.756	132.43
791.195	135.13
791.634	155.23
792.072	216.13
792.511	383.53
792.95	1048.03
793.388	2218.03
793.827	2003.03
794.265	700.12
794.704	294.53
795.142	189.53
795.581	153.62
796.019	139.73
796.458	139.53
796.896	127.43
797.334	139.43
797.773	167.83
798.211	227.92
798.649	471.73
799.087	1063.63
799.526	1670.03
799.964	2113.03
800.402	2117.03
800.84	797.23
801.278	322.12
801.716	203.23
802.154	163.12
802.592	149.13
803.03	144.13
803.468	145.03
803.906	157.53
804.344	153.03
804.782	149.93
805.22	140.93
805.658	139.53
806.096	156.73
806.533	164.63
806.971	184.43
807.409	227.23
807.847	328.52
808.284	700.83
808.722	1975.63
809.16	3465.33
809.597	3315.32
810.035	5699.93
810.472	6088.43
810.91	2208.73
811.347	850.83
811.785	430.53
812.222	272.93
812.66	205.63
813.097	174.93
813.535	152.83
813.972	135.13
814.409	125.63
814.846	117.63
815.284	119.73
815.721	106.03
816.158	111.23
816.595	117.43
817.032	162.23
817.47	188.93
817.907	147.83
818.344	106.73
818.781	106.93
819.218	103.53
819.655	123.93
820.092	198.53
820.529	233.02
820.966	182.43
821.403	128.73
821.839	103.93
822.276	101.13
822.713	129.52
823.15	142.43
823.587	121.63
824.023	152.93
824.46	320.63
824.897	938.53
825.333	1417.93
825.77	618.63
826.206	246.23
826.643	146.12
827.08	105.53
827.516	84.43
827.953	81.83
828.389	82.52
828.825	74.53
829.262	74.33
829.698	70.03
830.135	68.93
830.571	68.23
831.007	63.83
831.443	62.53
831.88	63.43
832.316	63.73
832.752	65.13
833.188	68.83
833.624	62.23
834.06	73.23
834.497	69.12
834.933	73.63
835.369	76.73
835.805	70.03
836.241	84.23
836.677	81.43
837.112	92.33
837.548	109.73
837.984	138.73
838.42	211.83
838.856	524.83
839.292	1600.43
839.727	2422.53
840.163	1136.83
840.599	982.63
841.034	2119.93
841.47	2225.93
841.906	814.23
842.341	348.83
842.777	207.63
843.212	207.33
843.648	195.02
844.083	109.83
844.519	82.43
844.954	74.33
845.39	56.73
845.825	64.73
846.261	53.33
846.696	55.73
847.131	49.43
847.566	64.43
848.002	58.63
848.437	54.63
848.872	62.33
849.307	67.83
849.742	93.23
850.177	193.43
850.613	586.83
851.048	915.63
851.483	402.63
851.918	163.02
852.353	94.62
852.788	57.62
853.223	51.62
853.657	50.02
854.092	46.73
854.527	41.12
854.962	46.23
855.397	47.93
855.832	49.03
856.266	41.93
856.701	46.03
857.136	40.73
857.57	43.83
858.005	53.83
858.44	62.03
858.874	46.13
859.309	55.33
859.743	42.83
860.178	50.83
860.612	42.33
861.047	55.62
861.481	73.23
861.915	70.13
862.35	54.03
862.784	35.73
863.218	39.63
863.653	36.93
864.087	54.12
864.521	55.13
864.955	75.53
865.39	169.12
865.824	182.13
866.258	124.43
866.692	178.73
867.126	191.73
867.56	113.02
867.994	53.52
868.428	36.03
868.862	48.43
869.296	60.23
869.73	67.93
870.164	58.43
870.598	49.73
871.031	45.93
871.465	30.43
871.899	34.13
872.333	18.53
872.766	23.23
873.2	25.03
873.634	33.03
874.067	24.93
874.501	24.62
874.935	36.73
875.368	33.12
875.802	32.53
876.235	25.53
876.669	24.93
877.102	22.83
877.535	24.03
877.969	23.53
878.402	25.93
878.836	18.23
879.269	23.83
879.702	22.73
880.135	18.43
880.569	21.33
881.002	29.73
881.435	24.12
881.868	16.53
882.301	26.63
882.734	21.12
883.167	20.33
883.601	17.73
884.034	21.62
884.467	14.43
884.899	19.13
885.332	19.03
885.765	14.73
886.198	14.93
886.631	24.12
887.064	15.63
887.497	23.33
887.929	22.83
888.362	12.53
888.795	22.53
889.228	21.93
889.66	26.73
890.093	16.83
890.526	16.83
890.958	14.63
891.391	17.53
891.823	22.13
892.256	11.73
892.688	16.93
893.121	15.63
893.553	15.23
893.985	22.93
894.418	21.33
894.85	15.33
895.282	15.53
895.715	21.53
896.147	22.03
896.579	17.03
897.011	11.33
897.444	20.83
897.876	19.63
898.308	19.43
898.74	16.83
899.172	12.83
899.604	25.13
900.036	23.12
900.468	15.83
900.9	20.23
901.332	24.52
901.764	16.33
902.196	17.03
902.628	15.03
903.06	18.93
903.491	27.93
903.923	28.33
904.355	26.23
904.787	31.33
905.218	27.53
905.65	24.12
906.082	10.53
906.513	10.23
906.945	15.33
907.376	16.52
907.808	20.13
908.239	24.03
908.671	20.33
909.102	26.53
909.534	20.33
909.965	51.83
910.397	100.52
910.828	330.03
911.259	488.03
911.691	224.62
912.122	116.73
912.553	54.93
912.984	39.93
913.415	24.13
913.847	26.43
914.278	15.73
914.709	15.62
915.14	22.73
915.571	17.23
916.002	15.53
916.433	18.43
916.864	22.03
917.295	8.93
917.726	18.73
918.157	15.93
918.587	30.13
919.018	25.03
919.449	23.53
919.88	21.52
920.311	30.13
920.741	47.93
921.172	180.43
921.603	161.33
922.033	70.43
922.464	44.23
922.895	22.12
923.325	16.23
923.756	13.12
924.186	10.63
924.617	14.13
925.047	25.63
925.478	24.43
925.908	24.33
926.338	17.53
926.769	11.63
927.199	22.13
927.629	2.73
928.06	17.53
928.49	11.23
928.92	14.73
929.35	10.23
929.78	14.03
930.21	2.02
930.641	9.83
931.071	15.43
931.501	8.63
931.931	11.63
932.361	9.13
932.791	7.63
933.221	6.43
933.651	8.13
934.08	23.73
934.51	29.63
934.94	15.53
935.37	12.13
935.8	12.03
936.229	6.43
936.659	15.12
937.089	1.13
937.519	12.93
937.948	28.43
938.378	10.43
938.807	8.83
939.237	1.43
939.666	9.23
940.096	-4.57
940.525	1.62
940.955	5.83
941.384	8.93
941.814	0.43
942.243	3.43
942.672	5.53
943.102	-5.27
943.531	4.23
943.96	0.83
944.39	4.33
944.819	3.52
945.248	5.93
945.677	3.03
946.106	5.73
946.535	4.62
946.964	1.23
947.393	4.23
947.822	0.03
948.251	-1.57
948.68	3.03
949.109	6.33
949.538	6.93
949.967	-4.97
950.396	0.03
950.825	3.33
951.254	2.43
951.682	-1.57
952.111	5.53
952.54	10.43
952.969	-2.47
953.397	-0.98
953.826	4.12
954.254	-2.67
954.683	0.12
955.112	1.13
955.54	1.63
955.969	1.33
956.397	-0.57
956.826	2.93
957.254	8.13
957.682	0.83
958.111	1.62
958.539	2.33
958.967	3.13
959.396	-5.98
959.824	1.23
960.252	-0.47
960.68	-5.57
961.109	-3.57
961.537	2.33
961.965	8.03
962.393	-1.37
962.821	-3.07
963.249	-2.27
963.677	7.83
964.105	5.12
964.533	46.03
964.961	45.93
965.389	23.53
965.817	9.33
966.245	5.93
966.672	3.73
967.1	-6.77
967.528	5.33
967.956	-1.27
968.383	4.12
968.811	-2.57
969.239	0.73
969.666	-6.77
970.094	-8.37
970.522	-2.57
970.949	0.12
971.377	-0.67
971.804	-5.37
972.232	1.23
972.659	2.23
973.087	-6.27
973.514	-6.27
973.941	-1.17
974.369	7.23
974.796	3.63
975.223	-2.67
975.651	1.13
976.078	6.03
976.505	1.43
976.932	3.43
977.359	16.12
977.786	22.03
978.214	4.43
978.641	-8.38
979.068	0.23
979.495	-9.27
979.922	1.52
980.349	-2.67
980.776	4.83
981.202	-0.67
981.629	1.53
982.056	12.12
982.483	-1.77
982.91	5.53
983.337	-2.57
983.763	3.83
984.19	-5.77
984.617	-0.97
985.043	-5.17
985.47	2.73
985.897	3.03
986.323	-6.67
986.75	-2.27
987.176	-3.67
987.603	1.23
988.029	0.12
988.456	-2.38
988.882	3.93
989.308	-5.27
989.735	-5.27
990.161	-7.07
990.587	-3.88
991.014	-1.27
991.44	12.53
991.866	0.03
992.292	-5.77
992.719	-3.38
993.145	0.23
993.571	-5.37
993.997	-6.37
994.423	1.73
994.849	-2.57
995.275	3.53
995.701	4.03
996.127	-4.88
996.553	-2.77
996.979	1.43
997.405	-1.27
997.83	-4.57
998.256	-2.48
998.682	-2.27
999.108	-4.77
999.534	-2.67
999.959	2.13
1000.385	-3.17
1000.811	5.33
1001.236	-6.48
1001.662	-5.37
1002.087	-3.87
1002.513	-1.17
1002.938	-1.27
1003.364	1.13
1003.789	0.03
1004.215	5.43
1004.64	-6.17
1005.066	-3.47
1005.491	-3.97
1005.916	4.52
1006.342	-4.37
1006.767	-5.17
1007.192	5.93
1007.617	-8.88
1008.042	-7.77
1008.468	-11.77
1008.893	-6.37
1009.318	-7.87
1009.743	-0.38
1010.168	-3.77
1010.593	0.03
1011.018	-3.47
1011.443	-1.57
1011.868	-4.87
1012.293	-4.77
1012.718	-4.57
1013.143	-1.57
1013.567	3.33
1013.992	-1.07
1014.417	-11.88
1014.842	3.73
1015.267	-2.17
1015.691	-6.77
1016.116	3.93
1016.541	-4.57
1016.965	10.02
1017.39	3.62
1017.814	-2.17
1018.239	-1.57
1018.663	-2.27
1019.088	-10.38
1019.512	-6.97
1019.937	0.43
1020.361	-5.37
1020.785	-11.67
1021.21	-2.07
1021.634	-0.47
1022.058	-1.17
1022.483	6.63
1022.907	-0.07
1023.331	-5.07
1023.755	-3.27
1024.179	0.63
1024.604	-6.07
1025.028	-8.07
1025.452	-2.07
1025.876	1.52
1026.3	3.43
1026.724	-7.57
1027.148	-10.17
1027.572	-7.27
1027.996	-5.87
1028.42	-3.38
1028.843	2.12
1029.267	-3.88
1029.691	-2.17
1030.115	-11.47
1030.539	-5.38
1030.962	-8.27
1031.386	-16.27
1031.81	-2.57
1032.233	0.83
1032.657	-4.17
1033.08	-1.87
1033.504	-3.27
1033.927	-4.07
1034.351	-0.17
1034.774	-6.07
1035.198	1.13
1035.621	-1.97
1036.045	-6.17
1036.468	4.43
1036.891	-11.38
1037.315	-8.98
1037.738	-10.37
1038.161	2.52
1038.584	-6.57
1039.008	-5.57
1039.431	-6.27
1039.854	-6.27
1040.277	-11.37
1040.7	-16.27
1041.123	1.03
1041.546	-8.07
1041.969	-5.97
1042.392	-6.77
1042.815	-2.77
1043.238	1.93
1043.661	1.53
1044.084	-7.97
1044.507	-4.47
1044.93	-10.77
1045.352	-8.17
1045.775	-1.88
1046.198	-0.87
1046.621	-3.97
1047.043	-0.27
1047.466	9.73
1047.889	-3.97
1048.311	-4.07
1048.734	-2.57
1049.156	-5.67
1049.579	4.83
1050.001	-1.77
1050.424	1.02
1050.846	-6.47
1051.269	2.93
1051.691	-10.47
1052.113	-6.38
1052.536	-1.47
1052.958	-3.77
1053.38	-4.67
1053.802	-7.97
1054.225	2.93
1054.647	-6.67
1055.069	-5.77
1055.491	-1.27
1055.913	-9.07
1056.335	-2.07
1056.757	-1.17
1057.179	-7.57
1057.601	-6.97
1058.023	-1.07
1058.445	-1.67
1058.867	-4.57
1059.289	-2.88
1059.711	-10.37
1060.133	-1.38
1060.555	-4.97
1060.976	-9.77
1061.398	-5.37
1061.82	-11.07
1062.241	-2.48
1062.663	-9.27
1063.085	-5.77
1063.506	-2.47
1063.928	-4.77
1064.35	-5.57
1064.771	-11.27
1065.193	-5.17
1065.614	-2.17
1066.035	-1.27
1066.457	-2.67
1066.878	1.83
1067.3	0.83
1067.721	-0.67
1068.142	-7.57
1068.564	-6.47
1068.985	-8.88
1069.406	-6.67
1069.827	-3.67
1070.248	0.03
1070.67	-7.67
1071.091	-4.07
1071.512	-4.57
1071.933	-2.38
1072.354	-4.27
1072.775	-9.47
1073.196	-4.17
1073.617	-2.27
1074.038	-5.27
1074.459	-6.27
1074.88	-6.27
1075.3	1.23
1075.721	-10.77
1076.142	-0.07
1076.563	1.23
1076.983	-11.07
1077.404	-0.57
1077.825	-10.97
1078.246	-9.87
1078.666	-14.48
1079.087	-7.37
1079.507	-6.88
1079.928	2.43
1080.348	-6.07
1080.769	-6.07
1081.189	-3.47
1081.61	-2.77
1082.03	-10.17
1082.451	-7.47
1082.871	-8.37
1083.291	-6.77
1083.711	-14.07
1084.132	-9.57
1084.552	-7.97
1084.972	-2.17
1085.392	-5.98
1085.813	-10.97
1086.233	-9.77
1086.653	-6.67
1087.073	-0.07
1087.493	-3.77
1087.913	-8.98
1088.333	-2.88
1088.753	-6.17
1089.173	-0.27
1089.593	-5.67
1090.013	2.03
1090.433	-1.38
1090.852	-1.67
1091.272	2.73
1091.692	-4.47
1092.112	-5.47
1092.531	-8.97
1092.951	-8.37
1093.371	-5.98
1093.79	-1.87
1094.21	-7.27
1094.63	-6.07
1095.049	-6.67
1095.469	-6.57
1095.888	-4.88
1096.308	3.03
1096.727	-0.17
1097.146	-5.77
1097.566	4.13
1097.985	-6.77
1098.405	-3.37
1098.824	-8.07
1099.243	-8.27
1099.662	-5.38
1100.082	-3.97
1100.501	-2.07
1100.92	-9.27
1101.339	-8.48
1101.758	-8.97
