Data from 20171114-ORNL-Ar_H_NY_Subt18_08-07-04-137.txt Node
Date: Tue Nov 14 08:07:04 EST 2017
User: Ender
Spectrometer: HR+D1039
Trigger mode: 0
Integration Time (sec): 2.730000E-2
Scans to average: 10
Electric dark correction enabled: true
Nonlinearity correction enabled: false
Boxcar width: 0
XAxis mode: Wavelengths
Number of Pixels in Spectrum: 2048
>>>>>Begin Spectral Data<<<<<
187.836	-0.12
188.309	-0.12
188.782	-0.12
189.255	-1.72
189.728	-3.32
190.201	1.68
190.674	2.48
191.147	3.48
191.619	-5.92
192.092	0.18
192.565	3.08
193.038	0.28
193.511	1.08
193.984	2.78
194.456	-2.82
194.929	0.18
195.402	-4.12
195.874	2.78
196.347	0.78
196.82	0.08
197.292	9.98
197.765	-1.02
198.237	-1.62
198.71	4.18
199.182	-8.42
199.655	-2.62
200.127	5.68
200.6	5.58
201.072	-3.52
201.544	0.48
202.017	-3.22
202.489	1.88
202.961	-0.82
203.433	2.18
203.906	-5.62
204.378	1.28
204.85	-1.92
205.322	-4.92
205.794	-2.62
206.266	-5.32
206.739	-9.82
207.211	0.78
207.683	-10.22
208.155	-2.52
208.627	-4.92
209.099	2.48
209.57	-6.72
210.042	1.58
210.514	-5.02
210.986	-5.12
211.458	-11.12
211.93	-1.82
212.402	2.58
212.873	-7.52
213.345	-9.12
213.817	-9.12
214.288	-4.82
214.76	-5.72
215.232	-4.42
215.703	-1.82
216.175	2.98
216.646	-0.62
217.118	-7.02
217.589	-2.22
218.061	0.28
218.532	-3.42
219.004	3.68
219.475	0.68
219.946	-2.32
220.418	-4.92
220.889	-0.62
221.36	5.98
221.832	-2.52
222.303	-10.72
222.774	4.28
223.245	-9.92
223.717	-7.32
224.188	2.08
224.659	-5.32
225.13	-5.02
225.601	-2.12
226.072	2.88
226.543	0.98
227.014	2.78
227.485	-1.22
227.956	-3.32
228.427	5.48
228.898	2.88
229.369	4.68
229.839	-3.72
230.31	-5.22
230.781	2.88
231.252	0.68
231.722	-3.82
232.193	-9.02
232.664	-0.52
233.135	1.18
233.605	-0.12
234.076	-6.92
234.546	-1.62
235.017	5.48
235.487	1.18
235.958	-4.42
236.428	-1.02
236.899	0.48
237.369	-1.32
237.84	-1.02
238.31	2.08
238.78	-0.32
239.251	-3.42
239.721	1.88
240.191	0.48
240.662	-3.52
241.132	1.78
241.602	-0.12
242.072	-5.22
242.542	0.08
243.013	-2.92
243.483	1.78
243.953	-3.02
244.423	-2.42
244.893	-4.72
245.363	-1.82
245.833	-0.92
246.303	-4.02
246.773	6.08
247.243	3.88
247.712	-3.52
248.182	4.28
248.652	7.08
249.122	-6.22
249.592	-0.72
250.061	1.78
250.531	7.48
251.001	0.48
251.471	6.48
251.94	10.78
252.41	-0.32
252.879	-5.52
253.349	7.78
253.818	8.18
254.288	7.68
254.757	4.38
255.227	-2.62
255.696	-1.52
256.166	-0.12
256.635	2.68
257.105	3.78
257.574	1.78
258.043	1.58
258.513	-2.22
258.982	0.98
259.451	-5.62
259.92	2.88
260.389	-0.62
260.859	8.38
261.328	3.38
261.797	6.78
262.266	-0.62
262.735	7.58
263.204	1.88
263.673	0.68
264.142	4.08
264.611	-2.42
265.08	4.78
265.549	-0.82
266.018	2.88
266.487	-0.42
266.955	-7.42
267.424	1.48
267.893	2.68
268.362	-1.02
268.83	2.28
269.299	8.18
269.768	-0.12
270.236	0.08
270.705	-4.72
271.174	7.18
271.642	8.08
272.111	5.08
272.579	5.88
273.048	-3.42
273.516	6.28
273.985	5.48
274.453	4.08
274.922	10.48
275.39	6.58
275.858	-1.22
276.327	5.18
276.795	16.98
277.263	4.48
277.731	15.88
278.2	5.98
278.668	6.58
279.136	9.28
279.604	0.68
280.072	9.98
280.54	8.08
281.008	5.88
281.477	12.48
281.945	2.08
282.413	14.18
282.881	16.08
283.348	4.18
283.816	10.18
284.284	9.68
284.752	21.08
285.22	11.28
285.688	7.48
286.156	4.18
286.623	13.68
287.091	5.98
287.559	9.38
288.026	11.18
288.494	11.48
288.962	1.58
289.429	4.58
289.897	10.58
290.364	16.28
290.832	10.18
291.3	7.68
291.767	10.28
292.234	13.78
292.702	6.28
293.169	16.28
293.637	22.08
294.104	13.98
294.571	6.48
295.039	8.78
295.506	10.38
295.973	13.38
296.44	9.78
296.908	14.68
297.375	9.98
297.842	9.58
298.309	13.28
298.776	7.38
299.243	12.38
299.71	6.98
300.177	18.38
300.644	11.78
301.111	8.98
301.578	18.58
302.045	11.08
302.512	18.78
302.979	21.28
303.446	16.58
303.913	15.78
304.379	16.68
304.846	23.68
305.313	23.18
305.78	16.58
306.246	16.78
306.713	23.88
307.18	22.08
307.646	14.68
308.113	21.88
308.579	10.08
309.046	18.68
309.512	19.68
309.979	17.98
310.445	23.18
310.912	20.18
311.378	25.18
311.845	26.18
312.311	27.48
312.777	27.58
313.244	26.58
313.71	28.98
314.176	20.88
314.642	26.38
315.109	26.18
315.575	28.58
316.041	30.08
316.507	23.28
316.973	32.48
317.439	24.08
317.905	32.78
318.371	30.68
318.837	31.88
319.303	24.98
319.769	22.28
320.235	28.68
320.701	34.68
321.167	28.08
321.633	30.28
322.099	25.38
322.564	37.78
323.03	31.08
323.496	28.78
323.962	30.48
324.427	25.58
324.893	35.88
325.359	38.68
325.824	28.48
326.29	25.28
326.755	32.98
327.221	33.68
327.686	29.68
328.152	36.28
328.617	39.68
329.083	42.58
329.548	42.88
330.014	43.68
330.479	29.68
330.944	38.18
331.41	35.38
331.875	33.08
332.34	40.58
332.805	39.08
333.271	43.48
333.736	33.18
334.201	41.88
334.666	43.48
335.131	49.08
335.596	44.38
336.061	36.78
336.526	32.18
336.991	37.78
337.456	44.78
337.921	48.78
338.386	40.38
338.851	34.98
339.316	42.08
339.781	42.88
340.246	47.68
340.711	42.28
341.175	42.48
341.64	34.48
342.105	39.28
342.569	51.08
343.034	46.68
343.499	45.18
343.963	43.88
344.428	52.08
344.893	47.78
345.357	47.88
345.822	52.88
346.286	60.98
346.751	62.98
347.215	58.48
347.679	59.28
348.144	78.28
348.608	74.48
349.073	63.08
349.537	66.98
350.001	64.58
350.465	70.68
350.93	66.48
351.394	69.48
351.858	65.58
352.322	71.98
352.786	65.68
353.25	86.68
353.715	95.68
354.179	82.38
354.643	95.08
355.107	99.58
355.571	89.58
356.035	81.58
356.498	97.28
356.962	95.68
357.426	101.38
357.89	91.38
358.354	80.98
358.818	74.68
359.281	69.08
359.745	68.08
360.209	64.08
360.673	64.88
361.136	70.78
361.6	76.48
362.064	77.58
362.527	75.58
362.991	79.08
363.454	66.18
363.918	69.08
364.381	72.08
364.845	74.18
365.308	75.08
365.772	73.08
366.235	77.28
366.698	74.38
367.162	74.78
367.625	76.98
368.088	73.28
368.552	84.28
369.015	81.18
369.478	87.08
369.941	81.28
370.404	83.78
370.867	90.88
371.331	90.18
371.794	93.68
372.257	82.38
372.72	87.38
373.183	91.08
373.646	91.48
374.109	88.98
374.572	92.78
375.035	92.28
375.497	90.88
375.96	90.18
376.423	90.88
376.886	100.58
377.349	103.28
377.811	92.88
378.274	94.38
378.737	97.18
379.199	95.88
379.662	101.08
380.125	100.38
380.587	97.98
381.05	95.68
381.512	107.58
381.975	108.18
382.437	112.68
382.9	105.28
383.362	120.58
383.825	119.18
384.287	116.88
384.75	114.58
385.212	110.98
385.674	117.58
386.136	121.98
386.599	107.58
387.061	111.08
387.523	109.48
387.985	113.58
388.447	117.28
388.91	115.78
389.372	120.68
389.834	117.68
390.296	117.48
390.758	121.18
391.22	124.08
391.682	132.58
392.144	149.88
392.606	141.58
393.068	134.78
393.529	143.38
393.991	127.38
394.453	128.78
394.915	126.78
395.377	136.08
395.838	125.78
396.3	131.48
396.762	133.78
397.224	125.58
397.685	128.88
398.147	124.08
398.608	129.08
399.07	122.48
399.531	126.58
399.993	136.58
400.454	148.08
400.916	147.78
401.377	139.18
401.839	142.78
402.3	139.78
402.762	159.08
403.223	164.98
403.684	162.28
404.145	152.48
404.607	156.78
405.068	150.18
405.529	155.58
405.99	178.68
406.451	162.88
406.913	167.68
407.374	160.28
407.835	158.48
408.296	156.78
408.757	168.38
409.218	171.58
409.679	166.38
410.14	167.08
410.601	170.38
411.062	172.78
411.522	167.88
411.983	169.78
412.444	166.78
412.905	175.78
413.366	180.28
413.826	188.08
414.287	212.68
414.748	254.98
415.208	242.58
415.669	207.38
416.13	199.78
416.59	205.98
417.051	207.18
417.511	215.18
417.972	236.78
418.432	253.08
418.893	286.98
419.353	250.08
419.814	195.18
420.274	183.98
420.734	175.78
421.195	195.18
421.655	182.68
422.115	192.78
422.576	189.88
423.036	197.78
423.496	204.88
423.956	213.68
424.416	228.08
424.876	255.48
425.336	260.88
425.797	253.38
426.257	250.98
426.717	239.78
427.177	226.68
427.637	217.68
428.097	232.38
428.556	234.88
429.016	257.98
429.476	259.08
429.936	262.38
430.396	276.58
430.856	281.88
431.315	298.88
431.775	329.28
432.235	367.08
432.694	326.08
433.154	337.38
433.614	368.28
434.073	317.08
434.533	272.28
434.993	261.48
435.452	270.18
435.912	280.88
436.371	277.18
436.83	265.38
437.29	260.68
437.749	244.18
438.209	248.88
438.668	265.38
439.127	278.88
439.587	259.68
440.046	249.98
440.505	254.88
440.964	271.28
441.424	311.58
441.883	304.68
442.342	262.78
442.801	220.38
443.26	229.38
443.719	223.28
444.178	223.98
444.637	208.38
445.096	229.28
445.555	229.18
446.014	226.48
446.473	228.28
446.932	235.48
447.391	230.18
447.849	233.48
448.308	227.18
448.767	225.78
449.226	241.48
449.685	247.08
450.143	253.08
450.602	240.88
451.061	222.78
451.519	236.78
451.978	239.48
452.436	232.58
452.895	245.48
453.353	250.48
453.812	239.68
454.27	236.18
454.729	237.48
455.187	253.68
455.646	246.68
456.104	250.78
456.562	268.28
457.021	268.48
457.479	260.18
457.937	270.78
458.395	268.48
458.854	254.98
459.312	264.58
459.77	276.28
460.228	258.18
460.686	245.78
461.144	255.98
461.602	255.68
462.06	245.58
462.518	261.78
462.976	258.98
463.434	261.58
463.892	270.08
464.35	279.68
464.808	289.78
465.266	268.18
465.724	271.98
466.181	279.58
466.639	276.48
467.097	293.98
467.555	305.98
468.012	308.38
468.47	313.88
468.928	336.58
469.385	344.88
469.843	350.48
470.3	355.08
470.758	369.28
471.215	390.38
471.673	418.88
472.13	409.28
472.588	422.78
473.045	378.18
473.503	392.48
473.96	400.58
474.417	409.68
474.875	440.48
475.332	478.88
475.789	467.68
476.246	476.28
476.704	492.98
477.161	514.08
477.618	530.98
478.075	559.98
478.532	605.68
478.989	673.18
479.446	784.88
479.903	750.68
480.36	779.58
480.817	822.38
481.274	919.58
481.731	1010.18
482.188	1084.48
482.645	1194.38
483.102	1287.58
483.558	1408.58
484.015	1444.88
484.472	1426.08
484.929	1377.38
485.385	1345.28
485.842	1315.48
486.299	1257.68
486.755	1227.68
487.212	1047.18
487.668	885.78
488.125	835.08
488.582	764.48
489.038	735.48
489.494	708.18
489.951	685.08
490.407	660.18
490.864	655.28
491.32	651.88
491.776	651.28
492.233	657.98
492.689	624.78
493.145	626.38
493.602	596.38
494.058	615.08
494.514	610.38
494.97	645.48
495.426	652.78
495.882	626.88
496.338	624.98
496.794	631.88
497.251	620.48
497.707	640.38
498.163	642.28
498.618	643.98
499.074	648.68
499.53	671.78
499.986	676.48
500.442	643.98
500.898	628.78
501.354	627.68
501.809	632.98
502.265	630.98
502.721	635.18
503.177	644.98
503.632	656.58
504.088	657.58
504.543	676.18
504.999	701.78
505.455	665.58
505.91	643.78
506.366	648.88
506.821	641.48
507.277	640.48
507.732	646.88
508.187	636.98
508.643	651.68
509.098	658.98
509.553	679.98
510.009	688.38
510.464	688.38
510.919	712.28
511.375	710.98
511.83	719.38
512.285	737.28
512.74	777.18
513.195	795.08
513.65	785.58
514.105	789.38
514.56	778.08
515.015	798.28
515.47	809.28
515.925	792.38
516.38	803.48
516.835	809.38
517.29	792.28
517.745	779.68
518.2	777.38
518.655	761.58
519.109	764.08
519.564	752.88
520.019	754.38
520.474	748.38
520.928	732.28
521.383	730.58
521.838	727.38
522.292	714.78
522.747	723.08
523.201	720.98
523.656	717.38
524.11	703.18
524.565	710.28
525.019	708.88
525.474	710.08
525.928	714.78
526.382	721.68
526.837	724.18
527.291	718.28
527.745	709.58
528.2	715.78
528.654	709.78
529.108	705.18
529.562	697.48
530.016	706.08
530.47	710.98
530.925	709.88
531.379	718.38
531.833	723.28
532.287	707.48
532.741	714.18
533.195	724.68
533.649	728.68
534.103	727.18
534.556	727.88
535.01	733.38
535.464	719.98
535.918	722.68
536.372	733.58
536.826	730.98
537.279	721.48
537.733	714.98
538.187	728.38
538.64	729.38
539.094	731.18
539.548	754.18
540.001	737.68
540.455	742.98
540.908	742.88
541.362	754.38
541.815	760.18
542.269	769.88
542.722	781.68
543.175	782.88
543.629	792.18
544.082	802.98
544.536	812.08
544.989	803.78
545.442	812.28
545.895	803.48
546.349	809.48
546.802	813.38
547.255	818.38
547.708	832.78
548.161	836.38
548.614	837.48
549.067	838.38
549.52	827.18
549.973	834.18
550.426	827.58
550.879	824.58
551.332	820.38
551.785	823.88
552.238	827.68
552.691	839.28
553.144	850.58
553.596	864.68
554.049	879.68
554.502	908.38
554.955	926.88
555.407	925.58
555.86	919.08
556.313	907.78
556.765	905.48
557.218	898.88
557.67	902.78
558.123	900.28
558.576	896.68
559.028	905.38
559.48	911.38
559.933	891.18
560.385	857.88
560.838	834.68
561.29	801.18
561.742	804.98
562.195	787.28
562.647	782.88
563.099	797.68
563.551	792.68
564.004	811.78
564.456	790.08
564.908	772.68
565.36	759.18
565.812	747.48
566.264	724.48
566.716	730.78
567.168	712.58
567.62	728.38
568.072	713.18
568.524	709.48
568.976	703.58
569.428	696.18
569.88	688.08
570.332	702.68
570.784	701.88
571.235	691.48
571.687	708.68
572.139	716.58
572.59	726.48
573.042	729.18
573.494	726.18
573.945	733.28
574.397	711.78
574.849	708.58
575.3	713.58
575.752	695.58
576.203	700.98
576.655	711.98
577.106	685.78
577.557	686.58
578.009	686.48
578.46	675.88
578.912	675.38
579.363	683.88
579.814	678.58
580.265	683.38
580.717	689.08
581.168	685.48
581.619	695.18
582.07	694.28
582.521	694.18
582.972	679.88
583.423	696.48
583.875	688.48
584.326	701.08
584.777	715.28
585.227	741.28
585.678	737.98
586.129	754.98
586.58	780.68
587.031	812.38
587.482	836.58
587.933	872.08
588.384	847.98
588.834	806.98
589.285	780.18
589.736	794.68
590.186	795.98
590.637	785.48
591.088	760.38
591.538	749.98
591.989	742.28
592.439	739.78
592.89	736.48
593.34	719.88
593.791	717.68
594.241	710.88
594.692	715.38
595.142	709.18
595.593	703.88
596.043	720.38
596.493	726.38
596.943	716.68
597.394	734.48
597.844	736.48
598.294	749.48
598.744	767.78
599.195	799.78
599.645	840.88
600.095	875.08
600.545	921.88
600.995	977.18
601.445	1035.68
601.895	1104.28
602.345	1148.48
602.795	1130.88
603.245	1092.68
603.695	1043.78
604.145	977.48
604.594	932.98
605.044	880.58
605.494	818.28
605.944	774.28
606.393	757.08
606.843	740.88
607.293	744.58
607.743	738.68
608.192	746.68
608.642	772.88
609.091	771.78
609.541	778.88
609.99	774.88
610.44	770.38
610.889	726.78
611.339	712.88
611.788	689.98
612.238	710.18
612.687	713.48
613.136	709.38
613.586	721.18
614.035	710.28
614.484	735.88
614.933	716.18
615.383	712.88
615.832	721.88
616.281	707.28
616.73	679.98
617.179	663.08
617.628	657.78
618.077	633.48
618.526	629.78
618.975	629.48
619.424	626.08
619.873	618.48
620.322	622.68
620.771	602.08
621.22	608.08
621.669	601.18
622.118	602.48
622.567	587.88
623.015	580.08
623.464	571.78
623.913	567.98
624.361	557.78
624.81	557.48
625.259	558.98
625.707	556.78
626.156	561.98
626.604	575.38
627.053	568.68
627.501	573.98
627.95	578.88
628.398	589.88
628.847	577.58
629.295	579.78
629.744	584.48
630.192	563.18
630.64	569.28
631.089	559.58
631.537	547.48
631.985	529.18
632.433	544.38
632.881	530.88
633.33	535.28
633.778	537.18
634.226	532.38
634.674	541.18
635.122	552.58
635.57	550.08
636.018	558.38
636.466	566.58
636.914	560.28
637.362	574.18
637.81	577.08
638.258	593.88
638.705	588.98
639.153	614.88
639.601	631.98
640.049	652.98
640.497	680.68
640.944	707.48
641.392	654.58
641.84	618.28
642.287	581.88
642.735	568.98
643.182	565.68
643.63	576.88
644.078	564.58
644.525	580.78
644.973	597.08
645.42	605.18
645.867	612.28
646.315	640.28
646.762	661.68
647.21	688.08
647.657	698.58
648.104	743.68
648.551	754.58
648.999	821.48
649.446	891.08
649.893	967.18
650.34	1106.38
650.787	1312.98
651.234	1611.38
651.682	2061.38
652.129	2819.58
652.576	3991.38
653.023	5840.48
653.47	7903.28
653.917	9815.48
654.363	11323.28
654.81	12522.88
655.257	11831.58
655.704	7827.78
656.151	4725.28
656.598	3101.58
657.044	2236.48
657.491	1727.58
657.938	1395.18
658.385	1177.98
658.831	1022.78
659.278	942.68
659.724	829.38
660.171	771.28
660.618	714.88
661.064	678.68
661.511	659.18
661.957	643.68
662.404	645.48
662.85	648.68
663.296	628.18
663.743	558.68
664.189	542.78
664.635	544.18
665.082	528.48
665.528	531.78
665.974	520.58
666.42	508.68
666.867	505.78
667.313	492.08
667.759	467.88
668.205	450.58
668.651	457.38
669.097	454.88
669.543	446.98
669.989	448.48
670.435	451.88
670.881	450.58
671.327	461.78
671.773	477.18
672.219	500.98
672.665	554.68
673.11	593.88
673.556	644.08
674.002	674.58
674.448	671.88
674.893	554.88
675.339	490.38
675.785	447.68
676.23	425.88
676.676	400.68
677.122	397.88
677.567	380.68
678.013	370.88
678.458	375.78
678.904	364.98
679.349	358.68
679.794	362.28
680.24	356.88
680.685	357.18
681.131	356.38
681.576	356.28
682.021	360.88
682.466	352.48
682.912	363.38
683.357	367.48
683.802	385.08
684.247	405.88
684.692	466.78
685.137	500.78
685.583	554.28
686.028	576.88
686.473	521.38
686.918	463.28
687.363	417.28
687.807	405.98
688.252	373.48
688.697	361.38
689.142	344.78
689.587	342.88
690.032	333.18
690.477	353.68
690.921	363.38
691.366	390.18
691.811	414.18
692.255	444.98
692.7	467.68
693.145	505.48
693.589	724.78
694.034	1157.28
694.478	1587.18
694.923	1776.58
695.367	2311.08
695.812	1219.48
696.256	507.38
696.701	377.58
697.145	352.68
697.59	331.88
698.034	325.48
698.478	329.88
698.922	324.68
699.367	331.68
699.811	339.88
700.255	362.38
700.699	386.78
701.143	431.68
701.588	483.38
702.032	528.88
702.476	524.38
702.92	496.28
703.364	515.38
703.808	661.88
704.252	1068.28
704.696	1489.78
705.14	1710.18
705.584	2167.18
706.027	1092.78
706.471	533.48
706.915	420.58
707.359	357.88
707.803	330.28
708.246	317.48
708.69	320.08
709.134	326.38
709.577	318.78
710.021	327.78
710.465	308.78
710.908	303.48
711.352	304.58
711.795	318.48
712.239	364.38
712.682	389.18
713.126	428.08
713.569	465.98
714.012	371.48
714.456	316.38
714.899	288.18
715.342	276.38
715.786	257.28
716.229	266.18
716.672	259.18
717.115	258.98
717.558	251.48
718.002	255.98
718.445	264.28
718.888	286.38
719.331	300.28
719.774	307.68
720.217	313.38
720.66	288.88
721.103	273.38
721.546	262.68
721.989	251.88
722.432	236.88
722.874	239.18
723.317	238.88
723.76	239.08
724.203	262.18
724.645	323.18
725.088	452.48
725.531	584.08
725.974	659.28
726.416	570.08
726.859	306.58
727.301	248.78
727.744	237.68
728.187	241.38
728.629	244.38
729.071	250.18
729.514	263.48
729.956	279.78
730.399	293.38
730.841	293.68
731.283	277.68
731.726	274.38
732.168	269.08
732.61	272.98
733.053	291.48
733.495	322.78
733.937	363.08
734.379	407.28
734.821	447.28
735.263	557.48
735.705	864.38
736.148	1634.78
736.59	2654.08
737.032	3120.08
737.474	2542.78
737.916	827.08
738.357	439.28
738.799	335.58
739.241	305.88
739.683	293.28
740.125	300.98
740.567	311.18
741.008	330.58
741.45	323.88
741.892	326.38
742.334	363.38
742.775	374.18
743.217	354.58
743.658	278.88
744.1	260.78
744.542	274.78
744.983	321.58
745.425	356.08
745.866	356.88
746.307	279.88
746.749	285.68
747.19	332.98
747.632	467.68
748.073	910.78
748.514	1944.78
748.956	2919.68
749.397	3679.78
749.838	3060.28
750.279	3032.48
750.72	1544.78
751.162	564.58
751.603	323.38
752.044	259.68
752.485	215.58
752.926	217.48
753.367	205.48
753.808	199.78
754.249	195.98
754.69	194.18
755.131	182.18
755.572	189.48
756.013	182.98
756.453	191.18
756.894	188.88
757.335	197.08
757.776	197.28
758.216	203.98
758.657	198.68
759.098	213.38
759.538	228.88
759.979	276.78
760.42	386.58
760.86	728.68
761.301	1907.08
761.741	4565.88
762.182	6627.98
762.622	4648.38
763.063	1357.48
763.503	550.98
763.943	339.28
764.384	281.38
764.824	252.28
765.264	241.28
765.705	216.58
766.145	188.88
766.585	181.48
767.025	174.58
767.465	165.98
767.906	176.98
768.346	202.28
768.786	208.48
769.226	213.68
769.666	320.98
770.106	646.88
770.546	1596.98
770.986	2712.38
771.426	2410.88
771.866	809.58
772.306	335.38
772.745	219.08
773.185	177.98
773.625	159.48
774.065	150.98
774.505	164.08
774.944	213.08
775.384	368.58
775.824	594.68
776.263	589.28
776.703	294.68
777.142	161.88
777.582	135.18
778.021	122.38
778.461	126.78
778.9	126.88
779.34	128.98
779.779	116.98
780.219	115.98
780.658	112.48
781.097	103.58
781.537	111.78
781.976	111.78
782.415	100.48
782.855	100.08
783.294	101.08
783.733	106.78
784.172	110.78
784.611	104.78
785.05	113.08
785.489	119.88
785.928	124.58
786.367	128.78
786.806	122.58
787.245	125.88
787.684	144.08
788.123	148.78
788.562	139.98
789.001	129.88
789.44	125.48
789.879	119.28
790.317	123.18
790.756	129.68
791.195	128.18
791.634	147.68
792.072	209.08
792.511	378.78
792.95	1037.08
793.388	2164.38
793.827	1941.98
794.265	683.78
794.704	286.18
795.142	187.78
795.581	153.88
796.019	135.78
796.458	128.68
796.896	129.78
797.334	135.28
797.773	159.48
798.211	228.78
798.649	460.98
799.087	1059.28
799.526	1632.78
799.964	2071.28
800.402	2055.68
800.84	782.88
801.278	315.28
801.716	195.38
802.154	163.28
802.592	151.58
803.03	145.18
803.468	142.28
803.906	149.08
804.344	151.28
804.782	148.48
805.22	136.98
805.658	138.18
806.096	153.78
806.533	167.88
806.971	179.88
807.409	225.78
807.847	331.48
808.284	690.68
808.722	1929.18
809.16	3363.68
809.597	3249.58
810.035	5600.68
810.472	5926.98
810.91	2161.38
811.347	823.28
811.785	426.08
812.222	260.88
812.66	207.48
813.097	170.08
813.535	146.28
813.972	135.68
814.409	116.48
814.846	112.58
815.284	112.78
815.721	99.08
816.158	112.48
816.595	112.38
817.032	159.78
817.47	184.28
817.907	147.88
818.344	105.68
818.781	98.88
819.218	96.08
819.655	131.38
820.092	193.58
820.529	226.98
820.966	179.18
821.403	136.38
821.839	103.78
822.276	100.08
822.713	122.58
823.15	142.08
823.587	123.98
824.023	153.48
824.46	313.08
824.897	930.28
825.333	1380.48
825.77	595.28
826.206	242.68
826.643	141.58
827.08	107.18
827.516	84.68
827.953	86.18
828.389	84.38
828.825	75.98
829.262	64.18
829.698	67.38
830.135	62.28
830.571	68.38
831.007	72.48
831.443	69.98
831.88	64.28
832.316	63.18
832.752	66.68
833.188	74.88
833.624	70.78
834.06	72.98
834.497	71.68
834.933	75.88
835.369	81.38
835.805	74.38
836.241	84.88
836.677	84.88
837.112	97.98
837.548	106.88
837.984	140.08
838.42	204.28
838.856	514.18
839.292	1572.98
839.727	2358.48
840.163	1090.98
840.599	962.48
841.034	2095.38
841.47	2169.28
841.906	790.78
842.341	335.38
842.777	209.28
843.212	207.78
843.648	191.68
844.083	117.58
844.519	89.38
844.954	74.38
845.39	62.38
845.825	54.88
846.261	60.08
846.696	53.68
847.131	55.08
847.566	58.08
848.002	58.08
848.437	59.88
848.872	64.38
849.307	66.78
849.742	90.98
850.177	187.98
850.613	566.08
851.048	902.08
851.483	397.28
851.918	158.48
852.353	91.68
852.788	56.58
853.223	50.48
853.657	60.68
854.092	54.58
854.527	44.98
854.962	42.08
855.397	48.88
855.832	50.68
856.266	48.58
856.701	44.98
857.136	38.68
857.57	44.38
858.005	53.88
858.44	61.98
858.874	46.28
859.309	55.98
859.743	48.68
860.178	49.98
860.612	41.38
861.047	62.18
861.481	72.38
861.915	74.68
862.35	55.68
862.784	32.38
863.218	46.48
863.653	40.48
864.087	52.58
864.521	58.88
864.955	73.38
865.39	153.48
865.824	180.98
866.258	118.28
866.692	178.18
867.126	186.28
867.56	113.18
867.994	49.38
868.428	42.68
868.862	48.68
869.296	61.08
869.73	64.18
870.164	60.28
870.598	48.18
871.031	37.98
871.465	35.88
871.899	36.68
872.333	27.18
872.766	28.98
873.2	25.98
873.634	29.68
874.067	31.28
874.501	30.08
874.935	39.18
875.368	33.98
875.802	30.58
876.235	23.98
876.669	23.38
877.102	27.88
877.535	26.88
877.969	22.88
878.402	22.38
878.836	18.98
879.269	27.08
879.702	29.58
880.135	18.88
880.569	21.78
881.002	26.78
881.435	25.58
881.868	15.78
882.301	25.88
882.734	14.58
883.167	26.88
883.601	17.68
884.034	28.28
884.467	20.28
884.899	22.68
885.332	23.38
885.765	13.78
886.198	21.58
886.631	16.48
887.064	21.38
887.497	19.58
887.929	28.58
888.362	17.28
888.795	10.88
889.228	21.58
889.66	25.18
890.093	27.08
890.526	19.38
890.958	18.88
891.391	17.28
891.823	24.88
892.256	20.38
892.688	18.88
893.121	18.68
893.553	20.88
893.985	28.38
894.418	21.78
894.85	10.88
895.282	17.68
895.715	22.78
896.147	24.58
896.579	19.08
897.011	14.38
897.444	20.28
897.876	18.58
898.308	14.18
898.74	17.88
899.172	16.28
899.604	27.28
900.036	15.08
900.468	18.28
900.9	14.78
901.332	18.78
901.764	18.88
902.196	19.38
902.628	16.88
903.06	17.88
903.491	32.38
903.923	25.88
904.355	22.68
904.787	28.68
905.218	28.78
905.65	19.38
906.082	14.18
906.513	14.38
906.945	13.78
907.376	16.88
907.808	23.38
908.239	21.78
908.671	24.68
909.102	29.88
909.534	18.58
909.965	55.48
910.397	97.88
910.828	330.08
911.259	489.58
911.691	223.88
912.122	109.18
912.553	54.98
912.984	33.48
913.415	23.48
913.847	23.48
914.278	15.68
914.709	12.28
915.14	18.68
915.571	20.28
916.002	12.38
916.433	19.28
916.864	19.58
917.295	18.18
917.726	18.58
918.157	20.68
918.587	29.08
919.018	24.28
919.449	21.58
919.88	24.48
920.311	33.38
920.741	51.38
921.172	168.48
921.603	160.58
922.033	77.78
922.464	42.78
922.895	24.18
923.325	23.98
923.756	20.98
924.186	15.08
924.617	18.28
925.047	18.48
925.478	22.98
925.908	33.98
926.338	14.18
926.769	18.48
927.199	15.08
927.629	8.48
928.06	18.38
928.49	21.38
928.92	15.68
929.35	10.08
929.78	9.48
930.21	10.98
930.641	7.08
931.071	10.08
931.501	10.08
931.931	8.48
932.361	14.38
932.791	5.98
933.221	4.08
933.651	6.78
934.08	17.18
934.51	34.88
934.94	12.28
935.37	16.78
935.8	14.08
936.229	10.18
936.659	18.48
937.089	5.38
937.519	15.08
937.948	23.68
938.378	24.08
938.807	7.28
939.237	2.98
939.666	8.38
940.096	-0.62
940.525	-0.42
940.955	9.08
941.384	5.18
941.814	-3.52
942.243	-0.62
942.672	-0.72
943.102	0.78
943.531	2.78
943.96	6.88
944.39	5.78
944.819	2.98
945.248	6.98
945.677	5.38
946.106	8.38
946.535	6.68
946.964	-1.52
947.393	0.28
947.822	4.58
948.251	-7.92
948.68	4.68
949.109	7.38
949.538	12.08
949.967	0.08
950.396	4.28
950.825	-0.22
951.254	3.68
951.682	-1.02
952.111	6.68
952.54	8.58
952.969	-2.92
953.397	-4.42
953.826	7.98
954.254	-2.22
954.683	4.78
955.112	-0.02
955.54	3.28
955.969	-0.42
956.397	-0.42
956.826	0.58
957.254	9.48
957.682	11.98
958.111	6.98
958.539	1.98
958.967	4.78
959.396	2.38
959.824	3.98
960.252	-1.02
960.68	-3.62
961.109	2.18
961.537	-5.02
961.965	-2.02
962.393	-0.42
962.821	0.68
963.249	8.08
963.677	2.58
964.105	9.58
964.533	46.88
964.961	38.68
965.389	19.38
965.817	5.48
966.245	3.68
966.672	-2.92
967.1	-3.12
967.528	1.28
967.956	-0.32
968.383	6.28
968.811	9.18
969.239	-0.32
969.666	-0.72
970.094	2.28
970.522	0.98
970.949	-0.52
971.377	-5.02
971.804	2.18
972.232	3.18
972.659	-1.12
973.087	-1.72
973.514	4.88
973.941	-3.92
974.369	3.48
974.796	0.48
975.223	5.98
975.651	0.88
976.078	10.88
976.505	1.08
976.932	-0.12
977.359	16.58
977.786	17.98
978.214	2.58
978.641	1.58
979.068	4.08
979.495	2.48
979.922	-0.92
980.349	1.68
980.776	6.28
981.202	-1.82
981.629	6.28
982.056	6.18
982.483	-1.42
982.91	0.68
983.337	-1.82
983.763	4.88
984.19	-5.22
984.617	-0.12
985.043	3.78
985.47	6.48
985.897	0.48
986.323	-1.32
986.75	8.68
987.176	2.18
987.603	0.18
988.029	2.78
988.456	-4.02
988.882	-0.52
989.308	-3.92
989.735	-7.02
990.161	2.48
990.587	0.48
991.014	3.28
991.44	12.08
991.866	3.58
992.292	0.28
992.719	0.38
993.145	3.78
993.571	-4.82
993.997	-1.62
994.423	0.08
994.849	-2.32
995.275	-0.12
995.701	1.38
996.127	-3.62
996.553	-1.72
996.979	-2.02
997.405	-1.32
997.83	-0.02
998.256	-7.82
998.682	-2.92
999.108	-3.52
999.534	6.88
999.959	-3.52
1000.385	0.68
1000.811	0.98
1001.236	-3.72
1001.662	-4.32
1002.087	-7.82
1002.513	-2.22
1002.938	1.98
1003.364	-1.22
1003.789	-1.02
1004.215	8.28
1004.64	-1.02
1005.066	1.08
1005.491	-2.42
1005.916	-10.42
1006.342	-2.12
1006.767	-5.82
1007.192	10.58
1007.617	-2.72
1008.042	-8.72
1008.468	-7.02
1008.893	-5.92
1009.318	-0.72
1009.743	0.48
1010.168	0.78
1010.593	0.58
1011.018	-3.02
1011.443	-1.32
1011.868	0.88
1012.293	1.18
1012.718	-5.52
1013.143	-3.22
1013.567	3.48
1013.992	0.38
1014.417	-13.72
1014.842	8.08
1015.267	-4.32
1015.691	-1.12
1016.116	2.18
1016.541	-0.62
1016.965	2.08
1017.39	8.68
1017.814	-2.02
1018.239	-1.72
1018.663	-3.92
1019.088	-9.42
1019.512	1.18
1019.937	-0.02
1020.361	-3.72
1020.785	-9.62
1021.21	-3.02
1021.634	-1.02
1022.058	3.58
1022.483	0.58
1022.907	0.28
1023.331	-4.92
1023.755	-2.12
1024.179	4.38
1024.604	-7.82
1025.028	-3.82
1025.452	-3.92
1025.876	2.18
1026.3	2.08
1026.724	-8.12
1027.148	-2.82
1027.572	-6.42
1027.996	2.08
1028.42	-5.92
1028.843	-1.72
1029.267	-2.12
1029.691	5.18
1030.115	-0.22
1030.539	-6.02
1030.962	-2.52
1031.386	-8.92
1031.81	2.68
1032.233	4.28
1032.657	-1.52
1033.08	7.18
1033.504	-8.32
1033.927	-0.52
1034.351	-4.22
1034.774	0.18
1035.198	-4.92
1035.621	-2.92
1036.045	-5.52
1036.468	-1.92
1036.891	-12.02
1037.315	-2.52
1037.738	-9.92
1038.161	-3.52
1038.584	0.58
1039.008	-7.12
1039.431	-2.02
1039.854	0.58
1040.277	-6.32
1040.7	-13.22
1041.123	-0.02
1041.546	-6.42
1041.969	-6.82
1042.392	-5.62
1042.815	-1.02
1043.238	0.68
1043.661	2.98
1044.084	-7.42
1044.507	-7.12
1044.93	-10.62
1045.352	-6.32
1045.775	-2.92
1046.198	-1.22
1046.621	-8.32
1047.043	-2.12
1047.466	8.18
1047.889	-3.42
1048.311	-1.92
1048.734	-1.42
1049.156	-3.12
1049.579	0.08
1050.001	2.68
1050.424	2.78
1050.846	-5.42
1051.269	-3.82
1051.691	-4.82
1052.113	-1.22
1052.536	-0.22
1052.958	-0.42
1053.38	-7.42
1053.802	-9.82
1054.225	-1.12
1054.647	-9.72
1055.069	-4.82
1055.491	-0.42
1055.913	-4.42
1056.335	0.58
1056.757	-4.22
1057.179	-6.12
1057.601	-5.02
1058.023	-2.92
1058.445	1.48
1058.867	-2.42
1059.289	-5.52
1059.711	-4.52
1060.133	-2.22
1060.555	-6.42
1060.976	-5.12
1061.398	-0.72
1061.82	-2.82
1062.241	-0.22
1062.663	-8.22
1063.085	-3.42
1063.506	-0.22
1063.928	-0.82
1064.35	4.58
1064.771	-3.92
1065.193	0.48
1065.614	-5.52
1066.035	5.38
1066.457	-0.82
1066.878	2.28
1067.3	-4.62
1067.721	-2.42
1068.142	-0.62
1068.564	-4.62
1068.985	1.68
1069.406	-4.32
1069.827	0.78
1070.248	0.88
1070.67	4.78
1071.091	-4.52
1071.512	-3.42
1071.933	1.48
1072.354	-4.62
1072.775	-4.22
1073.196	-7.92
1073.617	-4.92
1074.038	-7.32
1074.459	-0.62
1074.88	-5.42
1075.3	3.38
1075.721	-4.82
1076.142	-0.92
1076.563	0.38
1076.983	-5.62
1077.404	-7.02
1077.825	-7.62
1078.246	-0.02
1078.666	-12.72
1079.087	-6.02
1079.507	-2.12
1079.928	4.58
1080.348	1.48
1080.769	-2.42
1081.189	-0.62
1081.61	-4.82
1082.03	-5.22
1082.451	-7.02
1082.871	-3.72
1083.291	-6.82
1083.711	-8.72
1084.132	-5.62
1084.552	-1.42
1084.972	0.18
1085.392	-9.92
1085.813	-8.02
1086.233	-13.02
1086.653	-1.12
1087.073	-3.82
1087.493	-7.42
1087.913	-1.52
1088.333	-3.62
1088.753	-3.62
1089.173	5.18
1089.593	-1.92
1090.013	5.58
1090.433	-0.62
1090.852	-6.72
1091.272	-2.12
1091.692	4.28
1092.112	-1.42
1092.531	-8.62
1092.951	-13.42
1093.371	-1.82
1093.79	0.38
1094.21	-3.72
1094.63	-5.02
1095.049	-7.72
1095.469	5.08
1095.888	-3.72
1096.308	-2.62
1096.727	3.78
1097.146	-4.62
1097.566	5.28
1097.985	-1.02
1098.405	-4.62
1098.824	-3.62
1099.243	-3.22
1099.662	-8.42
1100.082	-7.62
1100.501	-2.92
1100.92	-6.52
1101.339	-6.12
1101.758	-2.92
