Data from 20171114-ORNL-Ar_H_NY_Subt18_08-04-48-741.txt Node
Date: Tue Nov 14 08:04:48 EST 2017
User: Ender
Spectrometer: HR+D1039
Trigger mode: 0
Integration Time (sec): 2.730000E-2
Scans to average: 10
Electric dark correction enabled: true
Nonlinearity correction enabled: false
Boxcar width: 0
XAxis mode: Wavelengths
Number of Pixels in Spectrum: 2048
>>>>>Begin Spectral Data<<<<<
187.836	-0.64
188.309	-0.64
188.782	-0.64
189.255	0.86
189.728	-1.04
190.201	1.36
190.674	0.66
191.147	5.06
191.619	-7.84
192.092	2.86
192.565	2.46
193.038	-6.64
193.511	-1.24
193.984	2.56
194.456	3.66
194.929	1.86
195.402	-0.84
195.874	-3.04
196.347	4.06
196.82	-9.14
197.292	7.36
197.765	-5.84
198.237	-5.94
198.71	5.96
199.182	-0.04
199.655	-2.24
200.127	4.86
200.6	-4.34
201.072	2.56
201.544	-9.34
202.017	-5.54
202.489	2.16
202.961	-0.74
203.433	-5.04
203.906	-8.34
204.378	-3.14
204.85	-3.64
205.322	-8.64
205.794	-1.34
206.266	-2.04
206.739	-6.04
207.211	0.06
207.683	-8.84
208.155	-4.64
208.627	-7.74
209.099	-6.14
209.57	-8.74
210.042	-3.24
210.514	-3.74
210.986	-0.14
211.458	-3.94
211.93	-6.44
212.402	2.16
212.873	-5.84
213.345	-9.84
213.817	-15.54
214.288	-4.14
214.76	-5.14
215.232	-4.74
215.703	-0.14
216.175	-4.14
216.646	-2.84
217.118	-9.24
217.589	-6.24
218.061	-3.14
218.532	-0.54
219.004	0.56
219.475	0.56
219.946	1.26
220.418	-3.34
220.889	0.26
221.36	2.06
221.832	-1.24
222.303	-8.54
222.774	-1.44
223.245	-11.94
223.717	-7.84
224.188	-4.64
224.659	-1.24
225.13	-5.04
225.601	-0.54
226.072	4.56
226.543	-0.44
227.014	3.96
227.485	0.36
227.956	-3.94
228.427	-0.54
228.898	4.26
229.369	6.06
229.839	0.56
230.31	-4.74
230.781	0.06
231.252	1.26
231.722	0.36
232.193	-6.84
232.664	0.26
233.135	1.56
233.605	0.16
234.076	-0.34
234.546	-2.14
235.017	-1.24
235.487	-0.14
235.958	-7.44
236.428	-2.04
236.899	3.66
237.369	4.06
237.84	1.86
238.31	6.06
238.78	4.26
239.251	2.46
239.721	11.96
240.191	6.56
240.662	3.16
241.132	2.56
241.602	0.36
242.072	0.96
242.542	9.26
243.013	3.16
243.483	3.86
243.953	3.46
244.423	1.36
244.893	-1.04
245.363	9.66
245.833	6.06
246.303	3.26
246.773	8.76
247.243	6.06
247.712	8.36
248.182	17.16
248.652	7.96
249.122	-0.94
249.592	15.36
250.061	19.16
250.531	36.46
251.001	17.26
251.471	20.26
251.94	25.16
252.41	9.46
252.879	2.86
253.349	16.06
253.818	8.66
254.288	10.66
254.757	9.36
255.227	7.06
255.696	2.76
256.166	9.86
256.635	8.26
257.105	8.46
257.574	6.36
258.043	8.36
258.513	9.96
258.982	20.76
259.451	4.76
259.92	14.86
260.389	12.36
260.859	20.56
261.328	18.66
261.797	24.76
262.266	14.06
262.735	16.46
263.204	13.16
263.673	5.56
264.142	7.36
264.611	1.96
265.08	4.86
265.549	3.66
266.018	7.96
266.487	0.36
266.955	-1.04
267.424	5.66
267.893	10.26
268.362	8.56
268.83	4.06
269.299	15.76
269.768	13.66
270.236	10.86
270.705	2.36
271.174	4.96
271.642	3.26
272.111	8.96
272.579	17.86
273.048	22.46
273.516	32.26
273.985	24.66
274.453	26.66
274.922	18.86
275.39	17.16
275.858	10.16
276.327	12.46
276.795	21.06
277.263	19.56
277.731	34.86
278.2	63.66
278.668	60.66
279.136	52.96
279.604	20.56
280.072	20.36
280.54	14.36
281.008	11.36
281.477	13.26
281.945	14.66
282.413	17.76
282.881	22.86
283.348	11.56
283.816	19.76
284.284	17.96
284.752	26.96
285.22	14.06
285.688	15.26
286.156	22.36
286.623	46.66
287.091	49.96
287.559	32.66
288.026	19.46
288.494	21.06
288.962	12.16
289.429	13.86
289.897	21.16
290.364	14.46
290.832	21.06
291.3	14.66
291.767	23.86
292.234	20.06
292.702	17.66
293.169	25.86
293.637	20.06
294.104	21.96
294.571	9.76
295.039	14.66
295.506	15.96
295.973	19.66
296.44	17.56
296.908	23.46
297.375	23.16
297.842	27.46
298.309	16.16
298.776	12.16
299.243	19.56
299.71	22.56
300.177	25.76
300.644	26.96
301.111	23.76
301.578	25.36
302.045	19.16
302.512	30.36
302.979	27.46
303.446	23.46
303.913	25.86
304.379	18.86
304.846	32.26
305.313	27.76
305.78	24.36
306.246	31.16
306.713	27.56
307.18	34.36
307.646	34.16
308.113	27.76
308.579	26.96
309.046	32.46
309.512	32.16
309.979	27.16
310.445	31.36
310.912	34.06
311.378	36.86
311.845	27.56
312.311	28.16
312.777	31.76
313.244	31.56
313.71	40.86
314.176	37.76
314.642	39.56
315.109	39.56
315.575	39.76
316.041	42.16
316.507	34.46
316.973	45.36
317.439	36.16
317.905	33.46
318.371	36.16
318.837	34.06
319.303	34.56
319.769	35.66
320.235	31.36
320.701	38.76
321.167	43.26
321.633	35.26
322.099	40.66
322.564	44.96
323.03	40.06
323.496	45.26
323.962	40.46
324.427	38.96
324.893	46.56
325.359	41.86
325.824	45.16
326.29	36.86
326.755	44.96
327.221	43.26
327.686	40.96
328.152	52.16
328.617	47.46
329.083	49.26
329.548	49.66
330.014	53.86
330.479	46.56
330.944	49.66
331.41	44.86
331.875	40.76
332.34	42.06
332.805	39.46
333.271	48.76
333.736	51.26
334.201	55.36
334.666	54.36
335.131	58.86
335.596	49.06
336.061	54.26
336.526	48.86
336.991	53.46
337.456	57.76
337.921	55.66
338.386	53.86
338.851	52.66
339.316	42.56
339.781	53.06
340.246	50.36
340.711	55.16
341.175	49.26
341.64	42.36
342.105	53.86
342.569	57.06
343.034	61.06
343.499	58.96
343.963	53.86
344.428	68.56
344.893	61.16
345.357	62.46
345.822	66.66
346.286	68.76
346.751	73.76
347.215	68.56
347.679	73.16
348.144	107.46
348.608	84.76
349.073	71.66
349.537	71.06
350.001	75.36
350.465	90.66
350.93	82.96
351.394	80.86
351.858	78.26
352.322	92.06
352.786	84.06
353.25	101.56
353.715	118.86
354.179	103.26
354.643	124.16
355.107	120.06
355.571	105.06
356.035	96.66
356.498	112.66
356.962	127.86
357.426	129.26
357.89	117.56
358.354	90.86
358.818	77.96
359.281	79.26
359.745	77.56
360.209	77.36
360.673	76.86
361.136	79.16
361.6	88.96
362.064	85.06
362.527	79.96
362.991	92.46
363.454	83.26
363.918	81.76
364.381	82.16
364.845	84.16
365.308	88.36
365.772	92.76
366.235	87.36
366.698	80.46
367.162	83.76
367.625	86.46
368.088	94.76
368.552	89.56
369.015	80.36
369.478	96.56
369.941	102.86
370.404	94.46
370.867	101.46
371.331	107.06
371.794	118.06
372.257	115.36
372.72	108.06
373.183	109.66
373.646	100.66
374.109	101.06
374.572	103.46
375.035	104.16
375.497	105.46
375.96	104.56
376.423	104.36
376.886	112.96
377.349	109.66
377.811	103.66
378.274	105.16
378.737	102.86
379.199	114.66
379.662	110.96
380.125	110.86
380.587	111.76
381.05	117.86
381.512	121.66
381.975	129.06
382.437	128.76
382.9	121.66
383.362	125.16
383.825	131.36
384.287	137.46
384.75	146.06
385.212	134.36
385.674	129.06
386.136	135.76
386.599	125.26
387.061	131.46
387.523	126.66
387.985	128.06
388.447	140.46
388.91	142.36
389.372	155.46
389.834	149.36
390.296	141.56
390.758	146.56
391.22	158.56
391.682	204.16
392.144	283.46
392.606	221.86
393.068	168.06
393.529	161.46
393.991	148.56
394.453	141.46
394.915	161.26
395.377	187.06
395.838	202.56
396.3	155.86
396.762	138.16
397.224	124.06
397.685	124.56
398.147	121.16
398.608	124.26
399.07	118.46
399.531	129.46
399.993	138.36
400.454	143.96
400.916	144.76
401.377	145.16
401.839	154.26
402.3	147.06
402.762	162.66
403.223	178.26
403.684	168.06
404.145	157.16
404.607	157.66
405.068	159.06
405.529	164.36
405.99	185.96
406.451	173.86
406.913	169.76
407.374	156.66
407.835	153.86
408.296	157.46
408.757	167.36
409.218	180.06
409.679	172.56
410.14	168.16
410.601	167.36
411.062	176.56
411.522	180.76
411.983	179.86
412.444	172.26
412.905	171.76
413.366	174.66
413.826	190.16
414.287	209.76
414.748	253.26
415.208	235.36
415.669	206.96
416.13	193.46
416.59	194.96
417.051	204.76
417.511	206.36
417.972	230.16
418.432	240.46
418.893	274.26
419.353	239.96
419.814	195.96
420.274	179.26
420.734	174.66
421.195	196.86
421.655	193.76
422.115	186.86
422.576	180.86
423.036	192.06
423.496	198.56
423.956	211.26
424.416	211.76
424.876	257.06
425.336	251.96
425.797	253.16
426.257	242.96
426.717	227.06
427.177	220.16
427.637	219.76
428.097	229.76
428.556	240.56
429.016	251.26
429.476	248.66
429.936	261.86
430.396	263.36
430.856	281.16
431.315	298.66
431.775	332.76
432.235	359.36
432.694	334.86
433.154	347.06
433.614	375.86
434.073	318.56
434.533	275.96
434.993	259.66
435.452	267.86
435.912	286.76
436.371	277.86
436.83	272.56
437.29	253.76
437.749	235.36
438.209	229.36
438.668	264.26
439.127	272.76
439.587	258.66
440.046	236.06
440.505	245.56
440.964	264.36
441.424	313.86
441.883	295.16
442.342	253.26
442.801	218.66
443.26	211.06
443.719	214.86
444.178	208.56
444.637	200.46
445.096	214.36
445.555	215.36
446.014	213.06
446.473	217.66
446.932	217.86
447.391	217.66
447.849	219.56
448.308	207.86
448.767	212.66
449.226	228.46
449.685	223.56
450.143	239.76
450.602	224.86
451.061	219.36
451.519	221.56
451.978	226.66
452.436	223.26
452.895	233.06
453.353	240.26
453.812	229.06
454.27	228.76
454.729	223.46
455.187	230.46
455.646	234.56
456.104	234.66
456.562	241.06
457.021	253.76
457.479	248.36
457.937	262.06
458.395	252.96
458.854	230.06
459.312	239.96
459.77	263.86
460.228	240.76
460.686	232.06
461.144	236.76
461.602	230.86
462.06	234.36
462.518	240.16
462.976	243.36
463.434	244.16
463.892	248.66
464.35	265.86
464.808	275.46
465.266	256.06
465.724	261.06
466.181	260.76
466.639	252.26
467.097	272.76
467.555	293.36
468.012	294.46
468.47	300.66
468.928	322.26
469.385	325.66
469.843	334.16
470.3	324.16
470.758	343.36
471.215	362.96
471.673	386.96
472.13	383.96
472.588	399.56
473.045	349.06
473.503	359.76
473.96	367.56
474.417	377.56
474.875	409.76
475.332	449.56
475.789	436.96
476.246	447.16
476.704	460.06
477.161	482.16
477.618	501.96
478.075	530.86
478.532	583.86
478.989	656.26
479.446	761.46
479.903	735.86
480.36	769.66
480.817	814.16
481.274	928.66
481.731	1026.26
482.188	1125.26
482.645	1240.26
483.102	1339.76
483.558	1480.76
484.015	1529.16
484.472	1511.96
484.929	1468.26
485.385	1404.66
485.842	1365.76
486.299	1311.96
486.755	1242.66
487.212	1050.66
487.668	882.26
488.125	821.26
488.582	754.16
489.038	711.36
489.494	684.36
489.951	654.06
490.407	632.86
490.864	622.16
491.32	615.06
491.776	610.36
492.233	617.16
492.689	586.36
493.145	572.16
493.602	571.16
494.058	582.46
494.514	584.16
494.97	600.76
495.426	616.76
495.882	596.56
496.338	585.26
496.794	597.66
497.251	593.36
497.707	606.16
498.163	608.66
498.618	603.76
499.074	621.86
499.53	637.96
499.986	646.36
500.442	621.16
500.898	596.06
501.354	585.56
501.809	611.56
502.265	604.66
502.721	625.06
503.177	632.36
503.632	630.96
504.088	646.36
504.543	678.96
504.999	677.06
505.455	629.06
505.91	600.76
506.366	592.76
506.821	586.16
507.277	589.66
507.732	591.76
508.187	595.46
508.643	593.26
509.098	594.66
509.553	621.46
510.009	631.36
510.464	628.86
510.919	652.06
511.375	660.36
511.83	659.26
512.285	686.96
512.74	711.76
513.195	750.76
513.65	733.36
514.105	730.06
514.56	738.16
515.015	745.26
515.47	766.86
515.925	747.56
516.38	747.96
516.835	753.96
517.29	738.66
517.745	735.36
518.2	724.66
518.655	709.16
519.109	705.36
519.564	711.26
520.019	687.96
520.474	692.46
520.928	685.16
521.383	686.36
521.838	672.86
522.292	664.26
522.747	671.46
523.201	664.36
523.656	658.06
524.11	650.36
524.565	654.56
525.019	645.06
525.474	661.86
525.928	657.66
526.382	654.96
526.837	656.16
527.291	661.56
527.745	665.46
528.2	665.16
528.654	651.56
529.108	646.66
529.562	652.16
530.016	658.06
530.47	647.46
530.925	651.26
531.379	652.26
531.833	674.76
532.287	664.26
532.741	657.46
533.195	666.66
533.649	668.36
534.103	685.16
534.556	678.76
535.01	674.66
535.464	663.86
535.918	679.66
536.372	683.86
536.826	678.56
537.279	669.06
537.733	677.16
538.187	686.66
538.64	666.36
539.094	682.16
539.548	686.06
540.001	685.26
540.455	679.66
540.908	686.26
541.362	684.86
541.815	693.56
542.269	714.86
542.722	711.06
543.175	725.06
543.629	720.96
544.082	737.66
544.536	737.36
544.989	727.86
545.442	739.46
545.895	739.26
546.349	738.86
546.802	743.36
547.255	750.16
547.708	759.46
548.161	756.36
548.614	758.16
549.067	774.06
549.52	771.86
549.973	757.86
550.426	752.96
550.879	741.16
551.332	750.76
551.785	752.46
552.238	748.36
552.691	769.86
553.144	774.56
553.596	778.66
554.049	805.96
554.502	825.56
554.955	854.26
555.407	850.96
555.86	839.46
556.313	834.86
556.765	831.56
557.218	812.06
557.67	820.56
558.123	817.86
558.576	812.76
559.028	811.36
559.48	817.46
559.933	807.36
560.385	778.46
560.838	756.66
561.29	725.16
561.742	721.66
562.195	711.26
562.647	709.76
563.099	720.16
563.551	710.46
564.004	727.46
564.456	710.86
564.908	713.96
565.36	684.96
565.812	680.36
566.264	674.36
566.716	668.56
567.168	656.96
567.62	667.76
568.072	643.56
568.524	634.86
568.976	634.66
569.428	618.96
569.88	616.46
570.332	625.06
570.784	628.76
571.235	615.16
571.687	636.46
572.139	649.46
572.59	662.36
573.042	651.06
573.494	659.06
573.945	652.66
574.397	624.36
574.849	636.86
575.3	638.06
575.752	625.16
576.203	627.36
576.655	625.56
577.106	616.36
577.557	607.46
578.009	605.06
578.46	612.16
578.912	603.36
579.363	607.26
579.814	626.66
580.265	613.36
580.717	609.16
581.168	615.56
581.619	625.56
582.07	624.86
582.521	605.26
582.972	611.36
583.423	625.26
583.875	623.96
584.326	645.36
584.777	684.06
585.227	757.56
585.678	837.36
586.129	918.36
586.58	987.46
587.031	1066.66
587.482	1215.96
587.933	1397.36
588.384	1220.16
588.834	906.66
589.285	734.56
589.736	714.06
590.186	708.36
590.637	697.46
591.088	667.66
591.538	675.66
591.989	666.96
592.439	654.76
592.89	650.46
593.34	645.56
593.791	641.76
594.241	638.86
594.692	644.26
595.142	634.96
595.593	633.76
596.043	647.46
596.493	645.86
596.943	648.16
597.394	653.06
597.844	635.56
598.294	659.46
598.744	685.76
599.195	689.16
599.645	726.76
600.095	771.66
600.545	835.36
600.995	873.36
601.445	929.06
601.895	976.36
602.345	1027.86
602.795	1010.26
603.245	975.46
603.695	908.56
604.145	867.36
604.594	822.06
605.044	776.66
605.494	710.96
605.944	690.76
606.393	675.56
606.843	661.86
607.293	649.96
607.743	658.76
608.192	671.86
608.642	680.36
609.091	689.76
609.541	689.36
609.99	683.36
610.44	688.46
610.889	648.96
611.339	634.16
611.788	614.26
612.238	631.76
612.687	652.16
613.136	651.76
613.586	654.16
614.035	659.96
614.484	678.86
614.933	682.56
615.383	671.96
615.832	668.56
616.281	648.46
616.73	612.86
617.179	597.36
617.628	578.16
618.077	567.66
618.526	559.66
618.975	550.76
619.424	547.66
619.873	552.16
620.322	558.16
620.771	538.16
621.22	537.36
621.669	527.86
622.118	527.06
622.567	512.66
623.015	502.76
623.464	509.96
623.913	500.46
624.361	490.66
624.81	497.66
625.259	494.16
625.707	491.66
626.156	490.16
626.604	505.36
627.053	500.26
627.501	488.36
627.95	512.06
628.398	516.16
628.847	505.26
629.295	512.56
629.744	512.46
630.192	503.56
630.64	503.96
631.089	499.06
631.537	515.06
631.985	523.16
632.433	528.06
632.881	547.86
633.33	578.36
633.778	563.96
634.226	501.46
634.674	501.36
635.122	515.96
635.57	537.76
636.018	553.06
636.466	521.56
636.914	488.46
637.362	504.86
637.81	510.36
638.258	518.36
638.705	514.96
639.153	543.66
639.601	543.66
640.049	570.46
640.497	595.86
640.944	615.66
641.392	563.76
641.84	540.36
642.287	512.26
642.735	504.46
643.182	508.36
643.63	511.36
644.078	498.06
644.525	521.66
644.973	530.86
645.42	525.66
645.867	552.96
646.315	563.46
646.762	591.46
647.21	609.36
647.657	634.86
648.104	660.26
648.551	680.46
648.999	732.46
649.446	797.46
649.893	881.56
650.34	1015.26
650.787	1215.26
651.234	1518.56
651.682	1964.56
652.129	2678.56
652.576	3854.96
653.023	5704.76
653.47	7888.06
653.917	9999.06
654.363	11636.66
654.81	13030.26
655.257	12433.56
655.704	8061.66
656.151	4743.36
656.598	3055.06
657.044	2177.56
657.491	1652.16
657.938	1320.56
658.385	1098.86
658.831	956.56
659.278	856.96
659.724	755.06
660.171	696.86
660.618	642.46
661.064	606.96
661.511	573.16
661.957	575.26
662.404	560.96
662.85	569.66
663.296	539.36
663.743	495.16
664.189	472.86
664.635	468.96
665.082	457.26
665.528	466.76
665.974	455.46
666.42	449.16
666.867	448.46
667.313	427.46
667.759	418.16
668.205	415.76
668.651	430.26
669.097	422.06
669.543	440.76
669.989	412.16
670.435	394.36
670.881	392.76
671.327	396.46
671.773	401.66
672.219	432.26
672.665	463.76
673.11	497.96
673.556	552.66
674.002	581.76
674.448	575.16
674.893	479.16
675.339	413.46
675.785	383.66
676.23	370.46
676.676	338.26
677.122	324.56
677.567	318.36
678.013	315.36
678.458	308.86
678.904	315.46
679.349	294.76
679.794	306.76
680.24	308.46
680.685	307.36
681.131	300.36
681.576	304.56
682.021	306.26
682.466	306.26
682.912	299.96
683.357	308.66
683.802	329.76
684.247	353.36
684.692	391.96
685.137	435.16
685.583	466.76
686.028	486.86
686.473	446.56
686.918	384.66
687.363	365.36
687.807	346.66
688.252	314.86
688.697	311.46
689.142	292.06
689.587	285.56
690.032	281.26
690.477	294.16
690.921	302.06
691.366	330.06
691.811	345.66
692.255	371.66
692.7	402.06
693.145	431.86
693.589	585.86
694.034	947.06
694.478	1309.56
694.923	1522.06
695.367	2000.76
695.812	1039.86
696.256	429.26
696.701	320.26
697.145	292.56
697.59	286.46
698.034	277.26
698.478	290.16
698.922	284.96
699.367	287.16
699.811	288.26
700.255	307.16
700.699	326.36
701.143	367.56
701.588	414.06
702.032	444.96
702.476	445.96
702.92	424.86
703.364	419.86
703.808	542.76
704.252	872.16
704.696	1241.66
705.14	1457.66
705.584	1871.66
706.027	923.86
706.471	450.66
706.915	344.86
707.359	302.06
707.803	265.66
708.246	259.76
708.69	269.46
709.134	269.86
709.577	268.76
710.021	276.86
710.465	268.86
710.908	259.06
711.352	260.96
711.795	264.96
712.239	298.16
712.682	327.76
713.126	362.16
713.569	405.56
714.012	321.46
714.456	278.66
714.899	260.46
715.342	239.86
715.786	223.16
716.229	228.76
716.672	221.46
717.115	213.66
717.558	214.76
718.002	219.46
718.445	220.36
718.888	241.26
719.331	247.86
719.774	269.96
720.217	264.76
720.66	242.46
721.103	227.06
721.546	216.16
721.989	214.66
722.432	198.16
722.874	204.76
723.317	194.76
723.76	203.96
724.203	219.06
724.645	264.56
725.088	372.16
725.531	484.66
725.974	562.56
726.416	476.46
726.859	270.16
727.301	209.76
727.744	201.46
728.187	198.06
728.629	206.16
729.071	206.06
729.514	220.16
729.956	234.66
730.399	243.66
730.841	247.56
731.283	234.46
731.726	229.16
732.168	222.56
732.61	222.26
733.053	250.76
733.495	268.56
733.937	295.66
734.379	336.06
734.821	372.36
735.263	455.46
735.705	683.26
736.148	1303.66
736.59	2189.56
737.032	2689.26
737.474	2180.46
737.916	693.86
738.357	362.76
738.799	289.06
739.241	254.86
739.683	242.86
740.125	251.76
740.567	250.36
741.008	275.36
741.45	278.16
741.892	263.26
742.334	295.26
742.775	301.66
743.217	291.06
743.658	233.46
744.1	215.56
744.542	220.06
744.983	268.26
745.425	293.56
745.866	307.96
746.307	253.66
746.749	243.76
747.19	273.06
747.632	373.86
748.073	719.56
748.514	1554.86
748.956	2452.56
749.397	3044.66
749.838	2543.66
750.279	2605.46
750.72	1300.56
751.162	464.86
751.603	276.56
752.044	210.96
752.485	179.26
752.926	180.66
753.367	168.86
753.808	167.36
754.249	160.56
754.69	159.66
755.131	161.36
755.572	161.26
756.013	157.86
756.453	155.66
756.894	164.16
757.335	159.36
757.776	169.16
758.216	164.66
758.657	172.26
759.098	181.46
759.538	190.56
759.979	222.16
760.42	308.56
760.86	583.76
761.301	1495.36
761.741	3722.96
762.182	5679.36
762.622	3993.76
763.063	1143.46
763.503	465.86
763.943	300.76
764.384	294.26
764.824	348.06
765.264	387.36
765.705	262.06
766.145	177.36
766.585	153.36
767.025	150.76
767.465	162.56
767.906	205.16
768.346	278.06
768.786	302.46
769.226	218.86
769.666	269.56
770.106	511.16
770.546	1293.26
770.986	2298.06
771.426	2077.36
771.866	681.36
772.306	281.36
772.745	181.56
773.185	149.16
773.625	150.26
774.065	145.76
774.505	171.66
774.944	260.36
775.384	576.96
775.824	1081.06
776.263	1069.06
776.703	449.46
777.142	195.06
777.582	137.66
778.021	120.16
778.461	121.36
778.9	115.86
779.34	123.26
779.779	100.06
780.219	94.96
780.658	86.46
781.097	89.76
781.537	96.16
781.976	94.36
782.415	93.16
782.855	86.56
783.294	87.96
783.733	88.86
784.172	96.26
784.611	88.66
785.05	92.16
785.489	95.66
785.928	99.36
786.367	103.36
786.806	101.56
787.245	114.26
787.684	121.96
788.123	131.66
788.562	118.26
789.001	114.86
789.44	108.76
789.879	101.46
790.317	105.16
790.756	107.96
791.195	111.16
791.634	121.36
792.072	171.56
792.511	305.36
792.95	828.06
793.388	1844.66
793.827	1729.46
794.265	588.56
794.704	248.76
795.142	161.26
795.581	132.16
796.019	118.46
796.458	107.36
796.896	100.66
797.334	108.06
797.773	126.76
798.211	190.46
798.649	361.36
799.087	866.66
799.526	1351.76
799.964	1711.06
800.402	1771.76
800.84	658.36
801.278	260.96
801.716	160.16
802.154	132.46
802.592	126.46
803.03	119.36
803.468	110.06
803.906	124.66
804.344	130.16
804.782	123.76
805.22	114.76
805.658	114.16
806.096	125.76
806.533	130.96
806.971	149.56
807.409	187.56
807.847	266.16
808.284	544.36
808.722	1534.96
809.16	2832.36
809.597	2640.26
810.035	4659.76
810.472	5136.06
810.91	1838.56
811.347	678.16
811.785	342.06
812.222	221.06
812.66	167.76
813.097	138.56
813.535	124.86
813.972	107.06
814.409	102.96
814.846	89.76
815.284	87.86
815.721	87.56
816.158	94.46
816.595	99.16
817.032	157.76
817.47	176.96
817.907	137.06
818.344	124.06
818.781	100.16
819.218	82.16
819.655	103.26
820.092	159.46
820.529	194.16
820.966	160.76
821.403	117.56
821.839	95.16
822.276	86.06
822.713	105.86
823.15	124.46
823.587	97.96
824.023	120.76
824.46	240.76
824.897	745.76
825.333	1183.36
825.77	502.66
826.206	195.66
826.643	113.66
827.08	87.86
827.516	68.96
827.953	60.46
828.389	71.96
828.825	59.56
829.262	60.26
829.698	54.36
830.135	60.26
830.571	58.96
831.007	55.96
831.443	51.86
831.88	53.56
832.316	52.96
832.752	55.46
833.188	54.86
833.624	50.76
834.06	52.26
834.497	59.76
834.933	59.76
835.369	64.66
835.805	56.66
836.241	60.36
836.677	69.76
837.112	77.16
837.548	87.86
837.984	116.26
838.42	167.06
838.856	401.86
839.292	1269.66
839.727	2026.66
840.163	932.56
840.599	779.76
841.034	1728.66
841.47	1886.86
841.906	678.16
842.341	291.36
842.777	203.36
843.212	279.16
843.648	286.26
844.083	130.46
844.519	94.86
844.954	70.66
845.39	52.06
845.825	50.76
846.261	53.66
846.696	47.96
847.131	46.86
847.566	48.86
848.002	47.26
848.437	45.56
848.872	49.06
849.307	50.76
849.742	76.46
850.177	153.46
850.613	471.06
851.048	761.96
851.483	331.86
851.918	129.66
852.353	72.76
852.788	50.46
853.223	50.16
853.657	41.56
854.092	41.86
854.527	38.66
854.962	37.66
855.397	40.66
855.832	42.46
856.266	34.86
856.701	30.26
857.136	30.26
857.57	34.86
858.005	44.46
858.44	50.06
858.874	36.36
859.309	49.56
859.743	33.96
860.178	45.06
860.612	32.16
861.047	40.46
861.481	58.86
861.915	60.06
862.35	46.16
862.784	26.36
863.218	34.16
863.653	32.46
864.087	42.26
864.521	53.56
864.955	64.56
865.39	130.36
865.824	151.86
866.258	93.56
866.692	134.06
867.126	154.86
867.56	92.06
867.994	50.26
868.428	34.96
868.862	46.06
869.296	43.86
869.73	49.96
870.164	46.46
870.598	38.66
871.031	32.66
871.465	25.86
871.899	26.26
872.333	22.66
872.766	28.16
873.2	19.76
873.634	29.96
874.067	20.36
874.501	22.16
874.935	25.06
875.368	29.66
875.802	20.96
876.235	20.26
876.669	22.66
877.102	19.46
877.535	18.76
877.969	18.36
878.402	20.36
878.836	17.36
879.269	20.76
879.702	20.26
880.135	14.96
880.569	16.36
881.002	22.76
881.435	23.06
881.868	21.26
882.301	19.66
882.734	16.16
883.167	22.36
883.601	15.86
884.034	18.16
884.467	6.26
884.899	20.96
885.332	19.36
885.765	13.86
886.198	11.86
886.631	16.46
887.064	18.86
887.497	21.06
887.929	26.16
888.362	13.46
888.795	9.26
889.228	18.66
889.66	19.36
890.093	7.76
890.526	19.66
890.958	11.56
891.391	15.06
891.823	24.86
892.256	17.96
892.688	8.06
893.121	16.66
893.553	16.16
893.985	20.06
894.418	19.46
894.85	13.26
895.282	20.16
895.715	13.26
896.147	17.46
896.579	16.56
897.011	16.66
897.444	14.46
897.876	14.96
898.308	14.96
898.74	14.66
899.172	11.66
899.604	24.46
900.036	22.16
900.468	13.76
900.9	8.86
901.332	13.86
901.764	9.46
902.196	15.66
902.628	11.46
903.06	16.96
903.491	33.16
903.923	17.76
904.355	19.06
904.787	24.66
905.218	21.16
905.65	15.66
906.082	9.26
906.513	13.66
906.945	13.66
907.376	11.16
907.808	21.16
908.239	21.56
908.671	22.16
909.102	27.06
909.534	24.86
909.965	42.26
910.397	77.66
910.828	259.66
911.259	414.86
911.691	188.86
912.122	87.56
912.553	38.96
912.984	34.06
913.415	25.26
913.847	20.16
914.278	11.86
914.709	15.76
915.14	16.26
915.571	22.16
916.002	11.96
916.433	19.16
916.864	13.06
917.295	16.26
917.726	20.16
918.157	14.96
918.587	18.16
919.018	21.96
919.449	20.16
919.88	22.56
920.311	22.86
920.741	42.36
921.172	153.86
921.603	129.56
922.033	60.36
922.464	43.96
922.895	16.36
923.325	18.16
923.756	16.46
924.186	16.16
924.617	24.26
925.047	39.36
925.478	47.46
925.908	42.06
926.338	22.96
926.769	16.76
927.199	12.96
927.629	10.36
928.06	12.96
928.49	14.76
928.92	8.46
929.35	9.86
929.78	4.96
930.21	5.96
930.641	8.06
931.071	5.56
931.501	7.56
931.931	7.26
932.361	11.96
932.791	4.06
933.221	7.56
933.651	6.96
934.08	19.56
934.51	25.76
934.94	10.16
935.37	6.46
935.8	11.76
936.229	13.76
936.659	9.46
937.089	0.86
937.519	9.16
937.948	19.26
938.378	15.26
938.807	7.86
939.237	1.26
939.666	8.26
940.096	-7.04
940.525	3.36
940.955	2.56
941.384	4.06
941.814	-6.04
942.243	-4.64
942.672	-2.34
943.102	0.86
943.531	-2.54
943.96	2.46
944.39	5.86
944.819	1.26
945.248	7.06
945.677	0.66
946.106	3.76
946.535	4.86
946.964	-2.04
947.393	0.56
947.822	2.96
948.251	-1.74
948.68	6.96
949.109	3.76
949.538	5.36
949.967	2.36
950.396	-0.14
950.825	-0.24
951.254	1.56
951.682	-5.24
952.111	8.16
952.54	5.56
952.969	-0.74
953.397	-4.64
953.826	-2.74
954.254	-1.74
954.683	3.06
955.112	1.66
955.54	5.56
955.969	4.76
956.397	6.86
956.826	-2.64
957.254	10.16
957.682	-0.84
958.111	6.06
958.539	2.26
958.967	2.46
959.396	-6.94
959.824	-2.24
960.252	-0.84
960.68	-10.54
961.109	3.96
961.537	2.26
961.965	-3.24
962.393	5.46
962.821	-5.94
963.249	-4.04
963.677	5.96
964.105	8.26
964.533	38.06
964.961	37.36
965.389	23.86
965.817	3.46
966.245	6.06
966.672	-1.34
967.1	-6.44
967.528	0.06
967.956	-0.34
968.383	-2.94
968.811	-3.94
969.239	-0.64
969.666	-4.64
970.094	4.36
970.522	-2.04
970.949	-1.44
971.377	-5.84
971.804	-1.14
972.232	-2.44
972.659	-2.04
973.087	-6.74
973.514	0.36
973.941	0.86
974.369	2.76
974.796	0.36
975.223	0.76
975.651	0.96
976.078	1.16
976.505	-2.74
976.932	5.06
977.359	16.56
977.786	14.36
978.214	-0.54
978.641	-6.64
979.068	-0.54
979.495	-2.74
979.922	3.06
980.349	-2.74
980.776	1.96
981.202	0.86
981.629	3.36
982.056	-0.14
982.483	0.96
982.91	5.06
983.337	-4.14
983.763	0.36
984.19	-1.64
984.617	-4.84
985.043	-6.64
985.47	-1.44
985.897	-0.64
986.323	4.86
986.75	4.66
987.176	-0.64
987.603	0.76
988.029	0.56
988.456	-4.04
988.882	2.76
989.308	-0.84
989.735	-5.74
990.161	-1.14
990.587	-4.44
991.014	2.36
991.44	9.36
991.866	-1.24
992.292	-5.04
992.719	0.16
993.145	4.96
993.571	-4.34
993.997	-1.74
994.423	-2.54
994.849	-6.24
995.275	0.96
995.701	1.16
996.127	-3.54
996.553	1.86
996.979	-0.04
997.405	-5.74
997.83	-2.44
998.256	-0.24
998.682	-2.54
999.108	-2.54
999.534	-3.84
999.959	3.16
1000.385	-3.14
1000.811	2.16
1001.236	-10.44
1001.662	-8.44
1002.087	-12.04
1002.513	0.66
1002.938	2.16
1003.364	-3.14
1003.789	-0.64
1004.215	5.16
1004.64	-0.94
1005.066	0.86
1005.491	2.26
1005.916	-0.44
1006.342	-3.74
1006.767	-7.64
1007.192	7.46
1007.617	-0.94
1008.042	-3.74
1008.468	-6.74
1008.893	0.56
1009.318	2.06
1009.743	0.46
1010.168	5.76
1010.593	2.56
1011.018	-5.64
1011.443	-5.34
1011.868	-0.24
1012.293	-1.04
1012.718	-1.44
1013.143	1.36
1013.567	-1.74
1013.992	-9.14
1014.417	-10.04
1014.842	2.86
1015.267	2.46
1015.691	-7.34
1016.116	2.06
1016.541	0.96
1016.965	2.56
1017.39	0.86
1017.814	4.56
1018.239	0.66
1018.663	-7.24
1019.088	-8.34
1019.512	-0.54
1019.937	-1.14
1020.361	-2.64
1020.785	-10.14
1021.21	-3.84
1021.634	1.36
1022.058	-3.64
1022.483	2.26
1022.907	-6.74
1023.331	-7.54
1023.755	-3.74
1024.179	-6.24
1024.604	-5.94
1025.028	-9.04
1025.452	-1.84
1025.876	0.76
1026.3	-1.14
1026.724	-11.04
1027.148	-4.84
1027.572	-7.94
1027.996	-8.04
1028.42	-0.64
1028.843	-2.14
1029.267	-2.34
1029.691	0.96
1030.115	-8.54
1030.539	-5.64
1030.962	-2.94
1031.386	-7.44
1031.81	-3.14
1032.233	4.46
1032.657	2.56
1033.08	1.86
1033.504	-2.54
1033.927	-3.64
1034.351	-1.14
1034.774	-2.64
1035.198	-0.04
1035.621	-3.44
1036.045	-5.04
1036.468	4.16
1036.891	-5.34
1037.315	-10.94
1037.738	0.06
1038.161	-0.24
1038.584	-5.14
1039.008	-5.04
1039.431	-5.14
1039.854	-2.04
1040.277	-3.44
1040.7	-11.94
1041.123	-1.84
1041.546	-3.14
1041.969	-0.34
1042.392	-2.84
1042.815	-4.44
1043.238	1.36
1043.661	0.36
1044.084	-3.34
1044.507	-6.34
1044.93	-8.44
1045.352	-6.74
1045.775	4.66
1046.198	0.76
1046.621	-2.44
1047.043	-1.34
1047.466	7.66
1047.889	-3.54
1048.311	-3.94
1048.734	-7.44
1049.156	0.06
1049.579	-3.04
1050.001	-4.04
1050.424	-1.34
1050.846	-4.84
1051.269	-1.14
1051.691	-8.54
1052.113	-5.24
1052.536	3.36
1052.958	4.26
1053.38	-3.74
1053.802	-11.64
1054.225	2.06
1054.647	-3.94
1055.069	-3.24
1055.491	6.66
1055.913	-7.64
1056.335	-1.24
1056.757	-7.24
1057.179	-10.94
1057.601	-10.64
1058.023	-2.24
1058.445	-3.34
1058.867	-3.24
1059.289	-5.14
1059.711	-4.84
1060.133	-4.74
1060.555	-8.84
1060.976	-5.94
1061.398	-4.24
1061.82	-7.64
1062.241	-0.64
1062.663	-9.84
1063.085	-5.94
1063.506	-2.54
1063.928	-4.94
1064.35	-4.44
1064.771	-7.04
1065.193	-2.24
1065.614	-8.94
1066.035	-0.84
1066.457	-5.14
1066.878	0.06
1067.3	-5.64
1067.721	-6.54
1068.142	-2.64
1068.564	0.96
1068.985	3.26
1069.406	-2.94
1069.827	-4.54
1070.248	5.66
1070.67	-1.84
1071.091	-6.14
1071.512	-3.54
1071.933	-1.84
1072.354	-7.64
1072.775	-7.54
1073.196	-7.84
1073.617	1.16
1074.038	-3.44
1074.459	-0.44
1074.88	-7.14
1075.3	2.06
1075.721	-7.24
1076.142	-1.04
1076.563	-0.04
1076.983	-12.24
1077.404	-1.34
1077.825	-13.04
1078.246	-6.24
1078.666	-11.34
1079.087	-6.54
1079.507	-3.04
1079.928	0.86
1080.348	-0.24
1080.769	-3.84
1081.189	1.26
1081.61	-1.84
1082.03	-6.54
1082.451	0.26
1082.871	-1.74
1083.291	-6.74
1083.711	-3.34
1084.132	-4.74
1084.552	-3.14
1084.972	-2.64
1085.392	-10.84
1085.813	-10.04
1086.233	-11.04
1086.653	-3.04
1087.073	-4.84
1087.493	-5.24
1087.913	-5.24
1088.333	-3.24
1088.753	-5.44
1089.173	1.36
1089.593	-6.54
1090.013	-2.64
1090.433	1.56
1090.852	0.96
1091.272	-2.94
1091.692	-4.34
1092.112	-10.24
1092.531	-8.34
1092.951	-12.14
1093.371	-1.94
1093.79	1.66
1094.21	-1.44
1094.63	-2.14
1095.049	-1.54
1095.469	-2.14
1095.888	-4.24
1096.308	1.36
1096.727	4.66
1097.146	-12.34
1097.566	-0.24
1097.985	-1.54
1098.405	7.96
1098.824	-4.34
1099.243	-9.54
1099.662	-6.94
1100.082	-4.44
1100.501	2.16
1100.92	-3.44
1101.339	-7.24
1101.758	-4.54
