Data from 20171114-ORNL-Ar_H_NY_Subt18_08-08-20-297.txt Node
Date: Tue Nov 14 08:08:20 EST 2017
User: Ender
Spectrometer: HR+D1039
Trigger mode: 0
Integration Time (sec): 2.730000E-2
Scans to average: 10
Electric dark correction enabled: true
Nonlinearity correction enabled: false
Boxcar width: 0
XAxis mode: Wavelengths
Number of Pixels in Spectrum: 2048
>>>>>Begin Spectral Data<<<<<
187.836	-2.19
188.309	-2.19
188.782	-2.19
189.255	3.61
189.728	-1.69
190.201	9.71
190.674	1.01
191.147	0.71
191.619	-7.69
192.092	-5.19
192.565	4.11
193.038	-3.59
193.511	1.51
193.984	5.31
194.456	-0.39
194.929	0.31
195.402	-5.19
195.874	-0.39
196.347	-0.19
196.82	-6.19
197.292	7.11
197.765	2.61
198.237	-5.89
198.71	4.61
199.182	-4.79
199.655	5.01
200.127	3.41
200.6	-0.29
201.072	-1.79
201.544	-3.89
202.017	-3.19
202.489	2.41
202.961	1.31
203.433	-5.09
203.906	-8.59
204.378	-5.19
204.85	0.81
205.322	-10.29
205.794	-5.99
206.266	-7.19
206.739	-7.49
207.211	0.51
207.683	-7.99
208.155	-3.19
208.627	-8.89
209.099	-4.49
209.57	-6.99
210.042	-3.59
210.514	-3.79
210.986	-5.99
211.458	-6.29
211.93	-3.19
212.402	0.71
212.873	-9.59
213.345	-3.19
213.817	-13.79
214.288	-3.69
214.76	-11.19
215.232	-4.89
215.703	-7.39
216.175	-6.79
216.646	-2.69
217.118	-6.09
217.589	-7.49
218.061	0.31
218.532	-8.19
219.004	1.51
219.475	-1.69
219.946	-0.49
220.418	-1.29
220.889	3.41
221.36	0.71
221.832	-7.49
222.303	-6.79
222.774	3.61
223.245	-9.29
223.717	-2.19
224.188	-3.39
224.659	-6.49
225.13	-8.79
225.601	-1.89
226.072	0.61
226.543	1.61
227.014	1.61
227.485	-5.09
227.956	-12.19
228.427	-6.09
228.898	0.51
229.369	6.91
229.839	-6.19
230.31	-5.09
230.781	7.21
231.252	1.71
231.722	-1.39
232.193	1.11
232.664	4.81
233.135	-2.69
233.605	4.41
234.076	-9.29
234.546	-0.79
235.017	-0.19
235.487	3.01
235.958	0.31
236.428	-4.69
236.899	2.81
237.369	2.01
237.84	-1.99
238.31	5.01
238.78	2.21
239.251	-3.29
239.721	5.11
240.191	-0.29
240.662	4.51
241.132	3.11
241.602	-5.79
242.072	5.51
242.542	7.51
243.013	8.31
243.483	3.41
243.953	4.41
244.423	2.51
244.893	-4.89
245.363	6.91
245.833	-3.29
246.303	2.51
246.773	0.21
247.243	-3.99
247.712	3.21
248.182	3.91
248.652	10.91
249.122	-1.89
249.592	11.81
250.061	23.91
250.531	30.51
251.001	15.11
251.471	24.71
251.94	15.11
252.41	5.91
252.879	2.91
253.349	13.71
253.818	12.71
254.288	3.91
254.757	3.51
255.227	1.11
255.696	0.71
256.166	4.41
256.635	10.01
257.105	4.51
257.574	4.11
258.043	6.71
258.513	9.71
258.982	15.71
259.451	4.11
259.92	12.51
260.389	11.91
260.859	13.81
261.328	16.71
261.797	19.61
262.266	8.11
262.735	6.81
263.204	4.91
263.673	-1.29
264.142	2.91
264.611	-4.19
265.08	-1.19
265.549	-2.19
266.018	6.21
266.487	-1.39
266.955	-6.99
267.424	2.61
267.893	6.61
268.362	-3.59
268.83	3.01
269.299	15.81
269.768	5.91
270.236	5.31
270.705	-2.49
271.174	5.21
271.642	10.71
272.111	6.01
272.579	17.41
273.048	25.11
273.516	26.51
273.985	26.51
274.453	21.21
274.922	24.61
275.39	11.81
275.858	8.21
276.327	8.61
276.795	15.31
277.263	7.71
277.731	31.61
278.2	47.61
278.668	57.51
279.136	47.31
279.604	16.11
280.072	18.81
280.54	12.81
281.008	13.61
281.477	12.61
281.945	12.11
282.413	14.21
282.881	10.31
283.348	10.51
283.816	10.41
284.284	15.61
284.752	21.51
285.22	11.11
285.688	8.61
286.156	21.81
286.623	43.11
287.091	51.51
287.559	30.91
288.026	17.61
288.494	13.01
288.962	6.71
289.429	5.21
289.897	19.41
290.364	14.01
290.832	16.01
291.3	12.61
291.767	17.11
292.234	25.51
292.702	13.71
293.169	20.21
293.637	17.01
294.104	22.51
294.571	8.71
295.039	8.51
295.506	13.11
295.973	14.11
296.44	15.21
296.908	18.81
297.375	17.71
297.842	22.71
298.309	21.21
298.776	18.61
299.243	21.81
299.71	12.61
300.177	19.81
300.644	21.31
301.111	19.31
301.578	18.21
302.045	18.91
302.512	19.11
302.979	23.81
303.446	24.21
303.913	15.41
304.379	14.01
304.846	22.31
305.313	28.01
305.78	23.31
306.246	30.91
306.713	22.61
307.18	21.61
307.646	27.11
308.113	25.31
308.579	21.41
309.046	26.21
309.512	27.31
309.979	16.21
310.445	33.21
310.912	30.31
311.378	30.81
311.845	31.31
312.311	35.51
312.777	30.11
313.244	31.61
313.71	34.71
314.176	31.11
314.642	28.21
315.109	33.21
315.575	35.71
316.041	37.51
316.507	37.41
316.973	43.91
317.439	31.71
317.905	31.91
318.371	32.61
318.837	33.41
319.303	31.61
319.769	33.51
320.235	26.91
320.701	33.91
321.167	33.91
321.633	29.91
322.099	38.41
322.564	42.81
323.03	39.31
323.496	35.11
323.962	42.11
324.427	34.71
324.893	41.01
325.359	37.41
325.824	32.81
326.29	41.91
326.755	36.41
327.221	38.41
327.686	35.01
328.152	45.31
328.617	42.51
329.083	45.91
329.548	55.21
330.014	46.01
330.479	40.51
330.944	39.31
331.41	43.31
331.875	40.01
332.34	44.71
332.805	39.81
333.271	42.91
333.736	42.01
334.201	48.41
334.666	52.61
335.131	53.71
335.596	48.11
336.061	47.41
336.526	45.21
336.991	43.71
337.456	53.91
337.921	50.71
338.386	40.11
338.851	48.21
339.316	40.31
339.781	49.31
340.246	48.91
340.711	47.41
341.175	38.81
341.64	43.41
342.105	50.51
342.569	52.71
343.034	57.71
343.499	52.21
343.963	50.91
344.428	61.91
344.893	61.71
345.357	56.91
345.822	57.81
346.286	68.31
346.751	75.11
347.215	64.31
347.679	69.21
348.144	99.31
348.608	77.31
349.073	65.51
349.537	69.61
350.001	82.01
350.465	89.41
350.93	77.01
351.394	82.01
351.858	64.01
352.322	85.81
352.786	80.31
353.25	99.31
353.715	112.51
354.179	93.91
354.643	118.81
355.107	127.61
355.571	114.51
356.035	103.61
356.498	121.01
356.962	120.91
357.426	132.71
357.89	112.71
358.354	90.51
358.818	80.11
359.281	78.51
359.745	81.61
360.209	74.51
360.673	73.51
361.136	73.91
361.6	86.61
362.064	79.61
362.527	81.41
362.991	84.41
363.454	79.91
363.918	77.31
364.381	83.51
364.845	82.81
365.308	79.81
365.772	89.11
366.235	85.71
366.698	86.41
367.162	86.21
367.625	83.41
368.088	85.41
368.552	87.21
369.015	91.71
369.478	95.41
369.941	93.51
370.404	96.01
370.867	104.81
371.331	98.81
371.794	109.81
372.257	114.91
372.72	115.11
373.183	109.71
373.646	107.21
374.109	105.91
374.572	105.11
375.035	110.71
375.497	107.51
375.96	102.61
376.423	108.51
376.886	110.71
377.349	119.41
377.811	104.11
378.274	104.61
378.737	105.01
379.199	112.31
379.662	108.81
380.125	119.31
380.587	117.61
381.05	120.91
381.512	124.71
381.975	135.71
382.437	133.41
382.9	127.01
383.362	137.31
383.825	147.11
384.287	149.51
384.75	138.71
385.212	141.11
385.674	140.81
386.136	133.91
386.599	122.81
387.061	123.31
387.523	133.01
387.985	136.11
388.447	140.81
388.91	147.21
389.372	171.71
389.834	161.91
390.296	146.91
390.758	151.31
391.22	172.11
391.682	223.51
392.144	320.21
392.606	243.21
393.068	172.31
393.529	175.21
393.991	155.51
394.453	150.81
394.915	165.81
395.377	203.41
395.838	229.51
396.3	160.01
396.762	140.51
397.224	133.41
397.685	128.81
398.147	131.71
398.608	127.51
399.07	136.01
399.531	132.31
399.993	144.01
400.454	158.31
400.916	142.51
401.377	142.01
401.839	150.41
402.3	149.61
402.762	164.11
403.223	175.81
403.684	173.41
404.145	165.01
404.607	161.61
405.068	170.91
405.529	165.31
405.99	188.81
406.451	177.61
406.913	177.31
407.374	172.01
407.835	161.61
408.296	171.11
408.757	177.41
409.218	197.01
409.679	179.11
410.14	177.81
410.601	176.61
411.062	190.01
411.522	201.41
411.983	195.51
412.444	185.11
412.905	180.41
413.366	189.11
413.826	195.71
414.287	215.11
414.748	261.81
415.208	244.11
415.669	211.11
416.13	203.11
416.59	204.61
417.051	208.81
417.511	223.31
417.972	239.21
418.432	248.31
418.893	290.21
419.353	255.41
419.814	202.81
420.274	183.51
420.734	177.11
421.195	197.91
421.655	205.51
422.115	193.51
422.576	194.01
423.036	194.41
423.496	207.71
423.956	220.51
424.416	233.11
424.876	258.31
425.336	255.91
425.797	268.21
426.257	254.41
426.717	242.61
427.177	240.21
427.637	226.91
428.097	233.01
428.556	243.51
429.016	276.51
429.476	273.21
429.936	286.51
430.396	280.31
430.856	303.31
431.315	322.01
431.775	351.91
432.235	390.51
432.694	355.81
433.154	369.51
433.614	407.61
434.073	343.41
434.533	289.31
434.993	273.51
435.452	281.21
435.912	296.21
436.371	289.81
436.83	284.41
437.29	276.31
437.749	245.51
438.209	251.21
438.668	276.11
439.127	282.51
439.587	271.01
440.046	244.11
440.505	260.71
440.964	277.71
441.424	323.41
441.883	307.51
442.342	268.51
442.801	225.51
443.26	226.31
443.719	226.91
444.178	226.51
444.637	213.31
445.096	224.81
445.555	227.61
446.014	221.41
446.473	229.41
446.932	231.01
447.391	225.21
447.849	233.21
448.308	221.31
448.767	229.51
449.226	237.41
449.685	234.71
450.143	257.01
450.602	236.01
451.061	228.71
451.519	238.31
451.978	226.31
452.436	232.01
452.895	236.81
453.353	251.31
453.812	245.91
454.27	237.01
454.729	241.61
455.187	239.61
455.646	251.91
456.104	247.51
456.562	264.41
457.021	274.71
457.479	261.01
457.937	273.21
458.395	259.01
458.854	246.71
459.312	252.61
459.77	281.11
460.228	257.51
460.686	243.91
461.144	240.11
461.602	249.31
462.06	238.41
462.518	250.41
462.976	251.31
463.434	262.31
463.892	268.51
464.35	272.51
464.808	280.91
465.266	258.71
465.724	260.21
466.181	272.91
466.639	268.91
467.097	286.11
467.555	294.01
468.012	298.41
468.47	308.21
468.928	328.71
469.385	344.91
469.843	342.91
470.3	344.81
470.758	358.71
471.215	387.31
471.673	412.51
472.13	414.41
472.588	418.91
473.045	366.91
473.503	379.01
473.96	393.41
474.417	397.61
474.875	436.21
475.332	482.51
475.789	461.21
476.246	460.01
476.704	478.51
477.161	503.01
477.618	528.01
478.075	569.01
478.532	617.01
478.989	684.41
479.446	810.41
479.903	768.31
480.36	801.21
480.817	864.11
481.274	970.21
481.731	1072.31
482.188	1156.31
482.645	1291.71
483.102	1409.11
483.558	1543.11
484.015	1584.11
484.472	1576.41
484.929	1524.31
485.385	1478.81
485.842	1425.71
486.299	1360.31
486.755	1293.61
487.212	1084.11
487.668	917.51
488.125	844.21
488.582	771.41
489.038	739.21
489.494	702.11
489.951	664.01
490.407	656.51
490.864	633.71
491.32	639.81
491.776	630.51
492.233	632.01
492.689	606.61
493.145	598.31
493.602	592.81
494.058	603.21
494.514	602.11
494.97	634.31
495.426	641.51
495.882	605.61
496.338	596.21
496.794	622.21
497.251	607.31
497.707	625.51
498.163	621.71
498.618	628.81
499.074	627.31
499.53	672.61
499.986	663.61
500.442	641.11
500.898	627.31
501.354	613.81
501.809	628.01
502.265	637.81
502.721	659.61
503.177	662.81
503.632	663.01
504.088	670.41
504.543	704.41
504.999	706.41
505.455	643.61
505.91	628.11
506.366	622.61
506.821	621.31
507.277	611.81
507.732	621.41
508.187	605.21
508.643	616.61
509.098	625.11
509.553	646.51
510.009	641.11
510.464	654.21
510.919	670.11
511.375	672.61
511.83	699.91
512.285	707.41
512.74	749.71
513.195	770.51
513.65	759.11
514.105	745.91
514.56	761.51
515.015	771.61
515.47	800.01
515.925	781.51
516.38	780.21
516.835	768.71
517.29	764.71
517.745	765.91
518.2	742.81
518.655	732.61
519.109	726.51
519.564	727.11
520.019	714.21
520.474	708.81
520.928	714.01
521.383	711.11
521.838	701.71
522.292	690.31
522.747	704.51
523.201	692.31
523.656	677.71
524.11	689.11
524.565	683.31
525.019	681.91
525.474	694.91
525.928	695.51
526.382	683.01
526.837	681.51
527.291	688.81
527.745	675.71
528.2	684.51
528.654	682.61
529.108	674.41
529.562	679.61
530.016	677.41
530.47	675.11
530.925	672.61
531.379	685.51
531.833	698.91
532.287	687.31
532.741	695.61
533.195	685.81
533.649	693.81
534.103	689.41
534.556	692.61
535.01	691.31
535.464	700.71
535.918	702.21
536.372	706.01
536.826	705.51
537.279	690.01
537.733	691.51
538.187	698.71
538.64	708.41
539.094	712.01
539.548	714.51
540.001	706.71
540.455	718.51
540.908	729.31
541.362	731.91
541.815	737.71
542.269	730.21
542.722	755.81
543.175	757.41
543.629	750.31
544.082	765.71
544.536	778.91
544.989	764.11
545.442	776.71
545.895	774.51
546.349	791.81
546.802	777.81
547.255	771.21
547.708	783.21
548.161	802.11
548.614	799.91
549.067	816.41
549.52	801.01
549.973	794.51
550.426	792.51
550.879	777.81
551.332	775.31
551.785	784.91
552.238	793.11
552.691	803.61
553.144	818.41
553.596	830.11
554.049	848.51
554.502	882.51
554.955	898.71
555.407	897.61
555.86	876.61
556.313	868.61
556.765	880.41
557.218	859.91
557.67	855.01
558.123	855.11
558.576	847.91
559.028	865.61
559.48	868.71
559.933	861.61
560.385	821.71
560.838	790.21
561.29	771.31
561.742	770.61
562.195	756.81
562.647	749.41
563.099	764.91
563.551	754.81
564.004	776.41
564.456	757.01
564.908	740.81
565.36	733.01
565.812	717.41
566.264	715.61
566.716	711.41
567.168	707.51
567.62	715.01
568.072	699.81
568.524	682.81
568.976	681.01
569.428	672.01
569.88	674.91
570.332	675.51
570.784	664.81
571.235	676.61
571.687	681.11
572.139	686.91
572.59	705.11
573.042	689.41
573.494	693.01
573.945	690.81
574.397	669.61
574.849	675.01
575.3	682.91
575.752	672.31
576.203	668.21
576.655	678.31
577.106	656.91
577.557	651.61
578.009	659.21
578.46	654.61
578.912	659.51
579.363	660.51
579.814	656.51
580.265	655.91
580.717	652.51
581.168	661.31
581.619	659.61
582.07	669.61
582.521	665.61
582.972	657.41
583.423	671.51
583.875	683.61
584.326	695.91
584.777	748.21
585.227	835.21
585.678	927.71
586.129	1021.91
586.58	1105.71
587.031	1193.71
587.482	1358.41
587.933	1557.21
588.384	1358.21
588.834	993.81
589.285	807.01
589.736	771.11
590.186	764.91
590.637	750.41
591.088	733.61
591.538	740.41
591.989	738.01
592.439	720.21
592.89	707.61
593.34	707.71
593.791	703.31
594.241	700.61
594.692	699.41
595.142	687.31
595.593	692.01
596.043	693.91
596.493	714.51
596.943	709.11
597.394	719.21
597.844	706.31
598.294	721.21
598.744	737.01
599.195	769.71
599.645	806.31
600.095	845.41
600.545	899.81
600.995	951.01
601.445	1014.31
601.895	1066.61
602.345	1116.31
602.795	1098.01
603.245	1044.61
603.695	996.91
604.145	941.61
604.594	900.51
605.044	839.31
605.494	791.11
605.944	738.71
606.393	728.41
606.843	715.31
607.293	721.71
607.743	721.31
608.192	742.21
608.642	750.61
609.091	754.61
609.541	766.81
609.99	763.91
610.44	765.21
610.889	710.71
611.339	694.51
611.788	687.21
612.238	702.21
612.687	712.41
613.136	714.71
613.586	737.11
614.035	739.11
614.484	750.81
614.933	760.91
615.383	752.11
615.832	734.51
616.281	723.61
616.73	684.31
617.179	660.31
617.628	653.21
618.077	623.91
618.526	621.71
618.975	618.41
619.424	619.11
619.873	603.41
620.322	616.41
620.771	607.71
621.22	597.71
621.669	587.61
622.118	578.81
622.567	576.61
623.015	570.81
623.464	565.71
623.913	547.81
624.361	553.61
624.81	544.91
625.259	543.81
625.707	548.11
626.156	554.51
626.604	560.51
627.053	560.71
627.501	561.91
627.95	562.61
628.398	575.81
628.847	559.21
629.295	559.91
629.744	572.81
630.192	563.61
630.64	566.31
631.089	564.61
631.537	571.51
631.985	583.11
632.433	603.51
632.881	617.81
633.33	673.71
633.778	658.91
634.226	562.51
634.674	579.11
635.122	576.91
635.57	603.81
636.018	637.71
636.466	586.31
636.914	556.81
637.362	560.11
637.81	573.91
638.258	574.81
638.705	567.61
639.153	605.01
639.601	610.41
640.049	625.91
640.497	663.21
640.944	685.11
641.392	630.91
641.84	606.91
642.287	584.81
642.735	571.71
643.182	569.81
643.63	574.51
644.078	580.11
644.525	586.91
644.973	600.11
645.42	604.41
645.867	620.11
646.315	639.51
646.762	658.61
647.21	690.31
647.657	716.31
648.104	750.71
648.551	773.21
648.999	835.31
649.446	921.21
649.893	1009.81
650.34	1173.11
650.787	1413.81
651.234	1749.31
651.682	2299.41
652.129	3193.31
652.576	4593.41
653.023	6772.11
653.47	9295.91
653.917	11480.11
654.363	13177.51
654.81	14502.71
655.257	13772.41
655.704	9013.21
656.151	5302.71
656.598	3429.01
657.044	2428.41
657.491	1873.51
657.938	1486.11
658.385	1240.91
658.831	1084.31
659.278	959.11
659.724	846.41
660.171	790.11
660.618	717.81
661.064	685.81
661.511	663.21
661.957	662.81
662.404	633.01
662.85	643.21
663.296	626.21
663.743	567.31
664.189	538.61
664.635	533.41
665.082	534.11
665.528	519.81
665.974	515.51
666.42	512.31
666.867	507.71
667.313	492.21
667.759	491.51
668.205	482.61
668.651	491.21
669.097	488.91
669.543	511.91
669.989	478.81
670.435	455.31
670.881	445.11
671.327	452.51
671.773	464.71
672.219	490.81
672.665	545.91
673.11	579.61
673.556	617.61
674.002	655.11
674.448	646.51
674.893	538.91
675.339	470.91
675.785	434.91
676.23	415.61
676.676	386.41
677.122	381.01
677.567	376.11
678.013	358.41
678.458	356.51
678.904	360.11
679.349	350.31
679.794	347.51
680.24	354.91
680.685	350.61
681.131	342.61
681.576	349.51
682.021	353.21
682.466	347.41
682.912	352.81
683.357	343.81
683.802	378.21
684.247	413.91
684.692	448.91
685.137	487.01
685.583	530.21
686.028	553.01
686.473	514.41
686.918	446.11
687.363	414.41
687.807	388.51
688.252	357.51
688.697	352.01
689.142	332.21
689.587	325.31
690.032	321.91
690.477	337.01
690.921	353.41
691.366	386.81
691.811	408.91
692.255	434.81
692.7	455.31
693.145	502.61
693.589	709.21
694.034	1139.51
694.478	1533.51
694.923	1698.41
695.367	2212.91
695.812	1176.31
696.256	489.81
696.701	377.11
697.145	340.31
697.59	325.21
698.034	320.01
698.478	326.21
698.922	322.51
699.367	321.31
699.811	330.21
700.255	355.91
700.699	382.11
701.143	435.51
701.588	476.51
702.032	507.91
702.476	508.21
702.92	487.91
703.364	483.11
703.808	637.31
704.252	1050.41
704.696	1466.51
705.14	1643.01
705.584	2061.81
706.027	1049.91
706.471	517.51
706.915	391.81
707.359	348.11
707.803	317.51
708.246	302.91
708.69	313.51
709.134	320.91
709.577	306.81
710.021	313.01
710.465	308.61
710.908	297.51
711.352	299.51
711.795	306.81
712.239	346.71
712.682	392.51
713.126	417.61
713.569	464.71
714.012	371.11
714.456	323.41
714.899	299.21
715.342	270.11
715.786	256.71
716.229	253.51
716.672	254.71
717.115	249.91
717.558	252.51
718.002	247.01
718.445	269.71
718.888	288.01
719.331	288.81
719.774	303.41
720.217	308.51
720.66	283.31
721.103	267.21
721.546	258.11
721.989	248.31
722.432	235.31
722.874	237.21
723.317	228.71
723.76	241.51
724.203	252.71
724.645	317.61
725.088	451.81
725.531	564.91
725.974	628.91
726.416	532.81
726.859	301.11
727.301	243.11
727.744	240.51
728.187	223.91
728.629	236.21
729.071	242.81
729.514	254.41
729.956	267.41
730.399	280.91
730.841	280.21
731.283	269.51
731.726	273.01
732.168	263.21
732.61	265.51
733.053	284.31
733.495	311.51
733.937	358.71
734.379	388.91
734.821	443.51
735.263	540.01
735.705	852.61
736.148	1606.41
736.59	2579.71
737.032	2955.81
737.474	2417.61
737.916	798.81
738.357	421.21
738.799	317.71
739.241	298.11
739.683	289.61
740.125	288.51
740.567	295.51
741.008	309.61
741.45	311.31
741.892	315.11
742.334	345.91
742.775	357.71
743.217	336.51
743.658	266.41
744.1	254.51
744.542	265.11
744.983	305.01
745.425	340.71
745.866	340.71
746.307	279.81
746.749	285.01
747.19	331.01
747.632	465.31
748.073	898.81
748.514	1885.41
748.956	2807.91
749.397	3553.61
749.838	2953.01
750.279	2896.71
750.72	1471.41
751.162	543.61
751.603	313.91
752.044	252.51
752.485	219.01
752.926	205.81
753.367	203.81
753.808	193.91
754.249	191.01
754.69	181.61
755.131	179.31
755.572	182.51
756.013	178.31
756.453	188.61
756.894	186.91
757.335	191.71
757.776	198.71
758.216	195.01
758.657	195.91
759.098	201.11
759.538	228.81
759.979	270.11
760.42	377.41
760.86	732.21
761.301	1897.11
761.741	4461.91
762.182	6213.41
762.622	4387.61
763.063	1281.71
763.503	536.71
763.943	348.91
764.384	358.41
764.824	426.21
765.264	458.71
765.705	309.21
766.145	212.81
766.585	189.11
767.025	179.51
767.465	189.91
767.906	253.81
768.346	338.61
768.786	351.01
769.226	272.51
769.666	329.31
770.106	646.21
770.546	1611.01
770.986	2593.71
771.426	2300.01
771.866	779.31
772.306	325.21
772.745	198.01
773.185	183.21
773.625	162.61
774.065	170.31
774.505	200.91
774.944	328.61
775.384	733.01
775.824	1283.91
776.263	1243.31
776.703	528.91
777.142	228.51
777.582	157.01
778.021	143.11
778.461	135.61
778.9	137.31
779.34	133.61
779.779	110.91
780.219	114.31
780.658	108.51
781.097	112.41
781.537	106.31
781.976	112.61
782.415	100.81
782.855	108.91
783.294	110.31
783.733	109.71
784.172	108.11
784.611	102.51
785.05	109.41
785.489	114.71
785.928	115.71
786.367	118.81
786.806	119.31
787.245	133.61
787.684	132.01
788.123	148.31
788.562	134.61
789.001	130.91
789.44	127.11
789.879	121.91
790.317	119.11
790.756	132.91
791.195	130.11
791.634	147.91
792.072	200.61
792.511	376.01
792.95	1042.51
793.388	2112.91
793.827	1881.91
794.265	676.01
794.704	273.21
795.142	181.31
795.581	153.21
796.019	131.81
796.458	131.21
796.896	127.41
797.334	132.41
797.773	159.71
798.211	215.91
798.649	453.91
799.087	1026.01
799.526	1574.21
799.964	2006.61
800.402	1938.01
800.84	754.81
801.278	301.91
801.716	186.61
802.154	150.71
802.592	146.01
803.03	138.01
803.468	136.81
803.906	145.91
804.344	147.11
804.782	142.31
805.22	133.11
805.658	122.41
806.096	149.21
806.533	157.61
806.971	181.21
807.409	221.31
807.847	317.71
808.284	670.81
808.722	1896.21
809.16	3229.31
809.597	3112.11
810.035	5380.01
810.472	5550.11
810.91	2026.11
811.347	786.81
811.785	398.61
812.222	252.01
812.66	194.81
813.097	158.11
813.535	136.61
813.972	123.41
814.409	115.61
814.846	104.41
815.284	112.41
815.721	103.61
816.158	99.71
816.595	125.21
817.032	184.91
817.47	202.51
817.907	158.81
818.344	159.91
818.781	123.91
819.218	101.61
819.655	126.51
820.092	190.01
820.529	206.21
820.966	171.11
821.403	133.01
821.839	108.01
822.276	102.21
822.713	119.91
823.15	129.21
823.587	117.41
824.023	141.71
824.46	318.41
824.897	910.41
825.333	1328.91
825.77	564.91
826.206	232.81
826.643	132.41
827.08	102.71
827.516	84.51
827.953	80.51
828.389	89.81
828.825	72.81
829.262	70.91
829.698	62.61
830.135	68.71
830.571	57.01
831.007	70.21
831.443	66.81
831.88	61.31
832.316	65.21
832.752	59.91
833.188	63.91
833.624	59.31
834.06	64.91
834.497	70.81
834.933	74.11
835.369	77.81
835.805	70.41
836.241	75.01
836.677	76.11
837.112	87.51
837.548	110.41
837.984	134.41
838.42	201.51
838.856	511.51
839.292	1525.71
839.727	2236.61
840.163	1054.51
840.599	942.51
841.034	2021.41
841.47	2043.71
841.906	758.71
842.341	338.91
842.777	244.01
843.212	326.21
843.648	322.01
844.083	156.71
844.519	94.41
844.954	75.71
845.39	59.01
845.825	54.61
846.261	60.31
846.696	60.71
847.131	50.91
847.566	57.21
848.002	54.91
848.437	56.31
848.872	63.01
849.307	62.71
849.742	90.11
850.177	192.81
850.613	565.51
851.048	859.81
851.483	371.91
851.918	152.71
852.353	88.21
852.788	68.91
853.223	61.51
853.657	52.51
854.092	41.81
854.527	44.11
854.962	41.61
855.397	42.41
855.832	51.11
856.266	38.21
856.701	39.71
857.136	36.81
857.57	46.81
858.005	46.61
858.44	54.81
858.874	41.01
859.309	53.51
859.743	42.41
860.178	44.81
860.612	44.11
861.047	48.11
861.481	65.21
861.915	63.41
862.35	45.31
862.784	33.11
863.218	37.21
863.653	38.91
864.087	43.71
864.521	53.41
864.955	74.11
865.39	157.61
865.824	170.91
866.258	115.01
866.692	149.61
867.126	168.21
867.56	102.91
867.994	45.91
868.428	37.21
868.862	49.91
869.296	56.51
869.73	48.21
870.164	53.91
870.598	49.01
871.031	37.71
871.465	33.41
871.899	31.11
872.333	22.51
872.766	20.51
873.2	25.31
873.634	30.51
874.067	27.71
874.501	28.11
874.935	37.61
875.368	29.11
875.802	23.11
876.235	23.81
876.669	27.51
877.102	27.41
877.535	26.41
877.969	26.01
878.402	24.51
878.836	18.71
879.269	25.21
879.702	24.41
880.135	18.01
880.569	25.11
881.002	26.91
881.435	24.91
881.868	18.51
882.301	20.41
882.734	15.81
883.167	24.91
883.601	20.41
884.034	22.51
884.467	11.41
884.899	22.01
885.332	19.21
885.765	15.41
886.198	16.21
886.631	21.11
887.064	21.71
887.497	24.41
887.929	26.01
888.362	21.71
888.795	17.01
889.228	18.41
889.66	23.31
890.093	17.81
890.526	16.21
890.958	20.41
891.391	16.11
891.823	24.61
892.256	12.71
892.688	13.41
893.121	15.81
893.553	17.11
893.985	24.71
894.418	23.41
894.85	13.91
895.282	19.31
895.715	14.61
896.147	18.21
896.579	20.41
897.011	13.51
897.444	16.51
897.876	10.21
898.308	21.21
898.74	13.81
899.172	8.81
899.604	21.81
900.036	22.91
900.468	15.61
900.9	14.81
901.332	19.41
901.764	13.01
902.196	20.51
902.628	9.61
903.06	14.11
903.491	31.81
903.923	21.21
904.355	22.21
904.787	25.01
905.218	22.31
905.65	18.01
906.082	15.71
906.513	12.71
906.945	15.61
907.376	15.71
907.808	19.51
908.239	20.91
908.671	16.31
909.102	23.31
909.534	21.71
909.965	49.11
910.397	92.01
910.828	309.11
911.259	467.41
911.691	213.21
912.122	105.11
912.553	51.11
912.984	33.71
913.415	27.41
913.847	20.41
914.278	17.11
914.709	18.31
915.14	19.91
915.571	17.91
916.002	11.61
916.433	17.71
916.864	15.91
917.295	15.21
917.726	21.21
918.157	13.01
918.587	24.51
919.018	26.61
919.449	22.61
919.88	29.41
920.311	29.31
920.741	49.81
921.172	165.21
921.603	148.31
922.033	68.71
922.464	44.71
922.895	26.31
923.325	20.91
923.756	17.71
924.186	14.11
924.617	26.51
925.047	46.81
925.478	58.21
925.908	46.11
926.338	24.81
926.769	20.51
927.199	23.31
927.629	9.11
928.06	17.61
928.49	17.11
928.92	16.31
929.35	13.51
929.78	11.51
930.21	3.51
930.641	14.31
931.071	8.61
931.501	7.81
931.931	6.21
932.361	7.81
932.791	0.01
933.221	9.81
933.651	6.71
934.08	15.11
934.51	27.31
934.94	5.41
935.37	8.61
935.8	13.71
936.229	13.91
936.659	11.41
937.089	8.81
937.519	8.81
937.948	22.91
938.378	17.81
938.807	4.81
939.237	8.41
939.666	6.21
940.096	1.91
940.525	6.01
940.955	5.31
941.384	8.21
941.814	-0.19
942.243	0.61
942.672	5.41
943.102	-0.79
943.531	1.21
943.96	4.61
944.39	-4.69
944.819	3.51
945.248	3.71
945.677	1.21
946.106	8.31
946.535	6.71
946.964	1.81
947.393	4.81
947.822	4.51
948.251	-7.49
948.68	9.31
949.109	7.01
949.538	2.71
949.967	1.11
950.396	5.61
950.825	1.41
951.254	-2.19
951.682	-4.79
952.111	1.91
952.54	8.91
952.969	-8.39
953.397	-0.39
953.826	2.71
954.254	-6.99
954.683	7.11
955.112	-5.89
955.54	2.31
955.969	3.91
956.397	7.61
956.826	-3.69
957.254	2.31
957.682	3.31
958.111	6.91
958.539	6.71
958.967	7.31
959.396	-1.19
959.824	6.21
960.252	4.31
960.68	-5.69
961.109	3.91
961.537	-5.69
961.965	-0.09
962.393	-0.69
962.821	1.91
963.249	3.11
963.677	6.11
964.105	8.41
964.533	41.41
964.961	43.11
965.389	20.71
965.817	6.31
966.245	1.01
966.672	0.01
967.1	-5.09
967.528	0.11
967.956	-4.39
968.383	4.81
968.811	1.81
969.239	-0.39
969.666	-7.09
970.094	-2.29
970.522	8.21
970.949	-0.39
971.377	-3.99
971.804	-0.89
972.232	-4.59
972.659	4.01
973.087	-4.59
973.514	4.31
973.941	-5.49
974.369	6.91
974.796	-2.39
975.223	0.41
975.651	-1.59
976.078	2.01
976.505	2.41
976.932	3.61
977.359	15.31
977.786	11.21
978.214	-0.69
978.641	-0.09
979.068	-5.29
979.495	-0.89
979.922	-4.19
980.349	-1.89
980.776	11.01
981.202	3.51
981.629	6.21
982.056	8.21
982.483	1.81
982.91	-2.09
983.337	-2.39
983.763	-0.59
984.19	-3.09
984.617	-6.99
985.043	-1.59
985.47	-1.19
985.897	-2.59
986.323	-1.09
986.75	5.41
987.176	-0.59
987.603	-1.89
988.029	0.41
988.456	-6.59
988.882	6.21
989.308	-2.99
989.735	-6.89
990.161	4.91
990.587	-7.39
991.014	2.21
991.44	2.71
991.866	-0.09
992.292	-6.49
992.719	-0.19
993.145	3.01
993.571	-8.29
993.997	-1.59
994.423	0.91
994.849	-1.89
995.275	5.91
995.701	4.01
996.127	-7.89
996.553	2.21
996.979	-0.79
997.405	5.31
997.83	-2.89
998.256	-10.69
998.682	-3.79
999.108	-10.79
999.534	0.31
999.959	2.01
1000.385	0.51
1000.811	-0.09
1001.236	-4.09
1001.662	-9.49
1002.087	-9.39
1002.513	-2.19
1002.938	-3.19
1003.364	-10.29
1003.789	-4.39
1004.215	3.71
1004.64	-3.79
1005.066	-0.89
1005.491	2.11
1005.916	-2.99
1006.342	-1.49
1006.767	-10.39
1007.192	8.41
1007.617	-5.19
1008.042	-1.59
1008.468	-5.99
1008.893	-3.89
1009.318	-5.69
1009.743	-7.89
1010.168	2.51
1010.593	-0.09
1011.018	-10.29
1011.443	0.21
1011.868	1.31
1012.293	-4.99
1012.718	-5.59
1013.143	0.21
1013.567	-1.19
1013.992	-1.59
1014.417	-13.99
1014.842	1.21
1015.267	-2.69
1015.691	-5.79
1016.116	11.31
1016.541	1.81
1016.965	0.31
1017.39	-5.29
1017.814	-4.29
1018.239	-3.19
1018.663	-4.49
1019.088	-11.59
1019.512	1.71
1019.937	-4.79
1020.361	-3.69
1020.785	-12.09
1021.21	-6.39
1021.634	2.71
1022.058	-2.19
1022.483	7.21
1022.907	-4.69
1023.331	-3.99
1023.755	-3.29
1024.179	-3.69
1024.604	-12.49
1025.028	-7.69
1025.452	-4.39
1025.876	-2.99
1026.3	3.11
1026.724	-6.69
1027.148	-5.39
1027.572	-12.79
1027.996	0.31
1028.42	-2.79
1028.843	-2.99
1029.267	-1.49
1029.691	-2.39
1030.115	2.31
1030.539	-9.89
1030.962	-0.69
1031.386	-8.19
1031.81	-0.29
1032.233	3.61
1032.657	-4.99
1033.08	-0.29
1033.504	-6.59
1033.927	-3.99
1034.351	-2.89
1034.774	-3.49
1035.198	-5.39
1035.621	-5.19
1036.045	-8.39
1036.468	1.61
1036.891	-4.89
1037.315	-9.39
1037.738	-2.99
1038.161	3.21
1038.584	-4.89
1039.008	-2.69
1039.431	1.01
1039.854	-1.99
1040.277	-8.19
1040.7	-4.79
1041.123	-2.69
1041.546	4.51
1041.969	-0.09
1042.392	-8.69
1042.815	-4.39
1043.238	2.31
1043.661	-2.09
1044.084	-0.49
1044.507	-2.69
1044.93	-5.29
1045.352	5.11
1045.775	-0.39
1046.198	-2.19
1046.621	-3.49
1047.043	-1.99
1047.466	3.01
1047.889	-1.99
1048.311	-6.99
1048.734	1.01
1049.156	-1.79
1049.579	-2.59
1050.001	-2.69
1050.424	-3.19
1050.846	-6.89
1051.269	-0.69
1051.691	-5.89
1052.113	-4.29
1052.536	-2.49
1052.958	-6.79
1053.38	-6.49
1053.802	-10.09
1054.225	-2.39
1054.647	-10.19
1055.069	-7.49
1055.491	2.91
1055.913	-8.99
1056.335	0.31
1056.757	0.21
1057.179	-6.69
1057.601	0.01
1058.023	-5.29
1058.445	-4.29
1058.867	-4.29
1059.289	1.21
1059.711	-3.09
1060.133	-1.19
1060.555	-0.89
1060.976	-7.59
1061.398	-2.69
1061.82	-9.49
1062.241	-7.49
1062.663	-11.19
1063.085	-1.09
1063.506	-0.79
1063.928	-9.09
1064.35	-5.49
1064.771	-16.39
1065.193	-0.99
1065.614	-11.59
1066.035	4.81
1066.457	-0.89
1066.878	-1.69
1067.3	-10.49
1067.721	-6.69
1068.142	-2.49
1068.564	-2.79
1068.985	-8.29
1069.406	-4.99
1069.827	-5.99
1070.248	-0.89
1070.67	-7.49
1071.091	-4.89
1071.512	-4.99
1071.933	0.11
1072.354	-10.09
1072.775	-5.99
1073.196	-9.99
1073.617	-1.19
1074.038	-8.39
1074.459	-3.29
1074.88	-4.29
1075.3	-4.99
1075.721	-3.99
1076.142	-0.09
1076.563	0.61
1076.983	-10.69
1077.404	-3.09
1077.825	-9.09
1078.246	-1.39
1078.666	-11.09
1079.087	-3.69
1079.507	-6.59
1079.928	-3.49
1080.348	-2.19
1080.769	-4.79
1081.189	0.21
1081.61	-1.59
1082.03	-2.29
1082.451	-7.39
1082.871	-1.39
1083.291	-5.99
1083.711	-16.39
1084.132	-7.59
1084.552	-1.79
1084.972	6.91
1085.392	-6.99
1085.813	-4.69
1086.233	-6.29
1086.653	-7.29
1087.073	-4.29
1087.493	-6.39
1087.913	-4.79
1088.333	-7.89
1088.753	-2.69
1089.173	0.51
1089.593	-3.89
1090.013	-0.69
1090.433	0.81
1090.852	-7.09
1091.272	-1.59
1091.692	-0.49
1092.112	-4.79
1092.531	-5.49
1092.951	-12.69
1093.371	-2.69
1093.79	0.91
1094.21	-2.79
1094.63	-5.29
1095.049	-9.89
1095.469	-7.09
1095.888	-4.69
1096.308	4.61
1096.727	1.61
1097.146	-2.39
1097.566	-0.19
1097.985	-8.99
1098.405	-4.59
1098.824	-8.69
1099.243	-2.49
1099.662	-7.09
1100.082	-5.49
1100.501	-4.29
1100.92	-10.09
1101.339	-3.09
1101.758	-4.99
