Data from 20171114-ORNL-Ar_H_NY_Subt18_08-04-06-430.txt Node
Date: Tue Nov 14 08:04:06 EST 2017
User: Ender
Spectrometer: HR+D1039
Trigger mode: 0
Integration Time (sec): 2.730000E-2
Scans to average: 10
Electric dark correction enabled: true
Nonlinearity correction enabled: false
Boxcar width: 0
XAxis mode: Wavelengths
Number of Pixels in Spectrum: 2048
>>>>>Begin Spectral Data<<<<<
187.836	-4.27
188.309	-4.27
188.782	-4.27
189.255	-1.17
189.728	-2.67
190.201	5.53
190.674	-1.48
191.147	-4.67
191.619	-3.98
192.092	4.93
192.565	2.02
193.038	5.33
193.511	1.62
193.984	2.12
194.456	3.63
194.929	-0.17
195.402	-6.98
195.874	0.23
196.347	2.43
196.82	-8.57
197.292	7.23
197.765	-5.07
198.237	-5.57
198.71	-4.48
199.182	-4.57
199.655	7.83
200.127	3.23
200.6	-7.57
201.072	-3.08
201.544	-1.37
202.017	-2.88
202.489	2.62
202.961	0.83
203.433	-3.57
203.906	-6.97
204.378	-10.57
204.85	-2.77
205.322	-4.17
205.794	1.33
206.266	-2.38
206.739	-8.77
207.211	-2.57
207.683	-11.27
208.155	-3.27
208.627	-2.57
209.099	-8.88
209.57	-9.57
210.042	-6.17
210.514	-1.27
210.986	3.33
211.458	-14.67
211.93	-0.98
212.402	1.93
212.873	-8.27
213.345	-6.17
213.817	-12.67
214.288	-4.17
214.76	-12.98
215.232	-4.17
215.703	-0.47
216.175	-4.97
216.646	-8.57
217.118	-7.27
217.589	-0.17
218.061	-2.48
218.532	-6.87
219.004	-5.38
219.475	-1.07
219.946	1.52
220.418	-5.27
220.889	-0.27
221.36	5.63
221.832	-6.67
222.303	-9.97
222.774	-2.97
223.245	-10.67
223.717	-4.17
224.188	-2.07
224.659	-4.27
225.13	-4.87
225.601	-4.48
226.072	-1.97
226.543	-1.88
227.014	0.02
227.485	-8.48
227.956	-7.87
228.427	-4.77
228.898	-4.47
229.369	3.93
229.839	-6.47
230.31	-9.48
230.781	-3.77
231.252	-3.88
231.722	-11.48
232.193	-2.97
232.664	-6.27
233.135	-2.57
233.605	-4.47
234.076	-0.27
234.546	-2.67
235.017	3.13
235.487	4.73
235.958	-5.97
236.428	-5.97
236.899	5.43
237.369	-0.87
237.84	-3.38
238.31	3.93
238.78	-0.27
239.251	-2.97
239.721	-3.87
240.191	2.73
240.662	-5.97
241.132	-1.97
241.602	-5.98
242.072	-3.88
242.542	0.53
243.013	-3.27
243.483	5.13
243.953	4.13
244.423	-0.87
244.893	-7.77
245.363	2.12
245.833	-3.57
246.303	1.12
246.773	2.53
247.243	-6.77
247.712	2.33
248.182	8.83
248.652	3.33
249.122	-6.27
249.592	8.43
250.061	18.12
250.531	26.13
251.001	13.03
251.471	19.93
251.94	10.92
252.41	1.73
252.879	-2.57
253.349	8.23
253.818	3.43
254.288	3.23
254.757	-0.37
255.227	1.43
255.696	-3.27
256.166	0.13
256.635	1.83
257.105	4.43
257.574	5.23
258.043	5.63
258.513	7.12
258.982	8.13
259.451	4.43
259.92	8.93
260.389	7.03
260.859	9.83
261.328	5.73
261.797	12.13
262.266	4.03
262.735	6.83
263.204	-1.98
263.673	2.12
264.142	1.33
264.611	-2.67
265.08	-3.48
265.549	0.63
266.018	3.03
266.487	-5.88
266.955	-5.57
267.424	-3.67
267.893	2.63
268.362	-4.57
268.83	1.62
269.299	9.83
269.768	-3.38
270.236	6.53
270.705	0.03
271.174	2.33
271.642	0.93
272.111	7.03
272.579	8.23
273.048	11.33
273.516	21.63
273.985	18.43
274.453	14.12
274.922	11.62
275.39	1.52
275.858	-4.07
276.327	12.03
276.795	16.33
277.263	7.43
277.731	17.33
278.2	41.42
278.668	36.83
279.136	37.53
279.604	8.93
280.072	12.43
280.54	10.43
281.008	0.12
281.477	7.62
281.945	7.33
282.413	8.12
282.881	6.13
283.348	5.03
283.816	9.33
284.284	13.93
284.752	12.83
285.22	6.63
285.688	10.42
286.156	10.23
286.623	35.23
287.091	32.53
287.559	20.23
288.026	14.73
288.494	10.03
288.962	2.43
289.429	0.62
289.897	15.23
290.364	3.93
290.832	10.13
291.3	11.23
291.767	12.53
292.234	11.43
292.702	5.83
293.169	10.63
293.637	9.33
294.104	15.12
294.571	6.52
295.039	7.33
295.506	10.12
295.973	10.43
296.44	9.63
296.908	10.43
297.375	11.03
297.842	7.83
298.309	17.03
298.776	6.83
299.243	13.42
299.71	7.33
300.177	13.53
300.644	14.53
301.111	9.93
301.578	13.52
302.045	5.83
302.512	22.83
302.979	18.13
303.446	17.33
303.913	10.23
304.379	10.73
304.846	16.33
305.313	20.93
305.78	18.92
306.246	22.93
306.713	21.42
307.18	15.33
307.646	17.52
308.113	18.93
308.579	15.52
309.046	20.23
309.512	12.23
309.979	9.02
310.445	18.33
310.912	21.52
311.378	20.93
311.845	21.83
312.311	22.33
312.777	14.43
313.244	21.33
313.71	23.73
314.176	18.83
314.642	23.53
315.109	25.62
315.575	26.83
316.041	28.73
316.507	20.52
316.973	31.33
317.439	33.12
317.905	24.23
318.371	25.73
318.837	24.43
319.303	18.43
319.769	24.93
320.235	27.43
320.701	25.73
321.167	28.62
321.633	26.23
322.099	28.42
322.564	33.93
323.03	28.52
323.496	26.13
323.962	30.23
324.427	22.93
324.893	36.52
325.359	28.33
325.824	26.23
326.29	26.83
326.755	32.42
327.221	30.02
327.686	32.62
328.152	35.43
328.617	30.93
329.083	28.93
329.548	40.73
330.014	32.43
330.479	30.83
330.944	28.73
331.41	32.33
331.875	34.43
332.34	28.93
332.805	34.52
333.271	39.53
333.736	33.73
334.201	38.43
334.666	38.42
335.131	40.83
335.596	42.42
336.061	38.43
336.526	25.62
336.991	36.93
337.456	42.13
337.921	35.62
338.386	32.12
338.851	39.23
339.316	37.93
339.781	33.43
340.246	40.43
340.711	28.23
341.175	36.83
341.64	29.23
342.105	38.13
342.569	35.33
343.034	49.33
343.499	41.03
343.963	36.13
344.428	53.63
344.893	45.23
345.357	49.02
345.822	44.52
346.286	50.73
346.751	53.73
347.215	47.43
347.679	43.53
348.144	66.62
348.608	57.53
349.073	52.73
349.537	54.93
350.001	61.23
350.465	63.43
350.93	61.62
351.394	66.93
351.858	46.23
352.322	68.43
352.786	67.43
353.25	73.52
353.715	84.53
354.179	76.62
354.643	87.93
355.107	89.23
355.571	78.53
356.035	74.23
356.498	82.62
356.962	80.52
357.426	98.62
357.89	85.03
358.354	71.93
358.818	68.33
359.281	56.93
359.745	65.33
360.209	59.63
360.673	57.13
361.136	64.53
361.6	67.02
362.064	69.03
362.527	63.83
362.991	68.23
363.454	58.33
363.918	60.43
364.381	60.23
364.845	69.23
365.308	69.93
365.772	75.33
366.235	73.62
366.698	65.62
367.162	68.33
367.625	67.62
368.088	74.73
368.552	63.02
369.015	71.93
369.478	79.63
369.941	84.02
370.404	80.73
370.867	84.12
371.331	84.83
371.794	89.62
372.257	88.73
372.72	87.92
373.183	90.83
373.646	82.93
374.109	88.23
374.572	85.73
375.035	89.43
375.497	87.73
375.96	78.03
376.423	80.42
376.886	88.83
377.349	88.02
377.811	85.33
378.274	89.43
378.737	84.33
379.199	89.73
379.662	93.12
380.125	98.23
380.587	101.33
381.05	101.33
381.512	113.62
381.975	112.02
382.437	106.13
382.9	101.12
383.362	107.62
383.825	109.93
384.287	120.43
384.75	115.83
385.212	108.52
385.674	116.52
386.136	106.63
386.599	99.73
387.061	111.33
387.523	102.33
387.985	110.33
388.447	120.52
388.91	121.83
389.372	134.23
389.834	126.73
390.296	119.62
390.758	133.73
391.22	134.62
391.682	171.12
392.144	242.33
392.606	193.33
393.068	137.53
393.529	141.12
393.991	121.43
394.453	116.02
394.915	130.42
395.377	158.43
395.838	183.33
396.3	129.33
396.762	116.03
397.224	114.52
397.685	109.33
398.147	108.43
398.608	109.73
399.07	110.93
399.531	114.73
399.993	117.93
400.454	127.83
400.916	120.23
401.377	119.03
401.839	127.02
402.3	117.93
402.762	138.33
403.223	149.93
403.684	138.92
404.145	133.52
404.607	133.62
405.068	136.93
405.529	145.33
405.99	153.63
406.451	142.62
406.913	142.62
407.374	139.33
407.835	135.33
408.296	143.53
408.757	144.62
409.218	153.12
409.679	144.23
410.14	152.73
410.601	149.83
411.062	158.33
411.522	165.63
411.983	157.33
412.444	147.83
412.905	154.33
413.366	149.83
413.826	162.53
414.287	186.73
414.748	229.83
415.208	215.53
415.669	180.62
416.13	177.02
416.59	176.62
417.051	179.83
417.511	184.52
417.972	204.03
418.432	216.33
418.893	250.23
419.353	218.62
419.814	171.43
420.274	156.23
420.734	149.23
421.195	164.73
421.655	167.63
422.115	160.23
422.576	162.23
423.036	165.12
423.496	168.12
423.956	178.33
424.416	191.92
424.876	223.83
425.336	216.72
425.797	225.83
426.257	216.62
426.717	198.62
427.177	202.33
427.637	189.62
428.097	208.42
428.556	205.43
429.016	231.32
429.476	221.83
429.936	236.53
430.396	233.52
430.856	247.33
431.315	268.03
431.775	293.12
432.235	313.02
432.694	294.92
433.154	305.83
433.614	318.22
434.073	277.83
434.533	233.53
434.993	227.02
435.452	238.32
435.912	240.22
436.371	241.93
436.83	236.33
437.29	227.12
437.749	206.23
438.209	206.02
438.668	224.63
439.127	231.23
439.587	219.12
440.046	206.43
440.505	216.12
440.964	224.62
441.424	252.42
441.883	244.42
442.342	217.43
442.801	188.73
443.26	191.93
443.719	187.23
444.178	188.73
444.637	177.93
445.096	183.73
445.555	188.13
446.014	188.73
446.473	191.73
446.932	193.62
447.391	197.52
447.849	196.92
448.308	185.23
448.767	183.23
449.226	198.73
449.685	207.93
450.143	207.32
450.602	198.83
451.061	198.13
451.519	196.03
451.978	193.52
452.436	200.83
452.895	200.43
453.353	211.92
453.812	204.93
454.27	206.23
454.729	201.43
455.187	201.82
455.646	201.33
456.104	204.73
456.562	218.03
457.021	221.73
457.479	213.73
457.937	227.92
458.395	223.12
458.854	205.43
459.312	214.23
459.77	221.93
460.228	213.12
460.686	208.63
461.144	216.73
461.602	206.83
462.06	205.23
462.518	205.12
462.976	217.33
463.434	220.02
463.892	220.63
464.35	232.22
464.808	239.73
465.266	224.23
465.724	226.73
466.181	231.73
466.639	236.52
467.097	255.63
467.555	248.23
468.012	251.43
468.47	262.63
468.928	278.62
469.385	276.93
469.843	292.02
470.3	292.33
470.758	307.43
471.215	315.13
471.673	330.23
472.13	333.92
472.588	339.93
473.045	311.93
473.503	318.83
473.96	333.93
474.417	335.52
474.875	364.53
475.332	391.13
475.789	391.73
476.246	401.92
476.704	411.73
477.161	432.73
477.618	445.63
478.075	470.33
478.532	508.33
478.989	574.13
479.446	652.03
479.903	647.83
480.36	679.52
480.817	723.03
481.274	821.43
481.731	910.23
482.188	992.93
482.645	1114.93
483.102	1194.82
483.558	1305.02
484.015	1363.92
484.472	1366.73
484.929	1315.02
485.385	1273.12
485.842	1226.93
486.299	1160.72
486.755	1098.33
487.212	923.62
487.668	794.42
488.125	728.43
488.582	667.12
489.038	642.02
489.494	611.73
489.951	584.83
490.407	564.93
490.864	554.33
491.32	545.43
491.776	547.83
492.233	544.62
492.689	515.43
493.145	515.53
493.602	507.93
494.058	518.82
494.514	514.43
494.97	531.23
495.426	536.23
495.882	527.93
496.338	519.43
496.794	523.33
497.251	520.82
497.707	541.12
498.163	536.02
498.618	544.53
499.074	543.73
499.53	557.03
499.986	561.72
500.442	544.93
500.898	537.42
501.354	522.33
501.809	531.53
502.265	542.52
502.721	550.72
503.177	562.93
503.632	549.23
504.088	561.92
504.543	601.62
504.999	583.93
505.455	550.92
505.91	533.43
506.366	532.73
506.821	519.42
507.277	528.03
507.732	530.72
508.187	528.82
508.643	532.43
509.098	535.23
509.553	555.33
510.009	562.03
510.464	562.93
510.919	575.52
511.375	581.42
511.83	597.62
512.285	604.92
512.74	627.33
513.195	655.83
513.65	646.33
514.105	649.72
514.56	659.03
515.015	669.43
515.47	670.73
515.925	662.93
516.38	667.63
516.835	674.23
517.29	662.33
517.745	654.73
518.2	644.62
518.655	634.12
519.109	611.33
519.564	617.62
520.019	615.52
520.474	605.62
520.928	606.33
521.383	602.33
521.838	600.32
522.292	601.13
522.747	589.43
523.201	584.72
523.656	574.52
524.11	574.53
524.565	587.33
525.019	579.53
525.474	579.43
525.928	580.93
526.382	575.52
526.837	579.93
527.291	579.52
527.745	584.42
528.2	580.92
528.654	570.93
529.108	568.23
529.562	580.23
530.016	577.62
530.47	572.02
530.925	566.73
531.379	583.33
531.833	580.62
532.287	575.22
532.741	585.23
533.195	588.12
533.649	597.23
534.103	589.83
534.556	579.03
535.01	587.42
535.464	577.02
535.918	593.03
536.372	599.53
536.826	593.33
537.279	583.83
537.733	588.43
538.187	584.93
538.64	588.92
539.094	590.73
539.548	600.03
540.001	594.12
540.455	597.72
540.908	603.63
541.362	607.43
541.815	612.52
542.269	626.42
542.722	626.82
543.175	634.73
543.629	634.33
544.082	650.93
544.536	647.83
544.989	649.93
545.442	659.32
545.895	650.92
546.349	652.03
546.802	647.33
547.255	656.23
547.708	658.83
548.161	663.12
548.614	664.12
549.067	673.33
549.52	678.93
549.973	653.82
550.426	662.03
550.879	652.02
551.332	649.62
551.785	664.52
552.238	662.82
552.691	663.43
553.144	680.83
553.596	683.53
554.049	688.23
554.502	724.93
554.955	737.53
555.407	749.63
555.86	725.32
556.313	723.93
556.765	710.92
557.218	716.12
557.67	719.62
558.123	705.12
558.576	709.23
559.028	718.03
559.48	714.23
559.933	694.02
560.385	682.22
560.838	657.83
561.29	625.43
561.742	630.53
562.195	611.73
562.647	613.73
563.099	626.03
563.551	616.63
564.004	637.62
564.456	618.42
564.908	613.53
565.36	600.73
565.812	588.23
566.264	581.12
566.716	575.23
567.168	574.92
567.62	576.12
568.072	560.83
568.524	547.83
568.976	541.22
569.428	535.93
569.88	539.23
570.332	539.33
570.784	542.92
571.235	535.53
571.687	549.13
572.139	556.83
572.59	562.72
573.042	557.22
573.494	569.92
573.945	565.42
574.397	545.43
574.849	543.13
575.3	547.83
575.752	541.32
576.203	535.03
576.655	539.22
577.106	527.13
577.557	524.73
578.009	529.53
578.46	527.33
578.912	516.53
579.363	522.43
579.814	530.33
580.265	514.73
580.717	524.13
581.168	529.52
581.619	524.83
582.07	535.93
582.521	531.12
582.972	529.73
583.423	534.62
583.875	527.02
584.326	541.83
584.777	580.33
585.227	638.52
585.678	709.93
586.129	788.83
586.58	850.43
587.031	912.93
587.482	1044.33
587.933	1210.12
588.384	1037.73
588.834	772.33
589.285	638.83
589.736	623.82
590.186	604.12
590.637	601.32
591.088	591.83
591.538	578.02
591.989	573.43
592.439	568.12
592.89	562.12
593.34	552.13
593.791	553.83
594.241	541.53
594.692	547.33
595.142	543.23
595.593	536.83
596.043	547.62
596.493	553.63
596.943	558.23
597.394	546.93
597.844	555.43
598.294	548.93
598.744	573.02
599.195	595.52
599.645	637.23
600.095	659.62
600.545	699.23
600.995	736.12
601.445	793.22
601.895	833.53
602.345	877.02
602.795	863.32
603.245	822.92
603.695	771.92
604.145	748.02
604.594	704.12
605.044	667.23
605.494	612.83
605.944	575.93
606.393	575.03
606.843	560.73
607.293	555.03
607.743	564.73
608.192	566.42
608.642	578.02
609.091	588.73
609.541	586.23
609.99	579.62
610.44	583.62
610.889	544.43
611.339	539.53
611.788	529.83
612.238	541.83
612.687	542.53
613.136	554.52
613.586	559.03
614.035	558.53
614.484	577.93
614.933	580.43
615.383	568.43
615.832	553.03
616.281	548.93
616.73	524.52
617.179	509.23
617.628	505.72
618.077	487.82
618.526	473.33
618.975	467.73
619.424	465.83
619.873	469.23
620.322	462.43
620.771	457.73
621.22	459.42
621.669	446.83
622.118	441.92
622.567	433.33
623.015	431.32
623.464	428.13
623.913	426.12
624.361	417.92
624.81	415.02
625.259	415.73
625.707	422.03
626.156	422.43
626.604	430.12
627.053	426.33
627.501	421.62
627.95	432.73
628.398	438.33
628.847	417.53
629.295	432.02
629.744	427.53
630.192	427.33
630.64	424.62
631.089	418.53
631.537	425.43
631.985	438.13
632.433	450.43
632.881	454.33
633.33	483.72
633.778	468.82
634.226	422.83
634.674	426.03
635.122	427.03
635.57	444.33
636.018	462.73
636.466	436.73
636.914	416.83
637.362	423.62
637.81	433.92
638.258	430.03
638.705	433.43
639.153	452.23
639.601	462.23
640.049	468.92
640.497	513.83
640.944	518.12
641.392	480.02
641.84	452.62
642.287	430.63
642.735	422.53
643.182	426.33
643.63	424.93
644.078	434.12
644.525	443.83
644.973	443.52
645.42	445.92
645.867	465.83
646.315	473.03
646.762	492.53
647.21	514.93
647.657	525.42
648.104	553.02
648.551	573.63
648.999	618.43
649.446	675.52
649.893	744.03
650.34	850.62
650.787	1014.52
651.234	1269.53
651.682	1628.62
652.129	2208.52
652.576	3198.53
653.023	4739.12
653.47	6627.62
653.917	8382.02
654.363	9864.83
654.81	11153.43
655.257	10620.83
655.704	6868.33
656.151	4028.32
656.598	2595.32
657.044	1840.43
657.491	1397.12
657.938	1107.73
658.385	935.43
658.831	795.12
659.278	718.23
659.724	634.23
660.171	583.83
660.618	525.23
661.064	494.12
661.511	485.13
661.957	472.42
662.404	458.32
662.85	459.83
663.296	444.43
663.743	410.72
664.189	400.33
664.635	393.63
665.082	389.93
665.528	392.53
665.974	381.13
666.42	373.12
666.867	372.63
667.313	354.02
667.759	343.83
668.205	352.23
668.651	360.33
669.097	359.03
669.543	371.03
669.989	350.13
670.435	335.93
670.881	330.53
671.327	325.73
671.773	336.72
672.219	354.22
672.665	401.12
673.11	429.83
673.556	461.43
674.002	495.43
674.448	479.33
674.893	401.52
675.339	349.83
675.785	322.83
676.23	310.12
676.676	288.02
677.122	277.03
677.567	269.52
678.013	269.02
678.458	256.33
678.904	258.23
679.349	250.23
679.794	250.23
680.24	256.73
680.685	247.52
681.131	248.43
681.576	252.33
682.021	259.23
682.466	250.92
682.912	248.83
683.357	245.33
683.802	274.23
684.247	297.22
684.692	331.03
685.137	365.02
685.583	393.23
686.028	417.53
686.473	381.62
686.918	323.33
687.363	302.83
687.807	288.42
688.252	266.23
688.697	255.23
689.142	246.13
689.587	246.92
690.032	233.03
690.477	231.62
690.921	249.83
691.366	271.93
691.811	284.03
692.255	311.93
692.7	329.13
693.145	360.03
693.589	493.03
694.034	794.32
694.478	1103.23
694.923	1280.53
695.367	1725.62
695.812	894.92
696.256	364.72
696.701	267.23
697.145	253.02
697.59	238.62
698.034	233.03
698.478	243.83
698.922	230.83
699.367	229.23
699.811	245.73
700.255	262.53
700.699	284.93
701.143	313.62
701.588	343.23
702.032	375.63
702.476	371.83
702.92	352.62
703.364	356.53
703.808	454.22
704.252	724.32
704.696	1033.23
705.14	1241.93
705.584	1620.53
706.027	798.92
706.471	382.62
706.915	291.42
707.359	256.52
707.803	232.53
708.246	230.53
708.69	228.33
709.134	232.52
709.577	222.52
710.021	231.42
710.465	220.03
710.908	220.13
711.352	215.93
711.795	219.72
712.239	250.93
712.682	269.33
713.126	299.33
713.569	339.43
714.012	274.63
714.456	232.73
714.899	224.93
715.342	198.73
715.786	190.83
716.229	187.03
716.672	187.43
717.115	177.23
717.558	179.13
718.002	183.93
718.445	188.52
718.888	213.62
719.331	212.03
719.774	217.52
720.217	221.43
720.66	196.92
721.103	191.42
721.546	184.73
721.989	182.12
722.432	161.83
722.874	171.02
723.317	168.93
723.76	164.33
724.203	185.23
724.645	229.13
725.088	312.22
725.531	401.92
725.974	480.33
726.416	404.33
726.859	226.53
727.301	179.73
727.744	169.63
728.187	161.13
728.629	172.02
729.071	175.23
729.514	193.32
729.956	195.62
730.399	202.82
730.841	204.62
731.283	207.03
731.726	192.43
732.168	185.12
732.61	186.92
733.053	216.53
733.495	220.53
733.937	242.43
734.379	281.53
734.821	302.83
735.263	383.53
735.705	584.43
736.148	1100.72
736.59	1848.93
737.032	2303.52
737.474	1879.62
737.916	598.83
738.357	301.23
738.799	235.13
739.241	215.32
739.683	200.53
740.125	210.32
740.567	220.73
741.008	230.23
741.45	228.13
741.892	224.52
742.334	256.53
742.775	267.33
743.217	245.42
743.658	198.12
744.1	182.23
744.542	185.43
744.983	227.73
745.425	255.23
745.866	262.23
746.307	202.52
746.749	202.83
747.19	236.33
747.632	319.53
748.073	598.92
748.514	1307.33
748.956	2088.33
749.397	2617.72
749.838	2161.62
750.279	2236.03
750.72	1125.92
751.162	405.63
751.603	229.33
752.044	177.12
752.485	158.23
752.926	153.23
753.367	145.83
753.808	133.62
754.249	143.23
754.69	131.63
755.131	128.63
755.572	130.12
756.013	122.73
756.453	134.13
756.894	130.53
757.335	133.53
757.776	138.73
758.216	140.92
758.657	141.03
759.098	142.83
759.538	163.53
759.979	182.03
760.42	260.43
760.86	481.73
761.301	1254.53
761.741	3167.23
762.182	4992.33
762.622	3504.03
763.063	981.83
763.503	399.33
763.943	241.62
764.384	242.42
764.824	294.62
765.264	325.93
765.705	226.42
766.145	152.73
766.585	136.83
767.025	126.42
767.465	125.62
767.906	169.83
768.346	231.33
768.786	254.03
769.226	191.02
769.666	226.33
770.106	418.53
770.546	1082.22
770.986	1965.73
771.426	1800.33
771.866	587.23
772.306	237.33
772.745	149.33
773.185	128.23
773.625	118.03
774.065	120.23
774.505	145.73
774.944	220.92
775.384	483.33
775.824	927.23
776.263	932.43
776.703	383.12
777.142	164.23
777.582	112.92
778.021	95.53
778.461	101.23
778.9	94.53
779.34	91.53
779.779	85.23
780.219	76.03
780.658	76.83
781.097	79.63
781.537	73.62
781.976	76.83
782.415	78.42
782.855	72.33
783.294	73.83
783.733	73.62
784.172	75.62
784.611	71.12
785.05	77.83
785.489	81.43
785.928	88.93
786.367	87.83
786.806	84.33
787.245	94.92
787.684	94.43
788.123	106.62
788.562	91.73
789.001	93.53
789.44	95.43
789.879	82.12
790.317	82.23
790.756	90.83
791.195	88.73
791.634	101.73
792.072	141.83
792.511	252.93
792.95	693.53
793.388	1588.43
793.827	1499.83
794.265	505.23
794.704	201.73
795.142	131.93
795.581	112.93
796.019	97.33
796.458	88.73
796.896	82.73
797.334	86.43
797.773	111.03
798.211	153.83
798.649	299.42
799.087	728.03
799.526	1167.93
799.964	1470.83
800.402	1543.42
800.84	569.62
801.278	214.83
801.716	127.62
802.154	107.52
802.592	101.63
803.03	99.03
803.468	88.93
803.906	102.53
804.344	105.63
804.782	98.63
805.22	92.42
805.658	86.33
806.096	103.63
806.533	115.83
806.971	124.92
807.409	155.92
807.847	213.03
808.284	456.12
808.722	1338.12
809.16	2491.93
809.597	2285.83
810.035	4076.93
810.472	4609.43
810.91	1601.32
811.347	598.43
811.785	299.83
812.222	185.92
812.66	146.53
813.097	122.62
813.535	100.12
813.972	87.03
814.409	87.23
814.846	81.73
815.284	74.43
815.721	70.62
816.158	74.73
816.595	84.83
817.032	132.12
817.47	152.73
817.907	126.23
818.344	109.12
818.781	82.63
819.218	73.73
819.655	95.43
820.092	142.33
820.529	160.02
820.966	128.63
821.403	97.83
821.839	70.83
822.276	72.63
822.713	89.33
823.15	102.03
823.587	84.33
824.023	97.23
824.46	210.23
824.897	642.33
825.333	1036.53
825.77	433.92
826.206	168.42
826.643	92.83
827.08	76.43
827.516	53.83
827.953	58.23
828.389	55.02
828.825	41.83
829.262	50.62
829.698	45.33
830.135	53.83
830.571	39.92
831.007	49.03
831.443	51.93
831.88	42.23
832.316	39.73
832.752	39.13
833.188	39.93
833.624	39.93
834.06	50.63
834.497	40.83
834.933	43.83
835.369	52.93
835.805	48.93
836.241	55.62
836.677	56.23
837.112	60.33
837.548	70.93
837.984	97.03
838.42	136.53
838.856	342.23
839.292	1105.83
839.727	1786.22
840.163	816.53
840.599	658.43
841.034	1513.23
841.47	1657.52
841.906	594.62
842.341	246.93
842.777	169.33
843.212	230.12
843.648	241.33
844.083	117.83
844.519	68.33
844.954	53.03
845.39	38.93
845.825	40.53
846.261	35.23
846.696	34.83
847.131	37.73
847.566	38.92
848.002	42.13
848.437	38.03
848.872	42.33
849.307	35.63
849.742	57.93
850.177	128.83
850.613	400.12
851.048	672.12
851.483	286.42
851.918	108.52
852.353	56.62
852.788	44.43
853.223	38.52
853.657	34.73
854.092	30.53
854.527	33.83
854.962	29.52
855.397	24.53
855.832	33.33
856.266	24.03
856.701	26.13
857.136	24.23
857.57	26.53
858.005	37.93
858.44	46.12
858.874	32.93
859.309	40.93
859.743	28.23
860.178	30.42
860.612	32.33
861.047	33.43
861.481	47.12
861.915	53.53
862.35	37.83
862.784	18.42
863.218	26.73
863.653	22.93
864.087	33.23
864.521	40.33
864.955	47.23
865.39	114.23
865.824	124.73
866.258	78.93
866.692	126.83
867.126	139.12
867.56	86.52
867.994	39.02
868.428	26.23
868.862	31.63
869.296	44.83
869.73	36.92
870.164	36.62
870.598	37.13
871.031	24.83
871.465	22.33
871.899	21.53
872.333	16.83
872.766	12.43
873.2	20.73
873.634	21.33
874.067	18.33
874.501	13.52
874.935	25.12
875.368	17.23
875.802	18.43
876.235	17.73
876.669	18.43
877.102	17.33
877.535	18.63
877.969	10.23
878.402	16.73
878.836	14.03
879.269	15.73
879.702	17.23
880.135	14.52
880.569	11.52
881.002	12.53
881.435	15.33
881.868	9.33
882.301	16.83
882.734	13.52
883.167	12.63
883.601	11.43
884.034	13.02
884.467	12.83
884.899	15.03
885.332	8.83
885.765	4.13
886.198	8.93
886.631	8.62
887.064	9.93
887.497	17.62
887.929	16.43
888.362	6.93
888.795	4.33
889.228	8.53
889.66	10.93
890.093	10.62
890.526	7.62
890.958	10.73
891.391	14.23
891.823	20.53
892.256	7.43
892.688	14.73
893.121	11.23
893.553	8.73
893.985	12.83
894.418	15.73
894.85	5.73
895.282	11.02
895.715	9.73
896.147	13.33
896.579	6.33
897.011	9.23
897.444	12.43
897.876	5.73
898.308	5.42
898.74	14.53
899.172	6.13
899.604	24.73
900.036	14.83
900.468	10.93
900.9	10.83
901.332	14.23
901.764	7.23
902.196	7.33
902.628	6.62
903.06	2.73
903.491	17.33
903.923	18.43
904.355	13.63
904.787	13.12
905.218	17.53
905.65	8.93
906.082	8.73
906.513	3.12
906.945	10.33
907.376	4.92
907.808	18.23
908.239	15.13
908.671	12.23
909.102	14.73
909.534	15.23
909.965	32.63
910.397	68.83
910.828	235.43
911.259	373.62
911.691	167.33
912.122	81.33
912.553	36.62
912.984	29.43
913.415	20.13
913.847	18.73
914.278	7.33
914.709	13.02
915.14	10.53
915.571	11.83
916.002	8.62
916.433	9.53
916.864	13.02
917.295	6.12
917.726	17.43
918.157	6.23
918.587	19.53
919.018	16.93
919.449	20.53
919.88	20.42
920.311	20.23
920.741	35.62
921.172	115.93
921.603	113.12
922.033	48.02
922.464	30.43
922.895	18.33
923.325	15.53
923.756	8.73
924.186	8.93
924.617	20.03
925.047	28.83
925.478	38.53
925.908	26.33
926.338	19.63
926.769	9.53
927.199	17.73
927.629	4.03
928.06	13.12
928.49	6.73
928.92	1.43
929.35	7.03
929.78	5.62
930.21	4.02
930.641	4.03
931.071	6.62
931.501	2.13
931.931	7.63
932.361	4.83
932.791	1.23
933.221	5.43
933.651	-2.47
934.08	10.62
934.51	19.33
934.94	7.43
935.37	-1.97
935.8	10.73
936.229	6.93
936.659	7.12
937.089	-3.07
937.519	8.73
937.948	19.52
938.378	7.73
938.807	6.92
939.237	2.73
939.666	9.63
940.096	-7.57
940.525	0.93
940.955	3.03
941.384	-2.07
941.814	-4.88
942.243	-5.17
942.672	4.03
943.102	-5.07
943.531	-1.37
943.96	2.93
944.39	4.92
944.819	-5.17
945.248	-2.97
945.677	2.53
946.106	-0.37
946.535	6.23
946.964	-8.97
947.393	5.23
947.822	0.23
948.251	-4.88
948.68	0.83
949.109	3.62
949.538	1.73
949.967	1.83
950.396	-3.07
950.825	-1.08
951.254	4.03
951.682	-3.38
952.111	-1.97
952.54	4.93
952.969	-1.97
953.397	-3.27
953.826	0.02
954.254	-8.47
954.683	-7.67
955.112	-6.57
955.54	-3.67
955.969	-0.87
956.397	1.43
956.826	0.83
957.254	4.03
957.682	1.83
958.111	2.23
958.539	-0.27
958.967	1.23
959.396	-5.48
959.824	-1.47
960.252	-1.98
960.68	-8.38
961.109	-5.08
961.537	-12.87
961.965	0.23
962.393	-2.77
962.821	-6.67
963.249	-0.88
963.677	4.43
964.105	2.02
964.533	28.73
964.961	26.83
965.389	11.33
965.817	8.33
966.245	1.93
966.672	-7.67
967.1	-8.07
967.528	1.02
967.956	-2.37
968.383	-0.77
968.811	4.53
969.239	-3.98
969.666	-8.07
970.094	-1.77
970.522	-3.47
970.949	-7.48
971.377	-4.37
971.804	-4.37
972.232	4.13
972.659	-8.47
973.087	-6.67
973.514	-3.48
973.941	-12.67
974.369	-0.67
974.796	1.23
975.223	-0.67
975.651	-7.07
976.078	3.13
976.505	1.12
976.932	6.23
977.359	11.83
977.786	5.93
978.214	2.23
978.641	-7.27
979.068	-10.77
979.495	-4.98
979.922	-0.27
980.349	-1.17
980.776	2.33
981.202	-7.07
981.629	2.83
982.056	2.62
982.483	-7.87
982.91	3.03
983.337	-9.38
983.763	2.62
984.19	-10.77
984.617	-7.97
985.043	-8.17
985.47	-2.27
985.897	-7.47
986.323	-10.07
986.75	0.63
987.176	-2.17
987.603	-4.48
988.029	-0.27
988.456	-6.57
988.882	5.33
989.308	-6.58
989.735	-6.58
990.161	-10.77
990.587	-7.77
991.014	-4.38
991.44	3.62
991.866	-4.67
992.292	-4.57
992.719	-9.77
993.145	1.63
993.571	-14.27
993.997	-3.27
994.423	-5.97
994.849	-5.38
995.275	0.33
995.701	0.02
996.127	-6.98
996.553	1.03
996.979	-2.27
997.405	-2.97
997.83	-10.67
998.256	-7.98
998.682	-10.87
999.108	-12.27
999.534	-8.17
999.959	-7.88
1000.385	-7.67
1000.811	-3.88
1001.236	-12.77
1001.662	-6.57
1002.087	-14.07
1002.513	-2.48
1002.938	-1.87
1003.364	-0.67
1003.789	0.03
1004.215	-2.07
1004.64	-3.48
1005.066	6.93
1005.491	0.13
1005.916	-1.98
1006.342	-4.87
1006.767	-10.97
1007.192	3.03
1007.617	-5.17
1008.042	-3.77
1008.468	-0.88
1008.893	-7.47
1009.318	-5.57
1009.743	-7.17
1010.168	-3.17
1010.593	-3.67
1011.018	-9.97
1011.443	-6.27
1011.868	-1.07
1012.293	-0.97
1012.718	-8.47
1013.143	-3.08
1013.567	-2.07
1013.992	-9.17
1014.417	-9.98
1014.842	2.02
1015.267	-5.27
1015.691	-5.97
1016.116	1.52
1016.541	0.23
1016.965	1.23
1017.39	0.93
1017.814	1.93
1018.239	1.33
1018.663	-5.77
1019.088	-12.48
1019.512	-3.88
1019.937	0.53
1020.361	-5.17
1020.785	-7.88
1021.21	-4.17
1021.634	-8.67
1022.058	3.23
1022.483	4.53
1022.907	-7.67
1023.331	-3.97
1023.755	-3.07
1024.179	3.12
1024.604	-7.17
1025.028	-5.38
1025.452	-2.57
1025.876	-2.08
1026.3	0.93
1026.724	-3.38
1027.148	-3.17
1027.572	-6.07
1027.996	-6.77
1028.42	-5.17
1028.843	-5.38
1029.267	-7.67
1029.691	-0.77
1030.115	-9.57
1030.539	-4.58
1030.962	-9.38
1031.386	-8.67
1031.81	-0.77
1032.233	-6.07
1032.657	-6.47
1033.08	-2.38
1033.504	-0.48
1033.927	-5.27
1034.351	0.63
1034.774	-8.07
1035.198	-2.07
1035.621	-9.37
1036.045	-9.38
1036.468	0.02
1036.891	-4.77
1037.315	-10.17
1037.738	-8.17
1038.161	1.42
1038.584	-9.07
1039.008	-8.67
1039.431	-7.07
1039.854	3.02
1040.277	-5.77
1040.7	-13.67
1041.123	1.43
1041.546	-9.27
1041.969	-6.17
1042.392	-11.48
1042.815	-9.27
1043.238	-1.48
1043.661	-0.48
1044.084	-16.87
1044.507	-11.17
1044.93	-5.77
1045.352	-6.38
1045.775	1.83
1046.198	-13.27
1046.621	-0.57
1047.043	-0.47
1047.466	4.33
1047.889	-2.27
1048.311	-3.07
1048.734	-3.67
1049.156	-3.67
1049.579	-2.48
1050.001	-0.37
1050.424	-2.77
1050.846	-6.38
1051.269	-8.67
1051.691	-6.07
1052.113	-5.67
1052.536	-3.27
1052.958	-0.77
1053.38	-4.07
1053.802	-12.07
1054.225	1.12
1054.647	-8.97
1055.069	-9.17
1055.491	-0.37
1055.913	-0.17
1056.335	-1.67
1056.757	-4.87
1057.179	-3.27
1057.601	-0.97
1058.023	-3.97
1058.445	-5.98
1058.867	-2.88
1059.289	-2.77
1059.711	0.33
1060.133	-3.17
1060.555	-8.27
1060.976	-7.77
1061.398	-9.67
1061.82	-5.77
1062.241	-6.77
1062.663	-6.88
1063.085	-8.57
1063.506	-3.67
1063.928	-8.38
1064.35	-2.57
1064.771	-13.08
1065.193	-6.38
1065.614	-11.38
1066.035	-5.47
1066.457	2.62
1066.878	-4.88
1067.3	-9.48
1067.721	-3.07
1068.142	-3.17
1068.564	-6.27
1068.985	-5.38
1069.406	-6.77
1069.827	-6.57
1070.248	1.62
1070.67	-11.67
1071.091	-11.17
1071.512	-6.27
1071.933	-9.67
1072.354	-5.57
1072.775	-2.47
1073.196	-8.07
1073.617	-2.88
1074.038	-3.17
1074.459	-7.07
1074.88	-5.97
1075.3	0.03
1075.721	-9.08
1076.142	-1.17
1076.563	-1.58
1076.983	-10.57
1077.404	-12.67
1077.825	-8.57
1078.246	-0.88
1078.666	-11.98
1079.087	-8.57
1079.507	-4.17
1079.928	-2.67
1080.348	0.53
1080.769	-9.98
1081.189	-6.37
1081.61	2.93
1082.03	-7.67
1082.451	-7.17
1082.871	-5.17
1083.291	-8.98
1083.711	-12.67
1084.132	0.83
1084.552	-3.67
1084.972	0.83
1085.392	-6.98
1085.813	-11.38
1086.233	-5.77
1086.653	-8.57
1087.073	-0.77
1087.493	-4.77
1087.913	-10.67
1088.333	-8.57
1088.753	-5.17
1089.173	3.02
1089.593	-5.17
1090.013	-3.98
1090.433	3.43
1090.852	0.03
1091.272	-5.17
1091.692	-0.67
1092.112	-2.27
1092.531	-10.67
1092.951	-9.77
1093.371	-8.98
1093.79	2.63
1094.21	-2.27
1094.63	0.63
1095.049	-8.47
1095.469	5.53
1095.888	-5.48
1096.308	-1.77
1096.727	2.93
1097.146	-7.97
1097.566	0.93
1097.985	-10.47
1098.405	-5.07
1098.824	-3.97
1099.243	-4.87
1099.662	-9.07
1100.082	-3.77
1100.501	-2.48
1100.92	-5.57
1101.339	-0.27
1101.758	-11.27
