Data from 20171114-ORNL-Ar_H_NY_Subt18_08-08-07-468.txt Node
Date: Tue Nov 14 08:08:07 EST 2017
User: Ender
Spectrometer: HR+D1039
Trigger mode: 0
Integration Time (sec): 2.730000E-2
Scans to average: 10
Electric dark correction enabled: true
Nonlinearity correction enabled: false
Boxcar width: 0
XAxis mode: Wavelengths
Number of Pixels in Spectrum: 2048
>>>>>Begin Spectral Data<<<<<
187.836	3.47
188.309	3.47
188.782	3.47
189.255	3.37
189.728	-0.63
190.201	3.67
190.674	1.17
191.147	1.47
191.619	-9.43
192.092	4.07
192.565	0.57
193.038	3.57
193.511	-0.83
193.984	0.17
194.456	-6.23
194.929	1.37
195.402	-2.93
195.874	-2.93
196.347	-0.33
196.82	-3.83
197.292	6.87
197.765	0.67
198.237	-5.43
198.71	6.17
199.182	-3.63
199.655	-0.83
200.127	-1.03
200.6	0.37
201.072	-5.93
201.544	-7.43
202.017	2.07
202.489	8.27
202.961	4.97
203.433	-2.13
203.906	-9.83
204.378	-5.23
204.85	3.67
205.322	-3.63
205.794	-4.33
206.266	-5.63
206.739	-2.83
207.211	-0.53
207.683	-5.63
208.155	-7.93
208.627	-5.13
209.099	-1.63
209.57	-7.63
210.042	-4.33
210.514	-1.13
210.986	-5.13
211.458	-8.13
211.93	-1.03
212.402	7.17
212.873	-4.83
213.345	-5.53
213.817	-9.43
214.288	-8.23
214.76	-10.73
215.232	-8.13
215.703	-2.53
216.175	0.67
216.646	-11.03
217.118	-5.23
217.589	-0.53
218.061	0.87
218.532	-1.13
219.004	3.07
219.475	-0.63
219.946	-7.73
220.418	-6.73
220.889	1.47
221.36	3.47
221.832	-0.13
222.303	-3.83
222.774	2.77
223.245	-12.83
223.717	-5.13
224.188	-4.33
224.659	-8.13
225.13	-1.23
225.601	0.17
226.072	3.07
226.543	-0.63
227.014	3.87
227.485	-2.83
227.956	-0.73
228.427	-0.33
228.898	2.57
229.369	-1.93
229.839	-3.03
230.31	-5.23
230.781	-0.33
231.252	0.97
231.722	-4.03
232.193	-1.93
232.664	3.27
233.135	0.07
233.605	0.67
234.076	-6.33
234.546	4.97
235.017	2.97
235.487	-3.03
235.958	-0.43
236.428	-5.13
236.899	5.67
237.369	5.17
237.84	-3.93
238.31	5.07
238.78	6.07
239.251	1.07
239.721	1.47
240.191	-1.73
240.662	0.47
241.132	3.97
241.602	1.87
242.072	-0.33
242.542	6.87
243.013	-2.33
243.483	4.07
243.953	7.27
244.423	3.47
244.893	-2.43
245.363	2.17
245.833	3.07
246.303	6.47
246.773	5.77
247.243	8.17
247.712	5.67
248.182	10.67
248.652	6.27
249.122	5.57
249.592	12.37
250.061	23.37
250.531	34.17
251.001	17.77
251.471	22.27
251.94	19.97
252.41	8.87
252.879	2.07
253.349	13.87
253.818	6.77
254.288	7.27
254.757	5.07
255.227	2.17
255.696	2.57
256.166	3.17
256.635	8.57
257.105	10.37
257.574	7.17
258.043	8.37
258.513	7.67
258.982	18.67
259.451	4.77
259.92	11.67
260.389	11.67
260.859	20.47
261.328	12.17
261.797	16.97
262.266	11.77
262.735	7.87
263.204	5.27
263.673	-1.63
264.142	9.77
264.611	0.97
265.08	-0.43
265.549	4.27
266.018	10.47
266.487	-2.93
266.955	3.67
267.424	-0.43
267.893	9.57
268.362	-0.03
268.83	2.77
269.299	11.37
269.768	10.27
270.236	9.97
270.705	2.87
271.174	9.07
271.642	2.07
272.111	13.17
272.579	19.57
273.048	26.77
273.516	26.67
273.985	19.97
274.453	25.67
274.922	22.77
275.39	11.07
275.858	2.07
276.327	11.87
276.795	17.87
277.263	10.97
277.731	30.97
278.2	48.77
278.668	60.87
279.136	38.27
279.604	17.17
280.072	13.07
280.54	15.77
281.008	12.47
281.477	19.67
281.945	9.37
282.413	15.97
282.881	14.77
283.348	15.17
283.816	14.87
284.284	18.67
284.752	18.67
285.22	11.37
285.688	10.67
286.156	21.97
286.623	46.57
287.091	59.77
287.559	28.17
288.026	18.37
288.494	16.07
288.962	6.27
289.429	8.27
289.897	17.07
290.364	21.57
290.832	18.17
291.3	17.87
291.767	14.37
292.234	24.17
292.702	10.67
293.169	15.07
293.637	27.77
294.104	18.47
294.571	16.57
295.039	16.57
295.506	9.97
295.973	15.77
296.44	21.07
296.908	21.87
297.375	18.67
297.842	19.57
298.309	15.97
298.776	15.47
299.243	22.27
299.71	16.47
300.177	24.47
300.644	20.17
301.111	25.17
301.578	25.37
302.045	17.57
302.512	24.87
302.979	24.87
303.446	25.67
303.913	16.57
304.379	13.87
304.846	28.77
305.313	28.07
305.78	21.97
306.246	23.97
306.713	26.97
307.18	23.57
307.646	21.77
308.113	28.27
308.579	27.27
309.046	23.87
309.512	24.67
309.979	23.67
310.445	30.17
310.912	28.27
311.378	30.57
311.845	25.67
312.311	29.07
312.777	32.77
313.244	33.77
313.71	43.57
314.176	28.87
314.642	31.37
315.109	34.27
315.575	35.47
316.041	43.67
316.507	41.77
316.973	42.77
317.439	36.07
317.905	38.77
318.371	33.47
318.837	35.07
319.303	40.27
319.769	39.87
320.235	28.07
320.701	36.77
321.167	36.17
321.633	40.07
322.099	40.57
322.564	44.97
323.03	36.77
323.496	37.17
323.962	43.57
324.427	33.27
324.893	43.67
325.359	41.17
325.824	37.07
326.29	33.57
326.755	38.17
327.221	41.97
327.686	43.57
328.152	44.07
328.617	44.67
329.083	46.37
329.548	51.37
330.014	49.17
330.479	37.57
330.944	43.67
331.41	40.67
331.875	41.97
332.34	37.67
332.805	40.07
333.271	48.07
333.736	40.97
334.201	46.97
334.666	51.67
335.131	51.27
335.596	53.67
336.061	47.47
336.526	41.27
336.991	55.07
337.456	56.57
337.921	50.97
338.386	48.07
338.851	45.77
339.316	50.57
339.781	43.57
340.246	49.37
340.711	45.97
341.175	53.57
341.64	47.07
342.105	53.17
342.569	49.17
343.034	61.67
343.499	58.77
343.963	56.47
344.428	63.77
344.893	60.07
345.357	58.17
345.822	64.37
346.286	68.87
346.751	71.17
347.215	68.87
347.679	77.37
348.144	101.37
348.608	81.37
349.073	68.57
349.537	74.57
350.001	79.97
350.465	80.57
350.93	75.97
351.394	79.37
351.858	73.27
352.322	88.37
352.786	82.77
353.25	96.87
353.715	119.07
354.179	102.47
354.643	124.67
355.107	120.07
355.571	111.47
356.035	104.27
356.498	119.07
356.962	128.87
357.426	141.37
357.89	117.27
358.354	89.87
358.818	79.27
359.281	80.97
359.745	79.27
360.209	77.37
360.673	78.17
361.136	81.37
361.6	83.57
362.064	79.67
362.527	86.27
362.991	90.37
363.454	78.17
363.918	80.37
364.381	77.77
364.845	86.07
365.308	89.17
365.772	89.57
366.235	87.57
366.698	84.77
367.162	93.77
367.625	92.37
368.088	80.47
368.552	88.67
369.015	82.17
369.478	95.37
369.941	89.97
370.404	94.87
370.867	104.17
371.331	108.17
371.794	117.87
372.257	109.07
372.72	119.67
373.183	106.97
373.646	105.87
374.109	100.17
374.572	107.87
375.035	105.37
375.497	109.27
375.96	108.67
376.423	105.47
376.886	118.47
377.349	117.37
377.811	103.97
378.274	111.77
378.737	102.07
379.199	116.17
379.662	110.37
380.125	125.37
380.587	115.97
381.05	125.17
381.512	126.67
381.975	136.77
382.437	131.97
382.9	126.07
383.362	134.97
383.825	145.57
384.287	150.17
384.75	145.77
385.212	142.47
385.674	145.67
386.136	135.07
386.599	127.97
387.061	130.67
387.523	136.37
387.985	136.47
388.447	154.17
388.91	150.27
389.372	162.07
389.834	156.57
390.296	153.37
390.758	161.77
391.22	178.87
391.682	213.37
392.144	311.37
392.606	235.47
393.068	172.57
393.529	167.77
393.991	156.67
394.453	147.37
394.915	161.87
395.377	204.37
395.838	222.47
396.3	160.07
396.762	140.57
397.224	138.07
397.685	126.97
398.147	135.57
398.608	130.37
399.07	126.67
399.531	137.47
399.993	144.87
400.454	154.37
400.916	142.17
401.377	142.97
401.839	145.87
402.3	157.07
402.762	167.97
403.223	182.47
403.684	169.87
404.145	158.67
404.607	165.97
405.068	164.97
405.529	167.07
405.99	188.57
406.451	185.77
406.913	185.17
407.374	159.27
407.835	166.77
408.296	177.27
408.757	174.07
409.218	184.67
409.679	186.07
410.14	178.77
410.601	173.27
411.062	189.07
411.522	192.17
411.983	192.47
412.444	175.87
412.905	181.67
413.366	183.77
413.826	190.07
414.287	219.67
414.748	267.47
415.208	240.67
415.669	210.47
416.13	212.27
416.59	201.07
417.051	218.47
417.511	221.97
417.972	231.67
418.432	254.77
418.893	286.77
419.353	255.27
419.814	204.17
420.274	185.57
420.734	182.17
421.195	202.67
421.655	205.27
422.115	200.87
422.576	202.77
423.036	202.57
423.496	205.47
423.956	218.17
424.416	231.57
424.876	266.47
425.336	257.47
425.797	265.17
426.257	253.17
426.717	244.67
427.177	233.17
427.637	229.47
428.097	227.87
428.556	244.77
429.016	272.47
429.476	271.87
429.936	280.47
430.396	285.37
430.856	299.97
431.315	322.47
431.775	359.77
432.235	385.17
432.694	357.17
433.154	367.77
433.614	409.17
434.073	343.17
434.533	297.87
434.993	276.47
435.452	283.57
435.912	310.27
436.371	292.27
436.83	290.77
437.29	276.87
437.749	244.87
438.209	247.67
438.668	284.37
439.127	289.47
439.587	267.67
440.046	252.57
440.505	260.07
440.964	281.87
441.424	327.47
441.883	318.97
442.342	268.57
442.801	221.57
443.26	221.97
443.719	223.57
444.178	223.97
444.637	214.47
445.096	220.27
445.555	229.97
446.014	229.07
446.473	229.27
446.932	238.87
447.391	224.67
447.849	229.37
448.308	219.97
448.767	223.47
449.226	233.27
449.685	231.57
450.143	247.67
450.602	238.97
451.061	230.67
451.519	231.27
451.978	230.57
452.436	234.17
452.895	234.17
453.353	260.27
453.812	247.57
454.27	244.07
454.729	238.37
455.187	238.07
455.646	247.27
456.104	245.07
456.562	262.97
457.021	272.27
457.479	267.37
457.937	277.57
458.395	261.87
458.854	247.67
459.312	255.97
459.77	282.07
460.228	261.17
460.686	239.37
461.144	250.47
461.602	245.77
462.06	242.37
462.518	252.07
462.976	256.37
463.434	251.77
463.892	270.07
464.35	271.37
464.808	290.67
465.266	261.07
465.724	264.27
466.181	263.97
466.639	275.47
467.097	284.57
467.555	292.47
468.012	312.77
468.47	318.07
468.928	330.77
469.385	343.37
469.843	354.67
470.3	349.27
470.758	370.17
471.215	384.37
471.673	408.47
472.13	410.37
472.588	421.37
473.045	372.77
473.503	375.57
473.96	391.37
474.417	410.27
474.875	437.27
475.332	484.27
475.789	461.97
476.246	471.97
476.704	490.87
477.161	516.77
477.618	518.07
478.075	567.27
478.532	622.97
478.989	694.67
479.446	804.77
479.903	781.57
480.36	804.67
480.817	873.57
481.274	970.37
481.731	1081.27
482.188	1167.27
482.645	1311.87
483.102	1416.67
483.558	1557.97
484.015	1606.97
484.472	1581.37
484.929	1529.87
485.385	1473.67
485.842	1433.38
486.299	1360.67
486.755	1295.37
487.212	1097.77
487.668	921.07
488.125	843.87
488.582	767.47
489.038	744.97
489.494	711.47
489.951	685.37
490.407	652.97
490.864	643.97
491.32	644.47
491.776	642.47
492.233	646.37
492.689	615.67
493.145	602.67
493.602	602.17
494.058	608.87
494.514	608.27
494.97	626.27
495.426	647.27
495.882	624.37
496.338	607.37
496.794	622.67
497.251	622.17
497.707	625.37
498.163	635.77
498.618	637.47
499.074	645.07
499.53	668.17
499.986	671.37
500.442	648.87
500.898	639.67
501.354	626.47
501.809	635.17
502.265	634.37
502.721	663.97
503.177	672.67
503.632	670.17
504.088	670.27
504.543	710.07
504.999	698.77
505.455	653.67
505.91	627.77
506.366	625.57
506.821	627.27
507.277	615.97
507.732	618.87
508.187	613.77
508.643	635.17
509.098	635.77
509.553	644.17
510.009	663.57
510.464	664.57
510.919	683.07
511.375	693.57
511.83	705.17
512.285	718.97
512.74	751.97
513.195	767.77
513.65	764.17
514.105	759.27
514.56	771.17
515.015	772.87
515.47	798.07
515.925	791.37
516.38	780.57
516.835	789.47
517.29	781.17
517.745	777.07
518.2	754.97
518.655	746.77
519.109	741.07
519.564	731.97
520.019	718.17
520.474	711.77
520.928	721.77
521.383	714.67
521.838	709.87
522.292	698.97
522.747	706.67
523.201	692.07
523.656	704.97
524.11	690.77
524.565	691.37
525.019	683.07
525.474	695.87
525.928	700.97
526.382	688.17
526.837	686.77
527.291	693.67
527.745	692.17
528.2	690.67
528.654	693.07
529.108	685.27
529.562	678.67
530.016	684.97
530.47	677.17
530.925	681.17
531.379	695.67
531.833	709.57
532.287	703.27
532.741	702.17
533.195	705.67
533.649	702.57
534.103	710.57
534.556	693.57
535.01	711.27
535.464	701.57
535.918	714.27
536.372	716.77
536.826	706.97
537.279	692.27
537.733	705.37
538.187	705.77
538.64	710.27
539.094	718.87
539.548	729.17
540.001	720.97
540.455	729.37
540.908	735.97
541.362	743.07
541.815	734.57
542.269	752.37
542.722	757.87
543.175	757.17
543.629	770.17
544.082	774.47
544.536	783.67
544.989	781.47
545.442	791.17
545.895	785.87
546.349	783.07
546.802	782.07
547.255	789.67
547.708	805.37
548.161	808.87
548.614	823.97
549.067	822.77
549.52	820.67
549.973	814.57
550.426	800.67
550.879	785.87
551.332	792.37
551.785	806.57
552.238	803.67
552.691	805.87
553.144	822.87
553.596	852.37
554.049	856.47
554.502	888.07
554.955	901.97
555.407	901.47
555.86	889.77
556.313	881.57
556.765	869.57
557.218	877.67
557.67	865.87
558.123	873.17
558.576	862.77
559.028	865.07
559.48	870.87
559.933	870.37
560.385	823.57
560.838	799.47
561.29	783.87
561.742	784.07
562.195	752.47
562.647	763.77
563.099	765.97
563.551	763.97
564.004	775.87
564.456	765.37
564.908	753.17
565.36	740.47
565.812	737.87
566.264	727.87
566.716	734.07
567.168	706.77
567.62	721.17
568.072	702.37
568.524	694.37
568.976	687.37
569.428	669.87
569.88	677.97
570.332	683.27
570.784	682.47
571.235	682.27
571.687	687.17
572.139	701.37
572.59	714.57
573.042	708.87
573.494	714.37
573.945	705.87
574.397	683.87
574.849	691.37
575.3	693.87
575.752	691.37
576.203	678.57
576.655	673.87
577.106	668.87
577.557	658.87
578.009	661.77
578.46	663.67
578.912	664.77
579.363	665.27
579.814	658.07
580.265	659.17
580.717	666.17
581.168	657.37
581.619	666.47
582.07	677.87
582.521	670.57
582.972	670.67
583.423	673.67
583.875	683.27
584.326	705.27
584.777	758.97
585.227	843.27
585.678	944.67
586.129	1041.77
586.58	1113.97
587.031	1193.37
587.482	1356.67
587.933	1559.07
588.384	1358.87
588.834	990.97
589.285	817.47
589.736	788.77
590.186	770.07
590.637	766.47
591.088	745.87
591.538	733.77
591.989	723.97
592.439	725.27
592.89	724.57
593.34	713.17
593.791	714.77
594.241	702.87
594.692	706.07
595.142	707.77
595.593	697.07
596.043	714.97
596.493	718.77
596.943	715.57
597.394	722.37
597.844	711.57
598.294	723.57
598.744	746.27
599.195	768.57
599.645	817.97
600.095	854.37
600.545	909.87
600.995	960.07
601.445	1019.47
601.895	1081.47
602.345	1129.17
602.795	1096.47
603.245	1051.37
603.695	994.17
604.145	952.17
604.594	906.87
605.044	850.67
605.494	789.47
605.944	746.37
606.393	745.17
606.843	733.87
607.293	746.37
607.743	732.67
608.192	741.87
608.642	761.77
609.091	763.67
609.541	764.87
609.99	773.17
610.44	770.17
610.889	727.77
611.339	708.27
611.788	683.37
612.238	704.37
612.687	724.67
613.136	721.37
613.586	743.97
614.035	746.77
614.484	753.87
614.933	759.27
615.383	756.87
615.832	743.77
616.281	729.67
616.73	701.87
617.179	675.77
617.628	641.67
618.077	632.47
618.526	630.07
618.975	619.27
619.424	624.77
619.873	621.17
620.322	633.37
620.771	606.57
621.22	609.37
621.669	594.37
622.118	593.57
622.567	597.07
623.015	569.47
623.464	572.87
623.913	568.47
624.361	542.57
624.81	549.77
625.259	546.47
625.707	549.67
626.156	562.97
626.604	560.07
627.053	559.47
627.501	566.77
627.95	568.97
628.398	582.27
628.847	574.77
629.295	576.57
629.744	578.47
630.192	567.87
630.64	570.27
631.089	567.37
631.537	578.87
631.985	596.67
632.433	603.57
632.881	620.57
633.33	665.87
633.778	653.67
634.226	576.07
634.674	570.97
635.122	585.67
635.57	604.57
636.018	634.07
636.466	579.97
636.914	561.77
637.362	572.37
637.81	579.87
638.258	576.57
638.705	593.67
639.153	611.87
639.601	620.97
640.049	650.57
640.497	666.67
640.944	699.07
641.392	639.17
641.84	616.97
642.287	587.77
642.735	578.97
643.182	576.77
643.63	578.47
644.078	578.67
644.525	599.87
644.973	592.47
645.42	613.37
645.867	631.67
646.315	650.87
646.762	666.57
647.21	697.97
647.657	714.27
648.104	753.97
648.551	782.97
648.999	858.87
649.446	927.77
649.893	1030.07
650.34	1175.27
650.787	1427.07
651.234	1774.47
651.682	2320.88
652.129	3177.57
652.576	4641.98
653.023	6808.68
653.47	9311.57
653.917	11566.67
654.363	13289.08
654.81	14561.68
655.257	13884.98
655.704	9045.07
656.151	5371.07
656.598	3455.27
657.044	2443.37
657.491	1879.57
657.938	1512.27
658.385	1248.27
658.831	1091.27
659.278	973.67
659.724	862.57
660.171	792.87
660.618	722.87
661.064	696.67
661.511	671.87
661.957	652.77
662.404	645.07
662.85	657.57
663.296	624.67
663.743	555.77
664.189	536.77
664.635	540.07
665.082	527.27
665.528	535.37
665.974	522.27
666.42	516.37
666.867	508.07
667.313	497.57
667.759	496.57
668.205	485.17
668.651	499.07
669.097	500.77
669.543	511.17
669.989	474.47
670.435	456.47
670.881	450.97
671.327	449.57
671.773	472.07
672.219	492.37
672.665	546.57
673.11	584.07
673.556	623.07
674.002	674.27
674.448	653.87
674.893	541.77
675.339	475.97
675.785	445.47
676.23	420.87
676.676	393.07
677.122	387.37
677.567	381.17
678.013	374.07
678.458	360.67
678.904	360.57
679.349	351.47
679.794	358.57
680.24	358.77
680.685	359.67
681.131	343.57
681.576	350.77
682.021	346.97
682.466	354.27
682.912	350.67
683.357	359.47
683.802	391.87
684.247	411.27
684.692	452.07
685.137	496.57
685.583	537.77
686.028	557.67
686.473	512.27
686.918	443.87
687.363	416.47
687.807	394.37
688.252	369.47
688.697	357.97
689.142	336.17
689.587	335.27
690.032	322.87
690.477	350.67
690.921	356.37
691.366	385.77
691.811	412.87
692.255	431.47
692.7	464.97
693.145	508.07
693.589	708.87
694.034	1147.37
694.478	1550.07
694.923	1727.77
695.367	2232.38
695.812	1182.67
696.256	501.47
696.701	372.97
697.145	344.97
697.59	335.07
698.034	319.87
698.478	332.07
698.922	327.27
699.367	331.27
699.811	342.47
700.255	366.17
700.699	389.57
701.143	426.97
701.588	472.67
702.032	511.47
702.476	511.17
702.92	491.77
703.364	498.37
703.808	655.27
704.252	1056.07
704.696	1468.17
705.14	1646.38
705.584	2094.68
706.027	1055.77
706.471	527.57
706.915	403.17
707.359	352.57
707.803	326.37
708.246	315.27
708.69	317.07
709.134	314.67
709.577	313.07
710.021	317.77
710.465	306.97
710.908	299.57
711.352	301.17
711.795	308.87
712.239	357.47
712.682	382.67
713.126	413.87
713.569	462.87
714.012	375.77
714.456	319.87
714.899	304.27
715.342	285.07
715.786	266.37
716.229	265.67
716.672	253.27
717.115	253.17
717.558	248.87
718.002	260.27
718.445	268.97
718.888	285.57
719.331	298.07
719.774	314.87
720.217	307.07
720.66	282.47
721.103	263.77
721.546	251.37
721.989	248.77
722.432	240.97
722.874	242.87
723.317	237.07
723.76	246.57
724.203	258.87
724.645	323.37
725.088	459.57
725.531	570.27
725.974	646.07
726.416	549.27
726.859	307.37
727.301	252.27
727.744	241.77
728.187	234.47
728.629	239.57
729.071	241.47
729.514	265.07
729.956	269.37
730.399	289.97
730.841	289.37
731.283	272.77
731.726	267.07
732.168	261.77
732.61	272.67
733.053	287.27
733.495	319.97
733.937	356.47
734.379	403.67
734.821	443.77
735.263	556.57
735.705	856.07
736.148	1608.17
736.59	2598.87
737.032	2987.07
737.474	2440.87
737.916	805.57
738.357	430.57
738.799	323.47
739.241	305.17
739.683	292.57
740.125	295.67
740.567	296.67
741.008	312.87
741.45	322.67
741.892	317.87
742.334	352.47
742.775	358.77
743.217	339.17
743.658	266.17
744.1	258.67
744.542	265.27
744.983	308.47
745.425	341.17
745.866	340.87
746.307	286.27
746.749	291.67
747.19	329.47
747.632	468.27
748.073	911.07
748.514	1906.17
748.956	2838.57
749.397	3565.67
749.838	2952.27
750.279	2904.17
750.72	1476.37
751.162	551.37
751.603	323.97
752.044	250.47
752.485	216.67
752.926	210.57
753.367	203.47
753.808	199.77
754.249	189.67
754.69	191.17
755.131	184.17
755.572	183.47
756.013	182.97
756.453	186.57
756.894	193.97
757.335	197.67
757.776	195.47
758.216	193.37
758.657	200.77
759.098	210.17
759.538	235.17
759.979	269.07
760.42	379.87
760.86	721.57
761.301	1885.57
761.741	4461.27
762.182	6290.27
762.622	4428.68
763.063	1296.27
763.503	533.87
763.943	353.17
764.384	356.47
764.824	429.77
765.264	462.67
765.705	327.37
766.145	214.97
766.585	195.07
767.025	188.67
767.465	191.77
767.906	259.87
768.346	337.57
768.786	365.37
769.226	275.37
769.666	327.17
770.106	646.27
770.546	1580.37
770.986	2622.88
771.426	2317.88
771.866	789.77
772.306	337.67
772.745	213.27
773.185	172.07
773.625	174.97
774.065	170.47
774.505	207.37
774.944	328.87
775.384	736.17
775.824	1301.47
776.263	1247.77
776.703	521.87
777.142	232.47
777.582	166.07
778.021	142.67
778.461	146.57
778.9	145.67
779.34	134.87
779.779	122.67
780.219	111.87
780.658	109.47
781.097	114.77
781.537	119.57
781.976	109.87
782.415	106.57
782.855	105.67
783.294	108.47
783.733	110.27
784.172	113.27
784.611	103.07
785.05	115.47
785.489	118.97
785.928	121.77
786.367	125.57
786.806	126.97
787.245	138.57
787.684	131.27
788.123	153.27
788.562	133.77
789.001	130.17
789.44	129.07
789.879	125.07
790.317	120.47
790.756	129.47
791.195	132.97
791.634	149.87
792.072	205.77
792.511	386.17
792.95	1037.37
793.388	2144.27
793.827	1904.17
794.265	674.57
794.704	287.67
795.142	185.77
795.581	150.67
796.019	138.37
796.458	137.47
796.896	122.67
797.334	125.97
797.773	160.07
798.211	224.67
798.649	459.37
799.087	1029.67
799.526	1599.17
799.964	2005.37
800.402	1958.67
800.84	753.47
801.278	298.17
801.716	187.67
802.154	156.37
802.592	150.47
803.03	143.37
803.468	132.27
803.906	149.67
804.344	149.97
804.782	136.67
805.22	135.47
805.658	135.97
806.096	143.17
806.533	154.07
806.971	172.07
807.409	225.37
807.847	316.07
808.284	683.77
808.722	1891.87
809.16	3249.97
809.597	3157.07
810.035	5402.48
810.472	5594.57
810.91	2060.38
811.347	791.57
811.785	400.27
812.222	258.47
812.66	204.47
813.097	163.07
813.535	144.27
813.972	130.27
814.409	126.07
814.846	111.67
815.284	109.27
815.721	109.57
816.158	108.17
816.595	124.87
817.032	188.17
817.47	203.77
817.907	174.57
818.344	168.37
818.781	118.27
819.218	103.17
819.655	130.37
820.092	190.27
820.529	209.47
820.966	175.27
821.403	136.07
821.839	109.07
822.276	103.97
822.713	123.97
823.15	123.87
823.587	120.37
824.023	147.47
824.46	314.17
824.897	922.47
825.333	1322.17
825.77	578.97
826.206	233.67
826.643	139.27
827.08	100.27
827.516	88.57
827.953	82.47
828.389	82.07
828.825	71.47
829.262	64.57
829.698	67.37
830.135	74.57
830.571	59.77
831.007	60.47
831.443	64.07
831.88	65.77
832.316	65.37
832.752	64.67
833.188	66.77
833.624	68.67
834.06	68.27
834.497	68.37
834.933	69.97
835.369	77.57
835.805	81.57
836.241	72.37
836.677	85.67
837.112	92.27
837.548	97.07
837.984	136.67
838.42	205.87
838.856	513.67
839.292	1525.87
839.727	2268.07
840.163	1059.47
840.599	950.77
841.034	2029.37
841.47	2073.28
841.906	773.67
842.341	343.07
842.777	235.27
843.212	334.17
843.648	322.37
844.083	158.77
844.519	100.07
844.954	75.07
845.39	63.37
845.825	56.97
846.261	48.57
846.696	58.27
847.131	57.37
847.566	56.37
848.002	55.67
848.437	57.57
848.872	65.77
849.307	69.57
849.742	88.87
850.177	189.07
850.613	566.87
851.048	864.57
851.483	375.67
851.918	150.87
852.353	86.47
852.788	58.97
853.223	55.47
853.657	60.67
854.092	49.67
854.527	45.07
854.962	38.87
855.397	46.67
855.832	54.87
856.266	40.97
856.701	41.47
857.136	39.97
857.57	39.37
858.005	55.57
858.44	60.67
858.874	42.07
859.309	53.37
859.743	45.87
860.178	45.77
860.612	46.57
861.047	57.97
861.481	66.07
861.915	68.37
862.35	53.97
862.784	31.57
863.218	40.17
863.653	34.27
864.087	48.67
864.521	60.07
864.955	78.37
865.39	160.37
865.824	171.37
866.258	112.27
866.692	159.27
867.126	167.07
867.56	106.57
867.994	56.77
868.428	40.37
868.862	45.07
869.296	54.77
869.73	59.17
870.164	53.07
870.598	48.97
871.031	40.27
871.465	38.67
871.899	30.67
872.333	18.17
872.766	27.17
873.2	22.77
873.634	39.07
874.067	26.17
874.501	28.07
874.935	32.77
875.368	34.27
875.802	33.07
876.235	28.97
876.669	25.97
877.102	24.27
877.535	34.37
877.969	22.87
878.402	27.27
878.836	18.77
879.269	22.97
879.702	24.17
880.135	21.57
880.569	28.27
881.002	33.77
881.435	21.97
881.868	22.07
882.301	23.07
882.734	22.27
883.167	22.17
883.601	20.87
884.034	25.47
884.467	20.17
884.899	22.67
885.332	22.17
885.765	14.87
886.198	13.67
886.631	19.87
887.064	25.37
887.497	22.67
887.929	26.67
888.362	17.87
888.795	19.97
889.228	20.17
889.66	23.47
890.093	21.67
890.526	16.17
890.958	29.77
891.391	18.87
891.823	29.67
892.256	19.67
892.688	14.67
893.121	17.57
893.553	18.87
893.985	23.07
894.418	21.87
894.85	17.97
895.282	19.57
895.715	24.37
896.147	14.87
896.579	20.37
897.011	17.87
897.444	20.97
897.876	14.27
898.308	15.67
898.74	20.37
899.172	18.77
899.604	25.97
900.036	22.27
900.468	16.87
900.9	18.87
901.332	20.37
901.764	12.97
902.196	18.77
902.628	17.67
903.06	16.87
903.491	26.17
903.923	27.37
904.355	20.07
904.787	23.67
905.218	20.97
905.65	19.67
906.082	14.37
906.513	12.07
906.945	18.27
907.376	20.37
907.808	26.97
908.239	30.47
908.671	23.17
909.102	22.37
909.534	28.17
909.965	49.27
910.397	96.27
910.828	317.87
911.259	458.97
911.691	204.77
912.122	111.77
912.553	56.67
912.984	41.57
913.415	25.57
913.847	22.77
914.278	23.87
914.709	13.67
915.14	21.67
915.571	24.27
916.002	10.27
916.433	19.77
916.864	14.67
917.295	15.17
917.726	21.77
918.157	14.57
918.587	25.37
919.018	29.47
919.449	25.97
919.88	24.27
920.311	35.67
920.741	53.67
921.172	167.17
921.603	151.17
922.033	71.07
922.464	54.57
922.895	26.47
923.325	22.17
923.756	17.37
924.186	14.47
924.617	30.07
925.047	47.07
925.478	62.77
925.908	50.97
926.338	30.77
926.769	20.57
927.199	22.47
927.629	11.57
928.06	16.17
928.49	15.47
928.92	14.97
929.35	15.87
929.78	13.97
930.21	3.87
930.641	5.27
931.071	11.07
931.501	1.87
931.931	6.07
932.361	12.17
932.791	8.27
933.221	11.67
933.651	8.47
934.08	24.37
934.51	29.77
934.94	13.47
935.37	6.47
935.8	14.67
936.229	6.27
936.659	7.47
937.089	5.47
937.519	14.27
937.948	25.47
938.378	19.67
938.807	11.17
939.237	7.57
939.666	11.37
940.096	-4.23
940.525	-0.43
940.955	8.87
941.384	4.47
941.814	-5.23
942.243	-0.83
942.672	5.47
943.102	-0.13
943.531	6.67
943.96	4.07
944.39	5.27
944.819	2.07
945.248	2.67
945.677	6.47
946.106	4.97
946.535	12.07
946.964	-1.23
947.393	1.37
947.822	1.37
948.251	-1.13
948.68	1.07
949.109	14.87
949.538	5.77
949.967	2.57
950.396	5.87
950.825	2.87
951.254	1.97
951.682	-5.43
952.111	4.07
952.54	6.67
952.969	0.67
953.397	-1.63
953.826	6.97
954.254	-0.43
954.683	3.37
955.112	-2.63
955.54	-0.43
955.969	7.87
956.397	3.67
956.826	-0.83
957.254	7.17
957.682	2.47
958.111	7.77
958.539	4.87
958.967	5.57
959.396	-4.73
959.824	1.27
960.252	-4.03
960.68	-2.03
961.109	3.77
961.537	-0.73
961.965	-1.93
962.393	-3.03
962.821	0.27
963.249	6.17
963.677	8.07
964.105	3.67
964.533	46.37
964.961	44.37
965.389	22.07
965.817	14.57
966.245	4.47
966.672	10.37
967.1	-2.63
967.528	-1.13
967.956	2.37
968.383	-0.63
968.811	-6.53
969.239	2.17
969.666	1.27
970.094	1.57
970.522	1.77
970.949	0.77
971.377	0.07
971.804	-1.53
972.232	0.97
972.659	-3.53
973.087	0.47
973.514	-5.13
973.941	-5.53
974.369	6.77
974.796	0.77
975.223	5.37
975.651	-2.73
976.078	6.97
976.505	3.27
976.932	2.07
977.359	17.07
977.786	18.37
978.214	7.77
978.641	6.97
979.068	-8.03
979.495	-3.13
979.922	1.07
980.349	-0.33
980.776	-2.53
981.202	2.87
981.629	6.27
982.056	8.07
982.483	1.37
982.91	2.57
983.337	-4.23
983.763	2.97
984.19	-9.63
984.617	-0.63
985.043	-3.73
985.47	1.87
985.897	1.47
986.323	-13.73
986.75	6.87
987.176	2.77
987.603	10.17
988.029	-2.13
988.456	-1.03
988.882	3.17
989.308	-5.13
989.735	-1.83
990.161	6.87
990.587	-5.13
991.014	2.27
991.44	9.87
991.866	3.77
992.292	-6.43
992.719	-4.43
993.145	6.07
993.571	-8.93
993.997	-1.93
994.423	2.47
994.849	-3.73
995.275	6.17
995.701	-3.33
996.127	-2.03
996.553	6.47
996.979	-2.63
997.405	-1.03
997.83	-1.03
998.256	-6.43
998.682	-7.43
999.108	-7.33
999.534	1.57
999.959	0.87
1000.385	0.97
1000.811	-2.53
1001.236	-5.93
1001.662	-3.83
1002.087	-8.43
1002.513	-1.33
1002.938	6.67
1003.364	3.97
1003.789	6.17
1004.215	7.97
1004.64	-2.93
1005.066	1.57
1005.491	-2.73
1005.916	-0.33
1006.342	-5.83
1006.767	-2.23
1007.192	7.87
1007.617	-4.63
1008.042	-2.03
1008.468	-1.03
1008.893	-4.63
1009.318	-2.53
1009.743	0.87
1010.168	3.17
1010.593	4.07
1011.018	-11.03
1011.443	0.17
1011.868	0.17
1012.293	-6.23
1012.718	-5.93
1013.143	-0.13
1013.567	1.17
1013.992	-2.53
1014.417	-14.13
1014.842	3.57
1015.267	-6.73
1015.691	-2.53
1016.116	4.37
1016.541	2.17
1016.965	-2.43
1017.39	4.27
1017.814	0.77
1018.239	0.27
1018.663	0.17
1019.088	-5.83
1019.512	-2.63
1019.937	-3.93
1020.361	2.77
1020.785	-10.03
1021.21	-1.63
1021.634	-6.13
1022.058	1.97
1022.483	4.07
1022.907	2.87
1023.331	-5.03
1023.755	-3.13
1024.179	0.17
1024.604	-1.73
1025.028	-7.13
1025.452	-3.23
1025.876	0.77
1026.3	2.97
1026.724	-14.93
1027.148	1.47
1027.572	-8.93
1027.996	-4.63
1028.42	-1.43
1028.843	-1.33
1029.267	-7.73
1029.691	0.17
1030.115	-0.93
1030.539	-4.33
1030.962	-9.83
1031.386	-7.33
1031.81	1.97
1032.233	-1.03
1032.657	-0.43
1033.08	2.57
1033.504	-1.43
1033.927	-5.03
1034.351	-6.03
1034.774	-5.83
1035.198	-2.83
1035.621	1.57
1036.045	-6.73
1036.468	2.87
1036.891	-16.63
1037.315	-3.63
1037.738	-9.83
1038.161	2.77
1038.584	-2.43
1039.008	2.07
1039.431	-6.43
1039.854	-4.63
1040.277	-8.43
1040.7	-9.53
1041.123	5.97
1041.546	-3.63
1041.969	-6.53
1042.392	-3.73
1042.815	-1.93
1043.238	-0.63
1043.661	1.87
1044.084	-1.33
1044.507	-5.03
1044.93	-2.83
1045.352	-6.13
1045.775	-0.23
1046.198	-1.83
1046.621	-3.23
1047.043	3.87
1047.466	12.27
1047.889	-1.33
1048.311	-5.23
1048.734	-0.73
1049.156	-4.93
1049.579	0.67
1050.001	-5.13
1050.424	1.57
1050.846	-1.83
1051.269	-2.53
1051.691	-8.23
1052.113	-5.13
1052.536	0.47
1052.958	2.57
1053.38	1.17
1053.802	-3.93
1054.225	-3.13
1054.647	-5.83
1055.069	-4.73
1055.491	1.77
1055.913	-5.23
1056.335	-1.13
1056.757	-0.23
1057.179	-1.73
1057.601	-2.13
1058.023	-6.63
1058.445	1.57
1058.867	-3.23
1059.289	-3.53
1059.711	-2.83
1060.133	-0.33
1060.555	-6.43
1060.976	-10.23
1061.398	-3.03
1061.82	-1.83
1062.241	-10.03
1062.663	-8.43
1063.085	3.07
1063.506	3.97
1063.928	0.77
1064.35	4.57
1064.771	-5.03
1065.193	-0.33
1065.614	-7.13
1066.035	-6.93
1066.457	-1.43
1066.878	-1.93
1067.3	-4.83
1067.721	-2.63
1068.142	1.17
1068.564	-0.23
1068.985	-2.53
1069.406	-7.63
1069.827	-5.13
1070.248	2.57
1070.67	-9.23
1071.091	-6.23
1071.512	-3.33
1071.933	-5.43
1072.354	-4.63
1072.775	-3.63
1073.196	-4.33
1073.617	-1.33
1074.038	-0.13
1074.459	1.67
1074.88	-8.13
1075.3	2.57
1075.721	-0.43
1076.142	6.37
1076.563	-3.73
1076.983	-4.53
1077.404	-3.33
1077.825	-18.93
1078.246	-9.73
1078.666	-8.23
1079.087	-4.83
1079.507	-0.93
1079.928	-1.63
1080.348	1.87
1080.769	-7.33
1081.189	-6.33
1081.61	-5.33
1082.03	-8.63
1082.451	-9.03
1082.871	-1.03
1083.291	-0.73
1083.711	-3.33
1084.132	0.97
1084.552	-0.63
1084.972	2.67
1085.392	-2.93
1085.813	-10.83
1086.233	-9.03
1086.653	-3.13
1087.073	-6.93
1087.493	-4.53
1087.913	-0.43
1088.333	-1.43
1088.753	-2.53
1089.173	3.07
1089.593	3.27
1090.013	0.97
1090.433	2.17
1090.852	-4.53
1091.272	-0.63
1091.692	-6.23
1092.112	2.37
1092.531	-7.03
1092.951	-13.53
1093.371	1.17
1093.79	2.47
1094.21	-1.43
1094.63	-6.53
1095.049	-5.63
1095.469	-2.33
1095.888	-0.03
1096.308	6.27
1096.727	2.87
1097.146	-2.53
1097.566	-4.73
1097.985	-8.33
1098.405	-0.83
1098.824	-6.03
1099.243	-5.93
1099.662	-8.43
1100.082	-0.83
1100.501	2.87
1100.92	-9.23
1101.339	-2.93
1101.758	-5.13
