Data from 20171114-ORNL-Ar_H_NY_Subt18_08-06-36-021.txt Node
Date: Tue Nov 14 08:06:36 EST 2017
User: Ender
Spectrometer: HR+D1039
Trigger mode: 0
Integration Time (sec): 2.730000E-2
Scans to average: 10
Electric dark correction enabled: true
Nonlinearity correction enabled: false
Boxcar width: 0
XAxis mode: Wavelengths
Number of Pixels in Spectrum: 2048
>>>>>Begin Spectral Data<<<<<
187.836	-0.03
188.309	-0.03
188.782	-0.03
189.255	-1.03
189.728	-0.53
190.201	8.17
190.674	3.67
191.147	2.87
191.619	-5.33
192.092	0.47
192.565	-1.03
193.038	-0.93
193.511	-0.63
193.984	4.27
194.456	-3.53
194.929	-0.23
195.402	-2.63
195.874	-3.53
196.347	2.27
196.82	-1.13
197.292	2.97
197.765	2.37
198.237	-10.03
198.71	-0.13
199.182	1.27
199.655	-0.83
200.127	3.47
200.6	2.37
201.072	-3.73
201.544	-2.63
202.017	-3.13
202.489	3.67
202.961	1.57
203.433	-7.23
203.906	-9.53
204.378	-7.23
204.85	-1.93
205.322	-11.73
205.794	1.07
206.266	-1.13
206.739	-8.43
207.211	0.27
207.683	-9.03
208.155	-0.33
208.627	-7.63
209.099	-2.73
209.57	-8.63
210.042	-5.53
210.514	-1.93
210.986	-1.23
211.458	-8.83
211.93	2.37
212.402	-1.93
212.873	-11.03
213.345	-10.13
213.817	-13.03
214.288	-4.53
214.76	-3.93
215.232	-1.53
215.703	2.67
216.175	-6.63
216.646	-2.83
217.118	-11.63
217.589	-0.53
218.061	-4.03
218.532	-3.03
219.004	1.97
219.475	-2.03
219.946	-6.03
220.418	1.97
220.889	2.67
221.36	-3.63
221.832	-7.33
222.303	-10.63
222.774	-6.83
223.245	-10.33
223.717	-4.73
224.188	-0.93
224.659	-9.93
225.13	-9.43
225.601	-13.73
226.072	-1.53
226.543	-2.53
227.014	6.97
227.485	0.37
227.956	-5.33
228.427	1.27
228.898	-1.33
229.369	5.67
229.839	-4.73
230.31	-7.73
230.781	-3.23
231.252	-6.43
231.722	0.67
232.193	-2.03
232.664	6.07
233.135	-4.73
233.605	-1.53
234.076	-5.03
234.546	-0.93
235.017	-2.63
235.487	-0.03
235.958	-3.63
236.428	-4.53
236.899	0.27
237.369	3.37
237.84	-1.13
238.31	5.27
238.78	3.07
239.251	-3.63
239.721	7.37
240.191	0.17
240.662	4.27
241.132	-6.73
241.602	-3.73
242.072	0.57
242.542	6.97
243.013	-7.83
243.483	5.07
243.953	2.67
244.423	-4.63
244.893	-7.93
245.363	2.27
245.833	4.17
246.303	1.07
246.773	1.87
247.243	0.07
247.712	0.47
248.182	4.37
248.652	3.27
249.122	3.57
249.592	3.37
250.061	18.37
250.531	27.97
251.001	15.27
251.471	21.87
251.94	10.07
252.41	6.67
252.879	-5.93
253.349	17.77
253.818	12.37
254.288	1.77
254.757	2.47
255.227	-5.73
255.696	2.77
256.166	3.77
256.635	9.07
257.105	7.07
257.574	5.77
258.043	13.07
258.513	9.47
258.982	14.37
259.451	1.37
259.92	15.07
260.389	8.27
260.859	13.07
261.328	10.37
261.797	10.47
262.266	3.97
262.735	7.77
263.204	7.07
263.673	-3.33
264.142	7.37
264.611	-1.23
265.08	4.67
265.549	-4.63
266.018	4.07
266.487	3.77
266.955	-2.83
267.424	-2.53
267.893	3.77
268.362	3.17
268.83	5.17
269.299	10.17
269.768	8.27
270.236	11.67
270.705	1.87
271.174	9.47
271.642	4.97
272.111	9.37
272.579	7.47
273.048	21.47
273.516	24.67
273.985	22.37
274.453	26.27
274.922	20.77
275.39	10.47
275.858	4.57
276.327	18.57
276.795	18.47
277.263	5.87
277.731	28.17
278.2	47.87
278.668	59.37
279.136	41.17
279.604	25.57
280.072	19.47
280.54	11.67
281.008	7.47
281.477	9.17
281.945	5.77
282.413	15.57
282.881	15.47
283.348	4.77
283.816	12.27
284.284	12.17
284.752	20.27
285.22	21.17
285.688	19.17
286.156	19.87
286.623	37.97
287.091	49.17
287.559	23.47
288.026	21.67
288.494	9.87
288.962	5.47
289.429	8.97
289.897	16.37
290.364	12.97
290.832	7.67
291.3	11.97
291.767	15.07
292.234	20.47
292.702	16.87
293.169	17.37
293.637	26.37
294.104	19.97
294.571	5.97
295.039	12.07
295.506	13.17
295.973	10.37
296.44	17.17
296.908	20.77
297.375	13.57
297.842	23.17
298.309	11.37
298.776	14.87
299.243	20.07
299.71	21.37
300.177	19.67
300.644	22.97
301.111	23.27
301.578	21.37
302.045	16.27
302.512	22.37
302.979	27.37
303.446	19.57
303.913	18.87
304.379	13.77
304.846	26.27
305.313	24.87
305.78	27.77
306.246	26.87
306.713	23.37
307.18	23.57
307.646	23.47
308.113	31.77
308.579	26.07
309.046	27.87
309.512	24.67
309.979	20.97
310.445	29.17
310.912	23.37
311.378	27.77
311.845	23.47
312.311	40.77
312.777	35.57
313.244	32.57
313.71	34.77
314.176	32.27
314.642	38.77
315.109	26.87
315.575	32.77
316.041	37.77
316.507	34.47
316.973	41.07
317.439	34.07
317.905	31.37
318.371	37.67
318.837	34.67
319.303	35.67
319.769	34.57
320.235	38.87
320.701	37.17
321.167	35.87
321.633	36.97
322.099	34.17
322.564	47.47
323.03	38.67
323.496	41.77
323.962	39.27
324.427	33.07
324.893	43.47
325.359	36.97
325.824	42.37
326.29	32.67
326.755	43.37
327.221	38.67
327.686	42.57
328.152	42.77
328.617	39.87
329.083	46.77
329.548	50.87
330.014	49.67
330.479	35.27
330.944	45.97
331.41	40.77
331.875	48.87
332.34	44.27
332.805	38.97
333.271	46.77
333.736	47.67
334.201	48.67
334.666	54.67
335.131	55.47
335.596	50.47
336.061	48.97
336.526	41.47
336.991	47.77
337.456	55.17
337.921	51.47
338.386	49.87
338.851	54.07
339.316	43.47
339.781	49.77
340.246	56.37
340.711	50.97
341.175	53.37
341.64	46.17
342.105	53.67
342.569	58.37
343.034	62.97
343.499	53.57
343.963	53.67
344.428	63.37
344.893	58.97
345.357	64.17
345.822	65.27
346.286	65.67
346.751	79.07
347.215	63.87
347.679	74.57
348.144	102.87
348.608	89.27
349.073	74.17
349.537	75.57
350.001	84.17
350.465	87.67
350.93	78.47
351.394	78.17
351.858	76.17
352.322	87.27
352.786	80.17
353.25	106.47
353.715	111.47
354.179	100.47
354.643	121.37
355.107	123.67
355.571	105.47
356.035	104.27
356.498	117.37
356.962	123.97
357.426	127.87
357.89	115.37
358.354	91.07
358.818	88.47
359.281	84.87
359.745	71.87
360.209	69.77
360.673	75.37
361.136	82.67
361.6	80.37
362.064	85.47
362.527	82.97
362.991	83.87
363.454	81.77
363.918	81.27
364.381	83.37
364.845	82.97
365.308	88.97
365.772	88.37
366.235	92.67
366.698	83.57
367.162	83.27
367.625	86.47
368.088	85.37
368.552	87.77
369.015	83.17
369.478	96.27
369.941	97.37
370.404	98.57
370.867	103.37
371.331	105.67
371.794	117.57
372.257	111.97
372.72	110.67
373.183	109.87
373.646	107.57
374.109	105.87
374.572	108.07
375.035	113.97
375.497	108.17
375.96	102.87
376.423	101.97
376.886	114.27
377.349	112.47
377.811	109.57
378.274	106.57
378.737	107.97
379.199	114.27
379.662	114.07
380.125	123.67
380.587	119.97
381.05	121.57
381.512	133.47
381.975	133.27
382.437	128.17
382.9	130.37
383.362	136.07
383.825	145.27
384.287	152.47
384.75	135.77
385.212	140.67
385.674	139.57
386.136	138.37
386.599	122.57
387.061	135.97
387.523	126.07
387.985	138.67
388.447	144.57
388.91	144.97
389.372	163.67
389.834	150.97
390.296	149.77
390.758	161.97
391.22	169.17
391.682	211.17
392.144	309.07
392.606	234.17
393.068	169.47
393.529	175.87
393.991	159.17
394.453	152.77
394.915	160.97
395.377	192.67
395.838	219.57
396.3	159.47
396.762	146.77
397.224	139.97
397.685	135.77
398.147	132.87
398.608	133.67
399.07	130.17
399.531	137.77
399.993	143.47
400.454	157.27
400.916	150.37
401.377	149.67
401.839	153.67
402.3	163.97
402.762	171.87
403.223	176.27
403.684	169.87
404.145	163.67
404.607	164.57
405.068	165.97
405.529	176.87
405.99	190.67
406.451	177.47
406.913	180.57
407.374	161.87
407.835	164.77
408.296	166.17
408.757	184.77
409.218	191.57
409.679	181.77
410.14	182.67
410.601	182.07
411.062	188.17
411.522	192.47
411.983	195.17
412.444	180.77
412.905	182.67
413.366	188.77
413.826	201.67
414.287	225.17
414.748	265.87
415.208	254.77
415.669	216.57
416.13	211.97
416.59	207.07
417.051	223.27
417.511	227.67
417.972	241.77
418.432	252.77
418.893	290.67
419.353	254.47
419.814	200.77
420.274	193.47
420.734	191.07
421.195	203.87
421.655	204.37
422.115	197.47
422.576	194.57
423.036	202.37
423.496	211.17
423.956	217.57
424.416	235.77
424.876	271.57
425.336	267.57
425.797	261.77
426.257	261.67
426.717	245.17
427.177	244.87
427.637	231.67
428.097	234.17
428.556	243.27
429.016	271.97
429.476	273.97
429.936	280.07
430.396	282.27
430.856	300.77
431.315	324.77
431.775	362.67
432.235	385.07
432.694	368.57
433.154	370.67
433.614	399.47
434.073	344.17
434.533	289.67
434.993	276.57
435.452	289.17
435.912	301.97
436.371	295.07
436.83	299.77
437.29	272.87
437.749	260.57
438.209	250.27
438.668	273.47
439.127	300.47
439.587	273.47
440.046	255.37
440.505	263.07
440.964	286.77
441.424	327.07
441.883	327.67
442.342	262.67
442.801	230.67
443.26	223.67
443.719	224.07
444.178	221.37
444.637	219.27
445.096	226.07
445.555	226.97
446.014	237.77
446.473	227.77
446.932	245.87
447.391	230.57
447.849	231.17
448.308	217.57
448.767	226.17
449.226	244.07
449.685	241.17
450.143	253.47
450.602	244.67
451.061	234.27
451.519	238.87
451.978	237.17
452.436	242.97
452.895	253.37
453.353	261.07
453.812	250.27
454.27	246.17
454.729	250.07
455.187	250.47
455.646	250.57
456.104	251.27
456.562	263.37
457.021	280.47
457.479	271.57
457.937	280.17
458.395	278.27
458.854	251.27
459.312	260.47
459.77	281.57
460.228	269.47
460.686	252.77
461.144	255.47
461.602	250.47
462.06	248.27
462.518	266.37
462.976	255.67
463.434	270.07
463.892	264.17
464.35	275.87
464.808	294.27
465.266	270.17
465.724	274.57
466.181	277.97
466.639	282.07
467.097	297.27
467.555	313.97
468.012	309.37
468.47	318.77
468.928	338.97
469.385	351.57
469.843	352.57
470.3	357.27
470.758	376.97
471.215	382.27
471.673	417.47
472.13	417.37
472.588	433.47
473.045	385.97
473.503	388.67
473.96	409.07
474.417	416.47
474.875	442.17
475.332	489.67
475.789	482.87
476.246	480.77
476.704	496.67
477.161	513.67
477.618	541.07
478.075	569.27
478.532	634.07
478.989	701.47
479.446	821.37
479.903	789.67
480.36	825.07
480.817	889.97
481.274	982.37
481.731	1092.07
482.188	1188.27
482.645	1314.27
483.102	1416.87
483.558	1552.47
484.015	1619.47
484.472	1580.77
484.929	1538.67
485.385	1490.57
485.842	1446.77
486.299	1390.27
486.755	1314.97
487.212	1120.67
487.668	931.17
488.125	868.17
488.582	793.17
489.038	760.47
489.494	719.47
489.951	707.47
490.407	676.37
490.864	658.77
491.32	653.87
491.776	658.57
492.233	660.37
492.689	618.37
493.145	625.27
493.602	618.57
494.058	630.87
494.514	643.77
494.97	660.57
495.426	666.77
495.882	635.17
496.338	624.07
496.794	640.07
497.251	629.27
497.707	655.37
498.163	656.87
498.618	651.17
499.074	664.17
499.53	695.07
499.986	689.97
500.442	670.87
500.898	650.47
501.354	642.27
501.809	652.97
502.265	662.67
502.721	673.87
503.177	684.37
503.632	679.97
504.088	691.27
504.543	723.57
504.999	725.77
505.455	681.57
505.91	647.87
506.366	648.17
506.821	645.07
507.277	635.37
507.732	637.87
508.187	637.17
508.643	657.77
509.098	651.57
509.553	677.57
510.009	675.17
510.464	692.37
510.919	701.67
511.375	705.37
511.83	728.17
512.285	747.37
512.74	776.77
513.195	793.67
513.65	796.57
514.105	787.17
514.56	789.47
515.015	796.77
515.47	824.27
515.925	802.17
516.38	806.37
516.835	805.87
517.29	798.87
517.745	798.67
518.2	776.57
518.655	763.47
519.109	752.87
519.564	753.97
520.019	742.77
520.474	744.47
520.928	748.27
521.383	741.27
521.838	727.77
522.292	725.47
522.747	726.87
523.201	727.77
523.656	716.17
524.11	700.37
524.565	708.47
525.019	702.77
525.474	724.07
525.928	714.87
526.382	720.87
526.837	705.77
527.291	712.77
527.745	725.07
528.2	715.67
528.654	709.87
529.108	706.17
529.562	703.27
530.016	709.27
530.47	699.17
530.925	707.97
531.379	705.47
531.833	715.27
532.287	710.87
532.741	715.97
533.195	722.37
533.649	724.27
534.103	744.97
534.556	730.27
535.01	728.97
535.464	716.17
535.918	733.27
536.372	736.87
536.826	731.87
537.279	721.47
537.733	730.77
538.187	731.37
538.64	731.27
539.094	743.97
539.548	744.27
540.001	737.57
540.455	736.67
540.908	747.87
541.362	748.57
541.815	764.57
542.269	771.77
542.722	773.47
543.175	790.17
543.629	784.67
544.082	803.17
544.536	813.47
544.989	810.27
545.442	803.07
545.895	815.57
546.349	810.37
546.802	806.07
547.255	818.37
547.708	827.57
548.161	829.27
548.614	846.97
549.067	850.37
549.52	844.67
549.973	826.97
550.426	822.97
550.879	816.97
551.332	813.67
551.785	825.77
552.238	834.47
552.691	841.07
553.144	845.57
553.596	874.77
554.049	880.07
554.502	915.07
554.955	920.27
555.407	927.87
555.86	918.87
556.313	903.97
556.765	902.27
557.218	894.47
557.67	904.97
558.123	897.07
558.576	900.67
559.028	896.57
559.48	903.17
559.933	889.97
560.385	851.37
560.838	817.87
561.29	801.17
561.742	801.57
562.195	772.77
562.647	788.97
563.099	787.07
563.551	789.27
564.004	789.97
564.456	792.67
564.908	770.47
565.36	758.57
565.812	759.27
566.264	740.97
566.716	741.47
567.168	737.17
567.62	734.67
568.072	718.07
568.524	713.07
568.976	710.97
569.428	690.27
569.88	692.87
570.332	696.27
570.784	703.27
571.235	698.97
571.687	708.87
572.139	716.87
572.59	728.57
573.042	730.47
573.494	725.97
573.945	723.67
574.397	697.27
574.849	698.07
575.3	706.67
575.752	699.97
576.203	689.87
576.655	697.37
577.106	683.37
577.557	682.67
578.009	683.67
578.46	678.07
578.912	676.57
579.363	680.47
579.814	674.77
580.265	673.67
580.717	669.27
581.168	683.87
581.619	686.97
582.07	698.37
582.521	686.27
582.972	683.17
583.423	693.97
583.875	690.67
584.326	702.17
584.777	767.57
585.227	821.97
585.678	901.47
586.129	969.87
586.58	1047.07
587.031	1126.17
587.482	1238.47
587.933	1409.47
588.384	1246.07
588.834	964.87
589.285	821.07
589.736	798.57
590.186	783.97
590.637	783.27
591.088	759.17
591.538	748.37
591.989	748.57
592.439	730.97
592.89	731.97
593.34	728.27
593.791	731.97
594.241	720.47
594.692	723.37
595.142	710.57
595.593	714.37
596.043	714.17
596.493	734.27
596.943	732.97
597.394	743.57
597.844	725.07
598.294	741.87
598.744	762.37
599.195	793.67
599.645	834.97
600.095	874.77
600.545	938.97
600.995	989.87
601.445	1041.17
601.895	1108.87
602.345	1163.27
602.795	1136.17
603.245	1090.77
603.695	1044.77
604.145	984.57
604.594	923.37
605.044	866.27
605.494	813.87
605.944	759.37
606.393	750.67
606.843	737.17
607.293	747.67
607.743	745.77
608.192	752.57
608.642	765.17
609.091	778.47
609.541	795.77
609.99	794.77
610.44	780.57
610.889	734.47
611.339	715.27
611.788	702.17
612.238	707.37
612.687	728.97
613.136	731.27
613.586	755.07
614.035	749.17
614.484	770.37
614.933	768.07
615.383	759.37
615.832	744.57
616.281	738.17
616.73	699.97
617.179	670.77
617.628	652.57
618.077	638.67
618.526	632.67
618.975	623.87
619.424	625.17
619.873	627.87
620.322	622.07
620.771	615.87
621.22	623.27
621.669	611.57
622.118	604.87
622.567	587.17
623.015	588.97
623.464	583.77
623.913	564.77
624.361	564.27
624.81	563.27
625.259	567.17
625.707	568.77
626.156	563.77
626.604	574.77
627.053	569.87
627.501	568.87
627.95	574.47
628.398	588.27
628.847	577.07
629.295	582.67
629.744	582.07
630.192	570.97
630.64	579.97
631.089	567.77
631.537	572.17
631.985	590.97
632.433	599.87
632.881	605.47
633.33	664.27
633.778	634.27
634.226	574.67
634.674	578.17
635.122	585.17
635.57	596.37
636.018	640.17
636.466	586.67
636.914	568.87
637.362	576.67
637.81	576.37
638.258	585.37
638.705	591.47
639.153	622.87
639.601	636.97
640.049	643.77
640.497	675.97
640.944	711.57
641.392	662.07
641.84	619.07
642.287	591.17
642.735	570.17
643.182	591.57
643.63	578.97
644.078	579.97
644.525	595.67
644.973	615.87
645.42	611.77
645.867	628.07
646.315	642.67
646.762	667.57
647.21	698.27
647.657	707.77
648.104	764.27
648.551	788.07
648.999	841.67
649.446	929.07
649.893	1016.57
650.34	1172.77
650.787	1396.47
651.234	1722.67
651.682	2253.17
652.129	3081.17
652.576	4440.37
653.023	6540.67
653.47	8999.87
653.917	11247.37
654.363	12943.27
654.81	14270.87
655.257	13586.77
655.704	8902.97
656.151	5280.37
656.598	3409.67
657.044	2413.77
657.491	1860.27
657.938	1488.87
658.385	1262.27
658.831	1087.47
659.278	975.07
659.724	863.17
660.171	796.37
660.618	729.77
661.064	701.57
661.511	675.57
661.957	662.97
662.404	650.17
662.85	657.27
663.296	644.97
663.743	574.87
664.189	543.17
664.635	533.37
665.082	541.87
665.528	536.37
665.974	523.07
666.42	515.87
666.867	505.37
667.313	493.47
667.759	484.17
668.205	484.07
668.651	488.97
669.097	483.47
669.543	500.87
669.989	472.97
670.435	462.47
670.881	442.67
671.327	452.77
671.773	475.37
672.219	494.87
672.665	550.87
673.11	590.37
673.556	644.77
674.002	686.87
674.448	664.07
674.893	559.17
675.339	481.47
675.785	448.97
676.23	432.27
676.676	398.47
677.122	395.67
677.567	379.77
678.013	370.97
678.458	364.27
678.904	368.97
679.349	344.87
679.794	349.17
680.24	347.47
680.685	355.47
681.131	347.97
681.576	356.77
682.021	352.57
682.466	357.47
682.912	358.47
683.357	356.67
683.802	393.17
684.247	420.47
684.692	459.47
685.137	496.57
685.583	540.57
686.028	576.27
686.473	524.87
686.918	450.57
687.363	421.37
687.807	400.27
688.252	373.47
688.697	352.27
689.142	342.77
689.587	334.17
690.032	333.77
690.477	350.17
690.921	348.67
691.366	387.47
691.811	414.67
692.255	442.87
692.7	465.37
693.145	499.87
693.589	707.57
694.034	1143.27
694.478	1547.27
694.923	1750.67
695.367	2290.37
695.812	1205.77
696.256	506.67
696.701	372.97
697.145	348.47
697.59	335.97
698.034	320.87
698.478	327.87
698.922	326.37
699.367	326.37
699.811	339.17
700.255	349.87
700.699	381.27
701.143	433.17
701.588	479.77
702.032	526.57
702.476	514.77
702.92	492.87
703.364	490.17
703.808	644.17
704.252	1047.67
704.696	1477.77
705.14	1701.67
705.584	2159.17
706.027	1079.67
706.471	521.57
706.915	410.67
707.359	355.77
707.803	320.67
708.246	316.67
708.69	310.87
709.134	316.97
709.577	312.07
710.021	323.77
710.465	302.57
710.908	302.17
711.352	308.87
711.795	318.57
712.239	360.47
712.682	395.37
713.126	427.07
713.569	470.77
714.012	374.17
714.456	323.67
714.899	307.87
715.342	273.07
715.786	257.47
716.229	259.57
716.672	254.67
717.115	254.27
717.558	249.37
718.002	259.27
718.445	267.27
718.888	290.97
719.331	301.67
719.774	309.17
720.217	305.47
720.66	285.47
721.103	272.77
721.546	253.67
721.989	254.97
722.432	234.97
722.874	240.87
723.317	229.97
723.76	239.87
724.203	263.87
724.645	325.87
725.088	454.97
725.531	574.27
725.974	661.97
726.416	555.57
726.859	317.37
727.301	254.87
727.744	236.87
728.187	238.67
728.629	241.67
729.071	246.47
729.514	259.77
729.956	277.17
730.399	290.27
730.841	296.07
731.283	278.37
731.726	270.87
732.168	268.27
732.61	268.07
733.053	287.57
733.495	317.97
733.937	363.47
734.379	403.27
734.821	438.97
735.263	542.97
735.705	839.97
736.148	1604.37
736.59	2603.57
737.032	3075.57
737.474	2502.47
737.916	812.17
738.357	434.97
738.799	331.57
739.241	298.27
739.683	290.77
740.125	294.07
740.567	302.07
741.008	316.37
741.45	315.37
741.892	321.27
742.334	340.87
742.775	362.47
743.217	341.37
743.658	272.07
744.1	260.57
744.542	263.97
744.983	317.57
745.425	345.57
745.866	346.57
746.307	291.27
746.749	290.07
747.19	319.07
747.632	469.77
748.073	886.07
748.514	1883.37
748.956	2888.57
749.397	3607.57
749.838	3000.57
750.279	2989.47
750.72	1507.87
751.162	540.27
751.603	322.67
752.044	260.27
752.485	227.47
752.926	210.17
753.367	205.07
753.808	196.47
754.249	194.97
754.69	188.27
755.131	179.17
755.572	180.47
756.013	179.77
756.453	185.97
756.894	192.67
757.335	196.57
757.776	198.57
758.216	196.27
758.657	192.87
759.098	197.27
759.538	220.57
759.979	271.67
760.42	382.27
760.86	697.17
761.301	1831.27
761.741	4484.17
762.182	6455.67
762.622	4559.57
763.063	1308.37
763.503	554.67
763.943	346.77
764.384	339.07
764.824	372.87
765.264	404.37
765.705	296.27
766.145	205.17
766.585	190.27
767.025	177.57
767.465	189.47
767.906	232.77
768.346	308.47
768.786	318.47
769.226	255.57
769.666	320.37
770.106	623.77
770.546	1561.77
770.986	2666.67
771.426	2384.77
771.866	797.07
772.306	330.07
772.745	208.17
773.185	177.87
773.625	171.37
774.065	165.27
774.505	194.17
774.944	293.77
775.384	644.17
775.824	1154.87
776.263	1131.57
776.703	487.67
777.142	221.57
777.582	162.17
778.021	138.97
778.461	142.77
778.9	137.47
779.34	134.37
779.779	109.47
780.219	112.87
780.658	105.67
781.097	116.17
781.537	123.67
781.976	115.07
782.415	112.37
782.855	112.57
783.294	103.77
783.733	106.97
784.172	112.17
784.611	101.57
785.05	103.97
785.489	115.97
785.928	121.87
786.367	120.87
786.806	122.67
787.245	134.37
787.684	135.17
788.123	152.57
788.562	133.87
789.001	128.47
789.44	124.67
789.879	121.37
790.317	117.67
790.756	122.37
791.195	132.97
791.634	141.77
792.072	201.47
792.511	365.17
792.95	1022.87
793.388	2151.07
793.827	1961.37
794.265	683.07
794.704	278.67
795.142	187.67
795.581	153.27
796.019	139.87
796.458	131.37
796.896	124.47
797.334	130.37
797.773	153.47
798.211	218.97
798.649	442.07
799.087	1041.87
799.526	1597.47
799.964	2035.47
800.402	2017.07
800.84	751.97
801.278	306.47
801.716	192.37
802.154	153.57
802.592	150.67
803.03	142.97
803.468	138.07
803.906	151.27
804.344	143.17
804.782	141.47
805.22	136.47
805.658	132.37
806.096	153.17
806.533	161.27
806.971	174.37
807.409	219.27
807.847	317.57
808.284	666.77
808.722	1879.47
809.16	3301.57
809.597	3139.07
810.035	5444.17
810.472	5808.87
810.91	2084.17
811.347	794.67
811.785	399.87
812.222	261.17
812.66	200.67
813.097	167.97
813.535	141.67
813.972	130.07
814.409	116.17
814.846	103.57
815.284	108.77
815.721	101.57
816.158	113.47
816.595	120.77
817.032	175.17
817.47	203.77
817.907	168.47
818.344	147.17
818.781	127.17
819.218	102.97
819.655	125.27
820.092	189.17
820.529	215.37
820.966	175.37
821.403	134.87
821.839	104.47
822.276	107.07
822.713	126.37
823.15	125.87
823.587	120.17
824.023	146.27
824.46	301.37
824.897	907.27
825.333	1366.87
825.77	583.57
826.206	230.07
826.643	139.77
827.08	102.17
827.516	84.17
827.953	74.27
828.389	83.57
828.825	66.87
829.262	73.57
829.698	65.47
830.135	69.17
830.571	68.37
831.007	67.77
831.443	63.47
831.88	60.87
832.316	68.47
832.752	60.47
833.188	73.27
833.624	61.77
834.06	68.97
834.497	67.97
834.933	74.07
835.369	73.87
835.805	66.37
836.241	76.67
836.677	75.87
837.112	92.87
837.548	106.97
837.984	134.27
838.42	201.77
838.856	495.97
839.292	1523.37
839.727	2313.57
840.163	1073.37
840.599	911.57
841.034	2035.67
841.47	2135.77
841.906	777.57
842.341	338.17
842.777	236.87
843.212	303.07
843.648	286.57
844.083	145.57
844.519	94.07
844.954	75.07
845.39	64.07
845.825	62.07
846.261	59.77
846.696	56.47
847.131	50.47
847.566	52.37
848.002	53.17
848.437	50.27
848.872	60.57
849.307	59.07
849.742	81.37
850.177	172.97
850.613	550.37
851.048	889.77
851.483	394.07
851.918	158.17
852.353	86.27
852.788	59.07
853.223	58.77
853.657	60.27
854.092	52.37
854.527	44.07
854.962	40.87
855.397	49.47
855.832	51.77
856.266	37.67
856.701	42.27
857.136	41.47
857.57	44.47
858.005	47.77
858.44	53.57
858.874	45.97
859.309	57.27
859.743	45.97
860.178	48.97
860.612	50.97
861.047	52.17
861.481	67.97
861.915	72.07
862.35	52.87
862.784	33.87
863.218	35.77
863.653	37.57
864.087	45.17
864.521	54.37
864.955	70.97
865.39	159.37
865.824	176.67
866.258	122.27
866.692	164.77
867.126	182.07
867.56	109.27
867.994	54.77
868.428	41.67
868.862	48.67
869.296	57.57
869.73	55.07
870.164	54.77
870.598	41.87
871.031	35.57
871.465	35.17
871.899	27.07
872.333	30.97
872.766	26.67
873.2	25.67
873.634	34.87
874.067	28.07
874.501	26.57
874.935	40.47
875.368	27.37
875.802	29.47
876.235	25.87
876.669	25.57
877.102	22.07
877.535	28.27
877.969	29.57
878.402	24.37
878.836	18.87
879.269	23.87
879.702	23.37
880.135	19.97
880.569	20.87
881.002	33.27
881.435	13.07
881.868	19.27
882.301	21.87
882.734	18.87
883.167	26.97
883.601	19.47
884.034	22.77
884.467	15.67
884.899	19.67
885.332	18.07
885.765	20.07
886.198	17.37
886.631	18.17
887.064	16.37
887.497	20.97
887.929	26.37
888.362	14.27
888.795	15.97
889.228	17.67
889.66	22.07
890.093	18.67
890.526	19.77
890.958	20.27
891.391	18.37
891.823	24.27
892.256	12.87
892.688	20.17
893.121	11.47
893.553	15.17
893.985	23.07
894.418	20.07
894.85	13.07
895.282	15.07
895.715	13.77
896.147	18.27
896.579	11.27
897.011	14.17
897.444	21.47
897.876	14.27
898.308	19.27
898.74	14.47
899.172	9.27
899.604	26.67
900.036	19.47
900.468	13.47
900.9	13.07
901.332	20.37
901.764	13.37
902.196	18.07
902.628	16.37
903.06	14.37
903.491	31.87
903.923	22.57
904.355	22.97
904.787	28.27
905.218	27.87
905.65	21.37
906.082	13.37
906.513	12.77
906.945	15.87
907.376	9.57
907.808	21.77
908.239	26.87
908.671	21.37
909.102	17.57
909.534	19.37
909.965	42.47
910.397	90.77
910.828	313.37
911.259	476.47
911.691	213.47
912.122	109.37
912.553	48.47
912.984	36.07
913.415	21.77
913.847	24.37
914.278	13.77
914.709	13.57
915.14	17.27
915.571	21.37
916.002	17.27
916.433	22.27
916.864	16.37
917.295	13.77
917.726	26.17
918.157	16.77
918.587	29.97
919.018	26.47
919.449	23.57
919.88	21.97
920.311	34.27
920.741	49.97
921.172	169.77
921.603	147.17
922.033	67.07
922.464	43.27
922.895	21.87
923.325	21.37
923.756	18.47
924.186	15.87
924.617	22.37
925.047	32.57
925.478	50.67
925.908	38.67
926.338	24.77
926.769	19.77
927.199	17.67
927.629	8.37
928.06	12.57
928.49	15.97
928.92	17.07
929.35	13.97
929.78	13.87
930.21	8.07
930.641	4.87
931.071	11.07
931.501	5.87
931.931	9.47
932.361	8.67
932.791	1.77
933.221	4.97
933.651	7.27
934.08	15.97
934.51	28.27
934.94	13.17
935.37	9.27
935.8	11.07
936.229	9.57
936.659	9.87
937.089	3.87
937.519	11.47
937.948	19.67
938.378	13.07
938.807	2.37
939.237	4.47
939.666	10.37
940.096	-5.63
940.525	0.47
940.955	5.57
941.384	2.07
941.814	1.77
942.243	-5.23
942.672	6.07
943.102	-7.23
943.531	-0.93
943.96	7.07
944.39	-1.63
944.819	4.27
945.248	3.87
945.677	2.87
946.106	5.17
946.535	12.67
946.964	2.97
947.393	1.97
947.822	7.07
948.251	-5.53
948.68	5.27
949.109	9.47
949.538	7.57
949.967	-2.53
950.396	10.77
950.825	3.67
951.254	5.37
951.682	-4.03
952.111	4.27
952.54	7.67
952.969	-6.63
953.397	-2.53
953.826	-0.23
954.254	-6.73
954.683	1.17
955.112	-1.93
955.54	-0.43
955.969	-1.03
956.397	2.57
956.826	-3.43
957.254	4.37
957.682	2.67
958.111	7.67
958.539	1.47
958.967	2.37
959.396	-0.93
959.824	2.47
960.252	5.07
960.68	-5.93
961.109	4.57
961.537	-2.53
961.965	2.37
962.393	0.17
962.821	-8.43
963.249	0.77
963.677	4.37
964.105	7.67
964.533	40.97
964.961	47.37
965.389	20.27
965.817	7.17
966.245	0.57
966.672	-0.73
967.1	-3.53
967.528	-3.53
967.956	-2.43
968.383	1.27
968.811	-0.03
969.239	-4.53
969.666	-5.23
970.094	-1.63
970.522	-0.43
970.949	0.17
971.377	-5.43
971.804	-4.63
972.232	-5.03
972.659	2.57
973.087	-7.23
973.514	-3.03
973.941	2.57
974.369	7.57
974.796	0.77
975.223	3.17
975.651	-0.63
976.078	0.07
976.505	-0.13
976.932	3.17
977.359	11.87
977.786	11.07
978.214	2.07
978.641	-1.13
979.068	-4.53
979.495	-6.13
979.922	-2.23
980.349	1.37
980.776	1.47
981.202	-1.03
981.629	3.27
982.056	9.77
982.483	-3.43
982.91	0.77
983.337	-8.43
983.763	-0.33
984.19	-2.63
984.617	-7.63
985.043	-0.93
985.47	-1.03
985.897	-6.83
986.323	-7.33
986.75	2.17
987.176	-5.03
987.603	1.17
988.029	1.17
988.456	-3.23
988.882	2.87
989.308	-10.63
989.735	-5.13
990.161	4.77
990.587	-5.43
991.014	-2.43
991.44	2.07
991.866	-2.23
992.292	-0.73
992.719	-2.03
993.145	1.17
993.571	-12.93
993.997	-4.33
994.423	-3.03
994.849	-5.13
995.275	5.47
995.701	-2.83
996.127	-9.13
996.553	4.07
996.979	-5.13
997.405	-0.53
997.83	-9.43
998.256	-5.63
998.682	-6.33
999.108	-5.63
999.534	-2.63
999.959	-1.73
1000.385	-5.43
1000.811	-1.53
1001.236	-8.33
1001.662	-7.33
1002.087	-9.33
1002.513	2.87
1002.938	1.17
1003.364	-3.13
1003.789	-3.03
1004.215	7.27
1004.64	-2.53
1005.066	0.27
1005.491	-3.23
1005.916	-2.73
1006.342	-4.73
1006.767	-1.53
1007.192	0.37
1007.617	-2.93
1008.042	-3.63
1008.468	-10.43
1008.893	-0.83
1009.318	-5.53
1009.743	-4.03
1010.168	-0.43
1010.593	2.87
1011.018	-6.43
1011.443	-6.13
1011.868	-2.13
1012.293	-5.73
1012.718	-5.93
1013.143	-4.33
1013.567	-1.93
1013.992	-4.33
1014.417	-14.23
1014.842	6.27
1015.267	-2.33
1015.691	-1.43
1016.116	6.97
1016.541	-1.63
1016.965	-0.33
1017.39	-3.43
1017.814	-1.83
1018.239	0.17
1018.663	-8.93
1019.088	-9.53
1019.512	2.67
1019.937	-3.23
1020.361	-3.43
1020.785	-11.53
1021.21	1.47
1021.634	0.47
1022.058	-1.73
1022.483	5.07
1022.907	-7.73
1023.331	-4.43
1023.755	0.27
1024.179	1.77
1024.604	-6.13
1025.028	-2.63
1025.452	-5.33
1025.876	-4.33
1026.3	-3.03
1026.724	-12.33
1027.148	-7.13
1027.572	-4.43
1027.996	-2.83
1028.42	-3.43
1028.843	1.17
1029.267	-7.13
1029.691	1.07
1030.115	-3.23
1030.539	-5.93
1030.962	-4.53
1031.386	-10.03
1031.81	6.97
1032.233	-2.03
1032.657	-0.33
1033.08	-5.03
1033.504	-1.43
1033.927	-4.43
1034.351	-0.33
1034.774	-0.43
1035.198	-8.93
1035.621	-6.83
1036.045	-9.73
1036.468	2.47
1036.891	-9.23
1037.315	-8.53
1037.738	-13.03
1038.161	0.47
1038.584	-7.33
1039.008	-7.33
1039.431	-2.23
1039.854	-7.43
1040.277	-5.23
1040.7	-15.93
1041.123	-2.63
1041.546	-4.53
1041.969	-4.63
1042.392	-10.23
1042.815	-2.83
1043.238	4.47
1043.661	-0.23
1044.084	-6.63
1044.507	-7.03
1044.93	-6.23
1045.352	-2.03
1045.775	-2.23
1046.198	-1.53
1046.621	-2.93
1047.043	3.97
1047.466	4.77
1047.889	-1.23
1048.311	-8.13
1048.734	0.87
1049.156	-4.53
1049.579	1.97
1050.001	-1.73
1050.424	1.97
1050.846	-0.33
1051.269	-6.53
1051.691	-9.23
1052.113	-2.83
1052.536	2.57
1052.958	-11.73
1053.38	-1.33
1053.802	-10.83
1054.225	0.07
1054.647	-9.03
1055.069	-3.43
1055.491	0.37
1055.913	-6.33
1056.335	-0.43
1056.757	-5.53
1057.179	-10.53
1057.601	-8.23
1058.023	-4.43
1058.445	-2.83
1058.867	-6.13
1059.289	1.77
1059.711	-4.73
1060.133	-4.23
1060.555	-7.33
1060.976	-4.83
1061.398	-7.53
1061.82	-7.93
1062.241	-5.73
1062.663	-5.23
1063.085	-7.43
1063.506	-4.13
1063.928	-1.13
1064.35	-5.73
1064.771	-5.23
1065.193	-4.43
1065.614	-9.83
1066.035	-0.43
1066.457	-4.73
1066.878	-0.53
1067.3	-10.63
1067.721	-0.83
1068.142	-6.53
1068.564	1.57
1068.985	-5.43
1069.406	-5.33
1069.827	-5.53
1070.248	2.47
1070.67	-5.63
1071.091	-4.43
1071.512	-3.43
1071.933	-7.83
1072.354	-6.73
1072.775	-4.53
1073.196	-5.93
1073.617	-0.23
1074.038	-9.23
1074.459	-5.13
1074.88	-9.43
1075.3	-1.23
1075.721	-5.63
1076.142	-0.63
1076.563	-1.73
1076.983	-13.23
1077.404	-9.53
1077.825	-12.03
1078.246	0.87
1078.666	-11.23
1079.087	-0.83
1079.507	-5.73
1079.928	2.77
1080.348	0.77
1080.769	-4.73
1081.189	-1.33
1081.61	-3.23
1082.03	-8.03
1082.451	-10.73
1082.871	-4.93
1083.291	-8.73
1083.711	-8.63
1084.132	-6.53
1084.552	-5.73
1084.972	5.87
1085.392	-8.03
1085.813	-7.53
1086.233	-11.03
1086.653	-3.63
1087.073	-3.93
1087.493	-3.83
1087.913	-10.53
1088.333	-5.93
1088.753	-10.93
1089.173	0.67
1089.593	-6.73
1090.013	-1.93
1090.433	2.07
1090.852	-2.73
1091.272	-1.13
1091.692	-2.83
1092.112	-3.73
1092.531	-10.43
1092.951	-16.93
1093.371	-2.93
1093.79	1.17
1094.21	-2.63
1094.63	-9.03
1095.049	-5.93
1095.469	-12.13
1095.888	1.97
1096.308	1.07
1096.727	2.67
1097.146	-10.43
1097.566	-5.13
1097.985	-4.93
1098.405	-5.63
1098.824	-1.13
1099.243	-10.03
1099.662	-12.13
1100.082	-3.83
1100.501	-4.93
1100.92	-7.33
1101.339	-5.93
1101.758	-2.13
