Data from 20171114-ORNL-Ar_H_NY_Subt18_08-05-56-712.txt Node
Date: Tue Nov 14 08:05:56 EST 2017
User: Ender
Spectrometer: HR+D1039
Trigger mode: 0
Integration Time (sec): 2.730000E-2
Scans to average: 10
Electric dark correction enabled: true
Nonlinearity correction enabled: false
Boxcar width: 0
XAxis mode: Wavelengths
Number of Pixels in Spectrum: 2048
>>>>>Begin Spectral Data<<<<<
187.836	-3.39
188.309	-3.39
188.782	-3.39
189.255	3.81
189.728	3.81
190.201	6.71
190.674	-3.29
191.147	-1.29
191.619	-5.99
192.092	-5.59
192.565	4.11
193.038	3.01
193.511	0.61
193.984	1.11
194.456	0.51
194.929	-0.79
195.402	-1.99
195.874	-1.39
196.347	0.71
196.82	-7.89
197.292	7.01
197.765	-1.29
198.237	-14.79
198.71	-4.29
199.182	-4.39
199.655	0.11
200.127	5.01
200.6	0.81
201.072	-5.59
201.544	-3.09
202.017	-3.99
202.489	-2.59
202.961	-2.69
203.433	-1.89
203.906	-8.69
204.378	-3.79
204.85	0.01
205.322	-6.99
205.794	-7.29
206.266	-0.39
206.739	-8.89
207.211	1.91
207.683	-12.09
208.155	-8.19
208.627	-4.19
209.099	0.51
209.57	-8.89
210.042	-5.49
210.514	-5.19
210.986	0.01
211.458	-9.49
211.93	-1.99
212.402	1.01
212.873	-8.49
213.345	-10.49
213.817	-13.79
214.288	-6.29
214.76	-8.39
215.232	1.81
215.703	-3.89
216.175	-4.39
216.646	-4.69
217.118	-10.59
217.589	-0.39
218.061	-0.79
218.532	-7.29
219.004	0.31
219.475	-8.89
219.946	-3.69
220.418	-4.69
220.889	1.11
221.36	-0.79
221.832	-6.79
222.303	-3.49
222.774	1.91
223.245	-4.59
223.717	-1.19
224.188	-0.79
224.659	-6.19
225.13	-4.89
225.601	-5.39
226.072	-5.79
226.543	0.91
227.014	-0.09
227.485	-2.69
227.956	-6.39
228.427	1.81
228.898	6.91
229.369	3.31
229.839	-6.79
230.31	-5.79
230.781	0.71
231.252	-3.49
231.722	-6.39
232.193	3.81
232.664	3.21
233.135	5.01
233.605	-2.49
234.076	-2.29
234.546	-1.19
235.017	4.81
235.487	7.01
235.958	-6.59
236.428	-4.29
236.899	-2.19
237.369	1.41
237.84	-0.99
238.31	7.81
238.78	7.91
239.251	0.31
239.721	1.51
240.191	-0.39
240.662	2.41
241.132	-0.09
241.602	-9.29
242.072	1.81
242.542	8.71
243.013	-6.49
243.483	1.81
243.953	4.21
244.423	0.71
244.893	1.51
245.363	0.01
245.833	3.71
246.303	-0.39
246.773	6.71
247.243	1.71
247.712	-0.19
248.182	7.31
248.652	4.91
249.122	-3.29
249.592	12.21
250.061	19.41
250.531	29.61
251.001	10.61
251.471	17.51
251.94	15.81
252.41	7.61
252.879	-2.49
253.349	14.21
253.818	11.91
254.288	8.01
254.757	1.31
255.227	1.91
255.696	1.61
256.166	6.61
256.635	3.81
257.105	7.11
257.574	7.71
258.043	11.81
258.513	14.51
258.982	12.21
259.451	9.51
259.92	9.81
260.389	10.91
260.859	15.71
261.328	14.91
261.797	18.31
262.266	5.21
262.735	13.61
263.204	9.51
263.673	2.01
264.142	2.41
264.611	-3.89
265.08	3.31
265.549	4.11
266.018	5.71
266.487	-1.19
266.955	0.61
267.424	-2.59
267.893	4.01
268.362	0.21
268.83	3.61
269.299	14.21
269.768	6.11
270.236	9.51
270.705	4.71
271.174	3.11
271.642	10.31
272.111	7.91
272.579	14.61
273.048	25.91
273.516	29.81
273.985	23.31
274.453	25.61
274.922	16.61
275.39	7.81
275.858	7.11
276.327	12.91
276.795	12.71
277.263	5.41
277.731	30.11
278.2	53.11
278.668	55.71
279.136	52.91
279.604	27.31
280.072	17.21
280.54	8.51
281.008	5.41
281.477	10.61
281.945	7.81
282.413	7.71
282.881	17.61
283.348	7.61
283.816	15.71
284.284	10.41
284.752	20.41
285.22	13.91
285.688	15.01
286.156	23.31
286.623	46.41
287.091	48.31
287.559	23.71
288.026	19.11
288.494	19.21
288.962	7.61
289.429	9.01
289.897	22.81
290.364	13.41
290.832	18.01
291.3	13.61
291.767	20.71
292.234	16.31
292.702	18.51
293.169	23.21
293.637	27.01
294.104	24.51
294.571	14.81
295.039	10.01
295.506	10.31
295.973	20.61
296.44	15.81
296.908	19.31
297.375	27.01
297.842	22.91
298.309	21.21
298.776	13.31
299.243	19.81
299.71	11.51
300.177	22.41
300.644	23.01
301.111	22.11
301.578	26.51
302.045	14.51
302.512	26.21
302.979	21.41
303.446	21.51
303.913	19.31
304.379	16.61
304.846	29.21
305.313	28.31
305.78	19.41
306.246	18.61
306.713	23.31
307.18	28.31
307.646	29.31
308.113	30.61
308.579	26.01
309.046	26.81
309.512	28.41
309.979	23.21
310.445	31.51
310.912	32.21
311.378	36.81
311.845	28.41
312.311	32.51
312.777	30.81
313.244	32.91
313.71	38.11
314.176	31.01
314.642	31.91
315.109	32.21
315.575	32.71
316.041	38.61
316.507	30.91
316.973	38.51
317.439	35.71
317.905	37.91
318.371	34.11
318.837	31.51
319.303	29.21
319.769	32.61
320.235	35.11
320.701	41.31
321.167	40.51
321.633	36.71
322.099	39.61
322.564	47.31
323.03	41.11
323.496	39.41
323.962	38.61
324.427	38.81
324.893	45.31
325.359	40.21
325.824	37.91
326.29	40.31
326.755	45.11
327.221	41.41
327.686	42.91
328.152	48.51
328.617	44.01
329.083	53.81
329.548	51.91
330.014	47.41
330.479	41.61
330.944	43.61
331.41	42.21
331.875	43.71
332.34	47.21
332.805	42.21
333.271	45.61
333.736	40.91
334.201	54.01
334.666	54.11
335.131	55.71
335.596	55.81
336.061	48.21
336.526	41.21
336.991	54.71
337.456	51.81
337.921	57.11
338.386	43.51
338.851	48.01
339.316	45.71
339.781	43.91
340.246	49.91
340.711	47.41
341.175	53.81
341.64	48.71
342.105	52.51
342.569	51.51
343.034	54.21
343.499	53.41
343.963	49.11
344.428	67.21
344.893	62.01
345.357	58.51
345.822	66.31
346.286	72.81
346.751	79.41
347.215	61.81
347.679	81.51
348.144	98.91
348.608	93.31
349.073	78.81
349.537	80.71
350.001	78.61
350.465	88.21
350.93	80.61
351.394	80.31
351.858	68.11
352.322	86.31
352.786	89.31
353.25	105.51
353.715	112.71
354.179	97.71
354.643	122.21
355.107	130.61
355.571	108.41
356.035	104.61
356.498	120.51
356.962	122.71
357.426	125.81
357.89	123.01
358.354	89.01
358.818	89.11
359.281	81.11
359.745	78.51
360.209	75.91
360.673	76.21
361.136	80.81
361.6	86.41
362.064	82.01
362.527	87.11
362.991	89.11
363.454	85.61
363.918	72.81
364.381	79.31
364.845	85.01
365.308	89.11
365.772	87.91
366.235	88.31
366.698	88.91
367.162	85.81
367.625	89.51
368.088	84.91
368.552	90.41
369.015	82.21
369.478	98.81
369.941	93.51
370.404	94.71
370.867	106.81
371.331	109.11
371.794	117.21
372.257	116.61
372.72	118.51
373.183	108.81
373.646	100.31
374.109	105.11
374.572	108.51
375.035	107.41
375.497	108.31
375.96	104.21
376.423	99.51
376.886	111.71
377.349	107.81
377.811	105.01
378.274	109.71
378.737	110.31
379.199	114.11
379.662	113.01
380.125	115.51
380.587	120.61
381.05	120.51
381.512	126.71
381.975	134.71
382.437	125.91
382.9	124.81
383.362	132.81
383.825	146.71
384.287	153.41
384.75	134.51
385.212	143.71
385.674	147.31
386.136	137.71
386.599	130.11
387.061	132.01
387.523	133.11
387.985	130.41
388.447	147.81
388.91	142.51
389.372	158.51
389.834	147.11
390.296	144.91
390.758	165.61
391.22	172.81
391.682	214.11
392.144	291.91
392.606	227.61
393.068	171.01
393.529	167.71
393.991	154.31
394.453	149.81
394.915	150.31
395.377	190.21
395.838	204.51
396.3	152.01
396.762	140.51
397.224	135.81
397.685	127.01
398.147	128.21
398.608	130.01
399.07	128.91
399.531	139.51
399.993	142.11
400.454	154.71
400.916	149.41
401.377	147.61
401.839	158.81
402.3	152.51
402.762	165.91
403.223	185.01
403.684	169.61
404.145	155.41
404.607	165.61
405.068	173.01
405.529	174.61
405.99	193.01
406.451	180.41
406.913	175.31
407.374	167.21
407.835	159.51
408.296	165.91
408.757	178.71
409.218	189.31
409.679	182.21
410.14	183.61
410.601	178.71
411.062	181.81
411.522	193.11
411.983	191.91
412.444	180.31
412.905	179.91
413.366	186.31
413.826	195.31
414.287	222.81
414.748	260.71
415.208	250.41
415.669	213.01
416.13	211.91
416.59	209.51
417.051	216.61
417.511	217.61
417.972	233.11
418.432	248.41
418.893	285.31
419.353	253.81
419.814	202.91
420.274	184.01
420.734	179.31
421.195	207.71
421.655	198.51
422.115	195.21
422.576	194.01
423.036	198.61
423.496	211.31
423.956	221.11
424.416	231.81
424.876	275.51
425.336	267.51
425.797	265.61
426.257	258.01
426.717	244.61
427.177	235.21
427.637	224.91
428.097	237.91
428.556	251.71
429.016	271.31
429.476	261.51
429.936	278.51
430.396	290.31
430.856	296.41
431.315	324.01
431.775	361.71
432.235	385.41
432.694	359.81
433.154	370.41
433.614	393.51
434.073	352.31
434.533	288.71
434.993	269.01
435.452	292.21
435.912	300.21
436.371	293.61
436.83	298.11
437.29	271.11
437.749	247.21
438.209	249.61
438.668	280.51
439.127	290.41
439.587	266.61
440.046	254.81
440.505	264.81
440.964	281.51
441.424	333.21
441.883	314.11
442.342	264.31
442.801	227.11
443.26	227.41
443.719	229.61
444.178	217.71
444.637	214.11
445.096	217.81
445.555	232.31
446.014	227.81
446.473	227.41
446.932	232.11
447.391	225.11
447.849	228.01
448.308	227.11
448.767	223.61
449.226	238.21
449.685	242.91
450.143	253.81
450.602	242.41
451.061	232.81
451.519	239.11
451.978	234.11
452.436	242.91
452.895	243.81
453.353	259.21
453.812	249.31
454.27	242.21
454.729	236.31
455.187	244.51
455.646	249.51
456.104	247.91
456.562	263.61
457.021	271.41
457.479	264.11
457.937	278.61
458.395	262.61
458.854	248.11
459.312	255.91
459.77	281.31
460.228	254.01
460.686	241.91
461.144	246.91
461.602	244.01
462.06	245.21
462.518	251.61
462.976	267.11
463.434	262.51
463.892	261.11
464.35	280.01
464.808	289.21
465.266	274.81
465.724	270.51
466.181	281.71
466.639	274.51
467.097	292.31
467.555	298.51
468.012	302.91
468.47	316.31
468.928	338.61
469.385	346.41
469.843	353.81
470.3	354.01
470.758	366.81
471.215	389.21
471.673	411.11
472.13	418.41
472.588	431.31
473.045	370.41
473.503	374.41
473.96	399.21
474.417	409.31
474.875	441.61
475.332	483.71
475.789	471.11
476.246	477.21
476.704	499.71
477.161	518.31
477.618	536.21
478.075	574.01
478.532	621.31
478.989	702.51
479.446	823.61
479.903	785.91
480.36	824.91
480.817	887.01
481.274	989.91
481.731	1095.31
482.188	1183.81
482.645	1322.41
483.102	1431.31
483.558	1569.61
484.015	1614.81
484.472	1591.91
484.929	1541.01
485.385	1486.61
485.842	1457.31
486.299	1388.11
486.755	1327.81
487.212	1100.81
487.668	931.01
488.125	863.61
488.582	790.21
489.038	759.31
489.494	728.31
489.951	701.51
490.407	684.61
490.864	653.81
491.32	655.01
491.776	653.71
492.233	668.71
492.689	618.31
493.145	617.21
493.602	604.21
494.058	628.21
494.514	633.91
494.97	645.61
495.426	668.21
495.882	644.41
496.338	632.41
496.794	638.21
497.251	632.61
497.707	655.61
498.163	646.71
498.618	657.21
499.074	653.61
499.53	687.21
499.986	692.71
500.442	664.71
500.898	638.11
501.354	629.81
501.809	642.21
502.265	649.91
502.721	672.01
503.177	680.71
503.632	673.91
504.088	683.21
504.543	726.71
504.999	720.41
505.455	663.51
505.91	643.91
506.366	637.41
506.821	635.41
507.277	633.21
507.732	643.31
508.187	640.91
508.643	639.31
509.098	642.81
509.553	671.11
510.009	679.11
510.464	677.51
510.919	703.91
511.375	708.31
511.83	712.01
512.285	736.51
512.74	774.01
513.195	803.11
513.65	779.51
514.105	779.31
514.56	783.21
515.015	791.91
515.47	820.21
515.925	806.21
516.38	807.51
516.835	809.01
517.29	798.11
517.745	791.51
518.2	776.01
518.655	758.41
519.109	758.11
519.564	756.01
520.019	750.21
520.474	743.81
520.928	732.81
521.383	745.71
521.838	730.51
522.292	721.21
522.747	712.91
523.201	712.71
523.656	700.91
524.11	708.01
524.565	697.81
525.019	715.71
525.474	714.11
525.928	709.21
526.382	702.01
526.837	704.81
527.291	711.61
527.745	710.41
528.2	713.61
528.654	702.61
529.108	694.81
529.562	698.21
530.016	704.21
530.47	692.61
530.925	711.41
531.379	708.91
531.833	714.31
532.287	709.61
532.741	712.41
533.195	721.01
533.649	718.71
534.103	731.51
534.556	720.81
535.01	714.61
535.464	721.11
535.918	734.81
536.372	737.71
536.826	721.81
537.279	719.91
537.733	711.31
538.187	725.41
538.64	728.01
539.094	732.61
539.548	735.11
540.001	742.71
540.455	737.71
540.908	738.21
541.362	738.41
541.815	752.11
542.269	764.31
542.722	770.31
543.175	780.31
543.629	793.81
544.082	806.61
544.536	797.21
544.989	797.71
545.442	801.71
545.895	797.41
546.349	799.21
546.802	797.31
547.255	795.31
547.708	826.01
548.161	830.31
548.614	832.21
549.067	839.71
549.52	829.81
549.973	832.31
550.426	813.21
550.879	795.71
551.332	809.41
551.785	816.31
552.238	811.81
552.691	827.11
553.144	841.71
553.596	856.31
554.049	878.21
554.502	902.01
554.955	931.61
555.407	922.21
555.86	912.41
556.313	906.91
556.765	892.71
557.218	899.41
557.67	893.21
558.123	889.11
558.576	885.51
559.028	889.91
559.48	893.51
559.933	876.31
560.385	847.11
560.838	810.81
561.29	795.31
561.742	793.81
562.195	772.51
562.647	771.11
563.099	779.71
563.551	786.11
564.004	790.61
564.456	780.71
564.908	777.31
565.36	761.91
565.812	737.01
566.264	736.91
566.716	742.21
567.168	724.11
567.62	722.01
568.072	707.31
568.524	704.11
568.976	692.11
569.428	678.31
569.88	682.51
570.332	685.41
570.784	687.21
571.235	698.41
571.687	692.81
572.139	708.61
572.59	724.51
573.042	719.81
573.494	717.71
573.945	710.01
574.397	693.21
574.849	700.21
575.3	703.81
575.752	687.21
576.203	684.11
576.655	685.91
577.106	675.61
577.557	674.41
578.009	662.01
578.46	674.81
578.912	661.81
579.363	668.11
579.814	682.41
580.265	672.01
580.717	679.41
581.168	667.61
581.619	688.11
582.07	677.21
582.521	682.31
582.972	677.51
583.423	674.71
583.875	685.41
584.326	705.11
584.777	744.81
585.227	826.41
585.678	913.91
586.129	992.21
586.58	1057.31
587.031	1136.41
587.482	1276.71
587.933	1464.01
588.384	1271.91
588.834	954.21
589.285	799.91
589.736	785.81
590.186	776.21
590.637	771.71
591.088	751.41
591.538	739.71
591.989	735.01
592.439	733.51
592.89	724.11
593.34	711.11
593.791	711.11
594.241	711.71
594.692	711.11
595.142	707.81
595.593	709.31
596.043	712.01
596.493	720.81
596.943	718.71
597.394	719.91
597.844	718.91
598.294	732.91
598.744	761.01
599.195	781.61
599.645	810.91
600.095	865.71
600.545	903.51
600.995	975.91
601.445	1020.51
601.895	1084.71
602.345	1137.91
602.795	1118.91
603.245	1070.41
603.695	1007.61
604.145	963.61
604.594	916.21
605.044	866.01
605.494	805.41
605.944	759.11
606.393	743.01
606.843	725.31
607.293	735.01
607.743	726.01
608.192	748.31
608.642	753.41
609.091	767.21
609.541	768.61
609.99	764.21
610.44	762.61
610.889	718.11
611.339	697.51
611.788	678.31
612.238	699.81
612.687	708.31
613.136	714.21
613.586	733.21
614.035	735.71
614.484	754.71
614.933	757.81
615.383	744.11
615.832	729.31
616.281	715.91
616.73	682.31
617.179	659.61
617.628	648.31
618.077	621.71
618.526	619.41
618.975	621.31
619.424	611.01
619.873	621.51
620.322	625.51
620.771	608.41
621.22	606.91
621.669	586.61
622.118	584.11
622.567	588.51
623.015	575.91
623.464	559.01
623.913	558.91
624.361	554.51
624.81	552.81
625.259	553.11
625.707	552.11
626.156	555.01
626.604	569.01
627.053	565.31
627.501	569.11
627.95	571.31
628.398	581.61
628.847	576.51
629.295	566.91
629.744	566.91
630.192	561.91
630.64	570.21
631.089	566.31
631.537	575.41
631.985	579.91
632.433	589.11
632.881	601.51
633.33	649.81
633.778	632.11
634.226	560.71
634.674	560.61
635.122	572.91
635.57	588.31
636.018	626.41
636.466	568.91
636.914	550.31
637.362	567.91
637.81	568.51
638.258	569.31
638.705	576.11
639.153	607.01
639.601	604.41
640.049	631.51
640.497	664.71
640.944	694.61
641.392	641.01
641.84	610.31
642.287	584.81
642.735	556.11
643.182	566.91
643.63	573.71
644.078	576.41
644.525	588.21
644.973	599.81
645.42	599.21
645.867	622.91
646.315	641.11
646.762	653.61
647.21	686.01
647.657	708.61
648.104	736.41
648.551	764.91
648.999	833.81
649.446	906.41
649.893	993.61
650.34	1145.31
650.787	1357.31
651.234	1696.71
651.682	2208.01
652.129	3039.61
652.576	4347.51
653.023	6448.11
653.47	8841.81
653.917	11055.71
654.363	12802.31
654.81	14227.91
655.257	13502.71
655.704	8868.01
656.151	5248.11
656.598	3409.81
657.044	2404.91
657.491	1846.51
657.938	1488.81
658.385	1233.91
658.831	1074.81
659.278	958.51
659.724	849.61
660.171	782.61
660.618	724.21
661.064	689.01
661.511	664.11
661.957	644.31
662.404	635.51
662.85	633.21
663.296	616.61
663.743	553.41
664.189	539.31
664.635	535.21
665.082	521.91
665.528	523.61
665.974	513.81
666.42	504.81
666.867	499.11
667.313	491.21
667.759	474.91
668.205	472.71
668.651	475.81
669.097	483.31
669.543	489.21
669.989	469.11
670.435	440.41
670.881	438.51
671.327	441.01
671.773	458.11
672.219	475.21
672.665	538.11
673.11	572.11
673.556	614.31
674.002	659.81
674.448	642.31
674.893	542.81
675.339	462.81
675.785	431.61
676.23	410.01
676.676	385.71
677.122	377.61
677.567	360.91
678.013	360.11
678.458	354.01
678.904	364.11
679.349	339.01
679.794	343.31
680.24	339.11
680.685	345.11
681.131	350.01
681.576	345.11
682.021	350.91
682.466	333.81
682.912	337.81
683.357	348.21
683.802	375.11
684.247	402.81
684.692	450.41
685.137	479.71
685.583	526.01
686.028	546.31
686.473	502.01
686.918	440.81
687.363	417.11
687.807	390.91
688.252	359.91
688.697	351.31
689.142	331.71
689.587	328.11
690.032	318.91
690.477	342.31
690.921	349.81
691.366	377.21
691.811	389.81
692.255	428.01
692.7	442.71
693.145	492.81
693.589	677.61
694.034	1091.11
694.478	1506.21
694.923	1702.11
695.367	2250.61
695.812	1177.61
696.256	484.51
696.701	362.91
697.145	334.31
697.59	328.11
698.034	315.11
698.478	320.41
698.922	327.11
699.367	325.11
699.811	324.01
700.255	340.41
700.699	371.31
701.143	412.21
701.588	460.71
702.032	505.31
702.476	494.11
702.92	471.91
703.364	478.21
703.808	613.61
704.252	1002.81
704.696	1415.81
705.14	1649.31
705.584	2090.61
706.027	1052.11
706.471	507.41
706.915	377.61
707.359	344.31
707.803	313.81
708.246	302.81
708.69	307.81
709.134	302.71
709.577	300.91
710.021	308.71
710.465	287.81
710.908	285.51
711.352	289.31
711.795	305.31
712.239	337.21
712.682	377.81
713.126	409.11
713.569	463.71
714.012	368.41
714.456	310.31
714.899	294.11
715.342	270.41
715.786	256.01
716.229	256.81
716.672	248.61
717.115	245.91
717.558	237.41
718.002	242.31
718.445	258.41
718.888	288.31
719.331	288.91
719.774	312.61
720.217	292.01
720.66	281.41
721.103	262.51
721.546	247.11
721.989	244.81
722.432	227.71
722.874	230.51
723.317	229.51
723.76	232.51
724.203	254.61
724.645	319.21
725.088	434.51
725.531	556.31
725.974	632.01
726.416	530.21
726.859	295.01
727.301	236.11
727.744	230.61
728.187	227.21
728.629	235.21
729.071	232.21
729.514	263.41
729.956	256.51
730.399	276.41
730.841	288.91
731.283	270.61
731.726	258.71
732.168	255.91
732.61	250.81
733.053	280.71
733.495	297.01
733.937	336.91
734.379	391.81
734.821	421.91
735.263	529.21
735.705	802.51
736.148	1510.61
736.59	2499.11
737.032	2993.31
737.474	2433.21
737.916	789.61
738.357	409.91
738.799	319.91
739.241	289.21
739.683	274.31
740.125	279.11
740.567	285.11
741.008	306.91
741.45	302.51
741.892	317.41
742.334	337.11
742.775	352.21
743.217	338.21
743.658	263.61
744.1	248.91
744.542	253.81
744.983	301.11
745.425	337.21
745.866	327.81
746.307	276.11
746.749	275.31
747.19	315.51
747.632	436.71
748.073	840.11
748.514	1795.11
748.956	2772.81
749.397	3481.31
749.838	2882.21
750.279	2899.11
750.72	1465.51
751.162	543.71
751.603	313.11
752.044	245.41
752.485	204.31
752.926	204.71
753.367	194.71
753.808	184.11
754.249	183.71
754.69	178.81
755.131	175.31
755.572	182.01
756.013	174.91
756.453	179.31
756.894	182.11
757.335	189.51
757.776	188.01
758.216	188.01
758.657	191.21
759.098	190.51
759.538	215.11
759.979	257.81
760.42	359.41
760.86	676.71
761.301	1730.01
761.741	4233.91
762.182	6319.41
762.622	4425.51
763.063	1277.21
763.503	525.21
763.943	337.01
764.384	313.41
764.824	383.11
765.264	416.61
765.705	289.91
766.145	203.81
766.585	188.51
767.025	178.61
767.465	184.21
767.906	224.01
768.346	299.41
768.786	321.61
769.226	253.31
769.666	303.91
770.106	600.41
770.546	1492.91
770.986	2564.71
771.426	2319.51
771.866	775.41
772.306	321.61
772.745	201.31
773.185	168.31
773.625	164.71
774.065	161.01
774.505	192.61
774.944	290.41
775.384	631.51
775.824	1143.51
776.263	1128.11
776.703	474.01
777.142	208.61
777.582	156.21
778.021	130.61
778.461	133.41
778.9	128.71
779.34	125.51
779.779	117.81
780.219	110.11
780.658	107.01
781.097	107.71
781.537	114.21
781.976	106.31
782.415	109.71
782.855	106.11
783.294	98.91
783.733	104.31
784.172	103.71
784.611	101.01
785.05	106.31
785.489	107.11
785.928	118.51
786.367	119.61
786.806	112.01
787.245	135.11
787.684	133.91
788.123	146.21
788.562	124.61
789.001	117.71
789.44	123.01
789.879	113.71
790.317	115.41
790.756	124.81
791.195	125.81
791.634	140.21
792.072	196.71
792.511	344.11
792.95	957.01
793.388	2069.71
793.827	1899.11
794.265	662.21
794.704	269.71
795.142	179.71
795.581	150.31
796.019	136.21
796.458	127.31
796.896	115.71
797.334	128.31
797.773	150.21
798.211	216.81
798.649	415.01
799.087	959.71
799.526	1541.31
799.964	1946.01
800.402	1964.21
800.84	742.31
801.278	289.61
801.716	183.11
802.154	147.61
802.592	145.31
803.03	135.11
803.468	124.21
803.906	144.01
804.344	147.81
804.782	140.31
805.22	132.71
805.658	122.41
806.096	146.51
806.533	150.81
806.971	161.41
807.409	206.11
807.847	309.11
808.284	626.41
808.722	1775.21
809.16	3195.31
809.597	2989.51
810.035	5221.51
810.472	5664.91
810.91	2038.21
811.347	771.61
811.785	391.61
812.222	246.71
812.66	191.91
813.097	157.11
813.535	142.11
813.972	125.61
814.409	117.51
814.846	102.51
815.284	109.51
815.721	104.61
816.158	102.01
816.595	112.21
817.032	167.01
817.47	191.61
817.907	160.01
818.344	147.51
818.781	106.61
819.218	92.71
819.655	117.31
820.092	182.11
820.529	216.31
820.966	169.11
821.403	129.61
821.839	103.21
822.276	103.11
822.713	119.11
823.15	129.31
823.587	113.61
824.023	138.41
824.46	277.81
824.897	843.61
825.333	1320.61
825.77	572.01
826.206	224.81
826.643	134.71
827.08	96.21
827.516	81.61
827.953	76.51
828.389	75.81
828.825	64.01
829.262	63.21
829.698	64.41
830.135	56.51
830.571	55.81
831.007	62.11
831.443	58.51
831.88	62.51
832.316	58.31
832.752	59.91
833.188	62.61
833.624	59.91
834.06	62.11
834.497	73.11
834.933	71.01
835.369	77.01
835.805	65.51
836.241	67.81
836.677	77.71
837.112	92.91
837.548	95.71
837.984	131.71
838.42	195.61
838.856	466.01
839.292	1458.11
839.727	2237.21
840.163	1038.61
840.599	878.51
841.034	1953.91
841.47	2083.71
841.906	759.41
842.341	323.41
842.777	223.91
843.212	299.91
843.648	299.11
844.083	151.21
844.519	91.61
844.954	70.71
845.39	50.71
845.825	49.91
846.261	51.01
846.696	54.01
847.131	49.71
847.566	54.21
848.002	49.71
848.437	57.91
848.872	63.31
849.307	59.51
849.742	78.81
850.177	169.51
850.613	527.31
851.048	859.81
851.483	370.61
851.918	146.11
852.353	86.61
852.788	58.21
853.223	53.71
853.657	52.91
854.092	42.21
854.527	39.11
854.962	38.31
855.397	39.91
855.832	49.21
856.266	37.31
856.701	32.91
857.136	33.41
857.57	35.31
858.005	47.51
858.44	55.51
858.874	36.71
859.309	54.41
859.743	39.11
860.178	41.01
860.612	40.31
861.047	55.31
861.481	66.51
861.915	62.71
862.35	43.31
862.784	30.81
863.218	37.91
863.653	40.31
864.087	45.31
864.521	49.91
864.955	67.81
865.39	151.81
865.824	166.71
866.258	107.81
866.692	158.71
867.126	169.61
867.56	98.01
867.994	48.21
868.428	36.31
868.862	45.11
869.296	51.91
869.73	51.91
870.164	52.31
870.598	44.21
871.031	40.21
871.465	29.91
871.899	28.31
872.333	24.71
872.766	23.91
873.2	22.51
873.634	30.01
874.067	20.21
874.501	28.21
874.935	31.61
875.368	24.81
875.802	23.81
876.235	27.71
876.669	23.11
877.102	23.11
877.535	24.91
877.969	19.71
878.402	22.51
878.836	15.91
879.269	24.21
879.702	20.01
880.135	18.01
880.569	22.91
881.002	25.91
881.435	27.41
881.868	11.01
882.301	18.91
882.734	15.41
883.167	23.41
883.601	22.51
884.034	18.11
884.467	12.41
884.899	16.51
885.332	18.31
885.765	15.61
886.198	13.71
886.631	15.71
887.064	14.91
887.497	18.31
887.929	22.51
888.362	11.71
888.795	12.61
889.228	15.71
889.66	24.31
890.093	14.71
890.526	19.11
890.958	15.41
891.391	19.01
891.823	28.61
892.256	11.51
892.688	9.41
893.121	15.11
893.553	15.21
893.985	22.41
894.418	19.01
894.85	10.21
895.282	17.21
895.715	16.51
896.147	18.11
896.579	15.91
897.011	15.41
897.444	19.01
897.876	19.91
898.308	20.91
898.74	13.81
899.172	18.21
899.604	25.01
900.036	19.31
900.468	16.91
900.9	14.11
901.332	17.91
901.764	9.61
902.196	18.51
902.628	16.91
903.06	14.91
903.491	24.51
903.923	20.11
904.355	20.61
904.787	21.11
905.218	27.21
905.65	17.71
906.082	13.01
906.513	12.91
906.945	14.61
907.376	20.61
907.808	23.21
908.239	22.01
908.671	24.71
909.102	18.91
909.534	20.31
909.965	49.41
910.397	95.31
910.828	302.71
911.259	466.11
911.691	211.21
912.122	98.51
912.553	51.11
912.984	32.31
913.415	24.91
913.847	25.31
914.278	14.11
914.709	17.51
915.14	19.91
915.571	17.31
916.002	14.11
916.433	19.61
916.864	17.71
917.295	12.81
917.726	18.21
918.157	17.91
918.587	26.81
919.018	22.11
919.449	19.71
919.88	23.01
920.311	26.91
920.741	45.31
921.172	160.41
921.603	147.21
922.033	71.51
922.464	40.91
922.895	24.61
923.325	22.41
923.756	16.61
924.186	11.51
924.617	19.01
925.047	32.11
925.478	48.31
925.908	38.61
926.338	19.11
926.769	17.81
927.199	20.81
927.629	9.21
928.06	13.91
928.49	9.21
928.92	13.81
929.35	10.71
929.78	11.21
930.21	2.91
930.641	9.71
931.071	5.31
931.501	8.01
931.931	7.21
932.361	10.21
932.791	1.51
933.221	6.81
933.651	4.41
934.08	13.41
934.51	27.61
934.94	4.51
935.37	9.81
935.8	10.41
936.229	4.21
936.659	7.01
937.089	8.81
937.519	12.21
937.948	22.81
938.378	16.91
938.807	2.51
939.237	1.01
939.666	6.41
940.096	-7.59
940.525	-0.49
940.955	2.51
941.384	-1.49
941.814	-5.29
942.243	2.91
942.672	6.11
943.102	-2.19
943.531	-2.89
943.96	1.81
944.39	-3.09
944.819	-3.49
945.248	3.11
945.677	-0.59
946.106	0.51
946.535	4.91
946.964	2.31
947.393	2.01
947.822	3.91
948.251	-2.29
948.68	4.11
949.109	8.11
949.538	3.71
949.967	-0.29
950.396	-3.19
950.825	-4.69
951.254	-2.89
951.682	-6.69
952.111	5.01
952.54	6.61
952.969	-9.59
953.397	-3.49
953.826	-4.49
954.254	-8.79
954.683	5.41
955.112	-1.89
955.54	-0.99
955.969	-0.69
956.397	1.91
956.826	-0.79
957.254	1.71
957.682	-2.29
958.111	4.31
958.539	1.61
958.967	-0.79
959.396	-0.19
959.824	3.41
960.252	-0.09
960.68	-7.49
961.109	-2.69
961.537	-3.19
961.965	-0.59
962.393	4.21
962.821	-9.69
963.249	4.91
963.677	4.11
964.105	7.91
964.533	45.71
964.961	40.21
965.389	18.71
965.817	2.31
966.245	3.51
966.672	-2.49
967.1	-12.49
967.528	-3.39
967.956	-0.09
968.383	-0.49
968.811	-1.19
969.239	-3.89
969.666	-4.99
970.094	-2.99
970.522	6.61
970.949	-0.19
971.377	-9.09
971.804	-4.99
972.232	-6.69
972.659	-5.09
973.087	-4.69
973.514	-3.99
973.941	-9.19
974.369	2.91
974.796	0.41
975.223	-1.99
975.651	2.81
976.078	0.61
976.505	-3.89
976.932	-0.09
977.359	13.21
977.786	3.91
978.214	-0.99
978.641	-0.19
979.068	-4.49
979.495	-7.79
979.922	-1.99
980.349	-2.59
980.776	0.71
981.202	-2.39
981.629	-5.19
982.056	2.11
982.483	-9.39
982.91	3.71
983.337	-8.59
983.763	4.11
984.19	-6.29
984.617	-9.59
985.043	-3.19
985.47	-3.99
985.897	-4.69
986.323	-8.09
986.75	-0.59
987.176	2.51
987.603	-4.39
988.029	-4.09
988.456	-8.89
988.882	3.71
989.308	-2.99
989.735	-6.29
990.161	-1.09
990.587	0.01
991.014	2.61
991.44	4.91
991.866	-3.19
992.292	-6.89
992.719	-4.69
993.145	4.71
993.571	-8.39
993.997	-1.39
994.423	-0.59
994.849	-5.69
995.275	1.21
995.701	-3.39
996.127	-4.79
996.553	0.41
996.979	-3.89
997.405	-1.69
997.83	-8.89
998.256	-6.89
998.682	-7.09
999.108	-4.49
999.534	-1.09
999.959	-2.39
1000.385	-3.19
1000.811	-5.19
1001.236	-8.39
1001.662	-10.79
1002.087	-9.09
1002.513	-5.69
1002.938	3.01
1003.364	-8.99
1003.789	-1.89
1004.215	2.61
1004.64	-3.19
1005.066	-1.99
1005.491	0.61
1005.916	-1.29
1006.342	-5.19
1006.767	-13.19
1007.192	1.91
1007.617	-3.09
1008.042	-8.59
1008.468	-8.09
1008.893	-6.39
1009.318	-8.69
1009.743	-2.49
1010.168	4.81
1010.593	-5.09
1011.018	-10.49
1011.443	-1.79
1011.868	2.31
1012.293	-1.89
1012.718	-9.19
1013.143	-3.19
1013.567	4.91
1013.992	-2.09
1014.417	-15.79
1014.842	-0.89
1015.267	-5.79
1015.691	-7.19
1016.116	5.21
1016.541	0.71
1016.965	1.31
1017.39	-1.19
1017.814	-0.59
1018.239	-4.89
1018.663	-9.99
1019.088	-13.49
1019.512	-8.19
1019.937	-4.29
1020.361	-9.69
1020.785	-12.39
1021.21	2.91
1021.634	-0.09
1022.058	-0.59
1022.483	7.11
1022.907	-7.19
1023.331	-10.29
1023.755	-9.19
1024.179	-3.19
1024.604	-9.29
1025.028	-7.39
1025.452	-8.59
1025.876	-7.79
1026.3	-1.89
1026.724	-13.19
1027.148	-9.69
1027.572	-14.09
1027.996	-7.59
1028.42	-2.09
1028.843	-1.19
1029.267	-5.49
1029.691	1.31
1030.115	-4.99
1030.539	-2.59
1030.962	-8.19
1031.386	-9.19
1031.81	2.21
1032.233	-1.29
1032.657	-6.39
1033.08	-1.69
1033.504	-3.89
1033.927	-2.39
1034.351	-3.29
1034.774	-3.59
1035.198	-2.89
1035.621	-2.39
1036.045	-7.19
1036.468	0.21
1036.891	-10.09
1037.315	-5.29
1037.738	-10.49
1038.161	-6.89
1038.584	-7.89
1039.008	-10.09
1039.431	-7.79
1039.854	-5.39
1040.277	-10.79
1040.7	-14.29
1041.123	-2.29
1041.546	-9.79
1041.969	-5.29
1042.392	-2.19
1042.815	-6.19
1043.238	-0.49
1043.661	-0.49
1044.084	-6.29
1044.507	-6.89
1044.93	-0.69
1045.352	-8.49
1045.775	-7.09
1046.198	-2.19
1046.621	-5.19
1047.043	-1.69
1047.466	3.71
1047.889	-5.29
1048.311	-9.99
1048.734	-1.69
1049.156	-1.89
1049.579	-4.49
1050.001	-9.59
1050.424	-5.19
1050.846	-3.19
1051.269	-1.49
1051.691	-5.49
1052.113	-8.39
1052.536	-2.19
1052.958	-1.09
1053.38	-7.59
1053.802	-13.29
1054.225	-4.99
1054.647	-7.49
1055.069	-6.89
1055.491	2.91
1055.913	-10.89
1056.335	-0.89
1056.757	-5.79
1057.179	-4.89
1057.601	-5.89
1058.023	-7.89
1058.445	-1.89
1058.867	-5.29
1059.289	-2.49
1059.711	-12.49
1060.133	0.21
1060.555	-1.89
1060.976	-11.19
1061.398	-6.59
1061.82	-2.79
1062.241	-4.69
1062.663	-12.49
1063.085	-9.29
1063.506	1.61
1063.928	-5.29
1064.35	1.61
1064.771	-10.49
1065.193	-0.99
1065.614	-16.59
1066.035	-6.09
1066.457	-1.69
1066.878	-2.19
1067.3	-10.49
1067.721	-7.59
1068.142	-4.49
1068.564	-4.69
1068.985	-4.69
1069.406	-8.39
1069.827	-8.39
1070.248	0.71
1070.67	-8.29
1071.091	-11.79
1071.512	-12.29
1071.933	-12.19
1072.354	-12.59
1072.775	-10.99
1073.196	-9.59
1073.617	-7.79
1074.038	-7.09
1074.459	0.91
1074.88	-12.99
1075.3	-4.79
1075.721	-11.29
1076.142	-0.99
1076.563	-0.09
1076.983	-6.79
1077.404	-6.89
1077.825	-10.09
1078.246	-6.69
1078.666	-10.99
1079.087	-7.19
1079.507	-0.99
1079.928	-1.09
1080.348	-4.29
1080.769	-4.69
1081.189	-2.79
1081.61	-6.29
1082.03	-7.09
1082.451	-8.29
1082.871	-6.19
1083.291	-10.29
1083.711	-12.29
1084.132	-4.39
1084.552	-3.99
1084.972	-2.49
1085.392	-12.39
1085.813	-11.49
1086.233	-7.19
1086.653	-4.49
1087.073	-0.49
1087.493	-8.69
1087.913	-8.29
1088.333	-9.99
1088.753	-7.29
1089.173	1.91
1089.593	-5.49
1090.013	5.01
1090.433	2.51
1090.852	-2.89
1091.272	-0.29
1091.692	-5.89
1092.112	-4.59
1092.531	-10.79
1092.951	-12.29
1093.371	-1.99
1093.79	-5.59
1094.21	-2.79
1094.63	-8.09
1095.049	-9.09
1095.469	-4.29
1095.888	-1.09
1096.308	-2.49
1096.727	1.61
1097.146	-9.69
1097.566	-5.69
1097.985	-6.09
1098.405	-3.99
1098.824	-6.09
1099.243	-3.69
1099.662	-0.89
1100.082	-3.49
1100.501	1.41
1100.92	-7.59
1101.339	-6.19
1101.758	-11.79
