Data from 20171114-ORNL-Ar_H_NY_Subt18_08-03-33-400.txt Node
Date: Tue Nov 14 08:03:33 EST 2017
User: Ender
Spectrometer: HR+D1039
Trigger mode: 0
Integration Time (sec): 2.730000E-2
Scans to average: 10
Electric dark correction enabled: true
Nonlinearity correction enabled: false
Boxcar width: 0
XAxis mode: Wavelengths
Number of Pixels in Spectrum: 2048
>>>>>Begin Spectral Data<<<<<
187.836	-5.73
188.309	-5.73
188.782	-5.73
189.255	4.07
189.728	-1.43
190.201	4.67
190.674	5.97
191.147	3.47
191.619	-9.63
192.092	-3.93
192.565	6.07
193.038	1.97
193.511	0.17
193.984	-1.03
194.456	-2.53
194.929	2.57
195.402	-4.93
195.874	0.27
196.347	0.67
196.82	-3.93
197.292	3.97
197.765	-4.13
198.237	-4.93
198.71	-2.73
199.182	-3.23
199.655	4.77
200.127	2.27
200.6	-2.83
201.072	4.97
201.544	-1.23
202.017	-4.23
202.489	1.87
202.961	-4.53
203.433	1.17
203.906	-1.33
204.378	-6.63
204.85	-0.33
205.322	-2.33
205.794	-8.73
206.266	-1.03
206.739	-11.33
207.211	2.17
207.683	-11.63
208.155	-11.73
208.627	-3.23
209.099	-4.13
209.57	-8.73
210.042	-5.83
210.514	-1.83
210.986	-3.73
211.458	-9.93
211.93	-4.53
212.402	0.87
212.873	-4.33
213.345	-6.03
213.817	-10.83
214.288	-7.23
214.76	-4.53
215.232	-2.13
215.703	-5.23
216.175	-1.63
216.646	-5.33
217.118	-3.23
217.589	-8.43
218.061	-4.33
218.532	-6.33
219.004	-2.93
219.475	2.27
219.946	2.57
220.418	-7.83
220.889	-2.63
221.36	-3.23
221.832	-2.63
222.303	-4.53
222.774	-2.53
223.245	-1.43
223.717	-0.93
224.188	-0.83
224.659	-8.63
225.13	-2.23
225.601	-3.53
226.072	-2.83
226.543	-0.23
227.014	-4.93
227.485	-3.53
227.956	-9.13
228.427	-5.33
228.898	1.67
229.369	-2.43
229.839	-7.43
230.31	-8.13
230.781	0.17
231.252	-9.63
231.722	-8.13
232.193	-7.33
232.664	-2.83
233.135	-0.03
233.605	-4.33
234.076	-13.23
234.546	-2.53
235.017	1.97
235.487	-5.83
235.958	-0.23
236.428	-5.73
236.899	-0.43
237.369	-3.73
237.84	-6.53
238.31	-4.63
238.78	-5.43
239.251	-4.43
239.721	-8.13
240.191	-6.03
240.662	-1.93
241.132	0.27
241.602	-7.53
242.072	-3.93
242.542	-0.03
243.013	-7.83
243.483	0.87
243.953	-5.03
244.423	-6.13
244.893	-9.93
245.363	-0.93
245.833	-4.73
246.303	-3.03
246.773	2.37
247.243	-5.03
247.712	-3.53
248.182	2.37
248.652	4.77
249.122	-15.73
249.592	0.97
250.061	-1.03
250.531	4.77
251.001	-2.63
251.471	2.37
251.94	0.67
252.41	-6.53
252.879	-11.33
253.349	-0.03
253.818	2.57
254.288	-2.53
254.757	-6.03
255.227	-9.13
255.696	-0.83
256.166	0.07
256.635	3.67
257.105	2.97
257.574	-2.83
258.043	-0.33
258.513	-4.03
258.982	-5.13
259.451	-8.33
259.92	2.37
260.389	-3.23
260.859	-0.33
261.328	-7.53
261.797	-4.43
262.266	-4.63
262.735	3.07
263.204	-3.83
263.673	-5.43
264.142	-1.83
264.611	-10.43
265.08	-7.23
265.549	-6.13
266.018	-0.43
266.487	-9.33
266.955	-9.33
267.424	-14.73
267.893	-2.53
268.362	-3.83
268.83	-0.83
269.299	1.57
269.768	-2.13
270.236	-2.43
270.705	-3.23
271.174	-5.63
271.642	-3.43
272.111	-3.93
272.579	-1.23
273.048	-4.93
273.516	-1.03
273.985	-5.43
274.453	0.37
274.922	3.27
275.39	-7.03
275.858	-15.33
276.327	-0.93
276.795	6.27
277.263	-6.03
277.731	5.07
278.2	-6.33
278.668	-4.53
279.136	-0.13
279.604	-2.13
280.072	-3.23
280.54	-0.63
281.008	-3.73
281.477	1.37
281.945	-0.43
282.413	-1.63
282.881	-1.13
283.348	-6.23
283.816	-5.83
284.284	2.17
284.752	7.67
285.22	-0.33
285.688	0.17
286.156	-1.43
286.623	4.17
287.091	-4.53
287.559	2.67
288.026	-0.73
288.494	-3.03
288.962	-11.43
289.429	-5.43
289.897	0.87
290.364	4.07
290.832	-4.03
291.3	1.77
291.767	2.27
292.234	6.87
292.702	-7.63
293.169	-1.63
293.637	11.27
294.104	-1.23
294.571	-5.33
295.039	-2.23
295.506	-4.73
295.973	2.37
296.44	-1.03
296.908	1.17
297.375	1.57
297.842	2.57
298.309	-1.73
298.776	-2.63
299.243	2.57
299.71	-8.13
300.177	0.97
300.644	5.87
301.111	-0.03
301.578	-0.43
302.045	-5.33
302.512	-3.33
302.979	8.17
303.446	1.87
303.913	-3.03
304.379	-0.83
304.846	4.47
305.313	-2.33
305.78	2.07
306.246	4.47
306.713	-1.63
307.18	-3.53
307.646	3.07
308.113	-2.53
308.579	-4.03
309.046	3.47
309.512	-2.53
309.979	-6.23
310.445	2.37
310.912	1.27
311.378	7.97
311.845	4.37
312.311	4.97
312.777	-3.33
313.244	2.57
313.71	9.47
314.176	-2.93
314.642	-4.63
315.109	-0.23
315.575	5.27
316.041	2.97
316.507	-1.53
316.973	3.07
317.439	-1.03
317.905	3.57
318.371	2.97
318.837	-0.13
319.303	-0.33
319.769	3.17
320.235	2.47
320.701	2.97
321.167	2.37
321.633	1.37
322.099	4.77
322.564	5.47
323.03	2.97
323.496	-4.73
323.962	-0.03
324.427	4.87
324.893	6.87
325.359	1.67
325.824	4.37
326.29	4.67
326.755	4.07
327.221	2.27
327.686	-2.53
328.152	9.57
328.617	7.77
329.083	15.97
329.548	7.17
330.014	9.87
330.479	3.87
330.944	1.77
331.41	5.77
331.875	5.77
332.34	10.67
332.805	5.37
333.271	6.57
333.736	-2.83
334.201	6.37
334.666	6.77
335.131	15.27
335.596	7.47
336.061	5.17
336.526	-1.03
336.991	5.87
337.456	18.37
337.921	5.77
338.386	8.07
338.851	12.47
339.316	8.07
339.781	9.37
340.246	14.07
340.711	12.17
341.175	8.87
341.64	-5.73
342.105	6.77
342.569	8.07
343.034	5.57
343.499	8.87
343.963	6.67
344.428	17.07
344.893	12.77
345.357	10.07
345.822	8.67
346.286	8.57
346.751	11.67
347.215	14.17
347.679	12.37
348.144	10.67
348.608	15.47
349.073	10.37
349.537	8.87
350.001	8.07
350.465	20.77
350.93	13.67
351.394	16.97
351.858	11.57
352.322	17.37
352.786	9.97
353.25	14.27
353.715	20.37
354.179	20.27
354.643	16.27
355.107	22.77
355.571	16.47
356.035	14.97
356.498	21.47
356.962	16.17
357.426	23.47
357.89	18.17
358.354	17.97
358.818	16.97
359.281	18.37
359.745	14.47
360.209	15.47
360.673	8.27
361.136	10.67
361.6	17.47
362.064	22.37
362.527	13.17
362.991	17.27
363.454	10.07
363.918	4.17
364.381	12.07
364.845	14.47
365.308	12.97
365.772	19.17
366.235	18.27
366.698	8.37
367.162	17.67
367.625	13.17
368.088	15.77
368.552	11.57
369.015	17.87
369.478	17.57
369.941	25.97
370.404	12.47
370.867	17.37
371.331	15.67
371.794	26.07
372.257	20.57
372.72	21.77
373.183	19.87
373.646	17.27
374.109	13.67
374.572	16.77
375.035	15.97
375.497	19.47
375.96	18.27
376.423	14.37
376.886	18.27
377.349	15.57
377.811	17.67
378.274	21.77
378.737	17.97
379.199	21.37
379.662	19.77
380.125	22.77
380.587	15.37
381.05	15.97
381.512	20.97
381.975	25.37
382.437	26.27
382.9	17.07
383.362	29.07
383.825	22.17
384.287	23.57
384.75	22.47
385.212	26.77
385.674	24.87
386.136	26.27
386.599	26.07
387.061	27.27
387.523	20.47
387.985	32.67
388.447	30.47
388.91	26.07
389.372	27.17
389.834	25.67
390.296	22.27
390.758	28.87
391.22	27.77
391.682	27.17
392.144	37.27
392.606	28.27
393.068	28.47
393.529	40.97
393.991	28.07
394.453	26.37
394.915	25.17
395.377	28.77
395.838	24.87
396.3	23.97
396.762	32.27
397.224	30.27
397.685	30.77
398.147	32.77
398.608	29.07
399.07	22.17
399.531	31.37
399.993	33.07
400.454	31.27
400.916	32.07
401.377	35.17
401.839	32.57
402.3	28.97
402.762	37.27
403.223	41.97
403.684	39.07
404.145	34.67
404.607	34.37
405.068	33.17
405.529	37.07
405.99	35.27
406.451	19.17
406.913	29.47
407.374	28.57
407.835	28.87
408.296	32.67
408.757	35.67
409.218	31.17
409.679	35.87
410.14	40.47
410.601	37.67
411.062	42.47
411.522	34.67
411.983	35.77
412.444	34.67
412.905	44.57
413.366	39.27
413.826	54.27
414.287	59.97
414.748	74.77
415.208	72.97
415.669	56.37
416.13	49.97
416.59	50.67
417.051	60.17
417.511	62.17
417.972	64.47
418.432	76.27
418.893	93.97
419.353	76.37
419.814	53.97
420.274	46.47
420.734	48.17
421.195	49.77
421.655	42.17
422.115	50.07
422.576	45.17
423.036	45.47
423.496	53.27
423.956	54.97
424.416	58.57
424.876	61.37
425.336	58.67
425.797	63.27
426.257	59.27
426.717	52.57
427.177	58.17
427.637	45.07
428.097	43.47
428.556	45.27
429.016	54.57
429.476	48.17
429.936	51.57
430.396	53.17
430.856	56.97
431.315	61.87
431.775	66.17
432.235	77.07
432.694	60.37
433.154	66.77
433.614	71.77
434.073	59.77
434.533	55.47
434.993	44.17
435.452	55.27
435.912	55.97
436.371	56.57
436.83	52.37
437.29	53.87
437.749	52.77
438.209	48.47
438.668	49.47
439.127	63.27
439.587	58.87
440.046	48.87
440.505	56.47
440.964	59.67
441.424	66.37
441.883	57.37
442.342	59.47
442.801	53.07
443.26	54.87
443.719	53.07
444.178	52.67
444.637	43.77
445.096	53.27
445.555	52.37
446.014	54.77
446.473	58.07
446.932	57.97
447.391	49.77
447.849	55.37
448.308	46.07
448.767	50.27
449.226	61.17
449.685	63.77
450.143	68.47
450.602	48.37
451.061	49.27
451.519	54.47
451.978	58.47
452.436	53.57
452.895	52.17
453.353	58.77
453.812	59.87
454.27	62.47
454.729	57.77
455.187	55.67
455.646	52.87
456.104	58.37
456.562	56.57
457.021	60.07
457.479	62.17
457.937	66.67
458.395	59.97
458.854	56.97
459.312	57.97
459.77	56.07
460.228	59.37
460.686	56.77
461.144	62.47
461.602	60.07
462.06	59.77
462.518	59.87
462.976	57.17
463.434	57.47
463.892	60.07
464.35	57.27
464.808	66.87
465.266	58.87
465.724	64.27
466.181	64.27
466.639	66.27
467.097	69.57
467.555	71.67
468.012	70.77
468.47	69.47
468.928	75.97
469.385	75.97
469.843	79.77
470.3	80.47
470.758	74.97
471.215	77.17
471.673	93.27
472.13	84.87
472.588	88.97
473.045	77.47
473.503	85.47
473.96	82.27
474.417	80.57
474.875	88.47
475.332	101.57
475.789	102.27
476.246	89.17
476.704	98.87
477.161	96.07
477.618	94.97
478.075	97.97
478.532	103.87
478.989	110.57
479.446	122.17
479.903	117.47
480.36	113.27
480.817	99.67
481.274	106.97
481.731	116.87
482.188	107.57
482.645	113.37
483.102	112.07
483.558	128.07
484.015	132.87
484.472	125.07
484.929	132.87
485.385	120.87
485.842	128.77
486.299	130.37
486.755	142.67
487.212	133.97
487.668	116.27
488.125	131.87
488.582	122.97
489.038	123.17
489.494	114.87
489.951	116.27
490.407	117.67
490.864	116.87
491.32	125.97
491.776	129.87
492.233	126.97
492.689	114.27
493.145	129.97
493.602	117.17
494.058	129.97
494.514	124.97
494.97	137.57
495.426	132.87
495.882	125.07
496.338	130.47
496.794	128.47
497.251	120.37
497.707	128.97
498.163	131.27
498.618	132.37
499.074	134.57
499.53	139.67
499.986	140.47
500.442	130.07
500.898	134.67
501.354	125.87
501.809	127.27
502.265	134.67
502.721	140.47
503.177	144.87
503.632	144.97
504.088	142.27
504.543	144.57
504.999	146.17
505.455	137.07
505.91	135.47
506.366	136.57
506.821	130.87
507.277	128.17
507.732	132.77
508.187	133.57
508.643	132.27
509.098	127.17
509.553	147.67
510.009	143.37
510.464	136.77
510.919	147.17
511.375	151.27
511.83	156.47
512.285	158.57
512.74	163.77
513.195	171.57
513.65	165.87
514.105	168.47
514.56	166.17
515.015	164.57
515.47	176.57
515.925	170.57
516.38	168.57
516.835	177.97
517.29	170.57
517.745	174.67
518.2	169.57
518.655	156.57
519.109	152.57
519.564	156.07
520.019	146.57
520.474	150.77
520.928	148.67
521.383	154.87
521.838	142.47
522.292	149.67
522.747	155.57
523.201	156.07
523.656	144.97
524.11	146.37
524.565	141.37
525.019	145.27
525.474	146.27
525.928	141.57
526.382	136.97
526.837	139.97
527.291	140.67
527.745	136.77
528.2	139.77
528.654	140.67
529.108	134.47
529.562	135.27
530.016	131.97
530.47	138.17
530.925	136.17
531.379	135.77
531.833	132.67
532.287	128.07
532.741	134.77
533.195	128.67
533.649	133.07
534.103	136.17
534.556	126.87
535.01	130.37
535.464	122.07
535.918	134.97
536.372	138.77
536.826	141.37
537.279	126.37
537.733	129.97
538.187	135.27
538.64	132.77
539.094	138.37
539.548	137.57
540.001	138.87
540.455	135.07
540.908	144.07
541.362	139.57
541.815	146.87
542.269	146.37
542.722	148.67
543.175	142.97
543.629	148.87
544.082	165.17
544.536	148.27
544.989	149.87
545.442	152.47
545.895	162.07
546.349	157.07
546.802	154.67
547.255	157.67
547.708	159.97
548.161	169.27
548.614	166.87
549.067	175.77
549.52	166.87
549.973	168.77
550.426	159.57
550.879	142.17
551.332	148.77
551.785	152.27
552.238	151.07
552.691	149.27
553.144	157.97
553.596	156.87
554.049	169.37
554.502	182.07
554.955	184.47
555.407	172.47
555.86	174.17
556.313	177.17
556.765	163.57
557.218	174.47
557.67	162.57
558.123	175.17
558.576	162.27
559.028	176.07
559.48	170.97
559.933	174.77
560.385	159.67
560.838	151.57
561.29	138.57
561.742	146.17
562.195	142.17
562.647	131.57
563.099	147.57
563.551	148.97
564.004	152.57
564.456	142.97
564.908	138.67
565.36	135.47
565.812	129.37
566.264	134.87
566.716	133.97
567.168	124.27
567.62	124.17
568.072	126.97
568.524	118.47
568.976	119.87
569.428	105.77
569.88	112.77
570.332	114.17
570.784	117.47
571.235	114.27
571.687	123.37
572.139	121.27
572.59	125.67
573.042	124.87
573.494	128.27
573.945	122.07
574.397	112.57
574.849	113.37
575.3	115.37
575.752	109.97
576.203	119.67
576.655	122.87
577.106	115.27
577.557	110.27
578.009	115.27
578.46	112.67
578.912	113.77
579.363	116.87
579.814	115.07
580.265	108.27
580.717	102.87
581.168	106.17
581.619	110.47
582.07	117.87
582.521	115.97
582.972	106.77
583.423	102.97
583.875	106.47
584.326	108.27
584.777	111.97
585.227	119.57
585.678	126.87
586.129	120.17
586.58	128.47
587.031	137.17
587.482	139.07
587.933	146.57
588.384	138.87
588.834	135.37
589.285	134.87
589.736	137.47
590.186	132.57
590.637	134.87
591.088	123.87
591.538	129.97
591.989	129.27
592.439	127.07
592.89	122.27
593.34	118.17
593.791	116.67
594.241	107.07
594.692	112.17
595.142	107.17
595.593	110.77
596.043	109.47
596.493	112.67
596.943	115.67
597.394	122.37
597.844	113.47
598.294	118.27
598.744	134.27
599.195	133.57
599.645	146.47
600.095	147.67
600.545	175.57
600.995	181.77
601.445	201.57
601.895	220.77
602.345	237.67
602.795	210.37
603.245	195.17
603.695	175.27
604.145	158.87
604.594	154.27
605.044	141.87
605.494	128.27
605.944	115.57
606.393	123.67
606.843	116.57
607.293	120.97
607.743	116.37
608.192	119.17
608.642	129.87
609.091	127.87
609.541	133.37
609.99	124.17
610.44	124.87
610.889	112.87
611.339	103.87
611.788	102.67
612.238	109.57
612.687	118.47
613.136	110.17
613.586	123.47
614.035	113.67
614.484	112.97
614.933	114.87
615.383	113.57
615.832	113.37
616.281	119.67
616.73	116.07
617.179	107.47
617.628	108.17
618.077	99.97
618.526	98.37
618.975	92.27
619.424	97.67
619.873	98.37
620.322	101.47
620.771	92.57
621.22	97.97
621.669	95.47
622.118	89.97
622.567	84.87
623.015	84.17
623.464	86.17
623.913	82.07
624.361	77.77
624.81	80.27
625.259	82.17
625.707	85.57
626.156	86.37
626.604	93.27
627.053	85.37
627.501	86.97
627.95	88.97
628.398	88.67
628.847	88.87
629.295	76.97
629.744	89.67
630.192	84.87
630.64	79.87
631.089	84.67
631.537	83.67
631.985	71.37
632.433	72.77
632.881	71.07
633.33	75.87
633.778	69.67
634.226	70.47
634.674	72.27
635.122	77.67
635.57	85.07
636.018	83.37
636.466	81.77
636.914	74.37
637.362	84.17
637.81	96.97
638.258	86.67
638.705	84.87
639.153	94.27
639.601	87.97
640.049	90.67
640.497	103.27
640.944	112.87
641.392	79.97
641.84	84.37
642.287	71.97
642.735	66.87
643.182	71.57
643.63	69.57
644.078	64.87
644.525	76.87
644.973	66.67
645.42	65.67
645.867	72.57
646.315	78.87
646.762	70.27
647.21	73.77
647.657	68.67
648.104	74.27
648.551	62.07
648.999	69.77
649.446	62.17
649.893	68.27
650.34	61.17
650.787	61.37
651.234	74.47
651.682	65.77
652.129	60.17
652.576	69.57
653.023	77.17
653.47	80.77
653.917	79.87
654.363	96.97
654.81	94.27
655.257	89.87
655.704	82.97
656.151	69.57
656.598	65.27
657.044	60.37
657.491	61.57
657.938	63.37
658.385	64.77
658.831	70.77
659.278	71.77
659.724	61.67
660.171	66.87
660.618	61.97
661.064	59.17
661.511	60.97
661.957	65.37
662.404	66.37
662.85	70.67
663.296	70.57
663.743	73.17
664.189	60.27
664.635	70.87
665.082	67.07
665.528	66.37
665.974	66.97
666.42	61.07
666.867	65.77
667.313	54.77
667.759	62.47
668.205	56.77
668.651	54.97
669.097	58.97
669.543	55.67
669.989	59.17
670.435	62.27
670.881	53.97
671.327	57.37
671.773	64.47
672.219	69.67
672.665	85.87
673.11	85.77
673.556	97.37
674.002	114.77
674.448	108.07
674.893	79.37
675.339	64.37
675.785	61.67
676.23	62.67
676.676	50.87
677.122	55.27
677.567	50.57
678.013	49.77
678.458	46.27
678.904	52.17
679.349	40.87
679.794	50.97
680.24	42.17
680.685	49.47
681.131	47.07
681.576	50.87
682.021	48.87
682.466	45.57
682.912	43.57
683.357	41.47
683.802	54.67
684.247	55.87
684.692	72.57
685.137	73.77
685.583	94.97
686.028	93.07
686.473	86.67
686.918	62.47
687.363	63.07
687.807	57.87
688.252	51.57
688.697	49.37
689.142	42.77
689.587	47.37
690.032	38.37
690.477	46.17
690.921	45.67
691.366	52.57
691.811	52.17
692.255	75.47
692.7	77.67
693.145	80.07
693.589	120.87
694.034	205.27
694.478	294.17
694.923	359.47
695.367	488.17
695.812	233.37
696.256	83.77
696.701	54.17
697.145	57.67
697.59	44.97
698.034	41.47
698.478	51.27
698.922	48.57
699.367	38.57
699.811	53.17
700.255	57.67
700.699	66.37
701.143	62.37
701.588	84.37
702.032	91.97
702.476	87.37
702.92	79.67
703.364	77.27
703.808	105.27
704.252	187.27
704.696	277.17
705.14	345.17
705.584	459.57
706.027	208.37
706.471	81.17
706.915	53.37
707.359	51.27
707.803	34.17
708.246	38.37
708.69	49.57
709.134	47.97
709.577	47.47
710.021	58.07
710.465	47.67
710.908	46.17
711.352	44.57
711.795	45.17
712.239	57.27
712.682	50.57
713.126	67.17
713.569	82.17
714.012	59.57
714.456	40.67
714.899	38.37
715.342	31.17
715.786	29.37
716.229	31.97
716.672	37.07
717.115	31.97
717.558	38.47
718.002	31.07
718.445	41.07
718.888	40.97
719.331	43.67
719.774	40.27
720.217	44.67
720.66	33.87
721.103	35.97
721.546	35.47
721.989	31.47
722.432	27.37
722.874	33.97
723.317	29.57
723.76	27.67
724.203	34.27
724.645	47.87
725.088	72.97
725.531	95.77
725.974	116.37
726.416	104.47
726.859	50.57
727.301	27.07
727.744	33.07
728.187	34.57
728.629	32.67
729.071	26.07
729.514	44.67
729.956	36.77
730.399	43.67
730.841	42.97
731.283	35.97
731.726	34.97
732.168	33.67
732.61	35.97
733.053	36.17
733.495	42.87
733.937	54.67
734.379	70.97
734.821	68.17
735.263	90.57
735.705	147.37
736.148	304.77
736.59	505.87
737.032	647.77
737.474	517.57
737.916	152.17
738.357	65.27
738.799	50.27
739.241	43.27
739.683	37.17
740.125	40.37
740.567	37.27
741.008	57.57
741.45	52.17
741.892	48.57
742.334	55.97
742.775	56.57
743.217	49.67
743.658	31.07
744.1	40.67
744.542	27.07
744.983	40.27
745.425	44.87
745.866	55.97
746.307	48.87
746.749	39.17
747.19	51.97
747.632	71.37
748.073	143.17
748.514	368.97
748.956	584.47
749.397	735.47
749.838	613.77
750.279	636.97
750.72	278.97
751.162	95.57
751.603	47.37
752.044	42.67
752.485	19.97
752.926	32.17
753.367	27.87
753.808	25.77
754.249	26.97
754.69	27.47
755.131	20.77
755.572	23.77
756.013	29.27
756.453	24.57
756.894	25.07
757.335	26.77
757.776	25.57
758.216	22.57
758.657	22.67
759.098	23.07
759.538	28.07
759.979	38.37
760.42	52.67
760.86	108.47
761.301	331.07
761.741	863.97
762.182	1376.37
762.622	938.27
763.063	244.57
763.503	88.87
763.943	50.67
764.384	44.97
764.824	33.97
765.264	25.57
765.705	26.07
766.145	15.07
766.585	19.67
767.025	19.47
767.465	13.17
767.906	24.37
768.346	26.17
768.786	22.67
769.226	26.87
769.666	55.67
770.106	98.17
770.546	305.27
770.986	566.07
771.426	504.47
771.866	157.37
772.306	46.97
772.745	24.57
773.185	19.07
773.625	22.87
774.065	16.17
774.505	22.77
774.944	20.77
775.384	51.47
775.824	79.57
776.263	84.77
776.703	33.47
777.142	12.87
777.582	14.17
778.021	10.87
778.461	15.67
778.9	18.47
779.34	24.87
779.779	15.77
780.219	6.27
780.658	8.27
781.097	9.37
781.537	23.27
781.976	8.17
782.415	5.17
782.855	8.27
783.294	4.17
783.733	10.77
784.172	13.07
784.611	7.47
785.05	7.77
785.489	8.37
785.928	20.97
786.367	21.47
786.806	16.57
787.245	17.07
787.684	20.97
788.123	24.37
788.562	13.37
789.001	19.07
789.44	15.57
789.879	11.17
790.317	11.57
790.756	20.07
791.195	12.77
791.634	25.57
792.072	33.17
792.511	61.97
792.95	190.07
793.388	450.47
793.827	405.67
794.265	131.07
794.704	45.87
795.142	31.07
795.581	27.87
796.019	22.07
796.458	16.47
796.896	9.47
797.334	16.37
797.773	18.67
798.211	38.87
798.649	79.27
799.087	202.07
799.526	325.57
799.964	419.07
800.402	450.47
800.84	144.27
801.278	50.47
801.716	28.67
802.154	21.27
802.592	21.77
803.03	19.97
803.468	9.17
803.906	18.87
804.344	23.97
804.782	18.97
805.22	17.37
805.658	11.67
806.096	27.37
806.533	21.37
806.971	32.07
807.409	36.27
807.847	42.77
808.284	116.67
808.722	364.17
809.16	692.97
809.597	604.17
810.035	1113.77
810.472	1255.37
810.91	425.07
811.347	151.67
811.785	80.47
812.222	46.27
812.66	34.27
813.097	30.57
813.535	15.77
813.972	17.17
814.409	12.17
814.846	13.47
815.284	14.47
815.721	11.17
816.158	8.47
816.595	10.67
817.032	18.77
817.47	26.37
817.907	25.27
818.344	6.67
818.781	10.37
819.218	5.37
819.655	18.47
820.092	29.07
820.529	21.87
820.966	24.17
821.403	14.57
821.839	15.27
822.276	17.07
822.713	17.57
823.15	16.87
823.587	7.17
824.023	21.97
824.46	45.77
824.897	182.27
825.333	286.57
825.77	114.37
826.206	45.27
826.643	28.47
827.08	14.87
827.516	12.47
827.953	12.87
828.389	12.97
828.825	4.57
829.262	6.27
829.698	-1.03
830.135	6.27
830.571	6.27
831.007	4.47
831.443	3.87
831.88	4.27
832.316	4.97
832.752	11.27
833.188	10.67
833.624	6.77
834.06	4.27
834.497	13.77
834.933	8.97
835.369	11.17
835.805	-1.63
836.241	12.97
836.677	8.87
837.112	8.57
837.548	8.77
837.984	11.87
838.42	22.17
838.856	86.37
839.292	311.77
839.727	513.27
840.163	210.17
840.599	170.27
841.034	433.87
841.47	474.87
841.906	159.17
842.341	55.07
842.777	23.87
843.212	22.67
843.648	23.07
844.083	9.97
844.519	10.87
844.954	11.27
845.39	-2.53
845.825	2.57
846.261	8.37
846.696	5.17
847.131	1.07
847.566	8.77
848.002	3.47
848.437	4.47
848.872	10.17
849.307	1.77
849.742	6.97
850.177	31.97
850.613	112.87
851.048	188.27
851.483	65.17
851.918	21.87
852.353	2.67
852.788	1.87
853.223	4.87
853.657	7.57
854.092	6.47
854.527	-1.03
854.962	4.57
855.397	4.47
855.832	3.37
856.266	1.57
856.701	0.37
857.136	-0.63
857.57	0.07
858.005	2.07
858.44	3.77
858.874	0.47
859.309	2.07
859.743	-4.43
860.178	4.87
860.612	1.77
861.047	5.57
861.481	4.77
861.915	3.47
862.35	7.57
862.784	2.27
863.218	6.27
863.653	0.47
864.087	8.17
864.521	10.67
864.955	7.07
865.39	26.37
865.824	28.77
866.258	17.77
866.692	22.77
867.126	25.27
867.56	9.57
867.994	3.97
868.428	-1.23
868.862	1.37
869.296	5.87
869.73	15.97
870.164	5.77
870.598	1.87
871.031	0.97
871.465	0.07
871.899	2.67
872.333	1.17
872.766	-1.13
873.2	-0.23
873.634	5.37
874.067	0.27
874.501	-1.93
874.935	7.77
875.368	-2.33
875.802	-5.03
876.235	1.67
876.669	1.97
877.102	2.27
877.535	-0.73
877.969	0.77
878.402	0.27
878.836	-4.03
879.269	2.17
879.702	2.17
880.135	0.87
880.569	-1.43
881.002	8.17
881.435	-4.23
881.868	-4.33
882.301	4.17
882.734	-6.73
883.167	6.87
883.601	1.47
884.034	-1.13
884.467	-3.43
884.899	1.77
885.332	-1.73
885.765	-6.03
886.198	4.27
886.631	-1.73
887.064	4.57
887.497	1.27
887.929	9.97
888.362	-0.43
888.795	-2.83
889.228	-2.03
889.66	1.27
890.093	-2.73
890.526	0.47
890.958	1.37
891.391	-1.93
891.823	7.17
892.256	-3.23
892.688	-4.43
893.121	-4.03
893.553	-1.93
893.985	7.87
894.418	6.37
894.85	-1.33
895.282	-0.73
895.715	-0.33
896.147	0.17
896.579	-0.13
897.011	-3.03
897.444	-0.23
897.876	-6.13
898.308	1.57
898.74	-1.53
899.172	-3.13
899.604	5.27
900.036	-0.33
900.468	-3.23
900.9	-0.03
901.332	7.67
901.764	-2.53
902.196	-2.03
902.628	-0.23
903.06	-3.13
903.491	7.47
903.923	-2.53
904.355	2.47
904.787	-1.93
905.218	4.67
905.65	1.67
906.082	-7.43
906.513	-4.13
906.945	-6.63
907.376	-1.53
907.808	2.77
908.239	1.67
908.671	-3.53
909.102	0.47
909.534	-1.43
909.965	11.77
910.397	12.67
910.828	67.27
911.259	101.47
911.691	41.27
912.122	19.57
912.553	8.77
912.984	7.67
913.415	2.47
913.847	9.57
914.278	-4.53
914.709	-5.43
915.14	3.27
915.571	-2.13
916.002	-0.03
916.433	1.77
916.864	2.77
917.295	-5.53
917.726	5.47
918.157	-3.13
918.587	5.37
919.018	0.97
919.449	-1.53
919.88	-0.53
920.311	3.37
920.741	2.27
921.172	30.37
921.603	29.67
922.033	7.97
922.464	11.87
922.895	-1.73
923.325	2.57
923.756	-1.23
924.186	-5.43
924.617	4.27
925.047	-4.73
925.478	-1.23
925.908	-1.53
926.338	0.07
926.769	-0.23
927.199	4.47
927.629	-3.53
928.06	-6.43
928.49	-0.93
928.92	0.07
929.35	1.97
929.78	0.97
930.21	-6.73
930.641	-3.03
931.071	0.87
931.501	-5.13
931.931	-5.03
932.361	7.77
932.791	-9.93
933.221	-6.53
933.651	-12.13
934.08	-1.73
934.51	8.37
934.94	-5.43
935.37	-5.13
935.8	5.07
936.229	2.27
936.659	6.17
937.089	-8.63
937.519	-1.43
937.948	5.37
938.378	1.97
938.807	-5.73
939.237	-2.73
939.666	0.47
940.096	-8.03
940.525	-6.43
940.955	0.37
941.384	0.17
941.814	-6.83
942.243	-5.53
942.672	-2.33
943.102	-10.63
943.531	-4.63
943.96	-3.73
944.39	-7.33
944.819	-2.73
945.248	-2.63
945.677	-1.33
946.106	6.37
946.535	6.87
946.964	-0.83
947.393	1.67
947.822	1.07
948.251	-8.73
948.68	0.67
949.109	-0.73
949.538	1.67
949.967	-4.83
950.396	-1.63
950.825	-6.33
951.254	-0.53
951.682	-3.63
952.111	-2.03
952.54	5.37
952.969	-5.83
953.397	-0.23
953.826	-2.33
954.254	-6.63
954.683	-2.33
955.112	-4.53
955.54	-1.13
955.969	-3.13
956.397	-0.53
956.826	-6.13
957.254	-2.33
957.682	-1.63
958.111	9.07
958.539	-2.93
958.967	-0.83
959.396	-3.23
959.824	-3.43
960.252	1.07
960.68	-4.63
961.109	-1.53
961.537	-6.33
961.965	0.07
962.393	3.07
962.821	-8.63
963.249	-4.83
963.677	8.37
964.105	1.17
964.533	2.27
964.961	9.07
965.389	-2.13
965.817	-2.13
966.245	-5.33
966.672	-1.53
967.1	-4.93
967.528	1.67
967.956	-7.53
968.383	-2.63
968.811	-2.33
969.239	-1.93
969.666	-2.63
970.094	0.37
970.522	6.67
970.949	-3.03
971.377	-2.93
971.804	-3.63
972.232	-8.33
972.659	-6.73
973.087	-8.43
973.514	-2.43
973.941	-11.23
974.369	1.47
974.796	3.37
975.223	1.77
975.651	-2.23
976.078	-0.73
976.505	-6.13
976.932	-3.83
977.359	-3.43
977.786	3.37
978.214	-0.63
978.641	-6.93
979.068	-8.73
979.495	-2.63
979.922	-6.43
980.349	-7.43
980.776	-0.13
981.202	-1.83
981.629	5.87
982.056	3.87
982.483	-3.43
982.91	1.97
983.337	-3.73
983.763	-1.13
984.19	-4.03
984.617	-5.43
985.043	-7.23
985.47	-5.23
985.897	-1.03
986.323	-9.13
986.75	1.87
987.176	-1.73
987.603	-3.03
988.029	-0.33
988.456	-1.23
988.882	1.07
989.308	-5.53
989.735	-2.63
990.161	-3.83
990.587	-5.63
991.014	-3.03
991.44	5.67
991.866	-1.83
992.292	-11.93
992.719	-6.33
993.145	2.17
993.571	-7.73
993.997	-4.53
994.423	-4.33
994.849	-4.53
995.275	10.57
995.701	3.07
996.127	-9.83
996.553	-1.63
996.979	-7.13
997.405	-3.93
997.83	-6.13
998.256	-2.03
998.682	-3.83
999.108	-8.23
999.534	-2.73
999.959	-1.63
1000.385	1.87
1000.811	0.87
1001.236	-11.03
1001.662	-6.43
1002.087	-6.73
1002.513	1.57
1002.938	0.87
1003.364	-3.63
1003.789	-2.73
1004.215	2.27
1004.64	-6.23
1005.066	1.77
1005.491	-1.43
1005.916	-3.33
1006.342	-3.43
1006.767	-2.83
1007.192	7.57
1007.617	-2.33
1008.042	-1.33
1008.468	-6.83
1008.893	-1.53
1009.318	-5.83
1009.743	-1.23
1010.168	-4.53
1010.593	-3.73
1011.018	-13.93
1011.443	-4.93
1011.868	-7.93
1012.293	-4.93
1012.718	-4.23
1013.143	-1.43
1013.567	3.07
1013.992	-2.33
1014.417	-8.43
1014.842	-0.53
1015.267	-5.73
1015.691	-5.13
1016.116	6.37
1016.541	0.17
1016.965	-2.53
1017.39	3.07
1017.814	-1.53
1018.239	2.87
1018.663	-8.23
1019.088	-7.23
1019.512	-6.63
1019.937	1.37
1020.361	-8.73
1020.785	-8.13
1021.21	2.57
1021.634	-3.43
1022.058	-3.63
1022.483	2.17
1022.907	-4.73
1023.331	0.87
1023.755	0.37
1024.179	-4.33
1024.604	-8.43
1025.028	-3.93
1025.452	-4.33
1025.876	0.17
1026.3	-0.33
1026.724	-6.43
1027.148	1.77
1027.572	-7.63
1027.996	4.17
1028.42	-0.23
1028.843	-2.53
1029.267	-5.73
1029.691	-6.13
1030.115	-2.83
1030.539	-10.83
1030.962	-6.43
1031.386	-15.83
1031.81	4.57
1032.233	-1.93
1032.657	-1.83
1033.08	4.57
1033.504	1.57
1033.927	-5.43
1034.351	-0.43
1034.774	-1.53
1035.198	-5.03
1035.621	-10.43
1036.045	-8.13
1036.468	1.17
1036.891	-12.83
1037.315	-2.63
1037.738	-6.13
1038.161	3.67
1038.584	-8.63
1039.008	-1.73
1039.431	-1.93
1039.854	0.57
1040.277	-12.23
1040.7	-9.63
1041.123	-0.73
1041.546	-8.93
1041.969	-5.03
1042.392	-4.63
1042.815	-0.93
1043.238	2.27
1043.661	-2.03
1044.084	-3.23
1044.507	-7.23
1044.93	-7.33
1045.352	-9.23
1045.775	-2.33
1046.198	-9.53
1046.621	-2.63
1047.043	-1.13
1047.466	10.27
1047.889	-5.73
1048.311	-5.03
1048.734	-4.13
1049.156	-5.03
1049.579	7.47
1050.001	-4.13
1050.424	0.97
1050.846	-7.03
1051.269	-9.03
1051.691	-0.53
1052.113	-7.93
1052.536	-0.23
1052.958	-4.43
1053.38	-1.23
1053.802	-12.23
1054.225	-0.33
1054.647	-12.53
1055.069	-5.43
1055.491	0.37
1055.913	-13.73
1056.335	0.67
1056.757	-3.73
1057.179	-6.63
1057.601	-10.43
1058.023	-5.83
1058.445	-9.83
1058.867	-2.43
1059.289	-0.03
1059.711	-11.03
1060.133	-4.33
1060.555	-7.93
1060.976	-5.53
1061.398	-3.13
1061.82	-6.23
1062.241	-4.03
1062.663	-7.03
1063.085	-6.33
1063.506	-4.83
1063.928	-3.63
1064.35	-0.53
1064.771	-9.33
1065.193	-1.83
1065.614	-7.93
1066.035	-6.43
1066.457	-2.83
1066.878	-1.53
1067.3	-2.73
1067.721	-9.63
1068.142	-4.13
1068.564	-5.83
1068.985	-2.53
1069.406	-6.83
1069.827	-9.63
1070.248	-4.83
1070.67	-7.53
1071.091	-6.03
1071.512	2.77
1071.933	0.47
1072.354	-6.23
1072.775	-8.73
1073.196	-8.23
1073.617	-5.03
1074.038	-0.63
1074.459	-0.13
1074.88	-8.13
1075.3	-1.23
1075.721	-4.73
1076.142	-2.13
1076.563	1.77
1076.983	-4.23
1077.404	-7.33
1077.825	-7.33
1078.246	-1.53
1078.666	-8.53
1079.087	-1.43
1079.507	-5.93
1079.928	2.67
1080.348	-5.53
1080.769	-8.63
1081.189	-3.93
1081.61	-10.23
1082.03	-10.23
1082.451	-9.73
1082.871	-1.83
1083.291	-8.33
1083.711	-5.83
1084.132	-9.73
1084.552	-3.23
1084.972	-1.83
1085.392	-3.73
1085.813	-12.13
1086.233	-3.93
1086.653	-3.63
1087.073	-0.53
1087.493	-5.73
1087.913	-7.63
1088.333	-10.13
1088.753	-1.73
1089.173	3.97
1089.593	-10.23
1090.013	-1.23
1090.433	0.07
1090.852	-4.33
1091.272	0.17
1091.692	-3.63
1092.112	-5.63
1092.531	-3.23
1092.951	-8.73
1093.371	-8.83
1093.79	5.27
1094.21	-4.43
1094.63	-8.03
1095.049	-9.33
1095.469	-4.13
1095.888	-0.83
1096.308	-1.03
1096.727	3.87
1097.146	-11.63
1097.566	0.27
1097.985	-6.93
1098.405	1.17
1098.824	-6.83
1099.243	-2.83
1099.662	-1.43
1100.082	-0.93
1100.501	-1.33
1100.92	-12.03
1101.339	-5.53
1101.758	-9.53
