Data from 20171114-ORNL-Ar_H_NY_Subt18_08-04-27-722.txt Node
Date: Tue Nov 14 08:04:27 EST 2017
User: Ender
Spectrometer: HR+D1039
Trigger mode: 0
Integration Time (sec): 2.730000E-2
Scans to average: 10
Electric dark correction enabled: true
Nonlinearity correction enabled: false
Boxcar width: 0
XAxis mode: Wavelengths
Number of Pixels in Spectrum: 2048
>>>>>Begin Spectral Data<<<<<
187.836	-3.51
188.309	-3.51
188.782	-3.51
189.255	4.29
189.728	-3.81
190.201	3.79
190.674	-0.11
191.147	4.69
191.619	-4.01
192.092	-3.11
192.565	4.39
193.038	5.09
193.511	0.69
193.984	2.39
194.456	-2.91
194.929	-2.31
195.402	-3.51
195.874	-2.11
196.347	-0.51
196.82	-8.91
197.292	4.29
197.765	-1.41
198.237	-8.71
198.71	0.59
199.182	-1.61
199.655	1.89
200.127	4.29
200.6	-4.51
201.072	-0.81
201.544	-3.41
202.017	-0.91
202.489	0.39
202.961	0.79
203.433	-4.81
203.906	-7.61
204.378	-2.51
204.85	0.49
205.322	-7.81
205.794	-4.71
206.266	-7.51
206.739	-9.51
207.211	4.19
207.683	-2.11
208.155	-2.11
208.627	-4.81
209.099	-6.41
209.57	-14.61
210.042	-1.31
210.514	-1.51
210.986	4.29
211.458	-0.91
211.93	-1.11
212.402	-1.71
212.873	-10.11
213.345	-14.91
213.817	-3.91
214.288	-6.31
214.76	-3.71
215.232	-6.31
215.703	-2.11
216.175	-6.31
216.646	-4.81
217.118	-4.41
217.589	-1.81
218.061	-1.91
218.532	-7.81
219.004	-7.81
219.475	-3.01
219.946	-2.71
220.418	-8.21
220.889	10.19
221.36	5.29
221.832	-6.31
222.303	-11.61
222.774	0.99
223.245	-4.21
223.717	0.39
224.188	-3.31
224.659	-5.21
225.13	-7.71
225.601	0.89
226.072	0.49
226.543	6.89
227.014	2.29
227.485	-4.41
227.956	-3.61
228.427	-7.41
228.898	3.09
229.369	5.69
229.839	-4.91
230.31	-7.01
230.781	-1.41
231.252	1.79
231.722	-3.11
232.193	-2.91
232.664	-3.61
233.135	3.49
233.605	4.79
234.076	-4.61
234.546	-0.81
235.017	4.09
235.487	-0.21
235.958	4.29
236.428	2.99
236.899	5.19
237.369	-0.01
237.84	4.69
238.31	7.59
238.78	3.29
239.251	4.39
239.721	2.19
240.191	0.19
240.662	-4.01
241.132	7.39
241.602	-0.91
242.072	-2.21
242.542	7.69
243.013	-0.81
243.483	-1.81
243.953	2.89
244.423	2.29
244.893	-7.61
245.363	2.49
245.833	-2.41
246.303	-0.81
246.773	8.19
247.243	1.69
247.712	8.59
248.182	9.09
248.652	6.99
249.122	-2.71
249.592	12.49
250.061	14.19
250.531	31.59
251.001	15.99
251.471	28.89
251.94	20.39
252.41	7.89
252.879	1.89
253.349	8.39
253.818	6.49
254.288	3.99
254.757	8.69
255.227	6.79
255.696	2.19
256.166	8.79
256.635	7.79
257.105	7.39
257.574	8.39
258.043	11.69
258.513	15.89
258.982	18.29
259.451	10.79
259.92	15.99
260.389	8.79
260.859	16.39
261.328	16.59
261.797	20.69
262.266	8.99
262.735	12.99
263.204	2.29
263.673	8.09
264.142	10.89
264.611	1.59
265.08	3.39
265.549	4.19
266.018	6.99
266.487	-3.41
266.955	2.59
267.424	-1.81
267.893	4.49
268.362	2.19
268.83	6.49
269.299	10.69
269.768	7.49
270.236	8.09
270.705	6.59
271.174	8.39
271.642	8.79
272.111	13.29
272.579	19.09
273.048	28.29
273.516	26.49
273.985	28.49
274.453	17.69
274.922	19.39
275.39	15.09
275.858	5.89
276.327	12.59
276.795	22.79
277.263	11.69
277.731	30.89
278.2	62.29
278.668	58.59
279.136	53.59
279.604	21.49
280.072	13.29
280.54	12.29
281.008	12.39
281.477	15.19
281.945	13.69
282.413	9.19
282.881	18.59
283.348	9.89
283.816	20.39
284.284	19.59
284.752	22.99
285.22	16.89
285.688	10.29
286.156	15.69
286.623	44.19
287.091	55.79
287.559	24.09
288.026	15.89
288.494	17.39
288.962	4.09
289.429	8.49
289.897	18.19
290.364	14.09
290.832	14.39
291.3	14.39
291.767	19.19
292.234	17.29
292.702	15.79
293.169	22.29
293.637	29.99
294.104	28.49
294.571	4.59
295.039	14.49
295.506	17.39
295.973	11.39
296.44	12.19
296.908	14.69
297.375	17.29
297.842	18.09
298.309	19.59
298.776	14.69
299.243	21.39
299.71	15.69
300.177	25.29
300.644	19.39
301.111	19.49
301.578	18.99
302.045	22.29
302.512	21.89
302.979	23.49
303.446	14.49
303.913	15.69
304.379	22.89
304.846	28.79
305.313	25.39
305.78	26.19
306.246	23.69
306.713	32.19
307.18	32.09
307.646	29.79
308.113	25.89
308.579	21.19
309.046	26.69
309.512	27.09
309.979	15.19
310.445	26.29
310.912	31.79
311.378	26.89
311.845	32.49
312.311	30.49
312.777	28.89
313.244	26.19
313.71	41.69
314.176	26.49
314.642	30.29
315.109	23.89
315.575	36.59
316.041	39.99
316.507	26.89
316.973	39.79
317.439	35.99
317.905	39.09
318.371	33.99
318.837	35.19
319.303	33.59
319.769	33.29
320.235	36.29
320.701	39.09
321.167	37.69
321.633	35.99
322.099	35.79
322.564	41.79
323.03	35.89
323.496	34.49
323.962	41.79
324.427	36.99
324.893	39.59
325.359	39.39
325.824	33.59
326.29	34.49
326.755	41.59
327.221	39.09
327.686	41.19
328.152	45.29
328.617	41.99
329.083	46.89
329.548	47.09
330.014	50.79
330.479	37.99
330.944	49.19
331.41	42.39
331.875	41.89
332.34	44.09
332.805	41.19
333.271	42.19
333.736	37.99
334.201	46.59
334.666	49.49
335.131	49.99
335.596	48.49
336.061	43.99
336.526	42.39
336.991	49.39
337.456	53.69
337.921	47.09
338.386	42.69
338.851	45.89
339.316	41.49
339.781	49.39
340.246	54.59
340.711	50.09
341.175	47.09
341.64	47.99
342.105	48.09
342.569	55.09
343.034	55.59
343.499	51.99
343.963	47.39
344.428	58.29
344.893	53.89
345.357	58.69
345.822	62.39
346.286	64.79
346.751	68.09
347.215	56.39
347.679	65.89
348.144	94.39
348.608	83.89
349.073	69.99
349.537	71.29
350.001	81.19
350.465	83.19
350.93	80.59
351.394	80.29
351.858	67.49
352.322	84.29
352.786	73.59
353.25	93.39
353.715	107.59
354.179	88.49
354.643	110.09
355.107	118.29
355.571	101.79
356.035	98.19
356.498	105.59
356.962	109.39
357.426	126.09
357.89	107.29
358.354	84.39
358.818	78.59
359.281	73.39
359.745	69.29
360.209	74.69
360.673	72.79
361.136	78.79
361.6	85.69
362.064	78.09
362.527	83.49
362.991	78.29
363.454	68.59
363.918	69.49
364.381	80.49
364.845	77.19
365.308	84.89
365.772	79.79
366.235	77.39
366.698	82.59
367.162	88.69
367.625	85.29
368.088	76.39
368.552	80.39
369.015	83.29
369.478	89.79
369.941	90.49
370.404	94.09
370.867	100.29
371.331	97.69
371.794	106.49
372.257	102.59
372.72	109.39
373.183	104.79
373.646	93.19
374.109	93.79
374.572	95.99
375.035	103.49
375.497	96.89
375.96	93.79
376.423	93.09
376.886	99.09
377.349	105.39
377.811	94.79
378.274	90.69
378.737	95.39
379.199	103.69
379.662	104.49
380.125	113.69
380.587	109.49
381.05	114.89
381.512	114.49
381.975	118.69
382.437	117.59
382.9	120.19
383.362	119.89
383.825	122.69
384.287	134.59
384.75	132.79
385.212	126.49
385.674	130.69
386.136	128.49
386.599	118.19
387.061	118.79
387.523	117.99
387.985	123.99
388.447	138.49
388.91	138.69
389.372	147.19
389.834	141.39
390.296	136.79
390.758	140.59
391.22	160.59
391.682	192.09
392.144	270.09
392.606	209.29
393.068	153.39
393.529	147.09
393.991	143.59
394.453	132.99
394.915	139.59
395.377	170.79
395.838	198.49
396.3	140.09
396.762	128.89
397.224	123.19
397.685	116.59
398.147	120.29
398.608	124.19
399.07	115.29
399.531	121.39
399.993	129.39
400.454	132.79
400.916	137.49
401.377	126.69
401.839	137.19
402.3	135.49
402.762	148.29
403.223	164.69
403.684	154.39
404.145	144.39
404.607	146.89
405.068	147.79
405.529	154.09
405.99	171.39
406.451	153.59
406.913	156.59
407.374	155.99
407.835	144.79
408.296	156.29
408.757	158.19
409.218	166.89
409.679	164.19
410.14	153.49
410.601	161.49
411.062	162.59
411.522	171.79
411.983	170.39
412.444	159.29
412.905	158.29
413.366	166.49
413.826	176.99
414.287	199.99
414.748	237.99
415.208	218.69
415.669	192.99
416.13	179.39
416.59	179.49
417.051	191.69
417.511	198.89
417.972	217.39
418.432	227.99
418.893	255.19
419.353	226.79
419.814	172.89
420.274	166.69
420.734	164.49
421.195	174.89
421.655	173.89
422.115	173.19
422.576	175.19
423.036	174.89
423.496	183.19
423.956	196.99
424.416	215.29
424.876	238.39
425.336	231.99
425.797	233.39
426.257	230.29
426.717	215.49
427.177	212.29
427.637	205.89
428.097	211.29
428.556	222.29
429.016	239.69
429.476	233.49
429.936	246.39
430.396	252.09
430.856	258.59
431.315	289.19
431.775	316.79
432.235	343.79
432.694	315.59
433.154	322.99
433.614	341.59
434.073	301.19
434.533	262.79
434.993	249.79
435.452	256.69
435.912	267.69
436.371	258.29
436.83	251.39
437.29	250.99
437.749	219.79
438.209	220.89
438.668	240.59
439.127	261.09
439.587	240.09
440.046	230.59
440.505	229.99
440.964	245.99
441.424	287.89
441.883	271.39
442.342	235.89
442.801	205.19
443.26	202.29
443.719	192.99
444.178	197.59
444.637	195.19
445.096	199.09
445.555	194.99
446.014	205.39
446.473	205.29
446.932	208.29
447.391	204.99
447.849	210.39
448.308	194.49
448.767	204.19
449.226	216.99
449.685	215.99
450.143	214.49
450.602	214.39
451.061	204.89
451.519	204.09
451.978	208.09
452.436	211.39
452.895	210.69
453.353	225.79
453.812	216.99
454.27	207.79
454.729	223.39
455.187	219.09
455.646	218.49
456.104	223.39
456.562	236.19
457.021	242.49
457.479	234.89
457.937	241.19
458.395	233.79
458.854	223.69
459.312	231.59
459.77	246.39
460.228	229.19
460.686	218.29
461.144	227.79
461.602	215.59
462.06	222.79
462.518	234.39
462.976	235.99
463.434	233.49
463.892	239.39
464.35	251.89
464.808	258.89
465.266	240.29
465.724	245.59
466.181	242.69
466.639	243.29
467.097	266.49
467.555	269.29
468.012	271.99
468.47	277.09
468.928	294.59
469.385	300.39
469.843	310.39
470.3	311.99
470.758	323.39
471.215	344.29
471.673	358.89
472.13	360.99
472.588	366.19
473.045	331.89
473.503	340.09
473.96	354.69
474.417	364.19
474.875	382.69
475.332	428.89
475.789	414.89
476.246	421.49
476.704	443.99
477.161	461.29
477.618	471.69
478.075	504.79
478.532	557.49
478.989	615.49
479.446	722.49
479.903	697.99
480.36	735.19
480.817	787.49
481.274	881.19
481.731	976.49
482.188	1053.69
482.645	1193.59
483.102	1283.99
483.558	1412.69
484.015	1465.09
484.472	1449.29
484.929	1397.79
485.385	1353.19
485.842	1308.59
486.299	1251.69
486.755	1168.89
487.212	998.89
487.668	832.69
488.125	776.69
488.582	713.39
489.038	681.39
489.494	646.89
489.951	626.79
490.407	619.29
490.864	588.59
491.32	581.99
491.776	580.19
492.233	583.29
492.689	557.59
493.145	547.89
493.602	538.69
494.058	555.69
494.514	560.09
494.97	574.59
495.426	586.79
495.882	563.39
496.338	566.09
496.794	564.79
497.251	565.59
497.707	590.59
498.163	585.09
498.618	582.59
499.074	587.39
499.53	615.49
499.986	612.59
500.442	584.69
500.898	566.79
501.354	565.39
501.809	578.29
502.265	587.89
502.721	598.09
503.177	601.69
503.632	599.99
504.088	617.39
504.543	644.19
504.999	650.19
505.455	587.99
505.91	569.89
506.366	575.29
506.821	571.69
507.277	573.09
507.732	564.29
508.187	555.49
508.643	573.89
509.098	566.29
509.553	584.39
510.009	591.39
510.464	597.29
510.919	619.09
511.375	619.49
511.83	632.79
512.285	653.69
512.74	693.89
513.195	716.99
513.65	707.29
514.105	698.59
514.56	704.89
515.015	717.09
515.47	736.89
515.925	713.79
516.38	728.59
516.835	718.09
517.29	714.29
517.745	706.39
518.2	700.39
518.655	674.99
519.109	666.89
519.564	681.89
520.019	668.19
520.474	657.79
520.928	665.39
521.383	660.89
521.838	646.79
522.292	645.09
522.747	646.09
523.201	640.99
523.656	632.89
524.11	625.99
524.565	622.59
525.019	621.29
525.474	629.69
525.928	631.69
526.382	617.39
526.837	631.69
527.291	630.69
527.745	630.39
528.2	628.19
528.654	616.79
529.108	614.59
529.562	626.79
530.016	621.89
530.47	618.49
530.925	621.69
531.379	621.79
531.833	645.19
532.287	629.29
532.741	637.39
533.195	639.79
533.649	642.69
534.103	649.39
534.556	637.99
535.01	644.29
535.464	644.19
535.918	664.79
536.372	647.99
536.826	647.89
537.279	629.49
537.733	643.19
538.187	639.29
538.64	645.29
539.094	648.49
539.548	665.29
540.001	648.29
540.455	656.89
540.908	656.49
541.362	664.89
541.815	669.19
542.269	676.79
542.722	673.19
543.175	690.89
543.629	690.89
544.082	711.59
544.536	706.99
544.989	702.89
545.442	713.19
545.895	707.09
546.349	700.69
546.802	704.59
547.255	714.79
547.708	711.59
548.161	720.39
548.614	734.59
549.067	747.59
549.52	743.69
549.973	727.69
550.426	737.09
550.879	714.09
551.332	718.39
551.785	717.29
552.238	715.49
552.691	726.49
553.144	745.89
553.596	756.59
554.049	761.19
554.502	796.49
554.955	814.99
555.407	813.59
555.86	806.19
556.313	792.79
556.765	779.19
557.218	772.99
557.67	784.39
558.123	779.49
558.576	770.39
559.028	781.89
559.48	780.39
559.933	779.99
560.385	741.29
560.838	717.09
561.29	698.69
561.742	699.79
562.195	671.59
562.647	668.79
563.099	683.79
563.551	681.79
564.004	693.29
564.456	693.29
564.908	686.29
565.36	657.59
565.812	656.39
566.264	648.69
566.716	642.69
567.168	634.89
567.62	637.09
568.072	620.39
568.524	611.79
568.976	607.19
569.428	591.29
569.88	591.59
570.332	594.89
570.784	597.69
571.235	604.59
571.687	616.69
572.139	613.29
572.59	623.19
573.042	624.89
573.494	626.49
573.945	617.59
574.397	600.99
574.849	605.19
575.3	605.49
575.752	602.19
576.203	593.49
576.655	605.49
577.106	585.69
577.557	581.49
578.009	579.59
578.46	578.39
578.912	574.69
579.363	575.29
579.814	595.29
580.265	580.29
580.717	581.29
581.168	583.79
581.619	586.69
582.07	605.89
582.521	584.99
582.972	587.89
583.423	587.99
583.875	597.09
584.326	613.29
584.777	661.09
585.227	708.89
585.678	796.89
586.129	883.99
586.58	936.29
587.031	1016.59
587.482	1169.29
587.933	1332.79
588.384	1155.09
588.834	853.19
589.285	704.79
589.736	675.79
590.186	669.49
590.637	669.19
591.088	643.79
591.538	639.59
591.989	630.09
592.439	636.69
592.89	624.19
593.34	612.79
593.791	605.59
594.241	607.69
594.692	615.29
595.142	606.19
595.593	601.39
596.043	616.09
596.493	609.69
596.943	619.59
597.394	620.09
597.844	611.89
598.294	637.99
598.744	654.19
599.195	655.99
599.645	702.99
600.095	731.09
600.545	779.29
600.995	833.49
601.445	878.69
601.895	935.79
602.345	984.19
602.795	964.99
603.245	927.59
603.695	880.29
604.145	819.29
604.594	774.49
605.044	735.09
605.494	693.59
605.944	640.29
606.393	637.49
606.843	619.79
607.293	634.59
607.743	618.89
608.192	634.29
608.642	648.19
609.091	653.39
609.541	654.69
609.99	651.19
610.44	653.79
610.889	614.59
611.339	600.59
611.788	591.49
612.238	604.49
612.687	612.89
613.136	620.49
613.586	640.09
614.035	628.49
614.484	637.89
614.933	649.19
615.383	634.49
615.832	630.09
616.281	611.19
616.73	589.69
617.179	570.09
617.628	550.49
618.077	542.09
618.526	533.89
618.975	526.29
619.424	523.69
619.873	516.89
620.322	521.99
620.771	517.49
621.22	511.89
621.669	503.29
622.118	500.89
622.567	497.69
623.015	480.49
623.464	481.49
623.913	482.19
624.361	471.29
624.81	461.89
625.259	467.29
625.707	469.39
626.156	466.89
626.604	473.39
627.053	475.59
627.501	472.29
627.95	477.99
628.398	495.99
628.847	481.19
629.295	480.69
629.744	484.39
630.192	483.29
630.64	478.99
631.089	468.69
631.537	488.59
631.985	495.29
632.433	504.09
632.881	502.49
633.33	546.69
633.778	533.69
634.226	476.19
634.674	474.79
635.122	483.69
635.57	503.29
636.018	527.59
636.466	489.89
636.914	474.29
637.362	476.89
637.81	479.89
638.258	482.19
638.705	490.89
639.153	511.89
639.601	514.99
640.049	533.29
640.497	570.49
640.944	585.19
641.392	524.49
641.84	515.79
642.287	491.49
642.735	469.99
643.182	480.59
643.63	480.29
644.078	486.69
644.525	493.19
644.973	497.09
645.42	500.09
645.867	518.89
646.315	533.29
646.762	546.89
647.21	573.89
647.657	597.69
648.104	630.09
648.551	646.79
648.999	700.69
649.446	753.49
649.893	825.79
650.34	964.49
650.787	1150.39
651.234	1420.49
651.682	1840.39
652.129	2506.59
652.576	3632.69
653.023	5381.59
653.47	7430.29
653.917	9388.69
654.363	11033.79
654.81	12437.69
655.257	11807.89
655.704	7650.89
656.151	4475.49
656.598	2893.39
657.044	2038.39
657.491	1564.99
657.938	1242.99
658.385	1038.19
658.831	910.69
659.278	807.29
659.724	719.09
660.171	655.59
660.618	598.19
661.064	570.39
661.511	545.89
661.957	532.09
662.404	511.39
662.85	528.99
663.296	509.19
663.743	463.29
664.189	446.29
664.635	443.99
665.082	435.69
665.528	426.19
665.974	427.19
666.42	420.89
666.867	407.39
667.313	410.39
667.759	394.59
668.205	403.19
668.651	405.79
669.097	401.69
669.543	424.99
669.989	393.79
670.435	374.99
670.881	369.09
671.327	378.29
671.773	377.99
672.219	403.39
672.665	444.09
673.11	478.19
673.556	512.19
674.002	548.99
674.448	543.19
674.893	460.39
675.339	389.99
675.785	362.69
676.23	347.09
676.676	317.69
677.122	311.89
677.567	300.39
678.013	298.19
678.458	298.09
678.904	293.19
679.349	287.79
679.794	296.69
680.24	285.89
680.685	277.79
681.131	286.69
681.576	284.09
682.021	281.89
682.466	283.59
682.912	280.29
683.357	283.49
683.802	319.09
684.247	342.29
684.692	367.69
685.137	411.09
685.583	436.59
686.028	472.89
686.473	430.99
686.918	358.29
687.363	339.49
687.807	318.59
688.252	307.69
688.697	292.49
689.142	278.49
689.587	280.29
690.032	266.29
690.477	278.69
690.921	282.89
691.366	307.99
691.811	328.49
692.255	357.09
692.7	380.29
693.145	407.19
693.589	557.99
694.034	895.29
694.478	1244.59
694.923	1445.49
695.367	1909.69
695.812	994.49
696.256	408.69
696.701	306.89
697.145	279.09
697.59	266.89
698.034	259.19
698.478	270.89
698.922	259.99
699.367	261.99
699.811	277.39
700.255	290.59
700.699	309.79
701.143	340.69
701.588	389.39
702.032	422.59
702.476	428.49
702.92	399.79
703.364	395.09
703.808	503.89
704.252	811.39
704.696	1171.69
705.14	1382.69
705.584	1788.39
706.027	874.89
706.471	430.79
706.915	324.69
707.359	286.99
707.803	258.59
708.246	249.59
708.69	261.19
709.134	257.99
709.577	255.29
710.021	255.59
710.465	255.39
710.908	243.49
711.352	240.29
711.795	250.39
712.239	290.89
712.682	300.99
713.126	342.79
713.569	386.39
714.012	309.29
714.456	261.39
714.899	242.59
715.342	223.09
715.786	204.99
716.229	205.49
716.672	212.39
717.115	204.19
717.558	202.69
718.002	203.99
718.445	214.19
718.888	235.39
719.331	237.09
719.774	250.79
720.217	239.59
720.66	231.79
721.103	209.29
721.546	207.49
721.989	204.89
722.432	187.69
722.874	193.29
723.317	188.49
723.76	193.19
724.203	204.39
724.645	256.39
725.088	357.49
725.531	463.29
725.974	530.79
726.416	451.19
726.859	253.59
727.301	198.39
727.744	191.19
728.187	191.79
728.629	193.79
729.071	199.59
729.514	210.59
729.956	221.09
730.399	224.59
730.841	233.39
731.283	224.09
731.726	216.49
732.168	208.59
732.61	214.99
733.053	234.99
733.495	247.69
733.937	281.49
734.379	320.19
734.821	342.09
735.263	426.29
735.705	658.79
736.148	1242.39
736.59	2073.79
737.032	2559.19
737.474	2075.19
737.916	668.59
738.357	347.99
738.799	261.09
739.241	235.39
739.683	232.99
740.125	236.99
740.567	238.69
741.008	258.09
741.45	254.99
741.892	260.29
742.334	281.09
742.775	291.99
743.217	282.79
743.658	218.19
744.1	204.39
744.542	204.99
744.983	250.19
745.425	287.49
745.866	292.29
746.307	231.99
746.749	227.19
747.19	258.29
747.632	361.89
748.073	679.29
748.514	1479.19
748.956	2330.49
749.397	2907.89
749.838	2422.79
750.279	2473.89
750.72	1249.49
751.162	457.69
751.603	262.99
752.044	210.69
752.485	172.39
752.926	163.29
753.367	160.39
753.808	156.79
754.249	145.59
754.69	151.19
755.131	147.69
755.572	144.39
756.013	141.69
756.453	145.39
756.894	148.79
757.335	152.99
757.776	151.69
758.216	159.49
758.657	163.19
759.098	161.99
759.538	188.69
759.979	216.39
760.42	298.79
760.86	553.29
761.301	1415.59
761.741	3534.79
762.182	5468.89
762.622	3829.49
763.063	1079.59
763.503	438.69
763.943	279.99
764.384	268.19
764.824	334.39
765.264	375.39
765.705	256.59
766.145	167.89
766.585	152.59
767.025	150.29
767.465	142.19
767.906	186.79
768.346	261.19
768.786	289.39
769.226	217.99
769.666	251.09
770.106	483.69
770.546	1222.79
770.986	2197.79
771.426	2011.29
771.866	656.29
772.306	271.99
772.745	171.89
773.185	139.29
773.625	139.39
774.065	131.49
774.505	166.39
774.944	237.59
775.384	540.99
775.824	1034.69
776.263	1030.39
776.703	416.89
777.142	179.69
777.582	125.59
778.021	109.69
778.461	112.29
778.9	113.09
779.34	107.09
779.779	93.09
780.219	86.29
780.658	89.39
781.097	91.39
781.537	96.29
781.976	89.69
782.415	76.89
782.855	81.99
783.294	84.69
783.733	88.29
784.172	85.09
784.611	80.09
785.05	86.09
785.489	86.79
785.928	92.19
786.367	108.59
786.806	97.49
787.245	105.09
787.684	105.49
788.123	117.09
788.562	108.69
789.001	100.49
789.44	88.49
789.879	92.99
790.317	93.49
790.756	103.69
791.195	101.59
791.634	118.79
792.072	162.59
792.511	281.99
792.95	789.99
793.388	1758.59
793.827	1651.09
794.265	556.79
794.704	223.59
795.142	147.79
795.581	126.49
796.019	108.59
796.458	99.09
796.896	99.19
797.334	102.29
797.773	125.19
798.211	176.49
798.649	337.59
799.087	794.79
799.526	1286.69
799.964	1636.69
800.402	1710.69
800.84	627.29
801.278	245.09
801.716	150.99
802.154	119.39
802.592	115.59
803.03	104.59
803.468	107.89
803.906	110.79
804.344	117.29
804.782	110.69
805.22	107.89
805.658	99.29
806.096	119.69
806.533	122.79
806.971	139.09
807.409	179.69
807.847	250.59
808.284	512.99
808.722	1484.79
809.16	2739.19
809.597	2522.89
810.035	4450.09
810.472	4988.69
810.91	1763.09
811.347	651.79
811.785	321.59
812.222	208.29
812.66	161.09
813.097	134.69
813.535	113.69
813.972	106.09
814.409	99.79
814.846	86.79
815.284	91.89
815.721	87.89
816.158	87.39
816.595	97.79
817.032	140.59
817.47	167.79
817.907	143.29
818.344	127.79
818.781	93.79
819.218	74.49
819.655	98.69
820.092	149.69
820.529	187.49
820.966	149.79
821.403	105.79
821.839	85.19
822.276	79.89
822.713	98.79
823.15	112.29
823.587	96.59
824.023	116.79
824.46	231.39
824.897	712.29
825.333	1142.09
825.77	487.49
826.206	183.79
826.643	110.69
827.08	86.19
827.516	66.89
827.953	60.29
828.389	64.39
828.825	58.19
829.262	60.89
829.698	52.79
830.135	47.89
830.571	46.79
831.007	51.79
831.443	54.39
831.88	46.49
832.316	48.19
832.752	56.99
833.188	53.49
833.624	51.39
834.06	55.29
834.497	53.19
834.933	56.49
835.369	56.79
835.805	57.79
836.241	63.49
836.677	65.99
837.112	71.29
837.548	83.69
837.984	101.89
838.42	157.69
838.856	383.89
839.292	1221.19
839.727	1955.89
840.163	901.89
840.599	735.99
841.034	1679.29
841.47	1829.99
841.906	657.49
842.341	272.59
842.777	188.49
843.212	254.29
843.648	269.69
844.083	120.59
844.519	71.09
844.954	59.09
845.39	54.69
845.825	50.79
846.261	47.79
846.696	42.69
847.131	42.59
847.566	50.09
848.002	40.09
848.437	42.99
848.872	49.59
849.307	48.59
849.742	69.49
850.177	137.99
850.613	445.59
851.048	740.59
851.483	315.99
851.918	122.19
852.353	71.09
852.788	53.99
853.223	46.59
853.657	46.29
854.092	40.39
854.527	33.59
854.962	34.19
855.397	39.19
855.832	50.09
856.266	33.69
856.701	35.49
857.136	32.79
857.57	30.39
858.005	45.79
858.44	51.39
858.874	31.09
859.309	38.69
859.743	28.09
860.178	32.19
860.612	33.09
861.047	42.79
861.481	54.79
861.915	59.89
862.35	41.09
862.784	29.79
863.218	34.99
863.653	22.19
864.087	36.69
864.521	42.39
864.955	52.49
865.39	120.19
865.824	144.49
866.258	94.09
866.692	134.29
867.126	150.39
867.56	92.79
867.994	42.69
868.428	31.69
868.862	37.69
869.296	49.19
869.73	49.79
870.164	42.89
870.598	38.59
871.031	29.49
871.465	25.89
871.899	26.79
872.333	22.29
872.766	24.59
873.2	20.39
873.634	25.39
874.067	16.19
874.501	16.99
874.935	24.89
875.368	26.99
875.802	22.99
876.235	17.39
876.669	20.59
877.102	21.29
877.535	25.99
877.969	16.09
878.402	22.19
878.836	21.39
879.269	15.99
879.702	19.79
880.135	13.99
880.569	18.69
881.002	18.29
881.435	12.29
881.868	17.39
882.301	19.49
882.734	9.59
883.167	13.39
883.601	13.89
884.034	16.69
884.467	8.69
884.899	16.89
885.332	9.09
885.765	12.39
886.198	10.39
886.631	13.79
887.064	17.09
887.497	17.19
887.929	19.19
888.362	12.29
888.795	8.29
889.228	16.99
889.66	15.99
890.093	16.09
890.526	13.69
890.958	12.29
891.391	15.79
891.823	15.79
892.256	13.99
892.688	6.39
893.121	11.19
893.553	11.79
893.985	23.39
894.418	13.89
894.85	3.89
895.282	19.59
895.715	16.99
896.147	16.29
896.579	16.59
897.011	12.29
897.444	10.99
897.876	6.89
898.308	11.19
898.74	12.99
899.172	11.49
899.604	20.29
900.036	15.89
900.468	7.99
900.9	11.39
901.332	15.49
901.764	10.99
902.196	19.19
902.628	11.19
903.06	12.09
903.491	26.69
903.923	19.89
904.355	18.99
904.787	21.89
905.218	13.79
905.65	15.69
906.082	11.59
906.513	13.39
906.945	14.09
907.376	14.39
907.808	16.79
908.239	19.49
908.671	17.79
909.102	21.09
909.534	21.89
909.965	40.59
910.397	67.89
910.828	251.99
911.259	400.39
911.691	183.79
912.122	86.99
912.553	46.99
912.984	25.99
913.415	18.19
913.847	19.39
914.278	9.99
914.709	10.39
915.14	16.99
915.571	18.99
916.002	17.49
916.433	19.49
916.864	15.39
917.295	7.79
917.726	15.79
918.157	9.89
918.587	24.19
919.018	21.09
919.449	15.09
919.88	21.59
920.311	30.49
920.741	38.79
921.172	130.59
921.603	126.19
922.033	64.79
922.464	34.79
922.895	18.49
923.325	14.89
923.756	13.79
924.186	16.59
924.617	16.79
925.047	30.89
925.478	41.79
925.908	37.59
926.338	21.49
926.769	17.39
927.199	17.29
927.629	10.79
928.06	15.79
928.49	12.39
928.92	13.59
929.35	10.99
929.78	8.79
930.21	6.79
930.641	7.99
931.071	7.49
931.501	4.89
931.931	3.99
932.361	11.39
932.791	7.39
933.221	-0.01
933.651	2.59
934.08	19.69
934.51	25.69
934.94	2.69
935.37	5.39
935.8	13.29
936.229	7.59
936.659	13.39
937.089	3.39
937.519	10.49
937.948	20.49
938.378	11.89
938.807	4.09
939.237	0.39
939.666	11.69
940.096	-5.31
940.525	4.19
940.955	-3.31
941.384	4.79
941.814	-7.51
942.243	0.09
942.672	1.69
943.102	0.59
943.531	-5.11
943.96	1.79
944.39	8.09
944.819	7.79
945.248	3.59
945.677	1.59
946.106	5.79
946.535	5.29
946.964	-0.11
947.393	4.59
947.822	-0.61
948.251	-6.51
948.68	-0.81
949.109	0.59
949.538	2.79
949.967	2.89
950.396	1.79
950.825	-5.11
951.254	-1.01
951.682	-5.21
952.111	-2.11
952.54	0.69
952.969	0.69
953.397	-9.51
953.826	2.49
954.254	-3.61
954.683	2.09
955.112	-2.21
955.54	-1.51
955.969	4.89
956.397	1.19
956.826	-3.61
957.254	3.99
957.682	1.49
958.111	-0.41
958.539	3.89
958.967	-1.51
959.396	-1.41
959.824	2.09
960.252	3.69
960.68	-6.01
961.109	-2.11
961.537	-9.21
961.965	-1.51
962.393	2.19
962.821	-0.01
963.249	1.39
963.677	6.49
964.105	8.39
964.533	41.89
964.961	35.19
965.389	18.29
965.817	4.19
966.245	1.39
966.672	0.69
967.1	-7.01
967.528	1.89
967.956	-4.71
968.383	-5.81
968.811	-7.01
969.239	-1.41
969.666	-12.11
970.094	5.99
970.522	3.29
970.949	-1.91
971.377	-0.41
971.804	0.49
972.232	-0.61
972.659	0.99
973.087	-2.11
973.514	-2.61
973.941	-8.11
974.369	4.29
974.796	2.59
975.223	2.79
975.651	-1.71
976.078	3.79
976.505	3.29
976.932	4.29
977.359	11.89
977.786	9.99
978.214	-2.81
978.641	-1.11
979.068	-2.51
979.495	-4.71
979.922	0.69
980.349	-5.71
980.776	-1.81
981.202	-3.11
981.629	4.59
982.056	5.09
982.483	-0.81
982.91	3.99
983.337	-2.61
983.763	2.29
984.19	-1.11
984.617	-3.51
985.043	-7.21
985.47	-3.01
985.897	-2.11
986.323	-4.91
986.75	0.09
987.176	4.09
987.603	2.89
988.029	1.49
988.456	-2.91
988.882	-1.01
989.308	-6.21
989.735	-2.61
990.161	-2.21
990.587	-3.71
991.014	-5.61
991.44	6.89
991.866	1.59
992.292	0.79
992.719	-2.61
993.145	7.49
993.571	-11.71
993.997	-5.71
994.423	-5.51
994.849	-4.31
995.275	2.49
995.701	-3.31
996.127	-3.31
996.553	-1.31
996.979	-2.81
997.405	-2.31
997.83	-8.31
998.256	-4.21
998.682	-1.71
999.108	-10.11
999.534	-3.11
999.959	-2.31
1000.385	-6.61
1000.811	1.49
1001.236	-10.91
1001.662	-4.41
1002.087	-12.81
1002.513	0.59
1002.938	-3.21
1003.364	-1.71
1003.789	-4.81
1004.215	1.39
1004.64	-1.01
1005.066	-2.91
1005.491	0.09
1005.916	2.69
1006.342	0.39
1006.767	-9.81
1007.192	6.09
1007.617	-5.41
1008.042	-2.21
1008.468	-6.61
1008.893	-6.91
1009.318	-1.21
1009.743	-4.01
1010.168	4.19
1010.593	1.29
1011.018	-9.31
1011.443	-4.01
1011.868	-1.71
1012.293	-3.81
1012.718	-7.81
1013.143	1.79
1013.567	1.69
1013.992	-3.21
1014.417	-14.51
1014.842	-0.31
1015.267	-7.51
1015.691	-10.91
1016.116	1.99
1016.541	-1.71
1016.965	5.49
1017.39	3.69
1017.814	1.29
1018.239	0.99
1018.663	-5.61
1019.088	-12.51
1019.512	1.29
1019.937	3.99
1020.361	-1.31
1020.785	-11.31
1021.21	-6.21
1021.634	-3.11
1022.058	0.49
1022.483	3.89
1022.907	0.99
1023.331	-2.41
1023.755	-4.91
1024.179	2.79
1024.604	-4.51
1025.028	-5.11
1025.452	-4.41
1025.876	2.39
1026.3	-3.81
1026.724	-10.81
1027.148	-4.91
1027.572	-4.41
1027.996	-6.11
1028.42	-0.71
1028.843	-2.21
1029.267	-2.01
1029.691	-1.81
1030.115	-5.51
1030.539	-3.11
1030.962	-0.71
1031.386	-12.41
1031.81	-3.11
1032.233	-8.51
1032.657	-1.11
1033.08	-1.11
1033.504	-5.01
1033.927	-6.31
1034.351	3.39
1034.774	0.79
1035.198	-4.11
1035.621	-6.01
1036.045	-8.81
1036.468	-1.41
1036.891	-8.11
1037.315	-11.11
1037.738	-4.71
1038.161	0.89
1038.584	0.79
1039.008	-12.61
1039.431	-7.91
1039.854	-5.41
1040.277	-9.01
1040.7	-10.81
1041.123	-2.41
1041.546	-7.01
1041.969	-3.31
1042.392	-7.81
1042.815	-5.31
1043.238	3.39
1043.661	-1.61
1044.084	-9.41
1044.507	-10.61
1044.93	-2.71
1045.352	-4.21
1045.775	-3.71
1046.198	-6.71
1046.621	-1.81
1047.043	-1.01
1047.466	9.79
1047.889	-3.21
1048.311	-9.41
1048.734	-4.51
1049.156	-2.11
1049.579	-2.61
1050.001	-1.71
1050.424	-2.41
1050.846	-1.81
1051.269	0.49
1051.691	-9.11
1052.113	-5.61
1052.536	0.89
1052.958	-4.51
1053.38	-3.61
1053.802	-9.11
1054.225	3.09
1054.647	-11.21
1055.069	-7.21
1055.491	1.49
1055.913	-6.71
1056.335	-3.61
1056.757	-6.71
1057.179	-7.01
1057.601	0.09
1058.023	-4.51
1058.445	-3.01
1058.867	-4.51
1059.289	-2.31
1059.711	-3.61
1060.133	-8.51
1060.555	-1.71
1060.976	-2.81
1061.398	-8.41
1061.82	-5.21
1062.241	-4.11
1062.663	-14.21
1063.085	-3.51
1063.506	8.49
1063.928	-6.51
1064.35	-2.31
1064.771	-6.11
1065.193	-2.71
1065.614	-6.71
1066.035	-0.01
1066.457	-4.71
1066.878	-2.21
1067.3	-5.41
1067.721	-1.71
1068.142	-1.91
1068.564	-6.31
1068.985	-6.11
1069.406	-2.91
1069.827	-8.51
1070.248	-2.01
1070.67	-1.91
1071.091	3.19
1071.512	-5.71
1071.933	-4.21
1072.354	-10.31
1072.775	-3.51
1073.196	-3.11
1073.617	-2.91
1074.038	-10.31
1074.459	-3.11
1074.88	-11.01
1075.3	-5.61
1075.721	-6.41
1076.142	-1.11
1076.563	-4.31
1076.983	-8.01
1077.404	-5.11
1077.825	-9.31
1078.246	-4.81
1078.666	-10.71
1079.087	-5.11
1079.507	-7.31
1079.928	-1.71
1080.348	2.59
1080.769	-9.91
1081.189	-2.81
1081.61	-6.01
1082.03	-7.01
1082.451	-6.21
1082.871	-3.01
1083.291	-7.41
1083.711	-11.61
1084.132	-5.71
1084.552	-7.01
1084.972	0.39
1085.392	-11.51
1085.813	-11.91
1086.233	-4.51
1086.653	-5.91
1087.073	1.89
1087.493	-7.31
1087.913	-2.31
1088.333	-9.81
1088.753	-2.41
1089.173	-2.31
1089.593	-2.01
1090.013	-6.01
1090.433	3.79
1090.852	-5.91
1091.272	-3.01
1091.692	-4.51
1092.112	-10.61
1092.531	-19.01
1092.951	-7.71
1093.371	-9.61
1093.79	5.59
1094.21	-1.11
1094.63	0.39
1095.049	-3.01
1095.469	-0.61
1095.888	-2.11
1096.308	-1.21
1096.727	4.39
1097.146	-6.71
1097.566	-2.21
1097.985	-3.51
1098.405	-1.61
1098.824	-7.61
1099.243	-6.21
1099.662	-5.21
1100.082	-2.51
1100.501	1.19
1100.92	-10.21
1101.339	-8.81
1101.758	-8.61
