Data from 20171114-ORNL-Ar_H_NY_Subt18_08-09-01-576.txt Node
Date: Tue Nov 14 08:09:01 EST 2017
User: Ender
Spectrometer: HR+D1039
Trigger mode: 0
Integration Time (sec): 2.730000E-2
Scans to average: 10
Electric dark correction enabled: true
Nonlinearity correction enabled: false
Boxcar width: 0
XAxis mode: Wavelengths
Number of Pixels in Spectrum: 2048
>>>>>Begin Spectral Data<<<<<
187.836	-1.99
188.309	-1.99
188.782	-1.99
189.255	-3.89
189.728	2.11
190.201	5.31
190.674	2.71
191.147	0.71
191.619	-5.19
192.092	3.81
192.565	3.51
193.038	2.71
193.511	-2.39
193.984	3.11
194.456	-10.59
194.929	2.81
195.402	-3.19
195.874	0.41
196.347	3.81
196.82	-3.09
197.292	3.51
197.765	-4.29
198.237	-3.89
198.71	-5.09
199.182	-5.79
199.655	0.81
200.127	4.21
200.6	0.61
201.072	-7.79
201.544	-4.39
202.017	-2.19
202.489	4.01
202.961	-0.59
203.433	-5.59
203.906	-7.29
204.378	-8.69
204.85	-4.19
205.322	-12.19
205.794	-1.79
206.266	-2.89
206.739	-7.39
207.211	0.01
207.683	-7.99
208.155	-5.09
208.627	-8.69
209.099	-1.49
209.57	-9.69
210.042	-11.99
210.514	-11.49
210.986	-4.49
211.458	-10.99
211.93	-3.89
212.402	0.51
212.873	-4.79
213.345	-9.99
213.817	-8.89
214.288	-8.79
214.76	-14.59
215.232	-1.49
215.703	-8.59
216.175	-5.69
216.646	-3.89
217.118	-6.89
217.589	-7.69
218.061	-5.79
218.532	-9.19
219.004	-4.19
219.475	-9.69
219.946	-3.79
220.418	-5.79
220.889	-1.99
221.36	1.01
221.832	-1.19
222.303	-6.09
222.774	5.61
223.245	-9.59
223.717	-2.89
224.188	-9.09
224.659	-4.69
225.13	-2.69
225.601	-0.69
226.072	-0.89
226.543	-0.09
227.014	-3.29
227.485	-4.79
227.956	-8.99
228.427	-8.69
228.898	-0.79
229.369	5.11
229.839	-5.79
230.31	-5.59
230.781	2.41
231.252	-5.49
231.722	-9.99
232.193	-6.99
232.664	-1.79
233.135	-1.29
233.605	-3.89
234.076	-4.19
234.546	-6.79
235.017	-0.19
235.487	-4.29
235.958	-3.69
236.428	-5.49
236.899	-7.49
237.369	2.31
237.84	-8.99
238.31	0.91
238.78	-3.89
239.251	-4.89
239.721	-9.89
240.191	-11.09
240.662	-1.69
241.132	-2.89
241.602	-4.39
242.072	-7.89
242.542	-4.29
243.013	-7.59
243.483	1.11
243.953	-2.89
244.423	-4.39
244.893	-3.99
245.363	-2.19
245.833	-4.39
246.303	-3.39
246.773	6.01
247.243	-5.79
247.712	-4.19
248.182	3.01
248.652	2.61
249.122	-11.49
249.592	0.11
250.061	1.21
250.531	3.71
251.001	-2.19
251.471	-2.39
251.94	7.01
252.41	-5.29
252.879	-3.79
253.349	7.41
253.818	8.11
254.288	4.71
254.757	-1.89
255.227	-8.29
255.696	1.41
256.166	-2.59
256.635	-0.19
257.105	2.41
257.574	0.51
258.043	-1.49
258.513	-1.19
258.982	1.01
259.451	-6.19
259.92	-4.09
260.389	-2.09
260.859	2.41
261.328	2.91
261.797	2.51
262.266	-4.49
262.735	8.81
263.204	0.71
263.673	-4.29
264.142	1.41
264.611	-2.09
265.08	-4.79
265.549	-2.49
266.018	2.81
266.487	-5.29
266.955	2.31
267.424	-7.29
267.893	6.31
268.362	-2.09
268.83	-1.09
269.299	1.91
269.768	0.41
270.236	-1.79
270.705	-5.89
271.174	-0.99
271.642	-4.99
272.111	-1.19
272.579	-3.69
273.048	-0.39
273.516	-6.59
273.985	4.11
274.453	4.81
274.922	5.11
275.39	-0.69
275.858	-1.79
276.327	1.31
276.795	8.91
277.263	-1.39
277.731	3.81
278.2	3.71
278.668	0.11
279.136	2.81
279.604	5.01
280.072	4.81
280.54	3.61
281.008	2.41
281.477	8.81
281.945	9.31
282.413	11.41
282.881	5.61
283.348	-1.09
283.816	16.21
284.284	7.11
284.752	15.01
285.22	6.31
285.688	4.31
286.156	1.71
286.623	13.31
287.091	6.31
287.559	5.61
288.026	4.31
288.494	5.01
288.962	-4.09
289.429	-1.99
289.897	9.51
290.364	10.81
290.832	10.31
291.3	6.81
291.767	7.21
292.234	13.01
292.702	8.81
293.169	14.01
293.637	12.11
294.104	13.21
294.571	3.21
295.039	2.81
295.506	2.51
295.973	11.91
296.44	10.51
296.908	12.01
297.375	6.81
297.842	10.11
298.309	15.01
298.776	3.91
299.243	17.01
299.71	7.21
300.177	9.91
300.644	19.61
301.111	4.01
301.578	19.31
302.045	8.71
302.512	21.21
302.979	17.81
303.446	14.71
303.913	11.71
304.379	10.81
304.846	19.81
305.313	10.61
305.78	14.41
306.246	17.11
306.713	14.31
307.18	13.21
307.646	17.11
308.113	18.11
308.579	16.61
309.046	22.51
309.512	17.31
309.979	12.91
310.445	16.41
310.912	16.81
311.378	26.21
311.845	17.81
312.311	25.41
312.777	20.11
313.244	25.71
313.71	25.61
314.176	19.01
314.642	16.51
315.109	17.51
315.575	21.61
316.041	30.31
316.507	20.41
316.973	25.91
317.439	20.51
317.905	24.21
318.371	20.61
318.837	24.71
319.303	25.21
319.769	24.61
320.235	23.61
320.701	23.81
321.167	27.01
321.633	20.51
322.099	20.91
322.564	33.01
323.03	25.81
323.496	27.11
323.962	30.81
324.427	25.11
324.893	27.61
325.359	27.21
325.824	25.71
326.29	26.81
326.755	30.31
327.221	26.51
327.686	29.91
328.152	36.61
328.617	35.81
329.083	39.91
329.548	40.91
330.014	37.11
330.479	28.81
330.944	32.21
331.41	27.91
331.875	34.41
332.34	33.41
332.805	28.91
333.271	30.31
333.736	31.11
334.201	37.41
334.666	41.01
335.131	39.81
335.596	40.61
336.061	34.61
336.526	20.71
336.991	37.61
337.456	43.51
337.921	35.31
338.386	33.41
338.851	31.21
339.316	39.41
339.781	35.31
340.246	48.91
340.711	40.81
341.175	42.41
341.64	35.61
342.105	37.21
342.569	43.31
343.034	49.11
343.499	45.31
343.963	40.81
344.428	52.41
344.893	45.91
345.357	44.91
345.822	50.81
346.286	58.71
346.751	57.51
347.215	56.01
347.679	54.41
348.144	75.11
348.608	70.41
349.073	58.71
349.537	67.81
350.001	57.91
350.465	66.81
350.93	66.11
351.394	58.61
351.858	55.91
352.322	70.91
352.786	71.71
353.25	79.11
353.715	92.31
354.179	78.71
354.643	99.51
355.107	97.71
355.571	81.21
356.035	79.81
356.498	83.01
356.962	93.51
357.426	101.41
357.89	97.41
358.354	74.31
358.818	71.51
359.281	65.71
359.745	63.41
360.209	61.61
360.673	63.01
361.136	69.51
361.6	69.21
362.064	70.01
362.527	69.01
362.991	79.61
363.454	72.51
363.918	63.71
364.381	69.71
364.845	65.81
365.308	77.91
365.772	70.41
366.235	69.01
366.698	63.71
367.162	72.71
367.625	70.81
368.088	72.41
368.552	81.81
369.015	71.21
369.478	78.41
369.941	82.51
370.404	78.31
370.867	86.31
371.331	88.51
371.794	97.41
372.257	84.81
372.72	97.11
373.183	88.71
373.646	82.91
374.109	79.01
374.572	98.21
375.035	83.91
375.497	94.11
375.96	96.31
376.423	92.31
376.886	96.81
377.349	92.61
377.811	92.41
378.274	93.71
378.737	87.71
379.199	97.91
379.662	101.91
380.125	92.21
380.587	95.51
381.05	97.81
381.512	108.81
381.975	114.41
382.437	105.11
382.9	102.71
383.362	109.81
383.825	114.31
384.287	113.01
384.75	103.31
385.212	109.61
385.674	116.01
386.136	124.01
386.599	106.51
387.061	111.21
387.523	109.91
387.985	111.41
388.447	122.61
388.91	117.31
389.372	115.91
389.834	118.81
390.296	123.51
390.758	118.01
391.22	122.11
391.682	137.31
392.144	147.31
392.606	134.61
393.068	126.61
393.529	148.71
393.991	129.01
394.453	127.01
394.915	122.31
395.377	121.91
395.838	121.71
396.3	127.01
396.762	132.61
397.224	125.41
397.685	124.91
398.147	127.91
398.608	127.21
399.07	121.51
399.531	127.41
399.993	137.01
400.454	148.81
400.916	132.41
401.377	136.81
401.839	142.01
402.3	149.41
402.762	161.11
403.223	159.71
403.684	156.81
404.145	151.51
404.607	146.61
405.068	154.41
405.529	161.01
405.99	176.61
406.451	162.21
406.913	162.61
407.374	159.41
407.835	152.71
408.296	158.81
408.757	160.31
409.218	171.21
409.679	171.51
410.14	167.01
410.601	168.01
411.062	174.21
411.522	175.41
411.983	167.91
412.444	163.91
412.905	177.71
413.366	176.61
413.826	198.41
414.287	218.81
414.748	258.61
415.208	245.01
415.669	208.81
416.13	205.71
416.59	202.81
417.051	216.31
417.511	222.31
417.972	237.71
418.432	242.41
418.893	285.11
419.353	244.81
419.814	194.81
420.274	182.81
420.734	175.61
421.195	192.81
421.655	191.41
422.115	190.51
422.576	191.71
423.036	188.31
423.496	205.21
423.956	213.51
424.416	230.41
424.876	259.71
425.336	257.21
425.797	256.61
426.257	251.21
426.717	234.11
427.177	225.91
427.637	224.51
428.097	229.61
428.556	240.21
429.016	254.21
429.476	257.01
429.936	265.01
430.396	266.11
430.856	280.81
431.315	303.01
431.775	336.41
432.235	371.51
432.694	341.31
433.154	340.71
433.614	375.91
434.073	324.11
434.533	280.11
434.993	262.51
435.452	273.31
435.912	286.41
436.371	265.91
436.83	278.21
437.29	249.51
437.749	250.91
438.209	243.71
438.668	272.51
439.127	279.81
439.587	257.01
440.046	245.81
440.505	256.41
440.964	276.31
441.424	310.91
441.883	299.71
442.342	258.01
442.801	226.31
443.26	218.81
443.719	231.21
444.178	224.81
444.637	210.91
445.096	226.31
445.555	228.51
446.014	224.51
446.473	229.31
446.932	234.01
447.391	226.41
447.849	233.31
448.308	225.11
448.767	224.01
449.226	239.01
449.685	236.61
450.143	253.41
450.602	242.11
451.061	235.21
451.519	234.41
451.978	236.51
452.436	237.81
452.895	236.11
453.353	250.91
453.812	241.21
454.27	243.91
454.729	242.31
455.187	246.51
455.646	245.61
456.104	253.41
456.562	271.11
457.021	268.81
457.479	259.81
457.937	274.61
458.395	265.11
458.854	245.41
459.312	257.01
459.77	277.01
460.228	259.21
460.686	250.91
461.144	252.81
461.602	251.31
462.06	246.11
462.518	260.51
462.976	262.71
463.434	259.41
463.892	265.31
464.35	278.71
464.808	296.21
465.266	271.91
465.724	279.91
466.181	279.41
466.639	281.41
467.097	293.71
467.555	316.51
468.012	311.61
468.47	319.71
468.928	323.21
469.385	347.11
469.843	363.01
470.3	356.71
470.758	371.81
471.215	394.31
471.673	402.91
472.13	410.91
472.588	425.81
473.045	374.61
473.503	382.21
473.96	409.81
474.417	412.81
474.875	436.41
475.332	473.71
475.789	466.71
476.246	475.61
476.704	489.91
477.161	516.51
477.618	527.31
478.075	564.01
478.532	616.41
478.989	688.21
479.446	777.71
479.903	754.41
480.36	783.01
480.817	823.31
481.274	919.31
481.731	1014.71
482.188	1090.71
482.645	1203.61
483.102	1288.51
483.558	1410.31
484.015	1450.11
484.472	1423.91
484.929	1386.21
485.385	1332.21
485.842	1305.21
486.299	1261.01
486.755	1228.51
487.212	1046.91
487.668	902.31
488.125	822.01
488.582	768.61
489.038	735.71
489.494	703.61
489.951	681.51
490.407	667.31
490.864	651.51
491.32	642.21
491.776	646.01
492.233	665.81
492.689	619.11
493.145	614.01
493.602	613.81
494.058	615.81
494.514	616.71
494.97	640.81
495.426	656.31
495.882	622.41
496.338	620.01
496.794	619.41
497.251	625.51
497.707	629.61
498.163	628.31
498.618	649.41
499.074	639.91
499.53	672.81
499.986	678.61
500.442	658.61
500.898	635.01
501.354	626.01
501.809	634.11
502.265	633.51
502.721	635.41
503.177	649.51
503.632	651.71
504.088	655.31
504.543	682.81
504.999	692.71
505.455	667.01
505.91	649.51
506.366	649.81
506.821	648.01
507.277	644.01
507.732	652.21
508.187	639.71
508.643	659.71
509.098	651.91
509.553	671.01
510.009	686.31
510.464	696.51
510.919	707.81
511.375	719.21
511.83	720.71
512.285	746.31
512.74	771.41
513.195	792.81
513.65	779.81
514.105	775.11
514.56	787.71
515.015	791.91
515.47	816.21
515.925	799.71
516.38	805.11
516.835	808.61
517.29	795.31
517.745	790.81
518.2	781.51
518.655	760.61
519.109	762.41
519.564	755.91
520.019	751.91
520.474	735.91
520.928	743.81
521.383	740.81
521.838	727.31
522.292	724.61
522.747	730.11
523.201	725.51
523.656	711.21
524.11	709.31
524.565	704.31
525.019	712.01
525.474	716.01
525.928	708.71
526.382	709.01
526.837	712.81
527.291	720.81
527.745	720.91
528.2	717.51
528.654	715.61
529.108	711.71
529.562	706.11
530.016	706.11
530.47	712.51
530.925	709.81
531.379	708.21
531.833	713.21
532.287	717.11
532.741	705.91
533.195	724.01
533.649	719.31
534.103	728.81
534.556	721.31
535.01	725.11
535.464	725.31
535.918	735.31
536.372	740.81
536.826	729.01
537.279	723.61
537.733	731.41
538.187	739.81
538.64	727.11
539.094	745.91
539.548	745.01
540.001	738.61
540.455	751.31
540.908	754.81
541.362	762.11
541.815	772.01
542.269	780.01
542.722	772.91
543.175	787.51
543.629	794.01
544.082	816.51
544.536	813.51
544.989	818.31
545.442	815.51
545.895	821.41
546.349	826.81
546.802	822.71
547.255	817.01
547.708	841.51
548.161	839.81
548.614	843.61
549.067	847.91
549.52	850.31
549.973	832.91
550.426	841.81
550.879	819.01
551.332	824.51
551.785	837.41
552.238	846.41
552.691	852.31
553.144	870.01
553.596	873.21
554.049	894.11
554.502	922.71
554.955	944.61
555.407	936.61
555.86	934.71
556.313	920.51
556.765	899.01
557.218	912.61
557.67	910.61
558.123	909.41
558.576	894.71
559.028	899.81
559.48	914.21
559.933	911.01
560.385	876.21
560.838	845.51
561.29	829.11
561.742	813.91
562.195	795.71
562.647	791.01
563.099	791.61
563.551	798.81
564.004	817.81
564.456	798.81
564.908	781.81
565.36	770.31
565.812	758.51
566.264	744.91
566.716	737.71
567.168	725.31
567.62	738.51
568.072	728.81
568.524	731.61
568.976	713.51
569.428	699.91
569.88	701.81
570.332	707.71
570.784	704.01
571.235	711.41
571.687	723.31
572.139	726.31
572.59	738.71
573.042	741.01
573.494	737.61
573.945	727.81
574.397	714.91
574.849	723.11
575.3	716.31
575.752	712.31
576.203	712.81
576.655	712.71
577.106	689.81
577.557	697.41
578.009	696.61
578.46	687.01
578.912	694.51
579.363	692.31
579.814	696.01
580.265	685.31
580.717	698.61
581.168	697.71
581.619	700.51
582.07	702.11
582.521	698.01
582.972	700.71
583.423	703.41
583.875	705.21
584.326	709.01
584.777	727.51
585.227	740.61
585.678	766.91
586.129	779.01
586.58	786.81
587.031	818.11
587.482	847.21
587.933	877.91
588.384	859.01
588.834	824.91
589.285	794.21
589.736	802.71
590.186	800.81
590.637	791.61
591.088	779.31
591.538	766.81
591.989	761.31
592.439	754.71
592.89	745.11
593.34	733.91
593.791	732.01
594.241	722.21
594.692	733.21
595.142	724.41
595.593	723.31
596.043	737.91
596.493	735.31
596.943	738.81
597.394	750.61
597.844	752.71
598.294	762.51
598.744	785.91
599.195	817.81
599.645	854.71
600.095	897.41
600.545	957.71
600.995	1013.61
601.445	1070.81
601.895	1125.61
602.345	1185.21
602.795	1162.41
603.245	1114.11
603.695	1051.61
604.145	999.71
604.594	947.91
605.044	901.41
605.494	830.31
605.944	783.61
606.393	774.91
606.843	761.81
607.293	756.81
607.743	760.61
608.192	770.21
608.642	773.51
609.091	789.41
609.541	796.51
609.99	797.71
610.44	783.71
610.889	741.31
611.339	722.81
611.788	704.81
612.238	711.21
612.687	737.01
613.136	717.51
613.586	741.51
614.035	733.71
614.484	749.31
614.933	738.21
615.383	728.61
615.832	739.31
616.281	725.01
616.73	688.81
617.179	684.11
617.628	667.61
618.077	656.51
618.526	652.91
618.975	646.01
619.424	643.91
619.873	641.11
620.322	642.61
620.771	631.81
621.22	635.31
621.669	617.31
622.118	603.21
622.567	607.11
623.015	589.81
623.464	595.71
623.913	572.21
624.361	576.71
624.81	575.91
625.259	580.41
625.707	574.21
626.156	576.71
626.604	598.31
627.053	575.01
627.501	593.41
627.95	596.51
628.398	603.71
628.847	595.71
629.295	595.71
629.744	600.01
630.192	595.71
630.64	587.51
631.089	565.81
631.537	560.21
631.985	561.01
632.433	552.21
632.881	539.81
633.33	556.51
633.778	550.61
634.226	545.91
634.674	558.31
635.122	562.61
635.57	575.41
636.018	576.61
636.466	587.21
636.914	572.01
637.362	593.91
637.81	603.41
638.258	606.51
638.705	599.81
639.153	638.21
639.601	638.81
640.049	668.41
640.497	705.31
640.944	723.01
641.392	668.41
641.84	644.51
642.287	606.51
642.735	584.51
643.182	584.11
643.63	578.71
644.078	583.01
644.525	597.21
644.973	603.01
645.42	620.31
645.867	634.01
646.315	667.31
646.762	675.21
647.21	693.91
647.657	730.11
648.104	764.61
648.551	781.91
648.999	842.61
649.446	927.21
649.893	1007.21
650.34	1152.71
650.787	1366.81
651.234	1687.01
651.682	2181.71
652.129	2976.01
652.576	4220.01
653.023	6134.31
653.47	8278.61
653.917	10175.81
654.363	11627.61
654.81	12749.81
655.257	12121.61
655.704	8035.21
656.151	4842.51
656.598	3178.11
657.044	2281.81
657.491	1777.11
657.938	1433.81
658.385	1227.21
658.831	1063.81
659.278	971.51
659.724	858.41
660.171	791.91
660.618	734.81
661.064	703.51
661.511	681.21
661.957	672.61
662.404	659.01
662.85	657.01
663.296	649.21
663.743	569.01
664.189	560.31
664.635	553.31
665.082	551.81
665.528	550.51
665.974	541.21
666.42	523.31
666.867	519.71
667.313	505.91
667.759	485.61
668.205	470.51
668.651	470.91
669.097	465.91
669.543	456.21
669.989	463.01
670.435	464.31
670.881	465.41
671.327	464.21
671.773	503.41
672.219	524.61
672.665	572.91
673.11	616.91
673.556	668.31
674.002	702.61
674.448	695.31
674.893	580.81
675.339	496.01
675.785	460.01
676.23	441.01
676.676	417.51
677.122	405.51
677.567	396.41
678.013	389.81
678.458	382.31
678.904	377.61
679.349	366.11
679.794	376.81
680.24	360.11
680.685	369.21
681.131	366.51
681.576	367.41
682.021	374.81
682.466	368.41
682.912	369.51
683.357	375.21
683.802	398.91
684.247	436.51
684.692	487.71
685.137	520.41
685.583	572.51
686.028	602.81
686.473	543.61
686.918	466.71
687.363	437.71
687.807	414.11
688.252	387.71
688.697	379.31
689.142	362.91
689.587	361.81
690.032	351.81
690.477	371.81
690.921	366.51
691.366	407.41
691.811	427.81
692.255	456.91
692.7	489.11
693.145	548.21
693.589	769.21
694.034	1247.41
694.478	1671.41
694.923	1838.71
695.367	2381.11
695.812	1277.61
696.256	527.91
696.701	395.91
697.145	359.81
697.59	349.61
698.034	345.71
698.478	350.61
698.922	341.61
699.367	340.41
699.811	349.91
700.255	373.01
700.699	404.61
701.143	447.41
701.588	499.11
702.032	544.01
702.476	541.01
702.92	522.31
703.364	544.61
703.808	699.61
704.252	1147.81
704.696	1575.31
705.14	1757.31
705.584	2246.51
706.027	1142.21
706.471	564.01
706.915	424.11
707.359	376.31
707.803	352.61
708.246	329.91
708.69	338.51
709.134	331.11
709.577	340.51
710.021	334.11
710.465	324.41
710.908	313.01
711.352	318.91
711.795	329.51
712.239	377.81
712.682	411.61
713.126	428.71
713.569	484.11
714.012	383.71
714.456	325.61
714.899	301.71
715.342	292.51
715.786	278.21
716.229	277.91
716.672	273.51
717.115	266.21
717.558	262.31
718.002	264.21
718.445	280.81
718.888	300.61
719.331	305.11
719.774	320.81
720.217	322.41
720.66	304.51
721.103	286.91
721.546	268.41
721.989	262.71
722.432	255.61
722.874	246.81
723.317	243.71
723.76	252.81
724.203	280.91
724.645	344.31
725.088	484.11
725.531	610.21
725.974	679.61
726.416	579.71
726.859	318.11
727.301	265.41
727.744	252.01
728.187	247.51
728.629	247.91
729.071	254.11
729.514	278.71
729.956	287.71
730.399	305.91
730.841	306.81
731.283	297.91
731.726	281.11
732.168	280.51
732.61	284.51
733.053	301.61
733.495	343.11
733.937	381.11
734.379	429.21
734.821	472.11
735.263	599.01
735.705	924.41
736.148	1761.21
736.59	2802.21
737.032	3218.01
737.474	2632.91
737.916	878.71
738.357	464.81
738.799	346.51
739.241	321.41
739.683	300.11
740.125	304.61
740.567	312.61
741.008	335.91
741.45	343.61
741.892	341.61
742.334	383.31
742.775	386.81
743.217	368.81
743.658	287.61
744.1	272.51
744.542	285.11
744.983	332.71
745.425	370.31
745.866	365.21
746.307	296.41
746.749	300.21
747.19	357.31
747.632	502.51
748.073	995.61
748.514	2079.61
748.956	3077.11
749.397	3904.21
749.838	3217.31
750.279	3137.31
750.72	1604.81
751.162	594.41
751.603	345.21
752.044	271.31
752.485	229.31
752.926	224.11
753.367	209.81
753.808	203.31
754.249	203.11
754.69	194.71
755.131	198.81
755.572	192.01
756.013	194.41
756.453	191.11
756.894	200.21
757.335	205.21
757.776	209.71
758.216	211.41
758.657	213.01
759.098	220.21
759.538	241.51
759.979	290.91
760.42	420.31
760.86	805.31
761.301	2110.91
761.741	4907.91
762.182	6762.01
762.622	4809.61
763.063	1417.61
763.503	574.41
763.943	354.51
764.384	288.81
764.824	259.41
765.264	252.71
765.705	225.21
766.145	202.91
766.585	183.51
767.025	183.41
767.465	172.31
767.906	200.61
768.346	211.81
768.786	211.21
769.226	237.11
769.666	333.41
770.106	703.71
770.546	1751.11
770.986	2827.61
771.426	2479.91
771.866	850.01
772.306	346.21
772.745	224.01
773.185	180.71
773.625	172.31
774.065	159.21
774.505	175.21
774.944	222.51
775.384	384.01
775.824	614.61
776.263	587.51
776.703	282.41
777.142	169.11
777.582	138.11
778.021	131.71
778.461	130.91
778.9	140.41
779.34	135.11
779.779	115.81
780.219	107.71
780.658	112.01
781.097	109.61
781.537	120.21
781.976	115.01
782.415	109.41
782.855	112.31
783.294	107.81
783.733	110.01
784.172	113.11
784.611	111.51
785.05	111.61
785.489	111.71
785.928	125.21
786.367	122.11
786.806	125.41
787.245	134.61
787.684	147.71
788.123	151.01
788.562	149.51
789.001	131.01
789.44	129.41
789.879	124.31
790.317	123.71
790.756	139.41
791.195	139.21
791.634	155.61
792.072	217.21
792.511	417.11
792.95	1120.01
793.388	2278.41
793.827	2004.21
794.265	715.31
794.704	304.31
795.142	197.31
795.581	161.41
796.019	143.41
796.458	139.01
796.896	126.91
797.334	136.51
797.773	173.01
798.211	240.21
798.649	498.81
799.087	1117.51
799.526	1740.61
799.964	2191.31
800.402	2100.91
800.84	816.91
801.278	323.21
801.716	202.31
802.154	164.51
802.592	151.41
803.03	148.51
803.468	145.51
803.906	151.61
804.344	160.81
804.782	155.61
805.22	143.61
805.658	139.11
806.096	156.71
806.533	167.71
806.971	187.61
807.409	240.01
807.847	351.41
808.284	759.91
808.722	2094.01
809.16	3537.71
809.597	3491.61
810.035	5932.11
810.472	6042.11
810.91	2241.71
811.347	869.31
811.785	441.01
812.222	282.41
812.66	208.91
813.097	177.81
813.535	144.61
813.972	143.61
814.409	128.61
814.846	109.71
815.284	119.61
815.721	109.61
816.158	111.21
816.595	111.91
817.032	162.51
817.47	192.01
817.907	132.01
818.344	110.51
818.781	108.41
819.218	107.11
819.655	133.01
820.092	203.31
820.529	234.71
820.966	178.81
821.403	133.31
821.839	105.41
822.276	110.81
822.713	131.21
823.15	144.51
823.587	119.51
824.023	162.51
824.46	342.21
824.897	1000.91
825.333	1427.31
825.77	613.01
826.206	251.11
826.643	145.71
827.08	106.71
827.516	85.11
827.953	83.61
828.389	85.51
828.825	69.51
829.262	73.21
829.698	69.91
830.135	67.91
830.571	66.71
831.007	67.11
831.443	68.51
831.88	67.31
832.316	66.21
832.752	66.61
833.188	68.61
833.624	67.81
834.06	76.31
834.497	72.71
834.933	74.51
835.369	81.31
835.805	74.61
836.241	82.31
836.677	84.21
837.112	98.11
837.548	110.41
837.984	149.41
838.42	230.11
838.856	569.71
839.292	1687.01
839.727	2442.91
840.163	1149.51
840.599	1041.31
841.034	2205.31
841.47	2220.91
841.906	828.71
842.341	360.51
842.777	219.11
843.212	208.51
843.648	195.41
844.083	115.81
844.519	86.31
844.954	80.81
845.39	57.01
845.825	53.71
846.261	56.01
846.696	60.91
847.131	55.41
847.566	61.31
848.002	55.11
848.437	53.81
848.872	63.41
849.307	61.51
849.742	94.71
850.177	208.71
850.613	614.61
851.048	929.81
851.483	410.81
851.918	163.41
852.353	87.31
852.788	58.91
853.223	53.01
853.657	59.71
854.092	43.51
854.527	46.41
854.962	43.91
855.397	50.31
855.832	49.21
856.266	42.21
856.701	46.81
857.136	40.21
857.57	46.71
858.005	49.31
858.44	62.71
858.874	49.61
859.309	56.11
859.743	41.21
860.178	49.81
860.612	38.31
861.047	53.61
861.481	77.31
861.915	74.01
862.35	57.31
862.784	37.31
863.218	40.11
863.653	31.01
864.087	47.51
864.521	55.91
864.955	73.21
865.39	168.81
865.824	179.51
866.258	125.21
866.692	176.91
867.126	195.51
867.56	115.11
867.994	59.61
868.428	47.01
868.862	52.51
869.296	59.31
869.73	62.51
870.164	58.41
870.598	50.71
871.031	46.11
871.465	30.71
871.899	31.31
872.333	20.41
872.766	32.01
873.2	30.91
873.634	34.21
874.067	27.11
874.501	27.81
874.935	35.81
875.368	27.71
875.802	31.61
876.235	24.31
876.669	24.61
877.102	23.91
877.535	25.01
877.969	22.21
878.402	23.71
878.836	23.41
879.269	23.51
879.702	18.01
880.135	20.11
880.569	22.81
881.002	22.21
881.435	20.31
881.868	18.91
882.301	21.11
882.734	21.01
883.167	20.81
883.601	21.01
884.034	19.91
884.467	16.51
884.899	22.11
885.332	18.21
885.765	17.21
886.198	12.81
886.631	18.91
887.064	18.91
887.497	25.71
887.929	24.81
888.362	15.81
888.795	19.41
889.228	14.01
889.66	20.51
890.093	13.31
890.526	14.01
890.958	16.81
891.391	17.51
891.823	26.61
892.256	15.71
892.688	11.91
893.121	19.31
893.553	16.21
893.985	18.81
894.418	14.51
894.85	12.01
895.282	18.51
895.715	20.91
896.147	17.81
896.579	18.11
897.011	11.61
897.444	14.31
897.876	18.61
898.308	17.81
898.74	15.71
899.172	20.31
899.604	25.31
900.036	18.41
900.468	16.21
900.9	14.41
901.332	24.51
901.764	17.41
902.196	18.51
902.628	17.51
903.06	19.71
903.491	34.21
903.923	25.01
904.355	25.61
904.787	21.71
905.218	27.41
905.65	21.81
906.082	14.21
906.513	14.91
906.945	17.61
907.376	11.11
907.808	20.41
908.239	18.91
908.671	21.81
909.102	22.91
909.534	24.41
909.965	46.91
910.397	92.71
910.828	339.91
911.259	502.31
911.691	237.21
912.122	119.31
912.553	60.01
912.984	37.11
913.415	24.91
913.847	26.71
914.278	17.01
914.709	11.81
915.14	22.41
915.571	18.61
916.002	11.21
916.433	13.81
916.864	20.21
917.295	9.81
917.726	23.71
918.157	15.41
918.587	34.41
919.018	24.41
919.449	19.81
919.88	25.11
920.311	30.21
920.741	59.01
921.172	177.41
921.603	160.71
922.033	72.51
922.464	46.61
922.895	22.81
923.325	24.51
923.756	9.91
924.186	12.11
924.617	20.41
925.047	13.91
925.478	29.31
925.908	21.01
926.338	13.01
926.769	7.21
927.199	17.01
927.629	5.91
928.06	15.41
928.49	14.31
928.92	11.51
929.35	11.91
929.78	15.01
930.21	15.41
930.641	6.31
931.071	4.11
931.501	1.61
931.931	10.71
932.361	11.51
932.791	2.31
933.221	1.51
933.651	4.71
934.08	18.91
934.51	32.51
934.94	9.51
935.37	8.71
935.8	14.11
936.229	14.01
936.659	6.61
937.089	3.61
937.519	11.01
937.948	27.01
938.378	14.01
938.807	11.81
939.237	3.01
939.666	5.71
940.096	-0.79
940.525	4.91
940.955	8.31
941.384	-0.29
941.814	-5.59
942.243	-6.09
942.672	8.01
943.102	-4.99
943.531	-1.19
943.96	4.41
944.39	2.91
944.819	1.51
945.248	3.01
945.677	0.21
946.106	3.31
946.535	9.31
946.964	5.61
947.393	2.61
947.822	2.81
948.251	-5.19
948.68	2.31
949.109	6.71
949.538	5.91
949.967	0.01
950.396	1.71
950.825	-0.69
951.254	1.01
951.682	-0.99
952.111	2.81
952.54	3.91
952.969	-8.49
953.397	-3.59
953.826	-0.29
954.254	-0.39
954.683	-0.19
955.112	-2.29
955.54	-0.69
955.969	0.61
956.397	-2.49
956.826	-6.29
957.254	5.71
957.682	0.21
958.111	8.41
958.539	-2.19
958.967	5.11
959.396	-0.59
959.824	1.71
960.252	4.71
960.68	-8.49
961.109	-6.79
961.537	-10.09
961.965	-2.19
962.393	-3.59
962.821	0.71
963.249	3.81
963.677	0.81
964.105	9.21
964.533	44.91
964.961	46.91
965.389	22.01
965.817	9.51
966.245	-3.79
966.672	1.21
967.1	-3.69
967.528	-1.89
967.956	-0.89
968.383	-3.09
968.811	-3.59
969.239	-0.29
969.666	-4.29
970.094	-1.49
970.522	8.81
970.949	0.91
971.377	-3.79
971.804	2.01
972.232	-4.09
972.659	-1.09
973.087	-3.49
973.514	0.01
973.941	-9.29
974.369	3.91
974.796	-3.39
975.223	-0.09
975.651	-6.69
976.078	0.21
976.505	2.31
976.932	-0.49
977.359	22.61
977.786	9.61
978.214	5.11
978.641	-1.59
979.068	-1.49
979.495	-6.29
979.922	-6.39
980.349	-0.49
980.776	9.21
981.202	2.01
981.629	5.11
982.056	8.11
982.483	4.81
982.91	2.71
983.337	-8.19
983.763	0.41
984.19	-2.99
984.617	-9.69
985.043	-7.19
985.47	-3.59
985.897	-5.99
986.323	-10.09
986.75	1.31
987.176	-1.89
987.603	-1.09
988.029	5.21
988.456	-5.69
988.882	1.91
989.308	-6.39
989.735	-3.59
990.161	-0.89
990.587	-4.59
991.014	-2.79
991.44	5.41
991.866	-5.09
992.292	-10.19
992.719	-8.29
993.145	0.51
993.571	-7.89
993.997	-11.29
994.423	-2.59
994.849	-6.59
995.275	-2.79
995.701	7.31
996.127	-5.19
996.553	-2.89
996.979	-7.89
997.405	-5.89
997.83	-10.59
998.256	-2.49
998.682	-4.49
999.108	-11.19
999.534	-2.79
999.959	1.01
1000.385	-4.29
1000.811	-0.59
1001.236	-13.39
1001.662	-8.29
1002.087	-12.89
1002.513	-1.09
1002.938	4.71
1003.364	-5.49
1003.789	-5.39
1004.215	0.91
1004.64	-9.09
1005.066	2.01
1005.491	-2.79
1005.916	-2.29
1006.342	-0.89
1006.767	-9.39
1007.192	3.41
1007.617	-10.99
1008.042	-2.59
1008.468	-4.89
1008.893	-2.49
1009.318	-8.59
1009.743	-4.89
1010.168	3.51
1010.593	2.71
1011.018	1.31
1011.443	-9.99
1011.868	0.51
1012.293	-2.79
1012.718	-4.79
1013.143	-6.19
1013.567	-2.59
1013.992	-4.59
1014.417	-7.99
1014.842	-3.89
1015.267	-4.89
1015.691	-7.39
1016.116	5.71
1016.541	-1.09
1016.965	-5.29
1017.39	2.51
1017.814	-7.09
1018.239	-5.89
1018.663	0.71
1019.088	-14.49
1019.512	-2.59
1019.937	-7.29
1020.361	-2.79
1020.785	-10.29
1021.21	-5.19
1021.634	-4.79
1022.058	-2.19
1022.483	6.61
1022.907	-3.09
1023.331	-1.39
1023.755	-1.19
1024.179	-1.29
1024.604	-7.79
1025.028	-12.89
1025.452	-6.89
1025.876	-1.19
1026.3	-6.29
1026.724	-12.49
1027.148	-7.99
1027.572	-12.89
1027.996	-2.49
1028.42	-4.09
1028.843	-6.09
1029.267	-5.09
1029.691	-7.59
1030.115	-4.39
1030.539	-11.59
1030.962	-2.49
1031.386	-11.59
1031.81	0.21
1032.233	-2.69
1032.657	1.91
1033.08	-6.79
1033.504	-6.79
1033.927	-7.59
1034.351	-2.99
1034.774	-4.29
1035.198	-2.69
1035.621	-9.59
1036.045	-4.09
1036.468	1.21
1036.891	-15.79
1037.315	-2.49
1037.738	-8.29
1038.161	-5.99
1038.584	-0.09
1039.008	-4.69
1039.431	-4.79
1039.854	-4.49
1040.277	-8.29
1040.7	-13.29
1041.123	0.91
1041.546	-8.09
1041.969	-11.29
1042.392	-8.99
1042.815	-7.69
1043.238	1.01
1043.661	-0.29
1044.084	-6.09
1044.507	-3.99
1044.93	-8.69
1045.352	-7.39
1045.775	1.11
1046.198	5.31
1046.621	-6.39
1047.043	4.71
1047.466	3.41
1047.889	-2.59
1048.311	-8.79
1048.734	-3.79
1049.156	-4.19
1049.579	0.31
1050.001	-5.09
1050.424	-4.99
1050.846	1.51
1051.269	-5.69
1051.691	-9.99
1052.113	-11.29
1052.536	-1.19
1052.958	-5.29
1053.38	-6.49
1053.802	-5.89
1054.225	-0.69
1054.647	-10.89
1055.069	-6.09
1055.491	2.61
1055.913	-7.49
1056.335	-4.59
1056.757	-4.59
1057.179	-13.29
1057.601	-7.59
1058.023	-5.69
1058.445	-4.59
1058.867	-8.39
1059.289	-4.39
1059.711	-11.69
1060.133	-4.19
1060.555	-3.99
1060.976	-11.59
1061.398	-9.89
1061.82	-10.19
1062.241	-7.09
1062.663	-10.19
1063.085	-6.19
1063.506	-0.89
1063.928	-2.69
1064.35	1.61
1064.771	-14.09
1065.193	-4.79
1065.614	-12.79
1066.035	-1.99
1066.457	-3.99
1066.878	3.11
1067.3	-7.89
1067.721	-8.49
1068.142	-4.99
1068.564	-6.79
1068.985	-1.89
1069.406	-10.49
1069.827	-4.29
1070.248	-1.09
1070.67	-7.59
1071.091	-6.79
1071.512	-5.99
1071.933	-7.79
1072.354	-12.29
1072.775	-8.99
1073.196	-1.39
1073.617	1.71
1074.038	-7.09
1074.459	-1.69
1074.88	-7.59
1075.3	4.01
1075.721	-7.39
1076.142	-4.99
1076.563	-1.99
1076.983	-14.59
1077.404	-10.59
1077.825	-13.59
1078.246	-1.39
1078.666	-14.49
1079.087	-5.09
1079.507	-9.39
1079.928	0.51
1080.348	-2.39
1080.769	-8.59
1081.189	-0.79
1081.61	-1.69
1082.03	-9.59
1082.451	-8.29
1082.871	-2.79
1083.291	-10.39
1083.711	-10.79
1084.132	-6.69
1084.552	0.11
1084.972	1.51
1085.392	-7.89
1085.813	-6.89
1086.233	-9.39
1086.653	-4.69
1087.073	-3.09
1087.493	-11.99
1087.913	-11.19
1088.333	-8.29
1088.753	-2.59
1089.173	1.81
1089.593	-0.99
1090.013	-2.19
1090.433	3.21
1090.852	-6.29
1091.272	-4.79
1091.692	-9.79
1092.112	-8.29
1092.531	-6.19
1092.951	-17.09
1093.371	-1.09
1093.79	-3.39
1094.21	2.31
1094.63	-9.69
1095.049	-2.79
1095.469	-2.39
1095.888	-0.69
1096.308	1.91
1096.727	4.91
1097.146	-6.09
1097.566	-3.29
1097.985	-5.69
1098.405	-6.39
1098.824	-10.29
1099.243	-4.69
1099.662	-7.59
1100.082	-2.09
1100.501	-4.39
1100.92	-6.09
1101.339	-4.59
1101.758	-5.59
