Data from 20171114-ORNL-Ar_H_NY_Subt18_08-06-58-951.txt Node
Date: Tue Nov 14 08:06:58 EST 2017
User: Ender
Spectrometer: HR+D1039
Trigger mode: 0
Integration Time (sec): 2.730000E-2
Scans to average: 10
Electric dark correction enabled: true
Nonlinearity correction enabled: false
Boxcar width: 0
XAxis mode: Wavelengths
Number of Pixels in Spectrum: 2048
>>>>>Begin Spectral Data<<<<<
187.836	-7.78
188.309	-7.78
188.782	-7.78
189.255	2.42
189.728	1.02
190.201	1.02
190.674	0.82
191.147	6.92
191.619	-1.48
192.092	4.12
192.565	6.22
193.038	-2.38
193.511	-4.68
193.984	-0.78
194.456	-1.78
194.929	2.52
195.402	-2.18
195.874	-3.98
196.347	1.52
196.82	-4.48
197.292	6.92
197.765	3.22
198.237	-11.78
198.71	-0.68
199.182	-3.98
199.655	-5.38
200.127	5.12
200.6	-2.68
201.072	-5.38
201.544	-1.48
202.017	-2.58
202.489	3.02
202.961	4.62
203.433	-0.68
203.906	-7.68
204.378	-1.18
204.85	-8.18
205.322	-5.88
205.794	-3.38
206.266	-2.28
206.739	-5.88
207.211	-0.68
207.683	-8.68
208.155	-10.38
208.627	-6.18
209.099	-4.88
209.57	-7.98
210.042	-5.08
210.514	-1.08
210.986	-5.28
211.458	-12.08
211.93	-2.58
212.402	-5.28
212.873	-5.98
213.345	-6.88
213.817	-11.28
214.288	-8.28
214.76	-11.48
215.232	-1.58
215.703	-5.38
216.175	-1.58
216.646	-5.18
217.118	-8.78
217.589	-5.58
218.061	-2.98
218.532	-7.18
219.004	-3.08
219.475	-2.98
219.946	-6.08
220.418	-4.38
220.889	1.82
221.36	-1.78
221.832	-6.48
222.303	-2.08
222.774	-2.48
223.245	-10.58
223.717	-10.58
224.188	-3.38
224.659	-10.38
225.13	-10.28
225.601	0.22
226.072	-0.48
226.543	-4.28
227.014	-3.48
227.485	-6.18
227.956	-9.88
228.427	-4.78
228.898	-2.78
229.369	1.32
229.839	-2.48
230.31	-9.18
230.781	2.82
231.252	-5.38
231.722	-13.18
232.193	-3.68
232.664	-1.88
233.135	-0.78
233.605	-1.28
234.076	-10.98
234.546	-6.48
235.017	-1.28
235.487	-2.38
235.958	-1.88
236.428	-6.08
236.899	-2.58
237.369	-1.88
237.84	-9.78
238.31	-2.98
238.78	-2.88
239.251	-9.08
239.721	-3.88
240.191	-2.68
240.662	-3.58
241.132	-0.18
241.602	-5.18
242.072	-4.18
242.542	1.52
243.013	-0.68
243.483	-0.78
243.953	0.32
244.423	-2.28
244.893	-11.18
245.363	-2.78
245.833	-3.68
246.303	-11.88
246.773	0.72
247.243	-1.28
247.712	1.72
248.182	4.72
248.652	1.62
249.122	-5.28
249.592	-5.18
250.061	3.52
250.531	3.32
251.001	-0.38
251.471	-1.28
251.94	7.52
252.41	0.92
252.879	-8.18
253.349	5.12
253.818	-2.38
254.288	-0.08
254.757	0.22
255.227	-4.18
255.696	-5.68
256.166	1.32
256.635	3.72
257.105	1.52
257.574	0.12
258.043	-2.38
258.513	-0.78
258.982	3.42
259.451	-5.68
259.92	1.92
260.389	-5.28
260.859	2.52
261.328	3.02
261.797	3.72
262.266	-0.88
262.735	11.62
263.204	1.92
263.673	1.32
264.142	-1.28
264.611	-4.58
265.08	-4.18
265.549	-2.18
266.018	0.72
266.487	-2.38
266.955	-7.48
267.424	-2.98
267.893	-0.78
268.362	-0.48
268.83	0.32
269.299	5.92
269.768	2.92
270.236	6.02
270.705	-1.88
271.174	2.32
271.642	-1.08
272.111	-5.48
272.579	1.72
273.048	5.52
273.516	0.22
273.985	9.42
274.453	6.72
274.922	0.82
275.39	4.22
275.858	-1.88
276.327	5.92
276.795	8.52
277.263	7.22
277.731	6.32
278.2	1.22
278.668	3.72
279.136	6.32
279.604	2.92
280.072	5.12
280.54	3.12
281.008	4.92
281.477	4.42
281.945	0.82
282.413	4.42
282.881	6.42
283.348	0.02
283.816	8.42
284.284	6.82
284.752	15.72
285.22	8.22
285.688	4.72
286.156	8.42
286.623	17.52
287.091	7.12
287.559	11.32
288.026	10.02
288.494	13.02
288.962	2.92
289.429	3.32
289.897	12.32
290.364	5.52
290.832	17.32
291.3	6.92
291.767	12.92
292.234	18.42
292.702	7.72
293.169	10.22
293.637	13.62
294.104	16.12
294.571	-0.28
295.039	4.62
295.506	7.92
295.973	10.82
296.44	5.02
296.908	10.92
297.375	13.02
297.842	16.82
298.309	14.32
298.776	9.72
299.243	7.72
299.71	8.72
300.177	18.82
300.644	15.42
301.111	13.72
301.578	14.22
302.045	9.42
302.512	18.12
302.979	16.32
303.446	15.42
303.913	16.72
304.379	10.52
304.846	20.12
305.313	21.92
305.78	17.12
306.246	15.52
306.713	24.92
307.18	20.92
307.646	24.92
308.113	19.82
308.579	20.82
309.046	26.52
309.512	23.32
309.979	12.92
310.445	24.02
310.912	26.32
311.378	24.32
311.845	23.22
312.311	25.72
312.777	24.32
313.244	27.22
313.71	25.92
314.176	23.12
314.642	18.82
315.109	23.22
315.575	28.32
316.041	29.12
316.507	24.82
316.973	25.12
317.439	26.22
317.905	30.82
318.371	22.62
318.837	24.22
319.303	27.92
319.769	28.42
320.235	24.22
320.701	29.62
321.167	24.52
321.633	28.32
322.099	30.62
322.564	37.52
323.03	26.52
323.496	30.02
323.962	33.82
324.427	28.02
324.893	33.42
325.359	32.12
325.824	26.62
326.29	28.52
326.755	35.62
327.221	33.02
327.686	32.72
328.152	41.42
328.617	35.52
329.083	37.82
329.548	47.62
330.014	35.42
330.479	30.12
330.944	35.42
331.41	37.22
331.875	38.92
332.34	33.62
332.805	35.22
333.271	37.82
333.736	29.02
334.201	37.62
334.666	45.52
335.131	41.62
335.596	43.02
336.061	41.62
336.526	29.42
336.991	40.72
337.456	46.92
337.921	39.82
338.386	35.92
338.851	45.42
339.316	40.02
339.781	39.82
340.246	45.22
340.711	38.82
341.175	43.62
341.64	35.72
342.105	39.92
342.569	46.92
343.034	57.72
343.499	48.32
343.963	45.72
344.428	53.92
344.893	53.62
345.357	50.92
345.822	52.92
346.286	55.32
346.751	57.72
347.215	56.92
347.679	66.32
348.144	80.32
348.608	76.72
349.073	58.52
349.537	65.42
350.001	66.02
350.465	78.32
350.93	67.82
351.394	75.62
351.858	58.72
352.322	80.62
352.786	77.72
353.25	86.92
353.715	99.02
354.179	88.32
354.643	104.02
355.107	110.62
355.571	88.72
356.035	90.12
356.498	93.32
356.962	102.52
357.426	107.82
357.89	98.72
358.354	83.22
358.818	74.82
359.281	71.62
359.745	76.82
360.209	65.82
360.673	64.22
361.136	69.32
361.6	80.02
362.064	66.82
362.527	80.42
362.991	87.12
363.454	73.32
363.918	65.42
364.381	75.32
364.845	75.32
365.308	83.02
365.772	81.32
366.235	83.62
366.698	70.62
367.162	75.72
367.625	76.52
368.088	76.42
368.552	75.42
369.015	86.02
369.478	86.52
369.941	89.92
370.404	87.82
370.867	83.42
371.331	87.22
371.794	96.12
372.257	88.82
372.72	97.32
373.183	88.22
373.646	86.42
374.109	86.52
374.572	93.02
375.035	93.72
375.497	99.62
375.96	99.32
376.423	92.62
376.886	105.92
377.349	97.62
377.811	97.92
378.274	96.22
378.737	102.12
379.199	96.52
379.662	100.42
380.125	102.62
380.587	100.92
381.05	99.72
381.512	106.22
381.975	109.72
382.437	111.22
382.9	105.72
383.362	112.42
383.825	121.62
384.287	117.22
384.75	114.02
385.212	116.82
385.674	121.52
386.136	125.22
386.599	118.32
387.061	113.52
387.523	112.62
387.985	118.72
388.447	120.32
388.91	115.02
389.372	120.52
389.834	124.32
390.296	120.72
390.758	121.52
391.22	129.92
391.682	135.12
392.144	150.02
392.606	139.22
393.068	135.42
393.529	140.02
393.991	131.62
394.453	120.92
394.915	128.02
395.377	126.82
395.838	130.82
396.3	130.22
396.762	134.02
397.224	127.32
397.685	126.32
398.147	119.92
398.608	132.52
399.07	128.42
399.531	134.42
399.993	139.62
400.454	147.42
400.916	142.82
401.377	141.72
401.839	144.22
402.3	148.62
402.762	158.52
403.223	175.02
403.684	161.92
404.145	159.02
404.607	156.62
405.068	160.12
405.529	168.02
405.99	178.42
406.451	163.92
406.913	166.62
407.374	165.52
407.835	156.32
408.296	167.12
408.757	171.12
409.218	173.82
409.679	166.52
410.14	169.02
410.601	174.42
411.062	170.02
411.522	175.12
411.983	166.72
412.444	172.12
412.905	177.92
413.366	183.42
413.826	198.22
414.287	216.02
414.748	258.72
415.208	253.72
415.669	215.32
416.13	209.72
416.59	203.02
417.051	215.62
417.511	223.92
417.972	235.32
418.432	246.42
418.893	296.62
419.353	252.42
419.814	206.32
420.274	184.82
420.734	174.22
421.195	194.72
421.655	189.42
422.115	191.52
422.576	194.92
423.036	200.32
423.496	209.32
423.956	215.82
424.416	230.02
424.876	267.02
425.336	258.02
425.797	263.42
426.257	256.52
426.717	242.02
427.177	230.92
427.637	223.22
428.097	231.62
428.556	241.22
429.016	263.22
429.476	263.82
429.936	262.92
430.396	273.52
430.856	287.12
431.315	311.22
431.775	341.52
432.235	374.92
432.694	344.62
433.154	350.92
433.614	383.52
434.073	323.82
434.533	289.32
434.993	273.52
435.452	284.02
435.912	287.52
436.371	274.92
436.83	274.42
437.29	257.62
437.749	247.62
438.209	244.52
438.668	273.42
439.127	279.22
439.587	267.32
440.046	253.72
440.505	258.52
440.964	279.72
441.424	321.22
441.883	303.72
442.342	265.82
442.801	230.12
443.26	223.32
443.719	228.12
444.178	220.52
444.637	217.32
445.096	226.02
445.555	220.02
446.014	223.92
446.473	236.02
446.932	236.22
447.391	231.52
447.849	235.02
448.308	223.22
448.767	228.42
449.226	240.42
449.685	234.52
450.143	253.92
450.602	248.72
451.061	236.12
451.519	241.62
451.978	235.12
452.436	241.22
452.895	246.42
453.353	260.62
453.812	243.02
454.27	244.82
454.729	241.22
455.187	248.62
455.646	246.42
456.104	257.12
456.562	269.62
457.021	273.42
457.479	267.52
457.937	280.72
458.395	270.12
458.854	256.42
459.312	259.22
459.77	272.12
460.228	265.22
460.686	254.92
461.144	262.52
461.602	250.92
462.06	254.32
462.518	266.42
462.976	271.22
463.434	272.72
463.892	280.22
464.35	286.52
464.808	296.22
465.266	279.62
465.724	281.22
466.181	285.22
466.639	287.22
467.097	295.32
467.555	313.82
468.012	312.62
468.47	316.62
468.928	340.62
469.385	355.22
469.843	356.12
470.3	359.02
470.758	371.72
471.215	391.62
471.673	417.32
472.13	419.42
472.588	426.82
473.045	389.32
473.503	390.52
473.96	409.62
474.417	416.02
474.875	447.32
475.332	479.02
475.789	470.82
476.246	473.92
476.704	498.22
477.161	524.62
477.618	530.72
478.075	573.32
478.532	626.52
478.989	694.02
479.446	814.12
479.903	767.62
480.36	799.42
480.817	848.02
481.274	938.92
481.731	1034.42
482.188	1113.42
482.645	1241.22
483.102	1328.62
483.558	1455.02
484.015	1486.32
484.472	1458.62
484.929	1408.32
485.385	1367.62
485.842	1340.72
486.299	1282.42
486.755	1260.32
487.212	1068.92
487.668	913.62
488.125	848.02
488.582	781.82
489.038	758.92
489.494	721.62
489.951	697.52
490.407	672.52
490.864	664.12
491.32	651.42
491.776	655.22
492.233	667.22
492.689	635.92
493.145	629.52
493.602	626.12
494.058	633.32
494.514	637.22
494.97	667.42
495.426	666.72
495.882	643.52
496.338	636.72
496.794	649.52
497.251	642.92
497.707	660.72
498.163	656.52
498.618	659.22
499.074	670.42
499.53	692.72
499.986	687.72
500.442	670.42
500.898	646.72
501.354	643.72
501.809	649.92
502.265	653.12
502.721	642.12
503.177	662.82
503.632	662.62
504.088	664.32
504.543	694.52
504.999	709.42
505.455	684.52
505.91	654.92
506.366	660.42
506.821	664.82
507.277	660.62
507.732	661.72
508.187	654.12
508.643	660.42
509.098	666.12
509.553	683.22
510.009	695.22
510.464	701.72
510.919	726.92
511.375	723.82
511.83	738.22
512.285	759.92
512.74	793.32
513.195	809.72
513.65	800.52
514.105	796.12
514.56	800.32
515.015	815.12
515.47	834.72
515.925	814.32
516.38	824.12
516.835	819.02
517.29	806.22
517.745	806.02
518.2	800.62
518.655	791.12
519.109	786.22
519.564	780.92
520.019	772.12
520.474	754.52
520.928	754.02
521.383	753.42
521.838	741.52
522.292	742.92
522.747	748.32
523.201	735.12
523.656	729.92
524.11	716.92
524.565	714.92
525.019	725.12
525.474	723.72
525.928	727.62
526.382	721.12
526.837	735.22
527.291	740.82
527.745	727.52
528.2	732.62
528.654	726.12
529.108	707.92
529.562	722.52
530.016	712.02
530.47	721.12
530.925	724.02
531.379	721.42
531.833	737.32
532.287	731.42
532.741	728.12
533.195	731.32
533.649	744.92
534.103	745.22
534.556	737.82
535.01	738.52
535.464	733.52
535.918	759.02
536.372	752.52
536.826	752.42
537.279	734.52
537.733	742.52
538.187	744.62
538.64	739.42
539.094	753.72
539.548	767.82
540.001	765.42
540.455	761.02
540.908	765.92
541.362	764.02
541.815	785.62
542.269	788.82
542.722	796.32
543.175	807.52
543.629	806.82
544.082	824.62
544.536	821.52
544.989	820.32
545.442	839.62
545.895	840.72
546.349	835.02
546.802	833.42
547.255	842.22
547.708	846.12
548.161	858.72
548.614	855.92
549.067	863.72
549.52	861.42
549.973	846.82
550.426	848.72
550.879	838.92
551.332	839.82
551.785	850.52
552.238	845.12
552.691	855.32
553.144	881.82
553.596	897.42
554.049	907.52
554.502	936.62
554.955	950.62
555.407	943.72
555.86	936.82
556.313	935.12
556.765	935.72
557.218	917.12
557.67	934.62
558.123	924.82
558.576	918.42
559.028	935.72
559.48	918.02
559.933	917.82
560.385	877.82
560.838	849.22
561.29	829.52
561.742	816.82
562.195	815.22
562.647	808.52
563.099	809.82
563.551	814.72
564.004	829.02
564.456	812.42
564.908	808.62
565.36	785.82
565.812	769.12
566.264	763.92
566.716	752.02
567.168	733.82
567.62	742.12
568.072	734.52
568.524	724.02
568.976	717.92
569.428	706.72
569.88	717.32
570.332	714.62
570.784	710.82
571.235	728.72
571.687	728.72
572.139	732.02
572.59	753.72
573.042	751.12
573.494	737.82
573.945	735.42
574.397	727.22
574.849	720.42
575.3	727.62
575.752	714.02
576.203	706.72
576.655	714.22
577.106	707.42
577.557	702.02
578.009	704.32
578.46	700.92
578.912	709.82
579.363	701.02
579.814	693.52
580.265	688.12
580.717	698.32
581.168	697.62
581.619	698.42
582.07	719.52
582.521	714.32
582.972	692.82
583.423	699.62
583.875	696.52
584.326	710.52
584.777	727.82
585.227	749.22
585.678	760.12
586.129	774.02
586.58	787.52
587.031	821.42
587.482	847.52
587.933	862.82
588.384	853.82
588.834	827.32
589.285	812.12
589.736	803.02
590.186	796.52
590.637	795.62
591.088	774.12
591.538	766.92
591.989	765.62
592.439	757.42
592.89	748.22
593.34	734.22
593.791	740.32
594.241	734.22
594.692	735.02
595.142	727.92
595.593	729.02
596.043	737.22
596.493	737.22
596.943	735.52
597.394	754.02
597.844	745.92
598.294	769.62
598.744	787.02
599.195	805.12
599.645	858.32
600.095	892.22
600.545	960.92
600.995	1011.52
601.445	1062.82
601.895	1129.62
602.345	1177.52
602.795	1168.62
603.245	1126.42
603.695	1065.32
604.145	1008.52
604.594	952.12
605.044	903.32
605.494	839.52
605.944	789.22
606.393	779.82
606.843	757.02
607.293	756.22
607.743	749.72
608.192	760.62
608.642	786.32
609.091	785.02
609.541	790.42
609.99	781.62
610.44	781.62
610.889	743.52
611.339	714.02
611.788	714.42
612.238	717.62
612.687	728.92
613.136	721.92
613.586	737.32
614.035	723.22
614.484	742.42
614.933	741.12
615.383	736.42
615.832	736.52
616.281	726.62
616.73	699.72
617.179	687.62
617.628	668.92
618.077	650.02
618.526	637.62
618.975	629.92
619.424	633.92
619.873	636.42
620.322	647.12
620.771	637.42
621.22	631.12
621.669	618.52
622.118	611.52
622.567	602.72
623.015	584.32
623.464	592.02
623.913	584.22
624.361	574.12
624.81	581.82
625.259	572.72
625.707	568.32
626.156	576.82
626.604	590.52
627.053	588.32
627.501	584.32
627.95	588.62
628.398	597.72
628.847	595.42
629.295	592.42
629.744	602.32
630.192	595.72
630.64	581.22
631.089	567.12
631.537	553.42
631.985	547.52
632.433	559.02
632.881	545.32
633.33	551.22
633.778	547.62
634.226	541.72
634.674	553.12
635.122	554.32
635.57	567.12
636.018	581.32
636.466	589.32
636.914	579.22
637.362	601.72
637.81	605.62
638.258	587.02
638.705	597.72
639.153	633.92
639.601	645.22
640.049	663.72
640.497	704.72
640.944	714.82
641.392	653.92
641.84	621.32
642.287	596.32
642.735	585.92
643.182	587.92
643.63	578.32
644.078	577.82
644.525	595.32
644.973	606.52
645.42	615.22
645.867	628.92
646.315	646.12
646.762	663.32
647.21	696.22
647.657	716.42
648.104	754.62
648.551	766.62
648.999	841.72
649.446	910.72
649.893	993.02
650.34	1130.52
650.787	1342.82
651.234	1658.52
651.682	2137.32
652.129	2872.42
652.576	4099.12
653.023	5957.72
653.47	8089.72
653.917	10049.92
654.363	11612.82
654.81	12740.92
655.257	12104.82
655.704	8041.82
656.151	4837.02
656.598	3171.32
657.044	2288.52
657.491	1764.52
657.938	1438.02
658.385	1203.52
658.831	1047.72
659.278	944.82
659.724	853.02
660.171	787.92
660.618	718.72
661.064	688.32
661.511	669.72
661.957	661.02
662.404	637.92
662.85	659.22
663.296	634.92
663.743	574.22
664.189	551.42
664.635	544.02
665.082	538.22
665.528	545.22
665.974	534.52
666.42	522.62
666.867	513.22
667.313	488.42
667.759	482.52
668.205	471.42
668.651	471.72
669.097	467.22
669.543	450.52
669.989	458.82
670.435	463.72
670.881	454.82
671.327	466.22
671.773	494.52
672.219	507.52
672.665	568.42
673.11	605.22
673.556	660.62
674.002	689.82
674.448	674.72
674.893	572.12
675.339	494.02
675.785	457.62
676.23	435.82
676.676	409.72
677.122	406.12
677.567	381.82
678.013	383.42
678.458	368.22
678.904	373.82
679.349	365.82
679.794	369.32
680.24	366.62
680.685	363.12
681.131	359.82
681.576	361.42
682.021	367.62
682.466	362.42
682.912	365.12
683.357	364.52
683.802	389.92
684.247	430.82
684.692	474.22
685.137	514.92
685.583	555.72
686.028	591.82
686.473	538.32
686.918	471.42
687.363	424.62
687.807	407.22
688.252	379.62
688.697	373.62
689.142	355.22
689.587	344.12
690.032	343.12
690.477	354.82
690.921	361.82
691.366	396.22
691.811	413.62
692.255	442.52
692.7	478.22
693.145	519.52
693.589	728.42
694.034	1185.02
694.478	1599.42
694.923	1818.02
695.367	2355.02
695.812	1238.22
696.256	512.32
696.701	383.62
697.145	349.22
697.59	332.82
698.034	331.32
698.478	334.52
698.922	335.32
699.367	326.42
699.811	351.82
700.255	362.72
700.699	402.42
701.143	436.02
701.588	485.22
702.032	536.32
702.476	529.72
702.92	516.62
703.364	510.72
703.808	677.42
704.252	1093.12
704.696	1528.22
705.14	1744.22
705.584	2218.82
706.027	1119.02
706.471	548.92
706.915	415.22
707.359	368.82
707.803	336.02
708.246	323.52
708.69	322.42
709.134	328.62
709.577	324.52
710.021	326.72
710.465	321.32
710.908	313.32
711.352	311.92
711.795	330.22
712.239	361.22
712.682	399.82
713.126	428.02
713.569	464.32
714.012	372.02
714.456	318.02
714.899	298.42
715.342	285.82
715.786	272.02
716.229	269.32
716.672	271.82
717.115	266.72
717.558	264.42
718.002	260.52
718.445	270.32
718.888	293.82
719.331	304.22
719.774	319.62
720.217	314.82
720.66	296.92
721.103	269.92
721.546	258.62
721.989	264.32
722.432	248.92
722.874	244.22
723.317	236.82
723.76	244.22
724.203	258.62
724.645	325.42
725.088	457.42
725.531	588.02
725.974	671.72
726.416	565.72
726.859	323.62
727.301	253.32
727.744	244.32
728.187	232.02
728.629	246.12
729.071	248.12
729.514	270.32
729.956	280.92
730.399	296.02
730.841	300.12
731.283	284.12
731.726	276.42
732.168	272.32
732.61	277.72
733.053	297.62
733.495	323.12
733.937	373.22
734.379	419.62
734.821	459.82
735.263	573.52
735.705	886.82
736.148	1657.32
736.59	2716.62
737.032	3194.12
737.474	2599.72
737.916	847.52
738.357	440.82
738.799	345.82
739.241	309.42
739.683	299.32
740.125	294.12
740.567	306.22
741.008	329.82
741.45	328.32
741.892	324.62
742.334	370.82
742.775	372.32
743.217	363.22
743.658	278.82
744.1	265.72
744.542	280.42
744.983	337.82
745.425	367.42
745.866	358.12
746.307	291.52
746.749	289.22
747.19	336.52
747.632	482.12
748.073	930.62
748.514	1955.12
748.956	2989.12
749.397	3773.52
749.838	3119.12
750.279	3102.42
750.72	1570.82
751.162	578.92
751.603	341.22
752.044	270.82
752.485	224.42
752.926	217.12
753.367	210.12
753.808	204.12
754.249	202.92
754.69	192.92
755.131	191.22
755.572	183.02
756.013	183.12
756.453	187.22
756.894	194.82
757.335	197.62
757.776	211.22
758.216	211.32
758.657	205.32
759.098	213.02
759.538	244.72
759.979	279.02
760.42	387.22
760.86	746.02
761.301	1942.32
761.741	4702.92
762.182	6727.62
762.622	4743.12
763.063	1376.22
763.503	559.02
763.943	336.62
764.384	285.02
764.824	245.92
765.264	241.82
765.705	209.02
766.145	191.92
766.585	180.02
767.025	170.12
767.465	166.72
767.906	186.72
768.346	198.42
768.786	210.92
769.226	222.42
769.666	314.82
770.106	654.62
770.546	1634.22
770.986	2757.52
771.426	2472.42
771.866	829.72
772.306	343.32
772.745	213.12
773.185	174.52
773.625	163.22
774.065	156.82
774.505	168.42
774.944	209.62
775.384	376.32
775.824	603.42
776.263	580.02
776.703	287.42
777.142	159.02
777.582	135.72
778.021	122.02
778.461	123.62
778.9	126.62
779.34	128.72
779.779	116.42
780.219	110.72
780.658	112.02
781.097	113.62
781.537	112.12
781.976	113.32
782.415	106.52
782.855	104.72
783.294	107.82
783.733	113.72
784.172	111.72
784.611	101.82
785.05	111.62
785.489	120.62
785.928	123.32
786.367	120.72
786.806	111.22
787.245	132.52
787.684	144.32
788.123	153.22
788.562	137.02
789.001	134.72
789.44	134.62
789.879	118.92
790.317	123.22
790.756	133.92
791.195	141.12
791.634	154.82
792.072	213.22
792.511	384.62
792.95	1057.72
793.388	2207.92
793.827	1992.42
794.265	694.62
794.704	297.02
795.142	185.92
795.581	154.92
796.019	142.42
796.458	133.52
796.896	130.12
797.334	135.62
797.773	167.92
798.211	225.82
798.649	463.02
799.087	1072.92
799.526	1684.52
799.964	2119.72
800.402	2101.12
800.84	795.32
801.278	316.02
801.716	193.42
802.154	163.72
802.592	154.52
803.03	150.12
803.468	136.32
803.906	149.82
804.344	150.82
804.782	151.02
805.22	140.52
805.658	143.62
806.096	155.62
806.533	160.12
806.971	181.12
807.409	227.62
807.847	333.22
808.284	703.52
808.722	1975.92
809.16	3470.92
809.597	3306.02
810.035	5708.52
810.472	6094.22
810.91	2201.52
811.347	836.42
811.785	428.22
812.222	269.42
812.66	201.02
813.097	175.72
813.535	149.92
813.972	136.62
814.409	133.52
814.846	111.52
815.284	115.82
815.721	103.22
816.158	108.62
816.595	114.12
817.032	158.52
817.47	184.02
817.907	146.32
818.344	107.32
818.781	100.62
819.218	100.62
819.655	127.92
820.092	197.12
820.529	220.12
820.966	179.72
821.403	135.02
821.839	105.62
822.276	100.72
822.713	119.72
823.15	145.72
823.587	116.32
824.023	151.02
824.46	317.92
824.897	945.82
825.333	1409.12
825.77	614.42
826.206	241.22
826.643	138.52
827.08	106.52
827.516	89.02
827.953	76.12
828.389	76.22
828.825	72.12
829.262	70.92
829.698	64.42
830.135	62.52
830.571	62.72
831.007	68.12
831.443	63.62
831.88	60.62
832.316	68.62
832.752	64.12
833.188	68.12
833.624	68.22
834.06	69.72
834.497	65.92
834.933	72.32
835.369	74.22
835.805	67.72
836.241	79.52
836.677	82.02
837.112	94.72
837.548	111.82
837.984	140.32
838.42	209.32
838.856	523.52
839.292	1598.22
839.727	2400.32
840.163	1130.22
840.599	973.42
841.034	2139.72
841.47	2235.12
841.906	812.32
842.341	342.42
842.777	202.32
843.212	209.42
843.648	193.42
844.083	116.92
844.519	90.92
844.954	77.42
845.39	59.42
845.825	57.72
846.261	56.22
846.696	56.22
847.131	57.02
847.566	64.32
848.002	54.62
848.437	51.92
848.872	60.72
849.307	68.42
849.742	88.32
850.177	186.52
850.613	574.72
851.048	909.72
851.483	399.12
851.918	160.92
852.353	85.12
852.788	50.42
853.223	54.42
853.657	49.82
854.092	47.82
854.527	41.82
854.962	37.82
855.397	39.02
855.832	47.12
856.266	37.82
856.701	37.52
857.136	33.92
857.57	43.92
858.005	51.42
858.44	61.42
858.874	43.52
859.309	56.32
859.743	41.22
860.178	44.82
860.612	44.82
861.047	56.02
861.481	71.62
861.915	82.12
862.35	47.32
862.784	30.02
863.218	41.92
863.653	35.72
864.087	49.32
864.521	54.62
864.955	70.42
865.39	163.02
865.824	186.82
866.258	130.12
866.692	177.52
867.126	194.02
867.56	112.92
867.994	61.32
868.428	42.52
868.862	47.92
869.296	56.02
869.73	60.22
870.164	57.62
870.598	53.12
871.031	43.62
871.465	30.62
871.899	34.52
872.333	23.02
872.766	24.52
873.2	31.72
873.634	31.52
874.067	22.82
874.501	24.82
874.935	36.42
875.368	37.72
875.802	25.52
876.235	24.12
876.669	25.62
877.102	23.22
877.535	25.92
877.969	20.12
878.402	23.22
878.836	18.52
879.269	22.22
879.702	26.12
880.135	23.92
880.569	25.62
881.002	26.92
881.435	21.62
881.868	22.32
882.301	23.72
882.734	14.62
883.167	23.52
883.601	20.52
884.034	20.52
884.467	11.82
884.899	27.22
885.332	12.32
885.765	15.52
886.198	11.22
886.631	18.32
887.064	21.92
887.497	18.12
887.929	23.02
888.362	10.92
888.795	18.42
889.228	19.02
889.66	15.62
890.093	14.42
890.526	17.52
890.958	9.22
891.391	19.22
891.823	21.82
892.256	17.42
892.688	14.42
893.121	17.12
893.553	18.12
893.985	20.32
894.418	17.42
894.85	14.22
895.282	17.72
895.715	13.32
896.147	13.72
896.579	13.22
897.011	14.42
897.444	24.92
897.876	12.82
898.308	20.12
898.74	11.82
899.172	19.82
899.604	19.72
900.036	20.72
900.468	15.22
900.9	12.62
901.332	17.82
901.764	12.82
902.196	19.22
902.628	12.92
903.06	18.42
903.491	25.82
903.923	23.42
904.355	20.72
904.787	28.32
905.218	22.02
905.65	25.92
906.082	9.72
906.513	17.22
906.945	15.12
907.376	10.02
907.808	24.62
908.239	25.22
908.671	14.12
909.102	20.92
909.534	27.32
909.965	47.42
910.397	92.72
910.828	321.82
911.259	487.82
911.691	223.62
912.122	115.72
912.553	60.12
912.984	35.72
913.415	28.82
913.847	25.02
914.278	15.02
914.709	14.32
915.14	26.82
915.571	14.42
916.002	17.62
916.433	18.62
916.864	15.62
917.295	16.52
917.726	23.12
918.157	19.32
918.587	24.02
919.018	17.52
919.449	19.12
919.88	20.92
920.311	30.82
920.741	51.02
921.172	167.72
921.603	151.32
922.033	72.82
922.464	48.72
922.895	22.42
923.325	24.92
923.756	12.62
924.186	13.62
924.617	19.22
925.047	19.32
925.478	23.52
925.908	22.22
926.338	13.92
926.769	17.02
927.199	18.32
927.629	8.62
928.06	16.52
928.49	11.42
928.92	13.72
929.35	10.42
929.78	11.72
930.21	2.02
930.641	4.52
931.071	5.12
931.501	3.22
931.931	5.72
932.361	9.82
932.791	-1.38
933.221	2.32
933.651	8.42
934.08	21.12
934.51	31.52
934.94	11.02
935.37	9.52
935.8	7.72
936.229	7.42
936.659	8.22
937.089	-1.68
937.519	15.42
937.948	27.82
938.378	23.02
938.807	2.02
939.237	3.22
939.666	4.32
940.096	-9.78
940.525	4.02
940.955	0.12
941.384	6.12
941.814	-7.98
942.243	-1.28
942.672	4.42
943.102	-1.28
943.531	8.62
943.96	7.82
944.39	7.62
944.819	0.22
945.248	8.12
945.677	0.92
946.106	3.82
946.535	1.62
946.964	-3.48
947.393	-0.38
947.822	0.72
948.251	-9.48
948.68	-0.38
949.109	2.82
949.538	0.92
949.967	3.92
950.396	-4.78
950.825	-1.78
951.254	-5.08
951.682	-5.78
952.111	8.22
952.54	6.12
952.969	-2.48
953.397	-2.38
953.826	-2.18
954.254	-4.38
954.683	-5.98
955.112	-6.08
955.54	-3.18
955.969	1.62
956.397	1.92
956.826	-7.78
957.254	3.02
957.682	1.32
958.111	4.72
958.539	-2.98
958.967	1.42
959.396	-2.08
959.824	1.82
960.252	1.52
960.68	-2.28
961.109	-6.38
961.537	-8.08
961.965	0.12
962.393	-3.48
962.821	-3.98
963.249	-2.88
963.677	3.42
964.105	6.32
964.533	42.92
964.961	42.82
965.389	20.22
965.817	2.02
966.245	-0.88
966.672	-1.28
967.1	-2.08
967.528	1.02
967.956	2.52
968.383	4.62
968.811	-1.98
969.239	-1.88
969.666	-3.48
970.094	-2.18
970.522	-2.68
970.949	-3.68
971.377	-7.48
971.804	-6.18
972.232	-6.98
972.659	-5.38
973.087	-7.78
973.514	-10.08
973.941	-1.08
974.369	4.52
974.796	-4.88
975.223	2.92
975.651	-2.98
976.078	3.12
976.505	-1.28
976.932	7.92
977.359	13.42
977.786	13.52
978.214	7.02
978.641	1.42
979.068	-0.18
979.495	-6.68
979.922	-1.78
980.349	-0.18
980.776	1.92
981.202	-3.78
981.629	-1.08
982.056	3.72
982.483	-3.98
982.91	0.02
983.337	-5.58
983.763	0.32
984.19	-2.78
984.617	-6.88
985.043	-1.38
985.47	-1.48
985.897	-8.08
986.323	-9.68
986.75	1.92
987.176	-5.48
987.603	-3.88
988.029	-1.48
988.456	-7.98
988.882	0.42
989.308	-4.78
989.735	-4.78
990.161	-4.68
990.587	-6.18
991.014	-0.78
991.44	9.02
991.866	-0.28
992.292	-5.68
992.719	-3.88
993.145	6.22
993.571	-7.38
993.997	-4.98
994.423	-0.58
994.849	-6.68
995.275	3.22
995.701	-2.18
996.127	-3.18
996.553	3.72
996.979	-2.98
997.405	-5.68
997.83	0.32
998.256	-6.78
998.682	-9.18
999.108	-4.18
999.534	-2.18
999.959	1.42
1000.385	-4.78
1000.811	4.42
1001.236	-8.68
1001.662	-6.78
1002.087	-13.48
1002.513	-4.48
1002.938	0.42
1003.364	-11.68
1003.789	-1.28
1004.215	3.42
1004.64	-5.08
1005.066	0.62
1005.491	2.82
1005.916	-1.08
1006.342	-2.88
1006.767	-2.88
1007.192	6.22
1007.617	-2.08
1008.042	-8.18
1008.468	-9.88
1008.893	-4.58
1009.318	-8.48
1009.743	-1.58
1010.168	5.32
1010.593	-0.68
1011.018	-4.38
1011.443	-7.88
1011.868	-2.08
1012.293	-4.78
1012.718	-4.68
1013.143	-9.28
1013.567	-2.28
1013.992	0.52
1014.417	-13.38
1014.842	-0.98
1015.267	-12.18
1015.691	-7.18
1016.116	11.22
1016.541	4.82
1016.965	0.02
1017.39	-1.48
1017.814	-3.08
1018.239	-3.98
1018.663	-7.98
1019.088	-10.88
1019.512	-5.58
1019.937	-4.48
1020.361	-4.28
1020.785	-13.88
1021.21	0.42
1021.634	-1.88
1022.058	1.22
1022.483	0.52
1022.907	-2.68
1023.331	-10.68
1023.755	-3.88
1024.179	-0.18
1024.604	-7.08
1025.028	-4.38
1025.452	-7.38
1025.876	0.22
1026.3	-2.48
1026.724	-11.88
1027.148	-3.58
1027.572	-6.28
1027.996	-3.58
1028.42	-3.48
1028.843	-6.58
1029.267	-7.08
1029.691	1.62
1030.115	-9.68
1030.539	-7.38
1030.962	-9.78
1031.386	-8.68
1031.81	6.42
1032.233	-4.28
1032.657	3.52
1033.08	-0.58
1033.504	-3.48
1033.927	-2.08
1034.351	0.62
1034.774	-5.68
1035.198	-0.98
1035.621	-8.18
1036.045	-2.18
1036.468	-0.88
1036.891	-12.68
1037.315	-5.58
1037.738	-6.98
1038.161	-1.68
1038.584	-5.18
1039.008	-8.08
1039.431	-4.48
1039.854	-4.78
1040.277	-4.08
1040.7	-11.68
1041.123	-4.88
1041.546	-4.18
1041.969	-7.38
1042.392	-9.18
1042.815	-2.18
1043.238	-2.18
1043.661	-1.78
1044.084	-6.38
1044.507	-7.18
1044.93	-4.38
1045.352	-7.98
1045.775	0.32
1046.198	-3.28
1046.621	-4.48
1047.043	-2.78
1047.466	6.32
1047.889	0.22
1048.311	-12.58
1048.734	-1.28
1049.156	-1.18
1049.579	-2.08
1050.001	-9.58
1050.424	0.02
1050.846	-4.48
1051.269	-3.98
1051.691	-10.48
1052.113	-8.58
1052.536	0.22
1052.958	0.72
1053.38	-10.98
1053.802	-9.58
1054.225	-0.98
1054.647	-15.68
1055.069	-4.58
1055.491	1.92
1055.913	-11.28
1056.335	-4.58
1056.757	-3.78
1057.179	-14.68
1057.601	-7.58
1058.023	-5.38
1058.445	-9.08
1058.867	-3.48
1059.289	-6.18
1059.711	-10.38
1060.133	-1.88
1060.555	-10.18
1060.976	-6.38
1061.398	-8.38
1061.82	-6.68
1062.241	-0.68
1062.663	-13.48
1063.085	-11.78
1063.506	-4.88
1063.928	-6.58
1064.35	-2.08
1064.771	-10.18
1065.193	-3.68
1065.614	-8.98
1066.035	-2.58
1066.457	-4.58
1066.878	2.12
1067.3	-3.78
1067.721	-6.78
1068.142	-3.88
1068.564	1.02
1068.985	-8.68
1069.406	-2.98
1069.827	-10.08
1070.248	-7.58
1070.67	-7.08
1071.091	-8.38
1071.512	-5.18
1071.933	-7.98
1072.354	-7.28
1072.775	-9.98
1073.196	-6.88
1073.617	-9.08
1074.038	-4.58
1074.459	-2.98
1074.88	-12.08
1075.3	-3.68
1075.721	-11.28
1076.142	-2.48
1076.563	-4.98
1076.983	-8.58
1077.404	-3.28
1077.825	-8.58
1078.246	-3.18
1078.666	-13.48
1079.087	-3.98
1079.507	-4.18
1079.928	-1.78
1080.348	-4.18
1080.769	-8.18
1081.189	-13.78
1081.61	-8.48
1082.03	-9.18
1082.451	-3.18
1082.871	-6.98
1083.291	-5.58
1083.711	-10.58
1084.132	0.82
1084.552	-5.18
1084.972	-2.68
1085.392	-12.98
1085.813	-13.68
1086.233	-6.88
1086.653	-7.78
1087.073	-5.68
1087.493	-7.08
1087.913	-10.48
1088.333	-10.28
1088.753	-4.18
1089.173	0.22
1089.593	-5.88
1090.013	-1.18
1090.433	-1.08
1090.852	-7.58
1091.272	-1.78
1091.692	1.62
1092.112	0.12
1092.531	-11.98
1092.951	-6.78
1093.371	-3.48
1093.79	2.42
1094.21	-6.08
1094.63	-11.08
1095.049	-5.08
1095.469	-1.18
1095.888	0.72
1096.308	-3.08
1096.727	-2.08
1097.146	-8.38
1097.566	-4.18
1097.985	-9.08
1098.405	-4.78
1098.824	-6.98
1099.243	-5.08
1099.662	-11.08
1100.082	-12.18
1100.501	0.22
1100.92	-10.88
1101.339	-8.68
1101.758	-10.68
