Data from 20171114-ORNL-Ar_H_NY_Subt18_08-06-16-093.txt Node
Date: Tue Nov 14 08:06:16 EST 2017
User: Ender
Spectrometer: HR+D1039
Trigger mode: 0
Integration Time (sec): 2.730000E-2
Scans to average: 10
Electric dark correction enabled: true
Nonlinearity correction enabled: false
Boxcar width: 0
XAxis mode: Wavelengths
Number of Pixels in Spectrum: 2048
>>>>>Begin Spectral Data<<<<<
187.836	-6.08
188.309	-6.08
188.782	-6.08
189.255	-3.08
189.728	-0.88
190.201	5.72
190.674	0.22
191.147	5.22
191.619	1.12
192.092	0.82
192.565	3.52
193.038	-2.88
193.511	2.02
193.984	-2.28
194.456	1.02
194.929	1.82
195.402	-4.48
195.874	-1.78
196.347	0.02
196.82	-6.88
197.292	7.52
197.765	-3.38
198.237	-5.98
198.71	-1.18
199.182	-5.88
199.655	1.72
200.127	5.32
200.6	-2.88
201.072	-1.98
201.544	-2.98
202.017	-2.48
202.489	4.42
202.961	-4.88
203.433	-3.08
203.906	-8.68
204.378	-2.88
204.85	-0.58
205.322	-6.38
205.794	8.12
206.266	-1.78
206.739	-8.18
207.211	2.02
207.683	-12.18
208.155	-2.88
208.627	-6.68
209.099	0.52
209.57	-9.68
210.042	-3.48
210.514	-1.48
210.986	-0.08
211.458	-8.98
211.93	-3.18
212.402	3.52
212.873	-6.38
213.345	-8.88
213.817	-6.78
214.288	-5.78
214.76	-11.08
215.232	0.62
215.703	-0.48
216.175	-0.98
216.646	-7.68
217.118	-4.08
217.589	-7.38
218.061	-0.08
218.532	-1.58
219.004	-7.18
219.475	-0.58
219.946	-6.18
220.418	-11.48
220.889	5.42
221.36	3.02
221.832	1.42
222.303	-5.58
222.774	1.22
223.245	-7.78
223.717	-4.08
224.188	-8.28
224.659	-1.88
225.13	-9.58
225.601	-3.68
226.072	3.72
226.543	4.52
227.014	4.22
227.485	-0.48
227.956	-2.38
228.427	-1.68
228.898	1.22
229.369	-1.78
229.839	-6.68
230.31	-9.08
230.781	8.82
231.252	-5.78
231.722	-3.48
232.193	2.62
232.664	-2.58
233.135	4.62
233.605	0.62
234.076	-9.28
234.546	4.12
235.017	3.22
235.487	2.82
235.958	-7.28
236.428	-1.88
236.899	8.22
237.369	5.32
237.84	-1.38
238.31	5.22
238.78	6.22
239.251	1.42
239.721	2.72
240.191	-3.28
240.662	-3.28
241.132	3.12
241.602	1.32
242.072	-0.28
242.542	7.42
243.013	1.22
243.483	1.92
243.953	3.82
244.423	-0.98
244.893	-4.58
245.363	-2.98
245.833	-1.18
246.303	2.42
246.773	3.22
247.243	1.92
247.712	0.92
248.182	8.82
248.652	6.82
249.122	2.32
249.592	8.72
250.061	23.82
250.531	33.12
251.001	16.82
251.471	23.62
251.94	16.82
252.41	10.42
252.879	1.72
253.349	13.62
253.818	6.82
254.288	6.32
254.757	6.92
255.227	5.42
255.696	8.82
256.166	-0.78
256.635	5.92
257.105	8.42
257.574	2.42
258.043	8.62
258.513	10.42
258.982	21.22
259.451	6.32
259.92	13.62
260.389	12.22
260.859	15.12
261.328	12.02
261.797	16.92
262.266	4.42
262.735	13.22
263.204	10.02
263.673	2.92
264.142	9.62
264.611	-2.48
265.08	0.02
265.549	2.12
266.018	7.02
266.487	-3.28
266.955	4.72
267.424	1.32
267.893	5.72
268.362	-2.88
268.83	5.62
269.299	9.02
269.768	7.22
270.236	9.92
270.705	5.82
271.174	11.22
271.642	9.62
272.111	1.12
272.579	15.32
273.048	21.82
273.516	35.82
273.985	32.82
274.453	26.22
274.922	23.22
275.39	12.32
275.858	-0.68
276.327	10.42
276.795	17.52
277.263	9.22
277.731	29.82
278.2	57.32
278.668	59.22
279.136	48.22
279.604	22.42
280.072	9.62
280.54	16.42
281.008	10.52
281.477	20.32
281.945	13.32
282.413	8.32
282.881	22.82
283.348	10.92
283.816	16.12
284.284	16.52
284.752	23.42
285.22	12.32
285.688	20.82
286.156	20.12
286.623	46.92
287.091	53.72
287.559	32.52
288.026	17.72
288.494	17.52
288.962	4.22
289.429	13.22
289.897	23.72
290.364	13.72
290.832	19.32
291.3	16.12
291.767	18.02
292.234	15.52
292.702	18.72
293.169	24.92
293.637	22.42
294.104	14.32
294.571	9.62
295.039	19.02
295.506	14.02
295.973	18.32
296.44	14.52
296.908	18.02
297.375	19.62
297.842	17.62
298.309	19.82
298.776	11.52
299.243	21.32
299.71	12.42
300.177	22.12
300.644	19.52
301.111	22.12
301.578	26.32
302.045	14.42
302.512	32.72
302.979	27.62
303.446	21.12
303.913	19.62
304.379	15.02
304.846	18.72
305.313	23.12
305.78	26.92
306.246	25.72
306.713	28.22
307.18	30.02
307.646	27.12
308.113	31.92
308.579	25.92
309.046	28.82
309.512	30.92
309.979	22.82
310.445	26.32
310.912	34.82
311.378	38.52
311.845	35.42
312.311	31.52
312.777	36.32
313.244	31.72
313.71	36.72
314.176	32.02
314.642	35.82
315.109	38.12
315.575	38.12
316.041	38.62
316.507	37.52
316.973	45.42
317.439	36.22
317.905	34.72
318.371	32.12
318.837	33.02
319.303	32.92
319.769	36.32
320.235	33.12
320.701	36.52
321.167	43.12
321.633	32.42
322.099	43.42
322.564	43.12
323.03	46.52
323.496	42.02
323.962	41.12
324.427	39.52
324.893	42.02
325.359	42.42
325.824	38.42
326.29	40.22
326.755	39.52
327.221	40.62
327.686	40.52
328.152	46.82
328.617	44.92
329.083	48.52
329.548	51.82
330.014	51.92
330.479	43.12
330.944	39.52
331.41	42.92
331.875	54.42
332.34	47.32
332.805	45.22
333.271	50.32
333.736	47.82
334.201	54.82
334.666	52.62
335.131	56.22
335.596	54.92
336.061	56.12
336.526	43.32
336.991	48.72
337.456	58.12
337.921	52.42
338.386	49.12
338.851	46.12
339.316	53.82
339.781	48.42
340.246	51.82
340.711	49.72
341.175	50.92
341.64	39.32
342.105	48.92
342.569	55.12
343.034	65.02
343.499	57.82
343.963	54.92
344.428	65.12
344.893	68.12
345.357	57.32
345.822	63.22
346.286	71.32
346.751	81.32
347.215	75.22
347.679	78.02
348.144	102.92
348.608	88.82
349.073	73.32
349.537	76.32
350.001	84.62
350.465	90.22
350.93	79.02
351.394	82.32
351.858	74.82
352.322	85.82
352.786	90.02
353.25	98.92
353.715	113.22
354.179	99.32
354.643	118.12
355.107	129.32
355.571	113.62
356.035	105.52
356.498	124.52
356.962	124.62
357.426	131.82
357.89	116.82
358.354	92.62
358.818	88.32
359.281	78.82
359.745	81.82
360.209	81.62
360.673	81.92
361.136	78.72
361.6	88.62
362.064	86.02
362.527	84.32
362.991	93.02
363.454	80.62
363.918	79.92
364.381	80.42
364.845	86.62
365.308	84.82
365.772	87.52
366.235	88.22
366.698	84.02
367.162	91.22
367.625	95.12
368.088	99.42
368.552	91.02
369.015	89.82
369.478	97.32
369.941	97.92
370.404	97.62
370.867	104.12
371.331	112.12
371.794	120.42
372.257	118.12
372.72	121.02
373.183	113.22
373.646	109.82
374.109	107.82
374.572	108.72
375.035	105.62
375.497	111.32
375.96	111.92
376.423	104.92
376.886	110.22
377.349	115.22
377.811	104.82
378.274	111.52
378.737	106.92
379.199	111.92
379.662	112.42
380.125	121.72
380.587	126.42
381.05	123.02
381.512	132.32
381.975	139.62
382.437	133.62
382.9	138.72
383.362	139.62
383.825	145.82
384.287	151.42
384.75	144.72
385.212	150.12
385.674	151.62
386.136	143.42
386.599	122.52
387.061	141.62
387.523	135.62
387.985	142.32
388.447	150.62
388.91	146.12
389.372	160.42
389.834	159.12
390.296	151.12
390.758	160.82
391.22	179.42
391.682	213.22
392.144	300.82
392.606	232.82
393.068	176.32
393.529	169.52
393.991	156.22
394.453	154.62
394.915	161.02
395.377	207.92
395.838	219.82
396.3	160.02
396.762	151.32
397.224	144.42
397.685	132.32
398.147	134.42
398.608	130.72
399.07	137.42
399.531	137.32
399.993	143.42
400.454	161.22
400.916	154.02
401.377	147.92
401.839	149.22
402.3	151.62
402.762	172.72
403.223	182.32
403.684	170.62
404.145	165.32
404.607	167.92
405.068	164.42
405.529	174.72
405.99	189.52
406.451	182.82
406.913	178.52
407.374	175.92
407.835	169.82
408.296	170.42
408.757	175.92
409.218	192.02
409.679	187.02
410.14	173.62
410.601	184.12
411.062	189.72
411.522	195.72
411.983	191.12
412.444	183.12
412.905	183.72
413.366	181.62
413.826	201.32
414.287	220.72
414.748	266.52
415.208	252.42
415.669	217.12
416.13	209.72
416.59	209.12
417.051	223.42
417.511	227.12
417.972	236.32
418.432	254.72
418.893	290.52
419.353	252.12
419.814	197.52
420.274	184.52
420.734	185.52
421.195	203.32
421.655	202.92
422.115	191.32
422.576	199.62
423.036	205.32
423.496	212.62
423.956	223.02
424.416	238.52
424.876	272.32
425.336	264.92
425.797	269.52
426.257	267.72
426.717	250.72
427.177	239.32
427.637	231.92
428.097	239.02
428.556	246.62
429.016	281.92
429.476	275.72
429.936	278.92
430.396	289.22
430.856	300.22
431.315	326.02
431.775	363.22
432.235	389.12
432.694	366.02
433.154	375.22
433.614	410.02
434.073	357.62
434.533	298.62
434.993	279.22
435.452	294.52
435.912	300.32
436.371	296.62
436.83	295.92
437.29	281.72
437.749	256.62
438.209	254.62
438.668	286.92
439.127	305.02
439.587	273.62
440.046	250.62
440.505	271.22
440.964	286.42
441.424	338.42
441.883	317.92
442.342	274.92
442.801	229.42
443.26	224.72
443.719	221.72
444.178	221.12
444.637	217.42
445.096	220.62
445.555	225.82
446.014	233.62
446.473	230.42
446.932	241.12
447.391	231.62
447.849	228.42
448.308	223.32
448.767	222.02
449.226	246.22
449.685	240.72
450.143	258.02
450.602	244.82
451.061	224.32
451.519	238.02
451.978	239.02
452.436	239.22
452.895	246.12
453.353	258.82
453.812	249.32
454.27	240.52
454.729	240.02
455.187	250.32
455.646	244.72
456.104	253.62
456.562	261.22
457.021	277.32
457.479	266.12
457.937	280.22
458.395	273.32
458.854	252.52
459.312	261.12
459.77	285.22
460.228	259.72
460.686	241.82
461.144	249.52
461.602	255.62
462.06	244.62
462.518	261.62
462.976	259.02
463.434	260.82
463.892	278.22
464.35	283.62
464.808	293.32
465.266	272.42
465.724	276.62
466.181	275.22
466.639	275.02
467.097	289.72
467.555	302.72
468.012	313.22
468.47	317.12
468.928	335.42
469.385	352.02
469.843	351.12
470.3	361.42
470.758	372.92
471.215	404.32
471.673	420.32
472.13	416.32
472.588	429.02
473.045	380.22
473.503	381.52
473.96	399.42
474.417	411.42
474.875	450.82
475.332	485.32
475.789	467.72
476.246	474.52
476.704	497.32
477.161	517.92
477.618	532.62
478.075	567.02
478.532	636.22
478.989	710.62
479.446	833.92
479.903	788.62
480.36	828.22
480.817	893.62
481.274	995.62
481.731	1097.12
482.188	1197.62
482.645	1341.72
483.102	1440.92
483.558	1582.62
484.015	1630.02
484.472	1612.62
484.929	1566.02
485.385	1512.82
485.842	1466.02
486.299	1399.12
486.755	1324.32
487.212	1130.72
487.668	949.92
488.125	869.92
488.582	800.52
489.038	770.52
489.494	736.32
489.951	696.82
490.407	684.42
490.864	656.12
491.32	654.72
491.776	660.92
492.233	653.32
492.689	618.22
493.145	615.62
493.602	613.82
494.058	628.12
494.514	628.22
494.97	650.32
495.426	666.52
495.882	626.72
496.338	629.12
496.794	639.62
497.251	637.22
497.707	642.02
498.163	648.32
498.618	657.12
499.074	662.02
499.53	677.22
499.986	693.62
500.442	657.72
500.898	653.72
501.354	639.32
501.809	654.12
502.265	652.52
502.721	676.22
503.177	675.52
503.632	677.42
504.088	685.82
504.543	727.02
504.999	727.12
505.455	673.32
505.91	641.42
506.366	638.62
506.821	646.52
507.277	636.92
507.732	636.52
508.187	639.12
508.643	643.42
509.098	646.72
509.553	662.72
510.009	677.32
510.464	679.52
510.919	700.12
511.375	703.42
511.83	716.92
512.285	729.32
512.74	779.62
513.195	796.12
513.65	784.82
514.105	781.52
514.56	789.62
515.015	812.82
515.47	816.52
515.925	813.22
516.38	805.32
516.835	805.82
517.29	801.92
517.745	795.62
518.2	776.42
518.655	760.42
519.109	748.52
519.564	744.82
520.019	747.52
520.474	735.62
520.928	737.02
521.383	730.42
521.838	718.92
522.292	721.02
522.747	723.42
523.201	714.52
523.656	722.92
524.11	707.52
524.565	706.42
525.019	709.72
525.474	727.42
525.928	713.42
526.382	696.02
526.837	705.92
527.291	710.82
527.745	708.22
528.2	702.22
528.654	701.82
529.108	696.92
529.562	700.52
530.016	699.82
530.47	709.42
530.925	702.12
531.379	710.42
531.833	712.02
532.287	720.12
532.741	714.02
533.195	722.52
533.649	726.42
534.103	735.42
534.556	721.62
535.01	724.72
535.464	724.82
535.918	736.62
536.372	734.42
536.826	720.52
537.279	724.72
537.733	717.92
538.187	733.22
538.64	722.12
539.094	734.12
539.548	746.42
540.001	744.12
540.455	724.52
540.908	736.42
541.362	747.02
541.815	761.32
542.269	767.12
542.722	775.42
543.175	773.42
543.629	784.52
544.082	806.12
544.536	805.72
544.989	794.12
545.442	808.82
545.895	794.92
546.349	796.22
546.802	802.32
547.255	812.52
547.708	820.52
548.161	815.82
548.614	844.22
549.067	841.72
549.52	831.12
549.973	823.62
550.426	814.02
550.879	802.62
551.332	813.52
551.785	819.92
552.238	823.52
552.691	821.62
553.144	841.92
553.596	860.52
554.049	870.22
554.502	907.72
554.955	925.32
555.407	915.02
555.86	916.42
556.313	904.12
556.765	893.02
557.218	888.52
557.67	888.82
558.123	902.22
558.576	884.62
559.028	889.32
559.48	897.72
559.933	875.02
560.385	852.12
560.838	825.62
561.29	796.62
561.742	788.82
562.195	775.02
562.647	765.82
563.099	775.52
563.551	778.52
564.004	782.52
564.456	792.42
564.908	769.42
565.36	748.02
565.812	756.32
566.264	743.52
566.716	733.02
567.168	720.82
567.62	732.52
568.072	708.62
568.524	706.92
568.976	702.32
569.428	681.82
569.88	680.52
570.332	693.22
570.784	683.62
571.235	689.22
571.687	704.62
572.139	704.72
572.59	716.22
573.042	721.22
573.494	719.62
573.945	704.22
574.397	698.82
574.849	698.22
575.3	702.02
575.752	696.62
576.203	687.02
576.655	691.72
577.106	678.82
577.557	667.52
578.009	669.42
578.46	679.42
578.912	669.02
579.363	665.72
579.814	684.02
580.265	668.82
580.717	676.92
581.168	669.42
581.619	687.12
582.07	687.42
582.521	682.12
582.972	676.72
583.423	675.32
583.875	687.02
584.326	703.72
584.777	753.72
585.227	831.12
585.678	927.32
586.129	1012.82
586.58	1082.92
587.031	1168.42
587.482	1339.92
587.933	1523.02
588.384	1319.42
588.834	987.32
589.285	814.52
589.736	788.92
590.186	785.02
590.637	776.42
591.088	747.72
591.538	747.22
591.989	728.12
592.439	721.72
592.89	735.12
593.34	722.62
593.791	714.72
594.241	705.42
594.692	717.72
595.142	710.82
595.593	717.32
596.043	721.92
596.493	721.82
596.943	724.52
597.394	723.02
597.844	721.22
598.294	745.22
598.744	763.02
599.195	769.12
599.645	819.62
600.095	864.32
600.545	912.12
600.995	966.62
601.445	1023.12
601.895	1101.12
602.345	1134.82
602.795	1115.72
603.245	1070.92
603.695	1014.02
604.145	974.72
604.594	915.32
605.044	858.42
605.494	811.02
605.944	746.32
606.393	746.12
606.843	733.52
607.293	735.52
607.743	740.32
608.192	752.72
608.642	762.42
609.091	770.12
609.541	783.82
609.99	770.52
610.44	770.62
610.889	734.92
611.339	705.82
611.788	695.02
612.238	702.42
612.687	720.52
613.136	720.82
613.586	742.52
614.035	744.12
614.484	765.62
614.933	766.32
615.383	748.82
615.832	744.92
616.281	731.02
616.73	686.82
617.179	660.92
617.628	661.32
618.077	635.62
618.526	629.72
618.975	621.82
619.424	623.02
619.873	610.92
620.322	625.42
620.771	604.12
621.22	609.72
621.669	596.32
622.118	592.12
622.567	579.92
623.015	572.02
623.464	563.22
623.913	563.82
624.361	559.22
624.81	548.02
625.259	567.22
625.707	559.52
626.156	555.22
626.604	569.32
627.053	554.12
627.501	560.72
627.95	568.12
628.398	581.72
628.847	569.02
629.295	576.62
629.744	576.42
630.192	562.72
630.64	568.92
631.089	567.22
631.537	587.62
631.985	588.12
632.433	602.62
632.881	607.72
633.33	661.62
633.778	640.12
634.226	569.52
634.674	583.72
635.122	575.72
635.57	599.32
636.018	632.22
636.466	580.62
636.914	556.12
637.362	578.52
637.81	573.92
638.258	577.72
638.705	587.82
639.153	601.62
639.601	620.72
640.049	629.82
640.497	672.02
640.944	693.52
641.392	649.32
641.84	608.42
642.287	583.82
642.735	581.62
643.182	576.52
643.63	582.52
644.078	572.82
644.525	595.22
644.973	594.02
645.42	600.82
645.867	622.22
646.315	648.92
646.762	660.42
647.21	696.02
647.657	723.02
648.104	742.12
648.551	775.02
648.999	838.02
649.446	915.92
649.893	1013.12
650.34	1168.62
650.787	1400.52
651.234	1741.62
651.682	2261.02
652.129	3123.12
652.576	4478.82
653.023	6636.52
653.47	9059.82
653.917	11363.42
654.363	13135.72
654.81	14498.12
655.257	13803.02
655.704	9039.52
656.151	5347.02
656.598	3457.52
657.044	2456.52
657.491	1870.52
657.938	1504.82
658.385	1251.72
658.831	1087.82
659.278	972.02
659.724	859.72
660.171	790.12
660.618	726.32
661.064	682.72
661.511	664.42
661.957	660.32
662.404	635.12
662.85	646.92
663.296	624.22
663.743	561.52
664.189	533.82
664.635	540.92
665.082	525.62
665.528	529.52
665.974	518.82
666.42	513.22
666.867	500.92
667.313	486.82
667.759	473.62
668.205	481.52
668.651	491.12
669.097	480.22
669.543	499.12
669.989	471.62
670.435	445.52
670.881	444.82
671.327	452.22
671.773	461.92
672.219	489.62
672.665	548.92
673.11	576.52
673.556	624.82
674.002	670.62
674.448	654.72
674.893	545.42
675.339	472.32
675.785	431.02
676.23	416.52
676.676	395.02
677.122	378.52
677.567	371.12
678.013	364.92
678.458	358.22
678.904	354.32
679.349	341.02
679.794	353.92
680.24	351.62
680.685	347.02
681.131	352.82
681.576	345.42
682.021	357.12
682.466	348.72
682.912	347.32
683.357	350.92
683.802	379.92
684.247	398.82
684.692	449.82
685.137	498.72
685.583	527.82
686.028	559.22
686.473	513.72
686.918	439.82
687.363	412.12
687.807	385.32
688.252	366.42
688.697	356.42
689.142	328.92
689.587	331.82
690.032	325.82
690.477	348.42
690.921	350.52
691.366	377.72
691.811	402.52
692.255	429.82
692.7	461.12
693.145	501.82
693.589	689.72
694.034	1116.82
694.478	1517.52
694.923	1708.82
695.367	2251.82
695.812	1179.32
696.256	484.22
696.701	369.82
697.145	341.32
697.59	322.82
698.034	317.12
698.478	322.52
698.922	325.42
699.367	324.02
699.811	335.22
700.255	358.62
700.699	389.42
701.143	421.52
701.588	479.02
702.032	519.02
702.476	510.52
702.92	481.62
703.364	491.32
703.808	630.72
704.252	1007.22
704.696	1429.52
705.14	1645.82
705.584	2089.12
706.027	1047.82
706.471	515.62
706.915	388.52
707.359	348.42
707.803	319.32
708.246	309.52
708.69	315.82
709.134	312.52
709.577	304.92
710.021	310.82
710.465	310.82
710.908	296.92
711.352	295.22
711.795	309.12
712.239	345.92
712.682	380.02
713.126	408.02
713.569	457.12
714.012	369.92
714.456	323.92
714.899	302.42
715.342	276.32
715.786	264.22
716.229	252.82
716.672	246.72
717.115	247.82
717.558	250.72
718.002	248.52
718.445	257.82
718.888	281.82
719.331	290.82
719.774	311.02
720.217	303.22
720.66	278.92
721.103	258.22
721.546	252.52
721.989	251.72
722.432	228.22
722.874	236.72
723.317	230.82
723.76	231.62
724.203	262.92
724.645	311.82
725.088	435.62
725.531	560.02
725.974	642.22
726.416	543.92
726.859	306.42
727.301	244.02
727.744	232.52
728.187	231.22
728.629	229.02
729.071	234.72
729.514	253.42
729.956	264.12
730.399	285.62
730.841	289.22
731.283	265.72
731.726	265.92
732.168	256.42
732.61	266.52
733.053	287.72
733.495	311.02
733.937	349.32
734.379	398.22
734.821	424.42
735.263	534.02
735.705	819.82
736.148	1544.82
736.59	2544.02
737.032	3011.02
737.474	2453.52
737.916	791.82
738.357	425.02
738.799	315.12
739.241	297.52
739.683	277.82
740.125	293.22
740.567	299.02
741.008	314.12
741.45	312.62
741.892	306.52
742.334	343.62
742.775	352.82
743.217	339.22
743.658	267.12
744.1	252.12
744.542	252.72
744.983	306.22
745.425	333.22
745.866	339.12
746.307	278.32
746.749	280.22
747.19	319.42
747.632	448.22
748.073	861.82
748.514	1834.92
748.956	2810.32
749.397	3495.42
749.838	2918.32
750.279	2924.82
750.72	1466.62
751.162	536.82
751.603	319.32
752.044	250.62
752.485	213.22
752.926	209.52
753.367	196.12
753.808	193.82
754.249	185.52
754.69	179.72
755.131	179.02
755.572	182.72
756.013	175.12
756.453	183.42
756.894	182.62
757.335	189.52
757.776	193.22
758.216	193.22
758.657	188.22
759.098	193.92
759.538	223.02
759.979	266.22
760.42	367.62
760.86	689.02
761.301	1759.22
761.741	4298.22
762.182	6365.52
762.622	4450.52
763.063	1289.52
763.503	532.02
763.943	343.02
764.384	335.62
764.824	401.32
765.264	439.72
765.705	302.42
766.145	205.62
766.585	184.62
767.025	179.82
767.465	183.12
767.906	239.22
768.346	313.72
768.786	344.92
769.226	258.12
769.666	310.42
770.106	603.62
770.546	1515.52
770.986	2596.22
771.426	2354.82
771.866	772.02
772.306	320.02
772.745	202.52
773.185	178.22
773.625	169.52
774.065	168.62
774.505	205.12
774.944	315.12
775.384	677.92
775.824	1247.52
776.263	1213.12
776.703	513.92
777.142	225.42
777.582	162.22
778.021	133.32
778.461	142.42
778.9	137.42
779.34	129.52
779.779	116.12
780.219	114.62
780.658	113.42
781.097	116.42
781.537	106.02
781.976	105.82
782.415	105.62
782.855	102.02
783.294	104.12
783.733	109.02
784.172	109.72
784.611	100.82
785.05	109.12
785.489	113.12
785.928	123.32
786.367	124.02
786.806	113.02
787.245	126.42
787.684	133.32
788.123	146.12
788.562	132.92
789.001	128.92
789.44	114.72
789.879	116.92
790.317	111.42
790.756	128.62
791.195	130.52
791.634	146.52
792.072	195.22
792.511	354.62
792.95	975.32
793.388	2108.92
793.827	1916.12
794.265	667.72
794.704	275.92
795.142	175.82
795.581	151.12
796.019	131.62
796.458	125.92
796.896	120.22
797.334	128.02
797.773	161.02
798.211	222.72
798.649	423.02
799.087	991.32
799.526	1562.02
799.964	1972.12
800.402	1966.22
800.84	737.42
801.278	296.92
801.716	181.92
802.154	146.22
802.592	147.72
803.03	137.22
803.468	132.92
803.906	143.12
804.344	157.92
804.782	138.32
805.22	127.62
805.658	129.02
806.096	140.52
806.533	153.02
806.971	169.32
807.409	216.82
807.847	312.62
808.284	630.02
808.722	1820.62
809.16	3222.52
809.597	3033.62
810.035	5286.62
810.472	5695.52
810.91	2051.22
811.347	772.62
811.785	398.32
812.222	256.52
812.66	194.02
813.097	162.42
813.535	142.32
813.972	128.52
814.409	116.62
814.846	105.12
815.284	110.82
815.721	105.12
816.158	108.62
816.595	119.72
817.032	178.42
817.47	199.62
817.907	172.32
818.344	153.52
818.781	116.42
819.218	98.42
819.655	121.52
820.092	182.62
820.529	210.02
820.966	181.62
821.403	137.02
821.839	104.52
822.276	106.42
822.713	124.42
823.15	137.22
823.587	118.02
824.023	151.52
824.46	296.22
824.897	871.02
825.333	1333.32
825.77	567.92
826.206	226.42
826.643	130.32
827.08	95.52
827.516	81.92
827.953	78.62
828.389	78.42
828.825	64.82
829.262	66.32
829.698	63.62
830.135	65.82
830.571	63.02
831.007	63.82
831.443	63.52
831.88	57.02
832.316	63.92
832.752	59.72
833.188	62.02
833.624	65.12
834.06	74.32
834.497	63.12
834.933	66.62
835.369	71.12
835.805	70.82
836.241	75.62
836.677	77.92
837.112	87.92
837.548	102.42
837.984	130.92
838.42	195.12
838.856	480.12
839.292	1467.02
839.727	2262.52
840.163	1046.72
840.599	899.42
841.034	1989.12
841.47	2084.92
841.906	758.02
842.341	323.32
842.777	230.32
843.212	320.52
843.648	318.42
844.083	153.72
844.519	99.42
844.954	72.72
845.39	61.32
845.825	56.72
846.261	58.32
846.696	53.62
847.131	52.62
847.566	57.32
848.002	50.12
848.437	46.92
848.872	59.12
849.307	62.72
849.742	80.12
850.177	174.62
850.613	546.32
851.048	861.12
851.483	372.82
851.918	148.22
852.353	87.52
852.788	62.92
853.223	61.42
853.657	56.62
854.092	59.12
854.527	51.52
854.962	43.32
855.397	40.42
855.832	50.52
856.266	38.72
856.701	40.82
857.136	31.22
857.57	43.92
858.005	46.22
858.44	56.22
858.874	46.02
859.309	49.22
859.743	36.92
860.178	43.82
860.612	44.52
861.047	55.62
861.481	67.22
861.915	70.82
862.35	51.52
862.784	34.82
863.218	40.22
863.653	35.62
864.087	49.02
864.521	52.52
864.955	71.42
865.39	157.42
865.824	170.82
866.258	111.32
866.692	165.52
867.126	172.32
867.56	109.42
867.994	51.32
868.428	40.02
868.862	45.52
869.296	51.22
869.73	52.12
870.164	56.32
870.598	42.92
871.031	41.22
871.465	33.72
871.899	32.32
872.333	25.62
872.766	24.82
873.2	21.62
873.634	31.52
874.067	27.62
874.501	30.92
874.935	32.32
875.368	30.72
875.802	26.02
876.235	19.62
876.669	26.22
877.102	18.22
877.535	23.32
877.969	21.22
878.402	25.82
878.836	20.62
879.269	19.62
879.702	23.52
880.135	27.62
880.569	22.12
881.002	31.32
881.435	20.62
881.868	18.42
882.301	27.92
882.734	18.92
883.167	24.42
883.601	23.42
884.034	18.02
884.467	10.22
884.899	13.92
885.332	18.42
885.765	14.72
886.198	18.52
886.631	13.42
887.064	18.92
887.497	20.42
887.929	26.02
888.362	18.62
888.795	10.92
889.228	17.12
889.66	20.22
890.093	17.32
890.526	16.42
890.958	16.42
891.391	12.42
891.823	16.02
892.256	13.22
892.688	11.42
893.121	14.92
893.553	15.22
893.985	24.22
894.418	17.12
894.85	17.92
895.282	17.22
895.715	18.72
896.147	20.72
896.579	13.92
897.011	13.92
897.444	13.02
897.876	13.62
898.308	15.62
898.74	9.92
899.172	9.92
899.604	24.72
900.036	21.02
900.468	17.52
900.9	17.02
901.332	17.42
901.764	10.42
902.196	17.42
902.628	20.12
903.06	17.12
903.491	32.02
903.923	19.52
904.355	17.32
904.787	24.12
905.218	22.32
905.65	25.62
906.082	13.02
906.513	12.72
906.945	16.72
907.376	3.32
907.808	23.22
908.239	23.32
908.671	16.32
909.102	22.92
909.534	30.62
909.965	45.52
910.397	91.22
910.828	308.82
911.259	468.22
911.691	208.22
912.122	106.72
912.553	49.12
912.984	35.12
913.415	30.62
913.847	25.72
914.278	12.62
914.709	16.62
915.14	17.72
915.571	11.32
916.002	13.42
916.433	20.92
916.864	19.02
917.295	10.92
917.726	17.72
918.157	20.02
918.587	27.82
919.018	23.42
919.449	18.02
919.88	23.32
920.311	29.22
920.741	48.92
921.172	166.22
921.603	142.82
922.033	65.52
922.464	44.52
922.895	23.62
923.325	25.22
923.756	15.22
924.186	14.82
924.617	28.22
925.047	37.12
925.478	50.92
925.908	48.32
926.338	26.92
926.769	16.82
927.199	20.32
927.629	10.92
928.06	15.72
928.49	18.82
928.92	13.02
929.35	13.72
929.78	16.22
930.21	6.92
930.641	7.62
931.071	13.92
931.501	3.92
931.931	4.52
932.361	4.22
932.791	2.42
933.221	6.12
933.651	6.42
934.08	16.92
934.51	28.32
934.94	13.32
935.37	9.72
935.8	10.72
936.229	11.42
936.659	10.02
937.089	0.52
937.519	14.52
937.948	20.32
938.378	15.22
938.807	4.92
939.237	3.62
939.666	5.22
940.096	-5.68
940.525	2.72
940.955	-2.68
941.384	3.82
941.814	-5.88
942.243	1.22
942.672	2.32
943.102	-2.58
943.531	-3.88
943.96	1.72
944.39	3.52
944.819	4.92
945.248	0.02
945.677	-0.08
946.106	5.52
946.535	3.22
946.964	-0.68
947.393	7.32
947.822	1.62
948.251	-0.78
948.68	-3.58
949.109	6.12
949.538	2.82
949.967	-2.58
950.396	-0.88
950.825	-0.98
951.254	-0.28
951.682	-4.78
952.111	2.12
952.54	9.22
952.969	-5.68
953.397	-8.28
953.826	-4.28
954.254	-3.38
954.683	0.12
955.112	-3.38
955.54	0.42
955.969	3.82
956.397	-2.58
956.826	-1.28
957.254	6.82
957.682	-0.78
958.111	3.82
958.539	1.72
958.967	-1.98
959.396	0.62
959.824	2.32
960.252	5.32
960.68	-2.68
961.109	-0.18
961.537	-4.58
961.965	2.12
962.393	0.52
962.821	-4.18
963.249	2.02
963.677	9.82
964.105	8.62
964.533	48.02
964.961	47.62
965.389	25.12
965.817	10.82
966.245	3.62
966.672	3.72
967.1	-7.38
967.528	-4.58
967.956	-1.98
968.383	0.12
968.811	-2.18
969.239	-8.78
969.666	-4.28
970.094	0.82
970.522	0.92
970.949	0.22
971.377	-3.38
971.804	1.52
972.232	-4.48
972.659	-4.38
973.087	-3.28
973.514	-2.18
973.941	0.12
974.369	4.52
974.796	1.42
975.223	-2.58
975.651	-2.48
976.078	-0.28
976.505	-4.88
976.932	1.82
977.359	17.42
977.786	18.62
978.214	3.22
978.641	-0.38
979.068	-3.68
979.495	-5.78
979.922	-2.58
980.349	-2.88
980.776	0.92
981.202	-3.18
981.629	2.52
982.056	3.72
982.483	5.82
982.91	6.72
983.337	-4.88
983.763	-0.38
984.19	-2.98
984.617	-4.88
985.043	0.12
985.47	2.22
985.897	-3.38
986.323	-3.98
986.75	5.22
987.176	-0.08
987.603	-1.68
988.029	4.02
988.456	-9.48
988.882	1.72
989.308	-11.18
989.735	-6.88
990.161	0.12
990.587	-2.98
991.014	1.62
991.44	1.42
991.866	-0.88
992.292	-4.68
992.719	-0.28
993.145	4.02
993.571	-13.48
993.997	-1.38
994.423	0.92
994.849	-3.38
995.275	1.42
995.701	7.82
996.127	-5.98
996.553	3.82
996.979	-0.88
997.405	-7.98
997.83	-6.18
998.256	-6.98
998.682	-1.88
999.108	-6.98
999.534	-6.88
999.959	-5.48
1000.385	-5.78
1000.811	4.62
1001.236	-3.48
1001.662	-5.58
1002.087	-3.48
1002.513	0.92
1002.938	-0.98
1003.364	1.72
1003.789	-8.68
1004.215	5.62
1004.64	-0.68
1005.066	3.42
1005.491	0.32
1005.916	-0.98
1006.342	-1.58
1006.767	-8.18
1007.192	4.52
1007.617	-2.28
1008.042	-7.38
1008.468	-7.68
1008.893	-8.88
1009.318	-3.18
1009.743	-4.28
1010.168	3.62
1010.593	-1.18
1011.018	-4.38
1011.443	-3.68
1011.868	-1.78
1012.293	-5.88
1012.718	-5.28
1013.143	-0.98
1013.567	3.52
1013.992	-1.28
1014.417	-13.68
1014.842	-2.88
1015.267	-8.88
1015.691	-7.68
1016.116	4.22
1016.541	-5.78
1016.965	5.52
1017.39	-6.28
1017.814	0.32
1018.239	-0.28
1018.663	-4.58
1019.088	-7.98
1019.512	-3.78
1019.937	-4.58
1020.361	0.92
1020.785	-8.48
1021.21	-3.78
1021.634	-4.18
1022.058	-1.28
1022.483	2.62
1022.907	-8.18
1023.331	-5.18
1023.755	-5.88
1024.179	-6.08
1024.604	-4.98
1025.028	-2.78
1025.452	-2.28
1025.876	-0.88
1026.3	-2.18
1026.724	-13.68
1027.148	0.12
1027.572	-10.88
1027.996	-6.98
1028.42	-1.68
1028.843	-2.48
1029.267	-8.08
1029.691	-3.08
1030.115	-7.98
1030.539	-5.98
1030.962	-11.48
1031.386	-9.08
1031.81	1.82
1032.233	1.22
1032.657	-4.48
1033.08	2.02
1033.504	-7.78
1033.927	-2.78
1034.351	1.62
1034.774	-3.48
1035.198	-4.18
1035.621	-6.48
1036.045	-8.38
1036.468	-2.28
1036.891	-5.78
1037.315	-8.18
1037.738	-7.58
1038.161	1.72
1038.584	-2.58
1039.008	-4.98
1039.431	-6.28
1039.854	-3.28
1040.277	-8.48
1040.7	-8.58
1041.123	-1.78
1041.546	-2.28
1041.969	-5.68
1042.392	-4.68
1042.815	-3.08
1043.238	-1.38
1043.661	3.12
1044.084	-5.88
1044.507	-7.68
1044.93	-11.48
1045.352	-1.48
1045.775	-4.58
1046.198	-5.58
1046.621	-5.78
1047.043	-1.58
1047.466	8.12
1047.889	-3.78
1048.311	-5.18
1048.734	-2.08
1049.156	-6.48
1049.579	0.42
1050.001	-2.88
1050.424	0.42
1050.846	-8.18
1051.269	-4.98
1051.691	-7.08
1052.113	-8.38
1052.536	1.02
1052.958	-1.18
1053.38	-1.38
1053.802	-12.58
1054.225	10.32
1054.647	-9.68
1055.069	-10.08
1055.491	1.72
1055.913	-7.38
1056.335	-2.78
1056.757	-4.38
1057.179	-6.98
1057.601	0.52
1058.023	-2.78
1058.445	-10.78
1058.867	-14.78
1059.289	-5.18
1059.711	-5.08
1060.133	-0.38
1060.555	-0.98
1060.976	-9.28
1061.398	-8.68
1061.82	-9.58
1062.241	2.72
1062.663	-4.68
1063.085	-4.98
1063.506	-1.48
1063.928	1.12
1064.35	-2.28
1064.771	-8.98
1065.193	-6.28
1065.614	-7.68
1066.035	-4.18
1066.457	-4.98
1066.878	1.32
1067.3	-2.18
1067.721	-2.28
1068.142	-4.88
1068.564	-4.28
1068.985	-10.38
1069.406	-7.28
1069.827	-6.08
1070.248	2.92
1070.67	-3.48
1071.091	-7.48
1071.512	-5.08
1071.933	-8.78
1072.354	-9.88
1072.775	-11.68
1073.196	-6.58
1073.617	0.12
1074.038	-7.58
1074.459	-5.58
1074.88	-4.78
1075.3	-2.68
1075.721	-8.08
1076.142	-3.48
1076.563	-3.98
1076.983	-10.28
1077.404	-8.48
1077.825	-10.58
1078.246	-2.78
1078.666	-11.38
1079.087	2.32
1079.507	-8.18
1079.928	1.42
1080.348	3.02
1080.769	-6.28
1081.189	-2.98
1081.61	-9.48
1082.03	-7.18
1082.451	-4.08
1082.871	-11.28
1083.291	-2.18
1083.711	-7.78
1084.132	-10.88
1084.552	-3.38
1084.972	-1.58
1085.392	-8.28
1085.813	-12.78
1086.233	-13.88
1086.653	-2.88
1087.073	-2.98
1087.493	-11.88
1087.913	-5.98
1088.333	-5.78
1088.753	-5.68
1089.173	3.42
1089.593	-0.88
1090.013	0.92
1090.433	5.92
1090.852	-3.48
1091.272	-0.78
1091.692	-0.58
1092.112	-6.18
1092.531	-2.98
1092.951	-15.68
1093.371	-7.38
1093.79	1.72
1094.21	-5.38
1094.63	-2.38
1095.049	-6.18
1095.469	-7.38
1095.888	-2.88
1096.308	2.42
1096.727	2.12
1097.146	-7.98
1097.566	-4.68
1097.985	-6.18
1098.405	-2.98
1098.824	-11.88
1099.243	-7.18
1099.662	-6.38
1100.082	-0.68
1100.501	-0.08
1100.92	-6.38
1101.339	2.52
1101.758	-6.08
