Data from 20171114-ORNL-Ar_H_NY_Subt18_08-04-57-203.txt Node
Date: Tue Nov 14 08:04:57 EST 2017
User: Ender
Spectrometer: HR+D1039
Trigger mode: 0
Integration Time (sec): 2.730000E-2
Scans to average: 10
Electric dark correction enabled: true
Nonlinearity correction enabled: false
Boxcar width: 0
XAxis mode: Wavelengths
Number of Pixels in Spectrum: 2048
>>>>>Begin Spectral Data<<<<<
187.836	-3.38
188.309	-3.38
188.782	-3.38
189.255	-1.98
189.728	1.62
190.201	1.62
190.674	-1.08
191.147	0.72
191.619	-6.78
192.092	0.62
192.565	7.32
193.038	5.92
193.511	4.22
193.984	-2.18
194.456	-4.48
194.929	3.43
195.402	-4.08
195.874	-1.58
196.347	0.02
196.82	-0.48
197.292	2.62
197.765	-3.17
198.237	-7.08
198.71	3.82
199.182	-2.27
199.655	0.12
200.127	-3.28
200.6	-3.88
201.072	-4.98
201.544	-7.98
202.017	-7.88
202.489	0.62
202.961	-4.98
203.433	0.32
203.906	-13.27
204.378	-1.07
204.85	-7.58
205.322	-13.28
205.794	4.02
206.266	-5.08
206.739	-8.48
207.211	1.02
207.683	-6.67
208.155	-4.08
208.627	-3.48
209.099	-5.68
209.57	-4.38
210.042	-2.68
210.514	-5.98
210.986	-4.67
211.458	-5.68
211.93	0.82
212.402	-0.28
212.873	-9.08
213.345	-5.98
213.817	-9.88
214.288	-6.08
214.76	-3.28
215.232	-6.17
215.703	-1.77
216.175	-5.77
216.646	-3.58
217.118	-6.68
217.589	-6.88
218.061	2.92
218.532	-7.17
219.004	1.52
219.475	-7.88
219.946	1.82
220.418	-5.17
220.889	3.62
221.36	-0.67
221.832	-7.08
222.303	-6.48
222.774	1.82
223.245	-9.67
223.717	-2.68
224.188	-7.38
224.659	-8.28
225.13	-8.88
225.601	-2.88
226.072	3.52
226.543	-0.88
227.014	0.82
227.485	2.02
227.956	-7.08
228.427	0.62
228.898	-0.48
229.369	-0.98
229.839	-2.18
230.31	-3.68
230.781	4.23
231.252	-2.98
231.722	-6.68
232.193	0.83
232.664	-3.08
233.135	-4.28
233.605	5.73
234.076	-3.48
234.546	1.72
235.017	5.73
235.487	3.23
235.958	-1.48
236.428	3.12
236.899	8.43
237.369	9.62
237.84	-0.58
238.31	5.92
238.78	-0.07
239.251	2.23
239.721	2.42
240.191	-0.38
240.662	0.02
241.132	1.02
241.602	-4.08
242.072	3.02
242.542	1.73
243.013	-3.78
243.483	4.73
243.953	3.93
244.423	0.23
244.893	-1.68
245.363	0.92
245.833	6.02
246.303	-1.98
246.773	12.92
247.243	1.42
247.712	1.72
248.182	6.32
248.652	9.42
249.122	-1.58
249.592	9.32
250.061	22.92
250.531	35.83
251.001	16.02
251.471	19.92
251.94	19.62
252.41	5.73
252.879	1.83
253.349	12.82
253.818	10.52
254.288	5.12
254.757	5.33
255.227	4.52
255.696	4.72
256.166	6.62
256.635	12.62
257.105	12.52
257.574	6.72
258.043	12.52
258.513	14.22
258.982	26.52
259.451	10.22
259.92	19.73
260.389	11.52
260.859	19.32
261.328	12.33
261.797	19.62
262.266	15.32
262.735	11.02
263.204	13.62
263.673	-0.18
264.142	6.33
264.611	-0.78
265.08	2.52
265.549	4.43
266.018	7.23
266.487	4.12
266.955	-5.68
267.424	0.33
267.893	8.33
268.362	3.23
268.83	6.62
269.299	9.73
269.768	7.12
270.236	8.73
270.705	0.32
271.174	7.73
271.642	10.02
272.111	11.23
272.579	19.32
273.048	26.82
273.516	23.42
273.985	27.83
274.453	27.92
274.922	26.22
275.39	15.22
275.858	5.62
276.327	14.62
276.795	19.42
277.263	20.02
277.731	30.32
278.2	55.52
278.668	59.92
279.136	48.62
279.604	25.73
280.072	18.02
280.54	7.73
281.008	16.62
281.477	13.62
281.945	22.62
282.413	17.72
282.881	20.12
283.348	7.83
283.816	15.72
284.284	14.72
284.752	23.62
285.22	12.33
285.688	15.22
286.156	21.52
286.623	42.92
287.091	51.33
287.559	33.82
288.026	18.83
288.494	16.52
288.962	5.23
289.429	13.32
289.897	21.12
290.364	18.02
290.832	21.62
291.3	15.12
291.767	15.43
292.234	22.92
292.702	15.83
293.169	22.23
293.637	28.33
294.104	22.12
294.571	17.02
295.039	13.52
295.506	16.02
295.973	17.02
296.44	14.42
296.908	20.43
297.375	24.42
297.842	24.32
298.309	15.02
298.776	16.93
299.243	24.12
299.71	10.52
300.177	27.92
300.644	20.23
301.111	20.12
301.578	26.12
302.045	16.52
302.512	22.12
302.979	27.92
303.446	25.92
303.913	22.23
304.379	21.02
304.846	26.62
305.313	24.02
305.78	24.82
306.246	26.32
306.713	25.82
307.18	26.83
307.646	27.22
308.113	27.52
308.579	21.42
309.046	26.62
309.512	28.12
309.979	22.82
310.445	33.62
310.912	29.42
311.378	35.62
311.845	30.12
312.311	40.52
312.777	34.12
313.244	32.12
313.71	37.73
314.176	32.93
314.642	33.52
315.109	34.32
315.575	37.92
316.041	40.62
316.507	29.22
316.973	39.42
317.439	45.23
317.905	37.43
318.371	36.82
318.837	34.52
319.303	37.92
319.769	36.83
320.235	35.42
320.701	39.82
321.167	37.42
321.633	30.12
322.099	41.42
322.564	49.02
323.03	42.32
323.496	39.73
323.962	45.12
324.427	39.02
324.893	45.72
325.359	35.22
325.824	35.42
326.29	37.62
326.755	45.22
327.221	47.62
327.686	41.92
328.152	44.43
328.617	46.62
329.083	50.72
329.548	52.32
330.014	48.73
330.479	44.02
330.944	47.12
331.41	45.72
331.875	43.52
332.34	49.52
332.805	43.92
333.271	52.02
333.736	46.12
334.201	50.52
334.666	48.42
335.131	55.42
335.596	54.02
336.061	49.72
336.526	49.52
336.991	53.12
337.456	58.62
337.921	51.72
338.386	51.82
338.851	46.82
339.316	51.32
339.781	49.83
340.246	49.92
340.711	45.02
341.175	51.52
341.64	46.33
342.105	60.42
342.569	55.92
343.034	59.12
343.499	57.23
343.963	54.73
344.428	69.83
344.893	62.12
345.357	65.22
345.822	64.72
346.286	70.02
346.751	76.83
347.215	64.62
347.679	78.73
348.144	102.62
348.608	87.92
349.073	70.73
349.537	70.73
350.001	86.02
350.465	92.73
350.93	80.12
351.394	80.02
351.858	71.83
352.322	86.23
352.786	85.62
353.25	104.32
353.715	112.73
354.179	104.12
354.643	123.33
355.107	126.32
355.571	103.33
356.035	106.42
356.498	120.32
356.962	122.82
357.426	133.62
357.89	119.73
358.354	90.02
358.818	84.62
359.281	80.23
359.745	77.73
360.209	76.12
360.673	73.93
361.136	81.52
361.6	78.42
362.064	78.93
362.527	85.42
362.991	94.32
363.454	80.23
363.918	77.82
364.381	83.92
364.845	78.62
365.308	88.92
365.772	89.02
366.235	88.92
366.698	82.72
367.162	81.32
367.625	86.22
368.088	87.42
368.552	86.02
369.015	85.42
369.478	90.73
369.941	98.12
370.404	90.02
370.867	112.02
371.331	107.72
371.794	110.52
372.257	107.73
372.72	117.82
373.183	104.12
373.646	96.32
374.109	100.62
374.572	104.62
375.035	104.32
375.497	102.72
375.96	107.83
376.423	99.92
376.886	114.62
377.349	105.72
377.811	101.12
378.274	107.23
378.737	104.62
379.199	111.23
379.662	103.62
380.125	114.33
380.587	122.52
381.05	122.43
381.512	121.12
381.975	125.92
382.437	122.83
382.9	122.62
383.362	127.02
383.825	144.33
384.287	144.12
384.75	134.52
385.212	136.12
385.674	133.62
386.136	129.73
386.599	128.02
387.061	128.02
387.523	129.62
387.985	130.82
388.447	141.62
388.91	140.62
389.372	154.83
389.834	145.92
390.296	140.72
390.758	150.62
391.22	164.23
391.682	201.42
392.144	289.22
392.606	217.62
393.068	156.43
393.529	161.92
393.991	147.92
394.453	146.02
394.915	154.02
395.377	185.33
395.838	208.52
396.3	148.72
396.762	133.83
397.224	124.92
397.685	127.72
398.147	124.43
398.608	127.52
399.07	120.62
399.531	134.02
399.993	136.73
400.454	147.62
400.916	146.92
401.377	140.23
401.839	148.62
402.3	153.32
402.762	167.12
403.223	176.32
403.684	164.62
404.145	155.72
404.607	158.32
405.068	155.72
405.529	166.42
405.99	180.12
406.451	167.62
406.913	169.72
407.374	158.12
407.835	158.12
408.296	158.52
408.757	166.42
409.218	183.62
409.679	171.33
410.14	175.62
410.601	173.42
411.062	185.52
411.522	188.33
411.983	186.72
412.444	168.52
412.905	178.12
413.366	179.73
413.826	188.82
414.287	215.03
414.748	255.83
415.208	243.12
415.669	208.12
416.13	202.32
416.59	200.32
417.051	202.62
417.511	210.62
417.972	227.23
418.432	239.42
418.893	277.92
419.353	253.23
419.814	196.02
420.274	178.52
420.734	172.62
421.195	190.72
421.655	191.52
422.115	184.32
422.576	182.72
423.036	197.43
423.496	199.12
423.956	206.43
424.416	221.32
424.876	260.43
425.336	247.92
425.797	251.93
426.257	250.32
426.717	229.93
427.177	226.92
427.637	216.23
428.097	231.32
428.556	242.53
429.016	257.22
429.476	250.02
429.936	263.23
430.396	268.33
430.856	280.52
431.315	304.12
431.775	335.12
432.235	361.83
432.694	337.43
433.154	356.03
433.614	372.73
434.073	320.43
434.533	278.23
434.993	261.33
435.452	278.12
435.912	293.12
436.371	270.73
436.83	273.43
437.29	258.23
437.749	237.53
438.209	236.02
438.668	259.72
439.127	268.92
439.587	260.32
440.046	238.12
440.505	252.82
440.964	272.62
441.424	307.52
441.883	301.82
442.342	251.43
442.801	222.03
443.26	209.83
443.719	212.92
444.178	214.22
444.637	203.82
445.096	216.93
445.555	216.02
446.014	216.23
446.473	221.53
446.932	220.62
447.391	219.42
447.849	219.43
448.308	207.33
448.767	213.73
449.226	226.52
449.685	230.02
450.143	241.72
450.602	228.62
451.061	223.92
451.519	229.32
451.978	230.52
452.436	229.72
452.895	226.32
453.353	237.82
453.812	229.52
454.27	228.12
454.729	235.23
455.187	240.72
455.646	234.93
456.104	235.53
456.562	251.73
457.021	254.42
457.479	251.02
457.937	262.52
458.395	250.93
458.854	241.03
459.312	244.22
459.77	264.92
460.228	245.32
460.686	238.83
461.144	239.83
461.602	227.43
462.06	232.82
462.518	244.52
462.976	249.12
463.434	254.42
463.892	261.22
464.35	278.52
464.808	277.12
465.266	254.03
465.724	260.52
466.181	263.83
466.639	263.33
467.097	277.62
467.555	288.03
468.012	295.12
468.47	298.83
468.928	315.52
469.385	338.63
469.843	339.83
470.3	340.63
470.758	349.22
471.215	369.72
471.673	390.22
472.13	388.12
472.588	401.53
473.045	358.32
473.503	371.13
473.96	373.92
474.417	394.83
474.875	421.73
475.332	454.33
475.789	452.32
476.246	453.62
476.704	469.52
477.161	498.03
477.618	514.33
478.075	542.82
478.532	596.42
478.989	665.12
479.446	773.23
479.903	742.13
480.36	791.92
480.817	832.42
481.274	938.02
481.731	1046.53
482.188	1155.32
482.645	1270.33
483.102	1379.83
483.558	1514.72
484.015	1561.93
484.472	1541.43
484.929	1483.72
485.385	1447.02
485.842	1397.72
486.299	1334.52
486.755	1262.73
487.212	1062.12
487.668	904.12
488.125	827.62
488.582	749.23
489.038	721.72
489.494	693.82
489.951	681.83
490.407	649.43
490.864	636.02
491.32	620.72
491.776	624.22
492.233	626.92
492.689	592.03
493.145	589.02
493.602	589.22
494.058	587.72
494.514	595.73
494.97	617.13
495.426	624.83
495.882	602.72
496.338	597.33
496.794	615.53
497.251	607.02
497.707	615.13
498.163	622.12
498.618	632.92
499.074	628.83
499.53	664.73
499.986	660.12
500.442	637.52
500.898	610.43
501.354	609.52
501.809	608.92
502.265	628.12
502.721	641.82
503.177	647.32
503.632	648.52
504.088	657.43
504.543	686.12
504.999	694.33
505.455	652.23
505.91	617.12
506.366	619.02
506.821	607.52
507.277	603.23
507.732	601.42
508.187	607.12
508.643	612.83
509.098	609.72
509.553	637.02
510.009	642.93
510.464	647.72
510.919	676.33
511.375	669.82
511.83	685.12
512.285	693.02
512.74	737.22
513.195	765.72
513.65	746.63
514.105	747.12
514.56	748.52
515.015	775.63
515.47	781.03
515.925	780.32
516.38	769.92
516.835	779.83
517.29	761.52
517.745	761.43
518.2	747.23
518.655	731.52
519.109	724.13
519.564	713.43
520.019	710.33
520.474	710.02
520.928	701.23
521.383	697.23
521.838	695.22
522.292	690.12
522.747	692.33
523.201	682.32
523.656	671.22
524.11	667.82
524.565	667.62
525.019	672.82
525.474	672.42
525.928	687.23
526.382	677.83
526.837	668.83
527.291	686.22
527.745	670.42
528.2	668.02
528.654	667.53
529.108	671.52
529.562	669.42
530.016	668.43
530.47	665.72
530.925	672.12
531.379	678.92
531.833	679.52
532.287	688.42
532.741	683.02
533.195	688.02
533.649	695.72
534.103	694.72
534.556	691.02
535.01	694.62
535.464	692.12
535.918	694.52
536.372	699.02
536.826	696.82
537.279	684.52
537.733	687.72
538.187	695.72
538.64	690.92
539.094	690.42
539.548	708.93
540.001	700.73
540.455	690.12
540.908	702.83
541.362	712.83
541.815	713.92
542.269	731.23
542.722	731.62
543.175	744.52
543.629	744.73
544.082	757.02
544.536	754.42
544.989	765.13
545.442	758.12
545.895	759.42
546.349	760.02
546.802	771.62
547.255	769.83
547.708	773.22
548.161	781.73
548.614	788.82
549.067	800.42
549.52	784.92
549.973	782.12
550.426	770.32
550.879	757.12
551.332	770.02
551.785	774.72
552.238	762.72
552.691	788.23
553.144	806.82
553.596	814.23
554.049	830.72
554.502	860.22
554.955	878.52
555.407	870.12
555.86	859.92
556.313	862.03
556.765	853.62
557.218	842.93
557.67	852.92
558.123	835.73
558.576	844.83
559.028	849.73
559.48	849.82
559.933	835.03
560.385	797.42
560.838	776.12
561.29	749.02
561.742	747.52
562.195	723.83
562.647	724.02
563.099	744.73
563.551	733.62
564.004	749.73
564.456	740.82
564.908	729.23
565.36	707.83
565.812	696.62
566.264	693.43
566.716	689.32
567.168	681.52
567.62	697.23
568.072	672.83
568.524	663.13
568.976	667.12
569.428	643.12
569.88	644.22
570.332	648.23
570.784	646.32
571.235	647.73
571.687	662.53
572.139	671.23
572.59	666.23
573.042	676.52
573.494	674.93
573.945	661.82
574.397	651.22
574.849	654.52
575.3	654.42
575.752	659.33
576.203	641.52
576.655	653.12
577.106	636.12
577.557	627.93
578.009	632.13
578.46	638.43
578.912	629.82
579.363	634.62
579.814	649.23
580.265	624.52
580.717	631.33
581.168	631.42
581.619	641.02
582.07	644.63
582.521	636.42
582.972	633.02
583.423	631.02
583.875	650.12
584.326	657.23
584.777	704.62
585.227	779.22
585.678	846.72
586.129	926.82
586.58	1013.73
587.031	1093.03
587.482	1250.42
587.933	1409.62
588.384	1225.33
588.834	911.22
589.285	754.23
589.736	740.62
590.186	728.12
590.637	722.72
591.088	700.52
591.538	688.92
591.989	680.83
592.439	693.62
592.89	676.23
593.34	670.42
593.791	665.92
594.241	662.82
594.692	667.42
595.142	662.83
595.593	658.22
596.043	662.52
596.493	672.83
596.943	665.32
597.394	680.33
597.844	672.92
598.294	678.43
598.744	698.83
599.195	731.72
599.645	767.33
600.095	794.52
600.545	848.73
600.995	911.43
601.445	968.92
601.895	1022.83
602.345	1057.82
602.795	1048.03
603.245	1002.62
603.695	947.03
604.145	891.42
604.594	849.13
605.044	800.72
605.494	741.12
605.944	698.62
606.393	695.43
606.843	681.83
607.293	684.52
607.743	688.72
608.192	691.73
608.642	708.33
609.091	707.82
609.541	724.22
609.99	720.63
610.44	708.93
610.889	670.32
611.339	652.12
611.788	638.43
612.238	650.02
612.687	668.12
613.136	670.53
613.586	688.43
614.035	683.93
614.484	704.52
614.933	703.42
615.383	691.72
615.832	681.43
616.281	673.82
616.73	630.83
617.179	607.52
617.628	595.92
618.077	587.22
618.526	579.02
618.975	569.43
619.424	568.02
619.873	569.32
620.322	575.92
620.771	571.72
621.22	554.52
621.669	548.63
622.118	543.43
622.567	527.52
623.015	528.12
623.464	527.72
623.913	521.73
624.361	519.73
624.81	507.52
625.259	508.73
625.707	512.82
626.156	519.62
626.604	526.73
627.053	531.92
627.501	512.92
627.95	520.23
628.398	539.32
628.847	516.63
629.295	529.42
629.744	534.23
630.192	528.12
630.64	520.23
631.089	517.82
631.537	529.72
631.985	529.53
632.433	545.33
632.881	550.02
633.33	599.32
633.778	587.22
634.226	516.13
634.674	517.63
635.122	534.73
635.57	538.62
636.018	579.22
636.466	525.12
636.914	508.72
637.362	525.02
637.81	522.82
638.258	534.13
638.705	534.12
639.153	552.62
639.601	560.83
640.049	584.82
640.497	616.52
640.944	643.82
641.392	590.12
641.84	560.73
642.287	530.42
642.735	518.02
643.182	522.02
643.63	529.33
644.078	534.63
644.525	536.12
644.973	539.52
645.42	545.52
645.867	560.22
646.315	576.13
646.762	598.63
647.21	623.13
647.657	658.32
648.104	685.42
648.551	707.83
648.999	755.72
649.446	833.33
649.893	910.93
650.34	1044.43
650.787	1261.82
651.234	1557.43
651.682	2016.03
652.129	2765.43
652.576	3985.43
653.023	5888.43
653.47	8108.93
653.917	10230.32
654.363	11947.83
654.81	13372.23
655.257	12707.02
655.704	8257.22
656.151	4863.02
656.598	3154.83
657.044	2244.02
657.491	1726.12
657.938	1370.72
658.385	1142.33
658.831	982.52
659.278	873.62
659.724	780.62
660.171	725.82
660.618	658.33
661.064	625.13
661.511	605.62
661.957	599.43
662.404	583.72
662.85	593.13
663.296	566.62
663.743	507.92
664.189	492.42
664.635	488.52
665.082	495.62
665.528	478.43
665.974	465.33
666.42	462.23
666.867	458.42
667.313	443.33
667.759	436.12
668.205	430.32
668.651	427.63
669.097	435.42
669.543	456.12
669.989	428.83
670.435	403.93
670.881	403.73
671.327	405.92
671.773	422.82
672.219	436.73
672.665	490.82
673.11	524.82
673.556	563.12
674.002	604.92
674.448	597.52
674.893	491.72
675.339	432.62
675.785	396.22
676.23	382.62
676.676	352.62
677.122	351.12
677.567	339.12
678.013	330.92
678.458	320.42
678.904	319.82
679.349	300.22
679.794	316.92
680.24	308.02
680.685	312.42
681.131	309.92
681.576	307.32
682.021	322.83
682.466	303.02
682.912	308.92
683.357	315.72
683.802	346.73
684.247	361.62
684.692	395.43
685.137	444.52
685.583	480.83
686.028	505.92
686.473	467.12
686.918	408.73
687.363	368.52
687.807	345.43
688.252	324.82
688.697	323.62
689.142	304.83
689.587	300.73
690.032	287.82
690.477	308.82
690.921	314.93
691.366	343.72
691.811	356.93
692.255	385.12
692.7	411.53
693.145	449.02
693.589	607.02
694.034	986.62
694.478	1363.53
694.923	1581.23
695.367	2080.33
695.812	1091.93
696.256	442.82
696.701	334.32
697.145	304.33
697.59	296.92
698.034	289.32
698.478	289.93
698.922	288.63
699.367	290.12
699.811	304.52
700.255	313.23
700.699	343.62
701.143	379.63
701.588	421.52
702.032	460.83
702.476	470.23
702.92	435.63
703.364	441.73
703.808	554.73
704.252	915.02
704.696	1288.73
705.14	1508.62
705.584	1950.53
706.027	956.02
706.471	464.23
706.915	350.52
707.359	312.12
707.803	283.42
708.246	268.32
708.69	274.82
709.134	277.33
709.577	281.92
710.021	286.32
710.465	270.52
710.908	268.42
711.352	267.33
711.795	276.62
712.239	311.72
712.682	341.82
713.126	373.52
713.569	414.02
714.012	322.62
714.456	286.52
714.899	266.33
715.342	246.63
715.786	230.83
716.229	226.52
716.672	224.62
717.115	217.92
717.558	220.02
718.002	225.23
718.445	232.72
718.888	257.52
719.331	259.82
719.774	280.33
720.217	275.02
720.66	247.43
721.103	242.93
721.546	233.52
721.989	222.42
722.432	211.53
722.874	214.42
723.317	209.53
723.76	206.92
724.203	220.23
724.645	277.92
725.088	391.42
725.531	504.32
725.974	576.73
726.416	486.62
726.859	272.62
727.301	224.53
727.744	214.93
728.187	210.23
728.629	216.52
729.071	217.12
729.514	228.83
729.956	254.23
730.399	254.92
730.841	259.62
731.283	240.02
731.726	238.02
732.168	229.22
732.61	240.32
733.053	250.52
733.495	275.82
733.937	314.63
734.379	350.92
734.821	387.72
735.263	472.52
735.705	730.92
736.148	1366.03
736.59	2277.12
737.032	2781.32
737.474	2252.73
737.916	720.62
738.357	379.62
738.799	289.42
739.241	264.62
739.683	250.52
740.125	258.33
740.567	257.52
741.008	281.82
741.45	279.72
741.892	283.42
742.334	306.02
742.775	312.32
743.217	301.73
743.658	237.73
744.1	224.82
744.542	230.53
744.983	274.03
745.425	305.32
745.866	309.02
746.307	251.12
746.749	252.72
747.19	288.23
747.632	396.93
748.073	742.32
748.514	1609.42
748.956	2545.22
749.397	3191.33
749.838	2644.73
750.279	2704.43
750.72	1348.42
751.162	495.42
751.603	278.23
752.044	222.52
752.485	190.42
752.926	180.82
753.367	174.92
753.808	167.92
754.249	176.52
754.69	160.92
755.131	156.83
755.572	165.42
756.013	158.72
756.453	161.52
756.894	163.83
757.335	166.43
757.776	166.02
758.216	171.92
758.657	174.02
759.098	177.42
759.538	191.83
759.979	234.82
760.42	323.83
760.86	606.02
761.301	1553.22
761.741	3871.73
762.182	5873.42
762.622	4136.82
763.063	1175.12
763.503	484.32
763.943	303.73
764.384	305.73
764.824	368.02
765.264	403.42
765.705	271.73
766.145	185.22
766.585	162.62
767.025	158.42
767.465	166.12
767.906	217.62
768.346	282.82
768.786	314.93
769.226	233.62
769.666	274.92
770.106	531.82
770.546	1333.53
770.986	2378.93
771.426	2160.73
771.866	700.02
772.306	292.12
772.745	186.62
773.185	155.02
773.625	151.12
774.065	143.92
774.505	170.52
774.944	263.52
775.384	588.82
775.824	1082.52
776.263	1093.53
776.703	457.12
777.142	195.83
777.582	134.32
778.021	126.52
778.461	128.43
778.9	125.82
779.34	114.62
779.779	100.52
780.219	101.73
780.658	94.23
781.097	92.92
781.537	110.02
781.976	98.82
782.415	90.52
782.855	95.52
783.294	94.93
783.733	98.92
784.172	97.72
784.611	92.22
785.05	99.72
785.489	95.43
785.928	111.82
786.367	110.02
786.806	105.02
787.245	116.62
787.684	125.22
788.123	135.23
788.562	117.12
789.001	108.93
789.44	105.92
789.879	98.82
790.317	97.12
790.756	115.12
791.195	113.52
791.634	121.83
792.072	176.52
792.511	308.93
792.95	863.82
793.388	1921.32
793.827	1768.43
794.265	604.72
794.704	250.42
795.142	170.12
795.581	133.92
796.019	118.23
796.458	114.62
796.896	110.33
797.334	116.52
797.773	134.62
798.211	193.72
798.649	374.52
799.087	892.52
799.526	1412.03
799.964	1779.12
800.402	1839.33
800.84	687.02
801.278	270.12
801.716	170.12
802.154	137.32
802.592	123.52
803.03	122.52
803.468	122.62
803.906	133.52
804.344	136.33
804.782	127.33
805.22	114.72
805.658	113.62
806.096	132.83
806.533	134.52
806.971	157.52
807.409	189.32
807.847	272.73
808.284	562.32
808.722	1628.92
809.16	2969.23
809.597	2731.12
810.035	4826.32
810.472	5340.03
810.91	1903.33
811.347	717.73
811.785	358.43
812.222	223.52
812.66	168.33
813.097	140.32
813.535	125.52
813.972	107.42
814.409	104.23
814.846	98.73
815.284	92.23
815.721	92.22
816.158	90.93
816.595	105.73
817.032	156.12
817.47	174.52
817.907	148.12
818.344	129.02
818.781	104.93
819.218	87.92
819.655	106.73
820.092	165.32
820.529	197.52
820.966	162.93
821.403	119.82
821.839	95.62
822.276	91.62
822.713	110.22
823.15	121.33
823.587	111.73
824.023	125.22
824.46	251.32
824.897	781.53
825.333	1233.73
825.77	527.02
826.206	205.92
826.643	121.32
827.08	87.52
827.516	80.02
827.953	71.62
828.389	76.02
828.825	65.82
829.262	56.42
829.698	55.82
830.135	66.33
830.571	54.42
831.007	55.83
831.443	55.52
831.88	54.33
832.316	51.22
832.752	53.23
833.188	55.83
833.624	58.62
834.06	60.52
834.497	59.32
834.933	62.93
835.369	65.92
835.805	60.12
836.241	65.12
836.677	72.73
837.112	79.82
837.548	91.73
837.984	120.12
838.42	170.83
838.856	416.52
839.292	1329.03
839.727	2082.43
840.163	966.43
840.599	797.83
841.034	1799.03
841.47	1946.12
841.906	706.43
842.341	299.12
842.777	204.93
843.212	277.93
843.648	285.52
844.083	134.92
844.519	79.73
844.954	64.62
845.39	52.33
845.825	51.12
846.261	51.62
846.696	52.82
847.131	48.73
847.566	53.82
848.002	44.02
848.437	50.83
848.872	54.02
849.307	51.52
849.742	70.43
850.177	148.33
850.613	480.23
851.048	796.62
851.483	351.73
851.918	135.02
852.353	80.02
852.788	57.12
853.223	50.62
853.657	46.62
854.092	39.12
854.527	36.92
854.962	42.22
855.397	37.02
855.832	45.23
856.266	32.52
856.701	35.83
857.136	32.12
857.57	38.73
858.005	42.52
858.44	49.92
858.874	36.62
859.309	52.23
859.743	35.72
860.178	41.62
860.612	37.82
861.047	47.32
861.481	65.32
861.915	70.52
862.35	47.82
862.784	31.82
863.218	30.92
863.653	35.72
864.087	42.32
864.521	51.33
864.955	66.52
865.39	140.92
865.824	155.93
866.258	100.12
866.692	149.73
867.126	158.22
867.56	97.52
867.994	46.92
868.428	33.52
868.862	37.23
869.296	48.83
869.73	47.52
870.164	50.52
870.598	43.33
871.031	30.62
871.465	27.22
871.899	27.02
872.333	22.23
872.766	20.73
873.2	18.12
873.634	25.42
874.067	22.92
874.501	20.82
874.935	34.02
875.368	25.62
875.802	23.32
876.235	18.42
876.669	22.52
877.102	22.02
877.535	24.93
877.969	23.62
878.402	15.42
878.836	16.62
879.269	21.43
879.702	20.12
880.135	13.72
880.569	18.62
881.002	22.52
881.435	16.12
881.868	13.52
882.301	22.12
882.734	12.32
883.167	22.42
883.601	15.02
884.034	17.62
884.467	11.62
884.899	13.82
885.332	13.42
885.765	11.73
886.198	17.22
886.631	20.62
887.064	16.32
887.497	17.12
887.929	24.52
888.362	14.52
888.795	14.62
889.228	14.73
889.66	22.12
890.093	11.92
890.526	11.52
890.958	11.73
891.391	10.93
891.823	14.73
892.256	14.73
892.688	10.12
893.121	16.33
893.553	16.22
893.985	18.42
894.418	18.52
894.85	13.33
895.282	13.82
895.715	15.52
896.147	18.62
896.579	10.22
897.011	14.93
897.444	17.73
897.876	16.43
898.308	13.32
898.74	7.33
899.172	8.23
899.604	19.73
900.036	23.72
900.468	14.02
900.9	10.12
901.332	16.92
901.764	13.23
902.196	16.83
902.628	15.92
903.06	16.42
903.491	28.12
903.923	21.42
904.355	20.62
904.787	19.42
905.218	15.83
905.65	16.52
906.082	9.22
906.513	13.62
906.945	8.22
907.376	12.32
907.808	13.02
908.239	21.52
908.671	20.23
909.102	16.62
909.534	23.62
909.965	43.83
910.397	82.12
910.828	276.52
911.259	436.02
911.691	191.72
912.122	95.62
912.553	46.52
912.984	31.73
913.415	24.02
913.847	21.12
914.278	11.12
914.709	11.72
915.14	12.12
915.571	10.42
916.002	15.73
916.433	16.93
916.864	14.42
917.295	10.62
917.726	17.23
918.157	19.42
918.587	28.82
919.018	16.52
919.449	19.23
919.88	20.52
920.311	32.12
920.741	40.02
921.172	144.62
921.603	136.52
922.033	55.02
922.464	46.83
922.895	18.32
923.325	22.62
923.756	19.32
924.186	14.62
924.617	15.43
925.047	38.02
925.478	45.52
925.908	39.02
926.338	22.33
926.769	20.12
927.199	16.52
927.629	2.23
928.06	13.52
928.49	11.93
928.92	14.82
929.35	12.83
929.78	9.02
930.21	4.42
930.641	8.23
931.071	2.32
931.501	0.92
931.931	8.33
932.361	5.02
932.791	2.92
933.221	4.12
933.651	1.23
934.08	11.42
934.51	23.12
934.94	6.83
935.37	8.33
935.8	9.92
936.229	11.22
936.659	9.52
937.089	-0.48
937.519	16.92
937.948	24.32
938.378	18.83
938.807	11.32
939.237	6.93
939.666	4.33
940.096	-6.38
940.525	3.02
940.955	3.62
941.384	2.93
941.814	-7.48
942.243	-2.48
942.672	5.82
943.102	-0.67
943.531	1.73
943.96	2.62
944.39	5.32
944.819	5.22
945.248	1.42
945.677	2.52
946.106	2.33
946.535	2.32
946.964	-2.38
947.393	5.12
947.822	4.93
948.251	-1.48
948.68	4.12
949.109	-0.28
949.538	1.83
949.967	2.23
950.396	1.52
950.825	2.52
951.254	2.52
951.682	-5.28
952.111	6.42
952.54	8.02
952.969	4.12
953.397	-6.98
953.826	-0.28
954.254	-5.77
954.683	0.02
955.112	-6.88
955.54	-3.77
955.969	0.52
956.397	-0.88
956.826	2.42
957.254	0.52
957.682	2.32
958.111	7.22
958.539	-3.48
958.967	-2.58
959.396	2.22
959.824	-2.57
960.252	-2.58
960.68	-3.28
961.109	-1.18
961.537	-5.17
961.965	8.02
962.393	3.02
962.821	-5.07
963.249	1.62
963.677	3.92
964.105	2.72
964.533	41.12
964.961	40.52
965.389	23.33
965.817	10.42
966.245	9.12
966.672	3.73
967.1	-2.17
967.528	-1.68
967.956	-5.88
968.383	-1.98
968.811	-0.27
969.239	-0.78
969.666	-4.38
970.094	-4.58
970.522	2.52
970.949	-7.08
971.377	-3.88
971.804	-2.67
972.232	-3.98
972.659	1.83
973.087	-3.48
973.514	-0.78
973.941	-5.58
974.369	2.62
974.796	0.02
975.223	0.82
975.651	1.93
976.078	2.62
976.505	-7.18
976.932	4.92
977.359	13.82
977.786	8.82
978.214	9.82
978.641	-4.38
979.068	-0.88
979.495	-5.08
979.922	-0.08
980.349	-4.68
980.776	5.82
981.202	-0.68
981.629	5.42
982.056	4.62
982.483	-0.27
982.91	3.62
983.337	-1.88
983.763	5.42
984.19	-9.58
984.617	-3.27
985.043	-5.68
985.47	-2.48
985.897	-6.88
986.323	-3.28
986.75	8.52
987.176	-0.08
987.603	3.12
988.029	2.72
988.456	-4.78
988.882	2.43
989.308	-2.38
989.735	0.42
990.161	-6.58
990.587	-4.98
991.014	2.42
991.44	4.42
991.866	-1.57
992.292	-5.98
992.719	-4.98
993.145	-2.67
993.571	-12.57
993.997	-7.48
994.423	-0.08
994.849	-6.78
995.275	4.83
995.701	-6.98
996.127	-3.08
996.553	1.62
996.979	-3.17
997.405	-0.98
997.83	-7.78
998.256	-8.58
998.682	-11.38
999.108	-7.18
999.534	-2.38
999.959	-5.98
1000.385	-0.27
1000.811	-0.38
1001.236	-13.58
1001.662	-9.77
1002.087	-8.88
1002.513	-6.98
1002.938	0.93
1003.364	-6.98
1003.789	0.62
1004.215	-4.38
1004.64	-3.88
1005.066	0.12
1005.491	0.02
1005.916	-1.98
1006.342	-3.98
1006.767	-9.98
1007.192	4.73
1007.617	-10.58
1008.042	-1.98
1008.468	-2.78
1008.893	-8.17
1009.318	-2.88
1009.743	-5.58
1010.168	3.42
1010.593	1.32
1011.018	-8.67
1011.443	0.82
1011.868	-2.67
1012.293	-4.88
1012.718	-8.48
1013.143	0.52
1013.567	2.52
1013.992	-2.08
1014.417	-13.88
1014.842	1.22
1015.267	1.92
1015.691	-3.98
1016.116	5.52
1016.541	-3.98
1016.965	1.62
1017.39	1.52
1017.814	2.73
1018.239	-3.18
1018.663	-7.28
1019.088	-11.08
1019.512	-1.08
1019.937	0.82
1020.361	-4.08
1020.785	-9.98
1021.21	-1.77
1021.634	-5.38
1022.058	0.32
1022.483	2.42
1022.907	-10.18
1023.331	-4.17
1023.755	-2.88
1024.179	-5.58
1024.604	-5.67
1025.028	-4.18
1025.452	-5.98
1025.876	-2.78
1026.3	-0.88
1026.724	-15.18
1027.148	-4.58
1027.572	-5.98
1027.996	-5.08
1028.42	-2.18
1028.843	-1.88
1029.267	-4.08
1029.691	-2.58
1030.115	-9.27
1030.539	-9.08
1030.962	-10.58
1031.386	-11.27
1031.81	-2.67
1032.233	0.23
1032.657	-2.48
1033.08	-0.98
1033.504	0.22
1033.927	-5.88
1034.351	-0.77
1034.774	-8.58
1035.198	2.62
1035.621	-5.67
1036.045	-8.88
1036.468	1.72
1036.891	-12.08
1037.315	-7.48
1037.738	-11.77
1038.161	-2.18
1038.584	-4.58
1039.008	-3.38
1039.431	-4.88
1039.854	-2.18
1040.277	-8.67
1040.7	-13.58
1041.123	-2.38
1041.546	-14.38
1041.969	-5.98
1042.392	-4.98
1042.815	-5.28
1043.238	0.12
1043.661	1.42
1044.084	-6.88
1044.507	-0.68
1044.93	-7.48
1045.352	-5.68
1045.775	-1.48
1046.198	-1.38
1046.621	-4.77
1047.043	-3.07
1047.466	2.62
1047.889	-1.18
1048.311	-1.98
1048.734	-1.38
1049.156	-3.08
1049.579	0.52
1050.001	-2.67
1050.424	-3.68
1050.846	0.72
1051.269	-5.38
1051.691	-7.98
1052.113	-0.68
1052.536	-7.48
1052.958	-3.18
1053.38	-7.18
1053.802	-7.88
1054.225	-4.08
1054.647	-12.38
1055.069	-8.58
1055.491	4.33
1055.913	-7.98
1056.335	-4.68
1056.757	-3.98
1057.179	-7.68
1057.601	-6.88
1058.023	0.23
1058.445	-1.78
1058.867	-7.58
1059.289	-6.48
1059.711	-5.07
1060.133	-4.98
1060.555	-4.98
1060.976	-9.28
1061.398	-9.77
1061.82	-6.18
1062.241	-10.08
1062.663	-10.48
1063.085	-4.18
1063.506	-0.38
1063.928	-8.58
1064.35	-3.38
1064.771	-13.08
1065.193	-6.58
1065.614	-8.88
1066.035	-2.77
1066.457	-3.77
1066.878	-6.98
1067.3	-6.48
1067.721	1.82
1068.142	-5.18
1068.564	-2.48
1068.985	3.02
1069.406	-7.17
1069.827	-8.18
1070.248	-6.68
1070.67	-3.98
1071.091	-7.57
1071.512	0.62
1071.933	-6.28
1072.354	-4.67
1072.775	-5.88
1073.196	-7.98
1073.617	-8.28
1074.038	-6.88
1074.459	-4.98
1074.88	-10.88
1075.3	2.73
1075.721	-10.48
1076.142	0.73
1076.563	0.72
1076.983	-13.08
1077.404	-8.57
1077.825	-7.38
1078.246	-2.98
1078.666	-11.18
1079.087	-0.07
1079.507	-3.98
1079.928	-0.98
1080.348	-0.38
1080.769	-7.98
1081.189	-4.77
1081.61	-0.48
1082.03	-8.38
1082.451	-2.27
1082.871	-6.48
1083.291	-8.28
1083.711	-8.38
1084.132	-9.58
1084.552	-6.08
1084.972	-8.88
1085.392	-10.18
1085.813	-9.08
1086.233	-8.38
1086.653	-12.77
1087.073	-7.77
1087.493	-8.48
1087.913	-7.48
1088.333	-8.48
1088.753	-5.58
1089.173	-1.68
1089.593	-7.88
1090.013	-5.88
1090.433	0.62
1090.852	-5.77
1091.272	-4.98
1091.692	2.12
1092.112	-0.77
1092.531	-9.08
1092.951	-19.27
1093.371	-9.08
1093.79	1.12
1094.21	-5.98
1094.63	-6.88
1095.049	-5.67
1095.469	-0.38
1095.888	-5.08
1096.308	-2.48
1096.727	-0.08
1097.146	-3.77
1097.566	0.23
1097.985	-9.58
1098.405	-5.38
1098.824	-8.27
1099.243	-9.67
1099.662	-10.98
1100.082	-3.57
1100.501	-0.58
1100.92	-9.38
1101.339	1.12
1101.758	-7.98
