Data from 20171114-ORNL-Ar_H_NY_Subt18_08-07-42-081.txt Node
Date: Tue Nov 14 08:07:42 EST 2017
User: Ender
Spectrometer: HR+D1039
Trigger mode: 0
Integration Time (sec): 2.730000E-2
Scans to average: 10
Electric dark correction enabled: true
Nonlinearity correction enabled: false
Boxcar width: 0
XAxis mode: Wavelengths
Number of Pixels in Spectrum: 2048
>>>>>Begin Spectral Data<<<<<
187.836	0.86
188.309	0.86
188.782	0.86
189.255	0.16
189.728	-4.24
190.201	5.46
190.674	2.36
191.147	1.66
191.619	-9.24
192.092	2.26
192.565	3.06
193.038	1.16
193.511	0.26
193.984	3.46
194.456	-5.44
194.929	1.26
195.402	-2.64
195.874	-0.34
196.347	-3.34
196.82	-4.34
197.292	6.06
197.765	-8.44
198.237	-8.54
198.71	3.76
199.182	-3.54
199.655	1.16
200.127	6.56
200.6	-6.94
201.072	-10.44
201.544	-1.74
202.017	-5.44
202.489	4.06
202.961	-3.34
203.433	1.66
203.906	-9.04
204.378	-8.44
204.85	-0.04
205.322	-10.44
205.794	-2.74
206.266	-0.84
206.739	-6.44
207.211	4.96
207.683	-7.34
208.155	-9.04
208.627	0.86
209.099	-4.34
209.57	-8.44
210.042	-6.64
210.514	-5.54
210.986	-5.34
211.458	-7.54
211.93	-5.34
212.402	0.56
212.873	-6.54
213.345	-4.74
213.817	-8.14
214.288	-5.84
214.76	-11.24
215.232	-7.74
215.703	-3.84
216.175	-1.14
216.646	-0.34
217.118	-6.44
217.589	-0.24
218.061	-4.74
218.532	-1.24
219.004	-0.14
219.475	2.06
219.946	-4.84
220.418	-5.74
220.889	0.46
221.36	-0.54
221.832	1.86
222.303	-9.14
222.774	-0.74
223.245	-7.24
223.717	-7.94
224.188	-2.24
224.659	-7.54
225.13	-4.44
225.601	-1.44
226.072	0.76
226.543	-6.44
227.014	5.56
227.485	-11.34
227.956	-7.74
228.427	-2.54
228.898	-0.74
229.369	4.16
229.839	-4.44
230.31	-4.74
230.781	-0.34
231.252	-0.74
231.722	-9.54
232.193	0.76
232.664	0.06
233.135	-1.24
233.605	1.86
234.076	-7.44
234.546	1.96
235.017	-0.84
235.487	0.86
235.958	-5.34
236.428	2.66
236.899	3.76
237.369	7.06
237.84	-1.54
238.31	12.16
238.78	0.76
239.251	-0.74
239.721	0.86
240.191	-0.44
240.662	0.66
241.132	1.86
241.602	2.26
242.072	-1.64
242.542	10.46
243.013	-2.14
243.483	4.96
243.953	3.86
244.423	1.76
244.893	-0.84
245.363	-0.34
245.833	2.76
246.303	-7.54
246.773	7.46
247.243	1.86
247.712	2.26
248.182	9.16
248.652	1.66
249.122	-4.74
249.592	11.66
250.061	20.46
250.531	32.26
251.001	14.56
251.471	17.46
251.94	13.96
252.41	5.66
252.879	-3.04
253.349	8.36
253.818	7.46
254.288	4.16
254.757	-0.24
255.227	2.26
255.696	0.66
256.166	-1.14
256.635	3.66
257.105	3.46
257.574	2.26
258.043	12.46
258.513	6.86
258.982	9.86
259.451	8.26
259.92	6.86
260.389	8.56
260.859	11.26
261.328	7.66
261.797	6.76
262.266	6.36
262.735	10.96
263.204	-0.74
263.673	10.46
264.142	4.86
264.611	-5.94
265.08	4.86
265.549	-4.84
266.018	10.16
266.487	-2.34
266.955	-7.94
267.424	-2.34
267.893	6.66
268.362	-2.54
268.83	-5.64
269.299	8.16
269.768	2.86
270.236	8.06
270.705	-4.44
271.174	8.86
271.642	10.26
272.111	6.56
272.579	18.16
273.048	16.66
273.516	23.66
273.985	22.16
274.453	24.96
274.922	13.56
275.39	12.46
275.858	-0.64
276.327	16.16
276.795	12.06
277.263	8.96
277.731	21.46
278.2	49.56
278.668	47.46
279.136	38.36
279.604	18.86
280.072	11.96
280.54	6.36
281.008	6.36
281.477	11.56
281.945	8.76
282.413	12.86
282.881	16.56
283.348	1.16
283.816	15.46
284.284	7.26
284.752	20.66
285.22	11.26
285.688	13.36
286.156	12.36
286.623	36.16
287.091	43.16
287.559	18.86
288.026	17.66
288.494	7.26
288.962	-3.74
289.429	6.16
289.897	15.06
290.364	12.76
290.832	10.16
291.3	12.96
291.767	11.96
292.234	18.46
292.702	11.86
293.169	12.66
293.637	19.06
294.104	18.96
294.571	10.86
295.039	8.46
295.506	9.26
295.973	12.96
296.44	17.86
296.908	12.86
297.375	15.66
297.842	16.56
298.309	14.16
298.776	6.46
299.243	13.76
299.71	12.46
300.177	17.26
300.644	13.86
301.111	12.06
301.578	26.26
302.045	17.96
302.512	24.86
302.979	22.36
303.446	20.46
303.913	15.16
304.379	16.16
304.846	24.46
305.313	22.56
305.78	22.96
306.246	19.76
306.713	22.46
307.18	21.86
307.646	22.06
308.113	21.26
308.579	15.16
309.046	20.26
309.512	20.06
309.979	17.66
310.445	23.66
310.912	24.46
311.378	27.96
311.845	25.56
312.311	29.16
312.777	31.36
313.244	26.16
313.71	27.06
314.176	25.46
314.642	25.06
315.109	28.96
315.575	33.96
316.041	32.16
316.507	30.16
316.973	29.96
317.439	29.46
317.905	27.96
318.371	31.96
318.837	30.86
319.303	31.06
319.769	26.76
320.235	31.56
320.701	30.76
321.167	35.26
321.633	34.66
322.099	34.76
322.564	43.66
323.03	33.76
323.496	36.76
323.962	36.46
324.427	28.56
324.893	38.56
325.359	29.76
325.824	30.06
326.29	29.96
326.755	28.56
327.221	33.66
327.686	31.96
328.152	29.46
328.617	30.06
329.083	44.06
329.548	43.16
330.014	42.46
330.479	33.86
330.944	38.96
331.41	33.36
331.875	34.06
332.34	38.36
332.805	37.56
333.271	40.16
333.736	38.86
334.201	49.86
334.666	53.96
335.131	45.86
335.596	44.56
336.061	45.66
336.526	32.16
336.991	39.76
337.456	49.26
337.921	46.86
338.386	36.46
338.851	35.36
339.316	45.56
339.781	37.96
340.246	42.76
340.711	41.66
341.175	42.96
341.64	33.86
342.105	45.06
342.569	45.06
343.034	45.86
343.499	49.06
343.963	46.56
344.428	57.76
344.893	61.16
345.357	56.06
345.822	53.06
346.286	61.96
346.751	62.76
347.215	61.76
347.679	68.06
348.144	80.66
348.608	72.66
349.073	57.96
349.537	64.46
350.001	74.16
350.465	76.36
350.93	74.66
351.394	73.76
351.858	65.26
352.322	80.66
352.786	74.46
353.25	94.16
353.715	99.06
354.179	80.76
354.643	105.76
355.107	115.16
355.571	95.06
356.035	91.76
356.498	106.96
356.962	109.36
357.426	115.76
357.89	107.26
358.354	79.76
358.818	75.66
359.281	69.96
359.745	71.16
360.209	68.86
360.673	69.76
361.136	78.36
361.6	79.86
362.064	77.86
362.527	79.26
362.991	83.26
363.454	70.06
363.918	69.46
364.381	64.96
364.845	72.86
365.308	78.76
365.772	75.66
366.235	82.96
366.698	80.76
367.162	85.06
367.625	75.56
368.088	78.46
368.552	78.56
369.015	81.46
369.478	98.56
369.941	91.86
370.404	86.16
370.867	97.96
371.331	93.26
371.794	111.86
372.257	105.26
372.72	110.96
373.183	99.56
373.646	103.96
374.109	92.86
374.572	99.16
375.035	93.56
375.497	100.06
375.96	100.86
376.423	99.16
376.886	105.76
377.349	100.96
377.811	96.16
378.274	96.06
378.737	95.06
379.199	99.16
379.662	108.06
380.125	112.96
380.587	113.06
381.05	110.06
381.512	117.26
381.975	125.46
382.437	124.46
382.9	120.96
383.362	126.66
383.825	129.06
384.287	136.66
384.75	127.86
385.212	125.96
385.674	127.76
386.136	130.26
386.599	116.56
387.061	114.06
387.523	122.76
387.985	130.86
388.447	133.56
388.91	126.26
389.372	151.26
389.834	144.86
390.296	138.56
390.758	142.76
391.22	160.26
391.682	200.16
392.144	284.16
392.606	209.16
393.068	164.26
393.529	160.06
393.991	139.36
394.453	133.26
394.915	140.36
395.377	186.66
395.838	203.86
396.3	148.96
396.762	127.46
397.224	126.56
397.685	118.16
398.147	116.86
398.608	123.56
399.07	120.16
399.531	129.16
399.993	135.56
400.454	141.26
400.916	138.66
401.377	142.56
401.839	147.36
402.3	141.46
402.762	154.96
403.223	161.96
403.684	155.86
404.145	146.66
404.607	149.76
405.068	150.16
405.529	164.66
405.99	173.26
406.451	163.16
406.913	167.96
407.374	153.66
407.835	155.16
408.296	159.86
408.757	169.26
409.218	168.66
409.679	175.36
410.14	157.46
410.601	165.96
411.062	172.26
411.522	187.06
411.983	179.86
412.444	163.56
412.905	167.76
413.366	162.86
413.826	180.46
414.287	204.96
414.748	249.56
415.208	236.26
415.669	199.76
416.13	196.46
416.59	188.36
417.051	194.96
417.511	209.96
417.972	224.46
418.432	239.86
418.893	282.66
419.353	236.66
419.814	184.46
420.274	171.46
420.734	174.46
421.195	192.66
421.655	187.26
422.115	185.16
422.576	185.86
423.036	186.16
423.496	201.96
423.956	207.86
424.416	223.86
424.876	244.26
425.336	246.76
425.797	241.56
426.257	244.46
426.717	218.76
427.177	215.86
427.637	206.76
428.097	216.76
428.556	235.66
429.016	257.16
429.476	257.06
429.936	265.06
430.396	270.76
430.856	274.46
431.315	307.36
431.775	336.56
432.235	359.26
432.694	335.26
433.154	345.26
433.614	378.76
434.073	318.46
434.533	275.26
434.993	255.66
435.452	272.46
435.912	285.26
436.371	273.16
436.83	273.56
437.29	253.56
437.749	234.26
438.209	237.26
438.668	267.26
439.127	274.66
439.587	247.66
440.046	236.96
440.505	249.26
440.964	262.86
441.424	302.26
441.883	298.56
442.342	242.86
442.801	210.26
443.26	212.56
443.719	217.96
444.178	207.26
444.637	196.56
445.096	209.56
445.555	211.86
446.014	213.56
446.473	218.06
446.932	224.16
447.391	218.46
447.849	220.86
448.308	209.26
448.767	213.16
449.226	225.26
449.685	226.66
450.143	234.26
450.602	231.96
451.061	217.76
451.519	218.46
451.978	220.56
452.436	228.16
452.895	226.16
453.353	247.46
453.812	235.16
454.27	228.66
454.729	223.96
455.187	234.66
455.646	237.36
456.104	243.56
456.562	243.56
457.021	262.86
457.479	251.96
457.937	255.76
458.395	253.66
458.854	234.26
459.312	240.56
459.77	255.16
460.228	244.76
460.686	227.66
461.144	231.36
461.602	232.46
462.06	234.26
462.518	246.56
462.976	233.36
463.434	246.86
463.892	251.46
464.35	272.66
464.808	277.06
465.266	254.56
465.724	259.46
466.181	257.56
466.639	262.96
467.097	273.26
467.555	287.06
468.012	287.06
468.47	292.46
468.928	319.86
469.385	324.46
469.843	333.96
470.3	335.66
470.758	348.06
471.215	369.86
471.673	388.56
472.13	390.56
472.588	400.36
473.045	362.06
473.503	363.16
473.96	374.16
474.417	392.06
474.875	418.66
475.332	463.96
475.789	450.26
476.246	448.26
476.704	471.76
477.161	490.76
477.618	500.46
478.075	544.66
478.532	588.46
478.989	662.36
479.446	779.16
479.903	744.86
480.36	774.46
480.817	828.96
481.274	927.46
481.731	1023.86
482.188	1108.66
482.645	1264.46
483.102	1344.16
483.558	1480.86
484.015	1541.06
484.472	1504.66
484.929	1470.96
485.385	1408.66
485.842	1379.26
486.299	1300.86
486.755	1239.96
487.212	1047.06
487.668	891.56
488.125	825.46
488.582	752.96
489.038	721.36
489.494	680.86
489.951	666.06
490.407	640.36
490.864	624.16
491.32	619.36
491.776	621.46
492.233	622.46
492.689	579.06
493.145	588.06
493.602	575.86
494.058	592.86
494.514	592.96
494.97	614.06
495.426	623.46
495.882	593.46
496.338	586.16
496.794	607.06
497.251	597.06
497.707	611.46
498.163	615.96
498.618	618.36
499.074	611.56
499.53	647.06
499.986	648.96
500.442	629.76
500.898	609.56
501.354	601.76
501.809	610.26
502.265	616.46
502.721	632.56
503.177	654.36
503.632	648.06
504.088	650.36
504.543	689.66
504.999	672.36
505.455	630.66
505.91	609.06
506.366	610.26
506.821	597.76
507.277	601.16
507.732	600.26
508.187	607.76
508.643	604.56
509.098	607.16
509.553	629.36
510.009	643.76
510.464	648.66
510.919	663.56
511.375	666.56
511.83	681.56
512.285	702.86
512.74	736.96
513.195	751.86
513.65	742.56
514.105	734.36
514.56	741.46
515.015	764.56
515.47	779.96
515.925	766.26
516.38	769.36
516.835	772.26
517.29	758.26
517.745	751.76
518.2	736.16
518.655	722.76
519.109	712.56
519.564	718.76
520.019	704.76
520.474	710.66
520.928	700.16
521.383	697.76
521.838	697.96
522.292	682.86
522.747	690.56
523.201	677.86
523.656	667.46
524.11	673.66
524.565	681.56
525.019	669.46
525.474	680.76
525.928	677.16
526.382	674.06
526.837	676.36
527.291	674.16
527.745	674.86
528.2	672.76
528.654	669.06
529.108	656.16
529.562	665.76
530.016	656.36
530.47	665.56
530.925	677.36
531.379	673.06
531.833	684.76
532.287	680.26
532.741	685.56
533.195	680.46
533.649	683.66
534.103	698.26
534.556	684.96
535.01	685.86
535.464	674.66
535.918	689.86
536.372	699.36
536.826	703.66
537.279	679.36
537.733	690.46
538.187	703.16
538.64	683.86
539.094	698.46
539.548	703.46
540.001	701.86
540.455	701.16
540.908	706.26
541.362	713.26
541.815	728.56
542.269	738.06
542.722	735.56
543.175	744.96
543.629	739.86
544.082	761.16
544.536	759.96
544.989	755.96
545.442	764.56
545.895	760.86
546.349	758.06
546.802	773.46
547.255	779.16
547.708	792.16
548.161	799.66
548.614	791.16
549.067	804.56
549.52	798.76
549.973	787.26
550.426	781.66
550.879	767.66
551.332	778.06
551.785	772.56
552.238	781.06
552.691	790.46
553.144	807.76
553.596	817.56
554.049	831.86
554.502	866.96
554.955	880.16
555.407	877.76
555.86	876.96
556.313	862.46
556.765	854.66
557.218	864.36
557.67	861.36
558.123	847.46
558.576	851.36
559.028	852.36
559.48	859.26
559.933	842.36
560.385	806.66
560.838	784.76
561.29	770.06
561.742	766.16
562.195	745.06
562.647	738.66
563.099	758.06
563.551	759.86
564.004	759.96
564.456	753.96
564.908	737.36
565.36	731.66
565.812	713.06
566.264	712.56
566.716	701.86
567.168	689.86
567.62	705.46
568.072	690.66
568.524	682.56
568.976	671.36
569.428	663.66
569.88	667.46
570.332	667.26
570.784	658.76
571.235	661.76
571.687	671.06
572.139	682.56
572.59	694.26
573.042	696.76
573.494	702.56
573.945	675.46
574.397	661.36
574.849	678.56
575.3	672.16
575.752	659.66
576.203	664.36
576.655	667.46
577.106	650.36
577.557	644.96
578.009	660.26
578.46	658.86
578.912	648.06
579.363	645.86
579.814	654.86
580.265	641.16
580.717	660.16
581.168	650.96
581.619	662.06
582.07	666.06
582.521	658.66
582.972	652.36
583.423	663.16
583.875	667.86
584.326	684.66
584.777	744.06
585.227	806.66
585.678	892.56
586.129	983.26
586.58	1063.26
587.031	1130.66
587.482	1282.06
587.933	1477.06
588.384	1286.76
588.834	945.46
589.285	789.56
589.736	766.86
590.186	749.06
590.637	746.46
591.088	719.46
591.538	721.66
591.989	712.56
592.439	704.36
592.89	700.76
593.34	692.76
593.791	698.36
594.241	686.86
594.692	699.36
595.142	686.26
595.593	671.76
596.043	685.96
596.493	703.16
596.943	698.26
597.394	712.96
597.844	697.76
598.294	713.26
598.744	730.06
599.195	755.66
599.645	799.86
600.095	847.36
600.545	891.76
600.995	949.16
601.445	1004.86
601.895	1064.96
602.345	1108.26
602.795	1088.76
603.245	1034.26
603.695	983.56
604.145	944.46
604.594	879.26
605.044	835.16
605.494	771.26
605.944	732.36
606.393	726.46
606.843	714.36
607.293	723.16
607.743	722.76
608.192	736.56
608.642	748.26
609.091	742.06
609.541	747.96
609.99	761.86
610.44	748.66
610.889	708.56
611.339	684.06
611.788	668.66
612.238	690.36
612.687	713.46
613.136	700.56
613.586	726.56
614.035	723.26
614.484	738.16
614.933	748.26
615.383	730.66
615.832	722.36
616.281	715.46
616.73	670.16
617.179	654.36
617.628	635.56
618.077	621.06
618.526	608.86
618.975	619.06
619.424	604.96
619.873	596.66
620.322	606.16
620.771	601.86
621.22	584.26
621.669	582.06
622.118	572.26
622.567	565.76
623.015	551.66
623.464	564.26
623.913	546.26
624.361	541.76
624.81	534.96
625.259	542.66
625.707	545.16
626.156	548.56
626.604	557.96
627.053	553.16
627.501	541.76
627.95	564.06
628.398	560.96
628.847	568.96
629.295	558.26
629.744	559.96
630.192	556.36
630.64	564.36
631.089	552.16
631.537	566.86
631.985	580.76
632.433	593.46
632.881	593.36
633.33	651.76
633.778	637.06
634.226	565.86
634.674	559.16
635.122	572.66
635.57	584.76
636.018	623.56
636.466	578.86
636.914	548.86
637.362	549.76
637.81	562.06
638.258	567.26
638.705	582.26
639.153	600.26
639.601	608.76
640.049	635.46
640.497	657.26
640.944	686.86
641.392	632.56
641.84	601.26
642.287	566.36
642.735	558.36
643.182	567.56
643.63	569.66
644.078	568.36
644.525	588.76
644.973	591.56
645.42	589.66
645.867	612.26
646.315	639.36
646.762	650.26
647.21	682.76
647.657	701.86
648.104	736.06
648.551	758.86
648.999	821.66
649.446	898.66
649.893	995.66
650.34	1141.66
650.787	1368.86
651.234	1715.56
651.682	2237.96
652.129	3069.26
652.576	4434.56
653.023	6549.76
653.47	8925.26
653.917	11114.06
654.363	12788.36
654.81	14072.76
655.257	13373.16
655.704	8752.96
656.151	5168.56
656.598	3354.86
657.044	2372.56
657.491	1830.16
657.938	1463.96
658.385	1223.86
658.831	1063.06
659.278	936.76
659.724	838.36
660.171	768.96
660.618	708.36
661.064	678.46
661.511	656.56
661.957	647.16
662.404	626.26
662.85	644.06
663.296	614.86
663.743	552.76
664.189	528.96
664.635	520.46
665.082	513.96
665.528	512.86
665.974	510.76
666.42	501.86
666.867	496.46
667.313	490.66
667.759	468.06
668.205	471.06
668.651	482.66
669.097	473.66
669.543	492.26
669.989	468.56
670.435	445.26
670.881	442.96
671.327	450.06
671.773	466.66
672.219	481.46
672.665	537.56
673.11	574.86
673.556	622.46
674.002	655.86
674.448	644.66
674.893	533.26
675.339	463.46
675.785	425.56
676.23	406.26
676.676	387.96
677.122	378.16
677.567	369.56
678.013	359.36
678.458	353.16
678.904	355.56
679.349	339.76
679.794	353.36
680.24	343.16
680.685	338.46
681.131	343.06
681.576	344.76
682.021	351.86
682.466	342.06
682.912	337.76
683.357	342.96
683.802	373.16
684.247	399.56
684.692	447.16
685.137	482.96
685.583	520.26
686.028	545.16
686.473	513.06
686.918	438.26
687.363	407.56
687.807	389.56
688.252	359.36
688.697	354.26
689.142	333.46
689.587	328.46
690.032	325.36
690.477	332.86
690.921	343.46
691.366	380.46
691.811	398.06
692.255	424.76
692.7	449.46
693.145	496.66
693.589	697.06
694.034	1125.26
694.478	1507.86
694.923	1691.36
695.367	2193.56
695.812	1170.56
696.256	488.56
696.701	370.76
697.145	343.96
697.59	326.96
698.034	319.26
698.478	318.46
698.922	329.16
699.367	329.96
699.811	337.86
700.255	357.76
700.699	388.16
701.143	429.36
701.588	475.06
702.032	508.56
702.476	503.76
702.92	484.36
703.364	484.16
703.808	637.36
704.252	1023.46
704.696	1424.96
705.14	1632.46
705.584	2075.46
706.027	1030.56
706.471	515.16
706.915	382.46
707.359	349.26
707.803	319.26
708.246	308.16
708.69	308.56
709.134	309.56
709.577	301.76
710.021	309.56
710.465	298.46
710.908	302.56
711.352	289.36
711.795	305.46
712.239	353.26
712.682	377.36
713.126	418.46
713.569	458.06
714.012	366.06
714.456	321.26
714.899	294.96
715.342	273.76
715.786	257.16
716.229	256.16
716.672	252.66
717.115	246.36
717.558	244.16
718.002	250.96
718.445	256.26
718.888	281.66
719.331	290.46
719.774	296.16
720.217	293.46
720.66	280.06
721.103	266.46
721.546	250.36
721.989	243.36
722.432	225.26
722.874	231.86
723.317	230.66
723.76	240.26
724.203	251.86
724.645	318.56
725.088	447.56
725.531	555.46
725.974	638.96
726.416	530.26
726.859	298.66
727.301	243.16
727.744	240.66
728.187	229.76
728.629	233.86
729.071	242.36
729.514	257.16
729.956	268.26
730.399	278.36
730.841	286.46
731.283	266.16
731.726	269.36
732.168	259.06
732.61	262.86
733.053	280.96
733.495	304.96
733.937	350.06
734.379	395.16
734.821	429.76
735.263	531.26
735.705	834.06
736.148	1570.66
736.59	2538.66
737.032	2956.66
737.474	2406.96
737.916	795.56
738.357	420.96
738.799	319.86
739.241	296.26
739.683	282.36
740.125	286.16
740.567	291.16
741.008	317.36
741.45	313.16
741.892	314.26
742.334	344.26
742.775	347.46
743.217	328.26
743.658	268.86
744.1	244.16
744.542	259.16
744.983	310.06
745.425	333.56
745.866	332.66
746.307	279.46
746.749	286.26
747.19	323.06
747.632	454.26
748.073	891.46
748.514	1853.66
748.956	2791.16
749.397	3517.66
749.838	2915.76
750.279	2867.16
750.72	1464.86
751.162	533.56
751.603	311.66
752.044	244.86
752.485	213.36
752.926	212.66
753.367	198.66
753.808	199.06
754.249	185.66
754.69	189.76
755.131	178.86
755.572	182.76
756.013	172.46
756.453	189.36
756.894	180.76
757.335	186.16
757.776	199.96
758.216	188.36
758.657	196.56
759.098	203.56
759.538	228.46
759.979	266.16
760.42	366.26
760.86	712.26
761.301	1835.46
761.741	4385.26
762.182	6217.16
762.622	4384.56
763.063	1279.56
763.503	538.66
763.943	341.66
764.384	332.16
764.824	396.96
765.264	429.16
765.705	304.06
766.145	203.96
766.585	188.86
767.025	185.96
767.465	185.26
767.906	243.46
768.346	317.56
768.786	336.06
769.226	258.06
769.666	321.96
770.106	627.36
770.546	1556.76
770.986	2578.26
771.426	2295.96
771.866	780.56
772.306	330.06
772.745	208.86
773.185	182.16
773.625	170.86
774.065	167.16
774.505	202.46
774.944	304.46
775.384	678.76
775.824	1199.46
776.263	1147.96
776.703	500.96
777.142	217.16
777.582	158.36
778.021	137.16
778.461	139.06
778.9	135.06
779.34	129.76
779.779	112.96
780.219	107.96
780.658	106.76
781.097	113.86
781.537	108.16
781.976	108.96
782.415	107.46
782.855	100.86
783.294	104.66
783.733	107.06
784.172	106.66
784.611	101.66
785.05	110.56
785.489	113.46
785.928	109.46
786.367	125.16
786.806	117.76
787.245	131.36
787.684	134.46
788.123	150.56
788.562	135.56
789.001	123.76
789.44	125.16
789.879	119.36
790.317	118.16
790.756	126.56
791.195	131.56
791.634	141.46
792.072	202.96
792.511	366.86
792.95	1028.66
793.388	2085.66
793.827	1861.46
794.265	670.96
794.704	276.36
795.142	181.76
795.581	150.06
796.019	136.06
796.458	125.96
796.896	119.46
797.334	134.26
797.773	151.16
798.211	221.96
798.649	452.66
799.087	1027.36
799.526	1565.66
799.964	1977.06
800.402	1944.76
800.84	736.96
801.278	298.06
801.716	184.26
802.154	152.86
802.592	142.16
803.03	136.06
803.468	134.96
803.906	141.36
804.344	143.66
804.782	136.16
805.22	131.16
805.658	122.36
806.096	147.86
806.533	154.26
806.971	172.36
807.409	214.06
807.847	311.96
808.284	658.56
808.722	1869.46
809.16	3207.46
809.597	3095.96
810.035	5341.66
810.472	5549.46
810.91	2013.76
811.347	779.46
811.785	393.86
812.222	249.96
812.66	190.76
813.097	161.66
813.535	134.76
813.972	128.26
814.409	122.26
814.846	107.86
815.284	107.76
815.721	97.96
816.158	104.46
816.595	127.06
817.032	179.56
817.47	192.86
817.907	158.66
818.344	155.76
818.781	120.86
819.218	97.96
819.655	130.86
820.092	181.06
820.529	211.96
820.966	173.26
821.403	128.86
821.839	107.16
822.276	96.96
822.713	121.06
823.15	138.06
823.587	119.46
824.023	149.46
824.46	309.06
824.897	895.46
825.333	1310.06
825.77	563.46
826.206	227.16
826.643	130.46
827.08	100.26
827.516	89.06
827.953	76.56
828.389	84.46
828.825	69.16
829.262	62.06
829.698	61.26
830.135	69.06
830.571	66.16
831.007	63.46
831.443	68.86
831.88	59.86
832.316	59.16
832.752	61.46
833.188	61.36
833.624	65.46
834.06	63.36
834.497	70.36
834.933	67.96
835.369	79.06
835.805	62.46
836.241	75.16
836.677	82.36
837.112	86.06
837.548	101.26
837.984	133.76
838.42	200.36
838.856	490.96
839.292	1507.06
839.727	2244.36
840.163	1054.66
840.599	928.76
841.034	2010.36
841.47	2052.06
841.906	758.96
842.341	328.46
842.777	230.16
843.212	316.86
843.648	314.06
844.083	155.66
844.519	90.96
844.954	73.46
845.39	56.16
845.825	56.36
846.261	58.86
846.696	51.66
847.131	47.96
847.566	63.26
848.002	51.26
848.437	53.76
848.872	57.36
849.307	60.66
849.742	86.56
850.177	182.46
850.613	549.56
851.048	855.16
851.483	365.86
851.918	155.66
852.353	87.96
852.788	58.86
853.223	63.36
853.657	49.86
854.092	48.06
854.527	41.56
854.962	38.86
855.397	46.26
855.832	49.76
856.266	41.56
856.701	41.56
857.136	41.36
857.57	37.96
858.005	49.36
858.44	57.16
858.874	45.46
859.309	52.36
859.743	40.86
860.178	42.06
860.612	41.16
861.047	48.46
861.481	63.36
861.915	72.56
862.35	48.46
862.784	35.46
863.218	35.66
863.653	27.96
864.087	46.56
864.521	55.46
864.955	69.86
865.39	153.06
865.824	172.26
866.258	118.96
866.692	163.46
867.126	162.16
867.56	101.36
867.994	56.16
868.428	30.26
868.862	42.96
869.296	50.86
869.73	56.66
870.164	49.46
870.598	45.26
871.031	37.66
871.465	35.96
871.899	32.26
872.333	26.76
872.766	27.06
873.2	21.36
873.634	30.66
874.067	21.86
874.501	33.76
874.935	33.56
875.368	33.06
875.802	31.16
876.235	26.56
876.669	23.46
877.102	21.46
877.535	25.76
877.969	23.86
878.402	24.66
878.836	13.96
879.269	24.26
879.702	21.06
880.135	20.06
880.569	19.56
881.002	24.16
881.435	25.66
881.868	16.26
882.301	24.16
882.734	16.66
883.167	27.26
883.601	18.06
884.034	22.76
884.467	17.66
884.899	22.16
885.332	18.56
885.765	24.46
886.198	16.26
886.631	12.96
887.064	23.26
887.497	25.16
887.929	23.76
888.362	17.36
888.795	8.96
889.228	11.56
889.66	24.46
890.093	23.16
890.526	15.16
890.958	16.56
891.391	12.56
891.823	21.66
892.256	15.16
892.688	16.56
893.121	17.26
893.553	13.86
893.985	25.96
894.418	17.86
894.85	9.66
895.282	17.76
895.715	16.36
896.147	17.26
896.579	25.16
897.011	14.96
897.444	15.46
897.876	13.46
898.308	16.96
898.74	15.16
899.172	14.06
899.604	22.86
900.036	13.96
900.468	9.86
900.9	14.26
901.332	14.96
901.764	14.46
902.196	15.16
902.628	22.16
903.06	17.56
903.491	31.26
903.923	24.76
904.355	22.76
904.787	20.46
905.218	22.16
905.65	17.56
906.082	4.36
906.513	11.26
906.945	16.46
907.376	11.76
907.808	16.46
908.239	24.26
908.671	21.26
909.102	27.26
909.534	28.56
909.965	50.46
910.397	92.36
910.828	310.56
911.259	462.16
911.691	218.46
912.122	107.86
912.553	52.56
912.984	33.36
913.415	24.96
913.847	27.96
914.278	16.36
914.709	14.06
915.14	20.26
915.571	12.86
916.002	12.76
916.433	21.76
916.864	16.96
917.295	20.36
917.726	22.46
918.157	17.26
918.587	27.16
919.018	20.16
919.449	24.66
919.88	26.06
920.311	30.46
920.741	47.16
921.172	163.36
921.603	144.76
922.033	74.36
922.464	39.46
922.895	22.66
923.325	24.16
923.756	16.86
924.186	12.86
924.617	22.06
925.047	40.16
925.478	51.46
925.908	47.06
926.338	24.06
926.769	12.96
927.199	18.16
927.629	11.96
928.06	13.86
928.49	18.86
928.92	9.06
929.35	13.96
929.78	10.26
930.21	8.76
930.641	13.36
931.071	5.66
931.501	7.76
931.931	9.26
932.361	10.06
932.791	2.16
933.221	5.26
933.651	5.36
934.08	18.86
934.51	36.86
934.94	7.96
935.37	10.26
935.8	4.16
936.229	5.36
936.659	8.76
937.089	3.96
937.519	16.56
937.948	20.06
938.378	15.56
938.807	3.26
939.237	7.66
939.666	2.56
940.096	-2.94
940.525	1.46
940.955	3.56
941.384	-2.04
941.814	-5.54
942.243	-2.44
942.672	-1.14
943.102	-4.24
943.531	5.66
943.96	4.66
944.39	8.36
944.819	0.36
945.248	5.66
945.677	4.96
946.106	9.36
946.535	8.76
946.964	2.76
947.393	1.16
947.822	0.46
948.251	-2.44
948.68	4.26
949.109	7.46
949.538	6.66
949.967	-0.44
950.396	-2.34
950.825	-4.34
951.254	2.16
951.682	-4.44
952.111	3.06
952.54	5.06
952.969	-8.54
953.397	-7.54
953.826	0.16
954.254	-2.74
954.683	2.36
955.112	-1.44
955.54	-0.44
955.969	-3.04
956.397	2.86
956.826	-3.24
957.254	1.76
957.682	3.36
958.111	0.16
958.539	0.66
958.967	-1.84
959.396	3.16
959.824	-0.84
960.252	2.46
960.68	-3.14
961.109	-0.84
961.537	-3.34
961.965	-1.24
962.393	-0.04
962.821	-6.74
963.249	-1.64
963.677	0.06
964.105	4.36
964.533	42.56
964.961	36.06
965.389	21.36
965.817	11.06
966.245	3.16
966.672	-1.54
967.1	-1.24
967.528	-0.04
967.956	2.16
968.383	1.96
968.811	-4.04
969.239	-0.94
969.666	-5.64
970.094	5.26
970.522	0.46
970.949	-0.54
971.377	-8.64
971.804	1.46
972.232	0.16
972.659	-3.14
973.087	1.66
973.514	-1.24
973.941	-3.94
974.369	2.26
974.796	5.86
975.223	-4.34
975.651	-4.84
976.078	0.46
976.505	-2.44
976.932	7.96
977.359	14.86
977.786	18.46
978.214	2.96
978.641	-2.84
979.068	-6.44
979.495	-4.04
979.922	-4.84
980.349	-5.64
980.776	4.46
981.202	-4.84
981.629	4.36
982.056	3.96
982.483	2.06
982.91	-0.44
983.337	-5.94
983.763	2.96
984.19	-5.34
984.617	-2.54
985.043	-2.84
985.47	-1.14
985.897	-5.74
986.323	-12.44
986.75	6.86
987.176	7.66
987.603	1.26
988.029	2.06
988.456	0.76
988.882	-1.94
989.308	-2.94
989.735	-6.64
990.161	-1.24
990.587	-6.64
991.014	5.56
991.44	3.66
991.866	-1.74
992.292	-7.64
992.719	-4.44
993.145	2.76
993.571	-6.14
993.997	-0.64
994.423	-1.94
994.849	-0.64
995.275	0.26
995.701	-4.84
996.127	-4.14
996.553	5.06
996.979	-5.74
997.405	-3.14
997.83	0.16
998.256	-5.74
998.682	-6.54
999.108	-11.64
999.534	-1.74
999.959	0.26
1000.385	1.36
1000.811	3.86
1001.236	-4.34
1001.662	-12.14
1002.087	-11.84
1002.513	2.86
1002.938	-2.94
1003.364	0.76
1003.789	3.86
1004.215	5.86
1004.64	-2.64
1005.066	1.66
1005.491	0.46
1005.916	-1.34
1006.342	-5.44
1006.767	-4.34
1007.192	9.66
1007.617	-8.64
1008.042	-3.54
1008.468	-4.74
1008.893	0.86
1009.318	-1.24
1009.743	-4.94
1010.168	3.36
1010.593	0.96
1011.018	-3.84
1011.443	-7.64
1011.868	0.56
1012.293	-3.94
1012.718	-4.84
1013.143	-0.34
1013.567	-1.94
1013.992	-0.04
1014.417	-13.54
1014.842	-0.54
1015.267	-6.54
1015.691	-1.44
1016.116	3.46
1016.541	2.56
1016.965	8.86
1017.39	3.06
1017.814	-1.04
1018.239	-3.34
1018.663	-3.34
1019.088	-10.54
1019.512	-4.34
1019.937	-6.34
1020.361	-11.94
1020.785	-9.64
1021.21	-3.24
1021.634	-5.74
1022.058	0.86
1022.483	4.36
1022.907	-0.54
1023.331	0.26
1023.755	-1.84
1024.179	-6.44
1024.604	-6.34
1025.028	-6.64
1025.452	-6.24
1025.876	-8.34
1026.3	-1.24
1026.724	-8.94
1027.148	-4.44
1027.572	-11.54
1027.996	-5.24
1028.42	-2.64
1028.843	-3.84
1029.267	-5.74
1029.691	-5.34
1030.115	-7.84
1030.539	-5.64
1030.962	-8.44
1031.386	-13.24
1031.81	0.66
1032.233	1.16
1032.657	-4.14
1033.08	-2.64
1033.504	-2.44
1033.927	-0.74
1034.351	-1.64
1034.774	-5.54
1035.198	2.16
1035.621	-4.94
1036.045	-6.94
1036.468	-0.94
1036.891	-12.74
1037.315	-13.34
1037.738	-9.84
1038.161	-3.24
1038.584	-8.44
1039.008	-9.64
1039.431	-0.74
1039.854	-5.04
1040.277	-9.04
1040.7	-5.74
1041.123	-0.64
1041.546	-3.34
1041.969	0.26
1042.392	-4.84
1042.815	-1.54
1043.238	3.46
1043.661	1.26
1044.084	-4.94
1044.507	-3.04
1044.93	-7.54
1045.352	-3.34
1045.775	-4.14
1046.198	-8.14
1046.621	0.86
1047.043	2.96
1047.466	2.46
1047.889	-1.84
1048.311	-5.04
1048.734	-5.04
1049.156	-0.74
1049.579	-2.64
1050.001	-2.24
1050.424	-0.84
1050.846	-5.34
1051.269	-4.64
1051.691	-6.14
1052.113	-4.04
1052.536	-0.84
1052.958	0.26
1053.38	-5.44
1053.802	-8.94
1054.225	0.76
1054.647	-8.54
1055.069	-9.74
1055.491	2.96
1055.913	-8.54
1056.335	-0.64
1056.757	-6.14
1057.179	-4.94
1057.601	-2.94
1058.023	0.96
1058.445	-1.84
1058.867	-6.94
1059.289	-2.44
1059.711	-8.14
1060.133	-1.34
1060.555	-1.14
1060.976	-8.64
1061.398	-6.54
1061.82	-5.34
1062.241	-5.24
1062.663	-6.64
1063.085	-0.14
1063.506	-1.14
1063.928	-3.34
1064.35	-3.14
1064.771	-10.44
1065.193	1.76
1065.614	-7.14
1066.035	-3.94
1066.457	-7.64
1066.878	-2.14
1067.3	-8.94
1067.721	-6.84
1068.142	-2.64
1068.564	-8.94
1068.985	-10.64
1069.406	-3.44
1069.827	-3.44
1070.248	-1.44
1070.67	-8.24
1071.091	-7.74
1071.512	-5.44
1071.933	-4.24
1072.354	-9.84
1072.775	-7.64
1073.196	-10.44
1073.617	-1.54
1074.038	-5.14
1074.459	-2.24
1074.88	-4.84
1075.3	0.06
1075.721	-2.74
1076.142	0.76
1076.563	3.66
1076.983	-13.34
1077.404	-5.54
1077.825	-7.14
1078.246	-4.24
1078.666	-6.64
1079.087	-5.64
1079.507	-5.64
1079.928	-0.04
1080.348	-0.44
1080.769	-4.54
1081.189	-1.64
1081.61	-1.34
1082.03	-11.54
1082.451	-6.34
1082.871	-7.44
1083.291	-11.64
1083.711	-15.14
1084.132	-4.44
1084.552	-5.64
1084.972	-1.44
1085.392	-5.84
1085.813	-12.64
1086.233	-8.74
1086.653	-2.84
1087.073	-3.24
1087.493	-13.94
1087.913	-1.54
1088.333	-7.54
1088.753	-6.04
1089.173	4.46
1089.593	-1.64
1090.013	-0.64
1090.433	-1.14
1090.852	-6.44
1091.272	2.66
1091.692	-0.14
1092.112	-6.44
1092.531	-11.54
1092.951	-9.64
1093.371	-2.54
1093.79	-0.44
1094.21	-6.44
1094.63	1.86
1095.049	-5.54
1095.469	-6.74
1095.888	0.96
1096.308	-1.94
1096.727	5.76
1097.146	1.26
1097.566	-3.84
1097.985	-8.94
1098.405	-4.74
1098.824	-12.24
1099.243	-2.64
1099.662	-10.14
1100.082	-5.84
1100.501	-0.44
1100.92	-7.44
1101.339	-5.64
1101.758	-7.14
