Data from 20171114-ORNL-Ar_H_NY_Subt18_08-09-18-501.txt Node
Date: Tue Nov 14 08:09:18 EST 2017
User: Ender
Spectrometer: HR+D1039
Trigger mode: 0
Integration Time (sec): 2.730000E-2
Scans to average: 10
Electric dark correction enabled: true
Nonlinearity correction enabled: false
Boxcar width: 0
XAxis mode: Wavelengths
Number of Pixels in Spectrum: 2048
>>>>>Begin Spectral Data<<<<<
187.836	-2.42
188.309	-2.42
188.782	-2.42
189.255	-1.32
189.728	-3.42
190.201	3.18
190.674	1.18
191.147	3.48
191.619	-10.22
192.092	-0.12
192.565	9.28
193.038	-0.82
193.511	0.08
193.984	0.88
194.456	-1.12
194.929	-0.52
195.402	0.28
195.874	1.58
196.347	-0.72
196.82	-6.02
197.292	3.38
197.765	-2.82
198.237	-4.22
198.71	-0.22
199.182	-4.02
199.655	-2.52
200.127	4.38
200.6	-2.22
201.072	-1.72
201.544	-10.92
202.017	-6.92
202.489	4.98
202.961	-2.62
203.433	-3.32
203.906	-10.12
204.378	-9.22
204.85	-3.22
205.322	-9.92
205.794	-0.22
206.266	-2.12
206.739	-13.62
207.211	-1.92
207.683	-7.52
208.155	-8.92
208.627	-4.82
209.099	-8.92
209.57	-10.62
210.042	-2.12
210.514	-6.52
210.986	5.88
211.458	-13.42
211.93	-8.02
212.402	-1.52
212.873	-8.52
213.345	-14.02
213.817	-12.12
214.288	-0.92
214.76	-5.92
215.232	-4.32
215.703	-2.12
216.175	-5.52
216.646	-4.12
217.118	-12.62
217.589	-5.62
218.061	0.38
218.532	-6.62
219.004	-2.92
219.475	-5.22
219.946	-1.92
220.418	-4.42
220.889	4.08
221.36	1.08
221.832	-5.62
222.303	-7.22
222.774	-1.42
223.245	-10.22
223.717	-8.42
224.188	-2.52
224.659	-5.32
225.13	-5.82
225.601	-4.52
226.072	3.58
226.543	-4.12
227.014	-1.82
227.485	-3.52
227.956	-6.72
228.427	-6.12
228.898	-0.22
229.369	-4.92
229.839	-8.12
230.31	-8.52
230.781	2.18
231.252	-4.42
231.722	-12.22
232.193	2.48
232.664	-4.92
233.135	-2.02
233.605	-3.02
234.076	-10.92
234.546	-3.42
235.017	6.08
235.487	-2.12
235.958	-3.02
236.428	-4.52
236.899	-2.92
237.369	-0.42
237.84	-3.72
238.31	-0.12
238.78	-0.02
239.251	-7.62
239.721	-7.92
240.191	-4.32
240.662	-1.52
241.132	-8.32
241.602	-5.32
242.072	-5.32
242.542	4.68
243.013	0.78
243.483	0.18
243.953	0.58
244.423	-4.32
244.893	-8.62
245.363	-1.42
245.833	-0.42
246.303	-9.52
246.773	5.98
247.243	3.28
247.712	-0.52
248.182	-2.92
248.652	0.68
249.122	-8.62
249.592	0.18
250.061	-0.22
250.531	4.68
251.001	-4.42
251.471	3.08
251.94	3.78
252.41	1.88
252.879	-7.02
253.349	8.08
253.818	1.58
254.288	-3.52
254.757	-2.92
255.227	-7.72
255.696	-4.92
256.166	-2.52
256.635	-1.02
257.105	4.38
257.574	-7.62
258.043	0.38
258.513	1.98
258.982	-1.32
259.451	-2.32
259.92	-1.42
260.389	1.28
260.859	6.38
261.328	-9.52
261.797	2.48
262.266	2.48
262.735	9.68
263.204	-0.42
263.673	-0.82
264.142	0.08
264.611	-4.92
265.08	-4.52
265.549	-2.02
266.018	1.78
266.487	-6.32
266.955	-4.92
267.424	-6.42
267.893	-1.22
268.362	-3.82
268.83	-2.42
269.299	3.38
269.768	1.38
270.236	0.88
270.705	-6.02
271.174	-2.82
271.642	0.38
272.111	-3.52
272.579	0.78
273.048	-1.22
273.516	0.18
273.985	1.68
274.453	7.48
274.922	10.88
275.39	7.68
275.858	-5.42
276.327	2.18
276.795	9.08
277.263	1.08
277.731	5.08
278.2	-0.42
278.668	6.08
279.136	12.88
279.604	1.58
280.072	5.38
280.54	3.98
281.008	-1.02
281.477	5.18
281.945	-0.62
282.413	7.78
282.881	10.08
283.348	-1.22
283.816	3.98
284.284	10.18
284.752	19.18
285.22	3.08
285.688	6.58
286.156	8.38
286.623	15.88
287.091	5.58
287.559	2.78
288.026	3.68
288.494	8.68
288.962	-6.52
289.429	-0.82
289.897	10.78
290.364	4.18
290.832	11.38
291.3	4.48
291.767	7.98
292.234	12.58
292.702	6.28
293.169	5.38
293.637	9.88
294.104	8.28
294.571	4.38
295.039	5.28
295.506	6.68
295.973	10.48
296.44	1.78
296.908	9.28
297.375	10.08
297.842	2.18
298.309	10.88
298.776	-3.62
299.243	13.28
299.71	5.08
300.177	13.98
300.644	11.78
301.111	11.38
301.578	10.28
302.045	7.38
302.512	16.68
302.979	14.08
303.446	15.78
303.913	11.28
304.379	11.38
304.846	19.38
305.313	11.98
305.78	16.88
306.246	16.58
306.713	16.98
307.18	10.48
307.646	16.08
308.113	19.08
308.579	12.68
309.046	19.28
309.512	17.88
309.979	17.88
310.445	21.38
310.912	16.88
311.378	24.88
311.845	19.08
312.311	20.98
312.777	23.88
313.244	21.88
313.71	24.68
314.176	15.88
314.642	18.78
315.109	14.18
315.575	18.38
316.041	29.28
316.507	18.58
316.973	20.68
317.439	17.18
317.905	28.08
318.371	22.08
318.837	19.98
319.303	20.08
319.769	19.98
320.235	18.38
320.701	20.68
321.167	29.58
321.633	23.48
322.099	21.38
322.564	28.78
323.03	23.38
323.496	23.88
323.962	28.28
324.427	22.78
324.893	29.88
325.359	23.98
325.824	26.68
326.29	25.78
326.755	24.08
327.221	32.38
327.686	26.18
328.152	35.28
328.617	27.48
329.083	30.48
329.548	38.28
330.014	31.38
330.479	24.28
330.944	29.08
331.41	27.68
331.875	30.98
332.34	31.78
332.805	27.68
333.271	33.08
333.736	29.38
334.201	39.18
334.666	42.68
335.131	43.18
335.596	33.38
336.061	39.58
336.526	29.98
336.991	28.58
337.456	35.98
337.921	34.48
338.386	34.68
338.851	32.78
339.316	40.18
339.781	28.88
340.246	35.98
340.711	35.38
341.175	41.78
341.64	33.68
342.105	40.08
342.569	39.08
343.034	46.18
343.499	40.78
343.963	36.08
344.428	51.08
344.893	44.48
345.357	46.28
345.822	40.68
346.286	53.78
346.751	54.78
347.215	53.58
347.679	56.88
348.144	68.18
348.608	58.38
349.073	55.08
349.537	57.98
350.001	60.18
350.465	70.58
350.93	59.28
351.394	60.78
351.858	59.98
352.322	66.88
352.786	66.68
353.25	76.38
353.715	80.58
354.179	70.28
354.643	88.38
355.107	91.08
355.571	77.38
356.035	77.28
356.498	85.78
356.962	81.38
357.426	92.48
357.89	75.28
358.354	64.48
358.818	63.68
359.281	60.48
359.745	63.08
360.209	61.78
360.673	61.98
361.136	64.98
361.6	71.78
362.064	69.48
362.527	70.68
362.991	76.98
363.454	61.68
363.918	59.28
364.381	56.68
364.845	68.78
365.308	70.48
365.772	67.78
366.235	74.28
366.698	65.98
367.162	68.38
367.625	67.38
368.088	76.28
368.552	74.08
369.015	75.18
369.478	81.18
369.941	80.28
370.404	74.08
370.867	80.58
371.331	79.38
371.794	88.78
372.257	76.28
372.72	87.68
373.183	92.48
373.646	79.88
374.109	83.08
374.572	84.18
375.035	84.38
375.497	85.78
375.96	91.98
376.423	87.18
376.886	95.58
377.349	97.28
377.811	83.78
378.274	84.88
378.737	95.08
379.199	91.78
379.662	92.88
380.125	91.98
380.587	87.68
381.05	88.48
381.512	98.18
381.975	101.88
382.437	101.98
382.9	99.68
383.362	106.18
383.825	112.08
384.287	107.58
384.75	97.68
385.212	103.28
385.674	111.58
386.136	114.68
386.599	107.98
387.061	101.08
387.523	102.58
387.985	105.28
388.447	122.58
388.91	109.58
389.372	112.28
389.834	118.98
390.296	110.28
390.758	114.38
391.22	122.18
391.682	136.68
392.144	136.98
392.606	121.18
393.068	126.68
393.529	132.88
393.991	126.38
394.453	118.48
394.915	121.48
395.377	123.08
395.838	120.38
396.3	117.78
396.762	123.18
397.224	120.08
397.685	114.88
398.147	118.38
398.608	116.68
399.07	118.58
399.531	125.88
399.993	136.88
400.454	137.08
400.916	135.48
401.377	136.58
401.839	132.58
402.3	133.18
402.762	147.38
403.223	165.98
403.684	153.28
404.145	143.08
404.607	145.18
405.068	143.78
405.529	151.28
405.99	164.68
406.451	151.58
406.913	156.38
407.374	151.48
407.835	146.28
408.296	155.38
408.757	157.18
409.218	161.68
409.679	167.28
410.14	154.08
410.601	166.78
411.062	164.98
411.522	162.68
411.983	161.68
412.444	160.68
412.905	173.48
413.366	168.98
413.826	189.48
414.287	208.78
414.748	250.28
415.208	239.68
415.669	208.38
416.13	198.08
416.59	193.38
417.051	201.88
417.511	207.78
417.972	229.58
418.432	231.18
418.893	268.68
419.353	240.18
419.814	191.18
420.274	177.38
420.734	169.58
421.195	182.98
421.655	173.78
422.115	179.28
422.576	182.18
423.036	192.98
423.496	196.88
423.956	207.18
424.416	222.18
424.876	251.48
425.336	241.38
425.797	244.08
426.257	242.08
426.717	223.08
427.177	225.38
427.637	210.98
428.097	217.08
428.556	227.98
429.016	246.68
429.476	250.98
429.936	260.18
430.396	253.88
430.856	274.18
431.315	292.58
431.775	323.98
432.235	357.28
432.694	323.18
433.154	331.58
433.614	361.78
434.073	313.28
434.533	265.28
434.993	248.48
435.452	259.78
435.912	267.18
436.371	261.38
436.83	261.58
437.29	251.78
437.749	235.28
438.209	231.48
438.668	252.98
439.127	274.58
439.587	250.88
440.046	233.18
440.505	245.08
440.964	255.98
441.424	306.88
441.883	288.18
442.342	242.78
442.801	217.08
443.26	212.78
443.719	216.98
444.178	217.28
444.637	206.58
445.096	223.08
445.555	221.88
446.014	226.88
446.473	223.18
446.932	223.48
447.391	223.08
447.849	224.18
448.308	216.68
448.767	225.58
449.226	232.68
449.685	236.88
450.143	247.58
450.602	238.58
451.061	226.08
451.519	231.08
451.978	229.08
452.436	231.08
452.895	232.28
453.353	247.08
453.812	235.68
454.27	232.08
454.729	237.48
455.187	238.38
455.646	234.28
456.104	237.08
456.562	257.08
457.021	257.58
457.479	253.38
457.937	266.68
458.395	265.78
458.854	246.78
459.312	252.28
459.77	266.08
460.228	249.38
460.686	235.98
461.144	249.58
461.602	243.88
462.06	238.88
462.518	249.18
462.976	255.78
463.434	254.68
463.892	258.28
464.35	277.88
464.808	286.78
465.266	268.18
465.724	265.68
466.181	263.48
466.639	262.88
467.097	281.58
467.555	301.08
468.012	301.38
468.47	302.98
468.928	325.88
469.385	332.18
469.843	343.08
470.3	341.18
470.758	352.48
471.215	370.08
471.673	396.98
472.13	398.78
472.588	407.78
473.045	380.48
473.503	371.08
473.96	386.88
474.417	386.68
474.875	430.18
475.332	462.48
475.789	460.38
476.246	455.58
476.704	482.18
477.161	499.58
477.618	504.88
478.075	538.58
478.532	601.68
478.989	671.58
479.446	753.38
479.903	729.18
480.36	759.38
480.817	807.68
481.274	895.68
481.731	982.18
482.188	1056.68
482.645	1171.08
483.102	1262.38
483.558	1370.68
484.015	1415.88
484.472	1391.18
484.929	1343.38
485.385	1311.38
485.842	1275.38
486.299	1237.28
486.755	1201.18
487.212	1006.08
487.668	861.58
488.125	800.38
488.582	738.38
489.038	720.68
489.494	679.48
489.951	661.58
490.407	642.38
490.864	623.48
491.32	632.98
491.776	623.38
492.233	626.68
492.689	597.48
493.145	590.08
493.602	586.18
494.058	594.18
494.514	598.58
494.97	622.58
495.426	635.88
495.882	607.78
496.338	598.48
496.794	604.98
497.251	597.88
497.707	618.68
498.163	626.18
498.618	616.38
499.074	627.18
499.53	654.98
499.986	651.18
500.442	631.38
500.898	615.38
501.354	601.08
501.809	618.28
502.265	610.68
502.721	622.28
503.177	632.88
503.632	638.18
504.088	642.68
504.543	655.18
504.999	671.58
505.455	643.58
505.91	635.48
506.366	640.48
506.821	627.68
507.277	624.38
507.732	636.58
508.187	629.98
508.643	642.28
509.098	631.38
509.553	656.38
510.009	660.28
510.464	669.98
510.919	691.88
511.375	693.18
511.83	713.68
512.285	724.68
512.74	745.88
513.195	770.48
513.65	755.28
514.105	763.28
514.56	765.68
515.015	779.58
515.47	788.88
515.925	768.98
516.38	786.88
516.835	782.18
517.29	765.78
517.745	768.28
518.2	758.08
518.655	751.48
519.109	737.58
519.564	741.78
520.019	730.58
520.474	718.88
520.928	726.08
521.383	705.88
521.838	712.38
522.292	712.88
522.747	711.88
523.201	707.98
523.656	701.98
524.11	694.58
524.565	704.28
525.019	692.98
525.474	691.38
525.928	703.98
526.382	692.28
526.837	695.78
527.291	698.48
527.745	699.98
528.2	697.68
528.654	693.38
529.108	684.98
529.562	684.38
530.016	689.28
530.47	689.58
530.925	690.88
531.379	682.38
531.833	694.78
532.287	704.28
532.741	698.28
533.195	694.18
533.649	700.68
534.103	720.98
534.556	709.88
535.01	711.68
535.464	710.68
535.918	710.48
536.372	713.98
536.826	714.18
537.279	701.98
537.733	706.08
538.187	712.08
538.64	705.38
539.094	720.08
539.548	735.28
540.001	727.88
540.455	728.18
540.908	731.48
541.362	745.68
541.815	752.98
542.269	761.78
542.722	766.28
543.175	770.48
543.629	762.88
544.082	786.48
544.536	799.48
544.989	786.98
545.442	801.58
545.895	788.68
546.349	800.08
546.802	798.78
547.255	800.38
547.708	807.98
548.161	816.28
548.614	829.98
549.067	835.08
549.52	828.58
549.973	820.48
550.426	819.28
550.879	805.28
551.332	803.88
551.785	810.68
552.238	816.98
552.691	820.08
553.144	839.58
553.596	852.18
554.049	875.58
554.502	897.88
554.955	906.98
555.407	914.28
555.86	915.78
556.313	896.08
556.765	891.68
557.218	889.88
557.67	886.08
558.123	880.68
558.576	878.68
559.028	893.08
559.48	902.18
559.933	880.48
560.385	842.58
560.838	817.88
561.29	801.28
561.742	795.38
562.195	785.98
562.647	775.48
563.099	775.78
563.551	782.38
564.004	792.28
564.456	780.28
564.908	770.08
565.36	749.68
565.812	747.68
566.264	730.78
566.716	721.68
567.168	716.98
567.62	724.08
568.072	704.58
568.524	709.98
568.976	699.58
569.428	684.88
569.88	680.88
570.332	685.88
570.784	694.98
571.235	692.08
571.687	710.18
572.139	710.98
572.59	708.08
573.042	719.98
573.494	715.88
573.945	713.28
574.397	691.08
574.849	701.28
575.3	702.98
575.752	685.38
576.203	690.08
576.655	695.08
577.106	686.58
577.557	669.08
578.009	668.58
578.46	679.58
578.912	667.98
579.363	665.28
579.814	675.68
580.265	672.28
580.717	677.38
581.168	683.48
581.619	691.08
582.07	690.98
582.521	689.58
582.972	674.48
583.423	688.98
583.875	682.88
584.326	681.88
584.777	713.88
585.227	726.18
585.678	739.88
586.129	756.38
586.58	775.88
587.031	805.48
587.482	829.08
587.933	860.98
588.384	833.28
588.834	791.98
589.285	785.48
589.736	787.78
590.186	780.38
590.637	776.68
591.088	741.78
591.538	743.58
591.989	741.98
592.439	734.98
592.89	725.88
593.34	716.18
593.791	714.18
594.241	707.18
594.692	712.18
595.142	704.98
595.593	697.18
596.043	709.18
596.493	705.48
596.943	719.58
597.394	740.58
597.844	735.78
598.294	748.58
598.744	774.08
599.195	800.18
599.645	840.68
600.095	889.08
600.545	943.48
600.995	988.68
601.445	1042.48
601.895	1101.98
602.345	1155.68
602.795	1134.88
603.245	1100.08
603.695	1032.28
604.145	980.78
604.594	930.88
605.044	867.78
605.494	822.28
605.944	766.08
606.393	745.78
606.843	745.68
607.293	742.38
607.743	740.98
608.192	756.48
608.642	769.18
609.091	774.98
609.541	773.28
609.99	772.38
610.44	773.48
610.889	734.18
611.339	717.98
611.788	690.08
612.238	707.98
612.687	712.08
613.136	701.98
613.586	721.58
614.035	720.28
614.484	721.78
614.933	725.78
615.383	714.28
615.832	718.18
616.281	708.78
616.73	682.98
617.179	667.48
617.628	656.58
618.077	641.88
618.526	639.88
618.975	625.68
619.424	616.88
619.873	614.88
620.322	628.98
620.771	618.38
621.22	615.18
621.669	609.78
622.118	599.98
622.567	594.08
623.015	576.08
623.464	591.38
623.913	570.28
624.361	553.88
624.81	565.48
625.259	578.68
625.707	570.08
626.156	562.18
626.604	577.58
627.053	569.48
627.501	582.28
627.95	586.88
628.398	594.78
628.847	581.18
629.295	578.28
629.744	593.48
630.192	567.58
630.64	571.58
631.089	554.48
631.537	548.38
631.985	547.18
632.433	539.48
632.881	538.08
633.33	544.28
633.778	545.38
634.226	537.58
634.674	548.58
635.122	546.78
635.57	564.98
636.018	565.38
636.466	570.58
636.914	563.28
637.362	577.78
637.81	584.38
638.258	593.18
638.705	598.68
639.153	627.08
639.601	631.58
640.049	655.58
640.497	692.58
640.944	710.18
641.392	657.68
641.84	627.88
642.287	587.48
642.735	582.58
643.182	577.38
643.63	574.78
644.078	566.18
644.525	584.58
644.973	586.18
645.42	603.38
645.867	625.88
646.315	636.48
646.762	669.98
647.21	682.38
647.657	713.18
648.104	746.88
648.551	765.68
648.999	837.68
649.446	891.78
649.893	982.58
650.34	1127.18
650.787	1340.78
651.234	1659.08
651.682	2132.78
652.129	2917.38
652.576	4149.78
653.023	6044.78
653.47	8120.28
653.917	10024.38
654.363	11447.68
654.81	12568.08
655.257	11884.78
655.704	7906.58
656.151	4756.48
656.598	3125.68
657.044	2232.88
657.491	1739.28
657.938	1403.88
658.385	1202.08
658.831	1037.18
659.278	935.88
659.724	833.28
660.171	774.28
660.618	714.98
661.064	683.78
661.511	662.78
661.957	648.08
662.404	645.18
662.85	649.18
663.296	629.68
663.743	566.78
664.189	547.38
664.635	540.88
665.082	529.98
665.528	534.28
665.974	533.18
666.42	515.28
666.867	505.28
667.313	492.48
667.759	477.48
668.205	464.78
668.651	462.58
669.097	465.18
669.543	452.68
669.989	461.48
670.435	463.48
670.881	459.38
671.327	458.98
671.773	483.58
672.219	514.08
672.665	564.18
673.11	611.98
673.556	654.68
674.002	687.18
674.448	678.68
674.893	560.68
675.339	485.58
675.785	449.78
676.23	434.78
676.676	400.38
677.122	391.48
677.567	385.38
678.013	379.88
678.458	376.68
678.904	373.88
679.349	355.28
679.794	361.08
680.24	360.28
680.685	361.88
681.131	356.38
681.576	367.68
682.021	370.68
682.466	360.38
682.912	363.68
683.357	369.58
683.802	396.58
684.247	430.68
684.692	473.98
685.137	511.68
685.583	560.48
686.028	589.58
686.473	545.48
686.918	456.18
687.363	435.28
687.807	404.38
688.252	369.68
688.697	366.78
689.142	350.78
689.587	341.38
690.032	340.28
690.477	362.18
690.921	366.68
691.366	397.58
691.811	416.68
692.255	448.58
692.7	482.98
693.145	528.28
693.589	754.68
694.034	1228.08
694.478	1643.18
694.923	1813.58
695.367	2349.38
695.812	1256.38
696.256	515.08
696.701	385.98
697.145	360.48
697.59	342.08
698.034	333.18
698.478	333.58
698.922	333.78
699.367	333.58
699.811	353.48
700.255	362.48
700.699	402.48
701.143	434.18
701.588	497.58
702.032	532.28
702.476	530.68
702.92	518.18
703.364	525.88
703.808	693.38
704.252	1137.18
704.696	1538.48
705.14	1729.98
705.584	2215.88
706.027	1115.38
706.471	545.78
706.915	414.58
707.359	362.68
707.803	337.48
708.246	328.88
708.69	322.88
709.134	324.28
709.577	324.18
710.021	325.68
710.465	314.68
710.908	308.58
711.352	313.68
711.795	322.88
712.239	366.58
712.682	405.58
713.126	426.98
713.569	472.18
714.012	374.88
714.456	317.08
714.899	300.38
715.342	281.88
715.786	273.18
716.229	275.38
716.672	271.58
717.115	256.78
717.558	262.18
718.002	268.88
718.445	273.98
718.888	292.28
719.331	299.28
719.774	322.68
720.217	305.68
720.66	294.28
721.103	283.58
721.546	266.58
721.989	250.88
722.432	242.08
722.874	246.28
723.317	244.98
723.76	240.98
724.203	269.28
724.645	335.98
725.088	475.18
725.531	599.18
725.974	662.58
726.416	567.18
726.859	311.88
727.301	255.38
727.744	246.58
728.187	245.48
728.629	248.98
729.071	252.38
729.514	276.98
729.956	287.08
730.399	291.08
730.841	299.88
731.283	283.48
731.726	279.68
732.168	273.68
732.61	281.68
733.053	302.98
733.495	335.08
733.937	368.58
734.379	412.48
734.821	467.78
735.263	594.68
735.705	920.58
736.148	1754.98
736.59	2777.28
737.032	3162.48
737.474	2574.78
737.916	854.08
738.357	451.38
738.799	340.88
739.241	309.08
739.683	298.98
740.125	301.48
740.567	314.78
741.008	330.38
741.45	329.78
741.892	333.48
742.334	362.68
742.775	372.28
743.217	366.88
743.658	286.88
744.1	280.08
744.542	287.18
744.983	325.18
745.425	360.18
745.866	356.38
746.307	294.08
746.749	299.08
747.19	355.38
747.632	495.38
748.073	993.78
748.514	2044.78
748.956	3017.78
749.397	3816.48
749.838	3159.18
750.279	3071.28
750.72	1586.68
751.162	590.28
751.603	345.68
752.044	269.58
752.485	233.08
752.926	220.88
753.367	212.38
753.808	199.88
754.249	196.68
754.69	197.28
755.131	195.28
755.572	195.68
756.013	186.28
756.453	188.98
756.894	194.28
757.335	202.18
757.776	199.98
758.216	199.98
758.657	203.68
759.098	215.98
759.538	232.88
759.979	288.28
760.42	408.18
760.86	802.58
761.301	2094.08
761.741	4852.58
762.182	6676.38
762.622	4689.78
763.063	1396.78
763.503	573.58
763.943	348.48
764.384	285.98
764.824	261.08
765.264	242.88
765.705	216.48
766.145	191.88
766.585	180.68
767.025	178.08
767.465	170.48
767.906	182.68
768.346	200.58
768.786	212.68
769.226	223.18
769.666	333.88
770.106	687.58
770.546	1717.38
770.986	2761.08
771.426	2431.98
771.866	837.28
772.306	349.98
772.745	216.08
773.185	179.68
773.625	169.38
774.065	157.58
774.505	165.38
774.944	214.88
775.384	381.48
775.824	594.98
776.263	580.78
776.703	290.98
777.142	168.18
777.582	134.88
778.021	129.98
778.461	129.28
778.9	123.68
779.34	127.08
779.779	113.48
780.219	110.18
780.658	112.28
781.097	116.08
781.537	113.78
781.976	112.68
782.415	109.48
782.855	109.18
783.294	97.88
783.733	106.18
784.172	111.88
784.611	106.88
785.05	115.78
785.489	112.98
785.928	120.88
786.367	126.98
786.806	125.78
787.245	132.88
787.684	143.28
788.123	155.28
788.562	136.08
789.001	135.68
789.44	123.58
789.879	118.48
790.317	125.58
790.756	127.18
791.195	129.38
791.634	154.68
792.072	215.68
792.511	406.78
792.95	1131.58
793.388	2254.28
793.827	1966.78
794.265	702.48
794.704	297.28
795.142	194.78
795.581	163.18
796.019	146.58
796.458	136.08
796.896	123.38
797.334	137.98
797.773	167.08
798.211	233.08
798.649	483.58
799.087	1105.18
799.526	1709.68
799.964	2151.68
800.402	2075.68
800.84	796.98
801.278	324.98
801.716	197.88
802.154	164.48
802.592	157.18
803.03	147.18
803.468	141.18
803.906	147.98
804.344	155.38
804.782	150.98
805.22	141.58
805.658	142.78
806.096	152.88
806.533	165.58
806.971	188.68
807.409	237.68
807.847	351.18
808.284	746.58
808.722	2061.98
809.16	3483.18
809.597	3460.78
810.035	5849.18
810.472	5957.18
810.91	2200.28
811.347	847.88
811.785	426.38
812.222	265.88
812.66	205.28
813.097	172.38
813.535	153.88
813.972	139.18
814.409	129.18
814.846	115.18
815.284	111.48
815.721	103.78
816.158	108.08
816.595	115.58
817.032	165.28
817.47	183.78
817.907	134.38
818.344	106.38
818.781	107.98
819.218	103.68
819.655	135.28
820.092	202.28
820.529	223.18
820.966	177.68
821.403	137.48
821.839	104.58
822.276	98.78
822.713	128.08
823.15	141.28
823.587	125.78
824.023	161.28
824.46	346.48
824.897	993.58
825.333	1399.78
825.77	609.98
826.206	242.08
826.643	147.08
827.08	107.88
827.516	82.58
827.953	90.58
828.389	86.98
828.825	68.68
829.262	68.78
829.698	66.38
830.135	65.08
830.571	68.78
831.007	68.68
831.443	60.48
831.88	66.88
832.316	64.28
832.752	67.88
833.188	63.38
833.624	61.98
834.06	68.58
834.497	68.98
834.933	77.68
835.369	74.68
835.805	69.58
836.241	86.68
836.677	88.38
837.112	91.68
837.548	112.98
837.984	146.88
838.42	227.98
838.856	567.88
839.292	1662.38
839.727	2397.68
840.163	1145.48
840.599	1029.18
841.034	2190.28
841.47	2171.88
841.906	817.88
842.341	343.78
842.777	201.68
843.212	211.78
843.648	196.78
844.083	121.48
844.519	87.18
844.954	74.88
845.39	61.18
845.825	65.58
846.261	61.28
846.696	60.28
847.131	51.98
847.566	59.58
848.002	47.88
848.437	61.28
848.872	64.28
849.307	62.98
849.742	92.18
850.177	205.28
850.613	613.68
851.048	920.68
851.483	406.88
851.918	162.88
852.353	89.18
852.788	53.18
853.223	54.48
853.657	50.38
854.092	46.68
854.527	42.08
854.962	44.78
855.397	41.88
855.832	53.18
856.266	51.48
856.701	45.58
857.136	42.78
857.57	44.38
858.005	51.98
858.44	59.28
858.874	47.48
859.309	57.78
859.743	44.28
860.178	46.58
860.612	46.08
861.047	51.58
861.481	75.08
861.915	69.08
862.35	56.88
862.784	32.48
863.218	44.48
863.653	37.78
864.087	54.38
864.521	55.18
864.955	68.58
865.39	160.98
865.824	182.68
866.258	124.78
866.692	181.48
867.126	188.18
867.56	106.48
867.994	53.98
868.428	33.18
868.862	56.28
869.296	58.18
869.73	59.58
870.164	55.18
870.598	50.38
871.031	39.88
871.465	34.58
871.899	30.18
872.333	27.18
872.766	23.88
873.2	26.08
873.634	25.48
874.067	30.38
874.501	22.08
874.935	35.78
875.368	30.58
875.802	30.98
876.235	31.98
876.669	24.48
877.102	22.28
877.535	23.88
877.969	22.08
878.402	25.88
878.836	23.88
879.269	27.28
879.702	25.08
880.135	18.98
880.569	18.88
881.002	26.88
881.435	19.78
881.868	19.68
882.301	22.78
882.734	15.98
883.167	21.48
883.601	20.58
884.034	23.68
884.467	10.98
884.899	26.98
885.332	20.98
885.765	16.28
886.198	17.48
886.631	22.68
887.064	18.58
887.497	19.78
887.929	26.58
888.362	12.78
888.795	17.88
889.228	22.58
889.66	17.58
890.093	20.38
890.526	20.78
890.958	15.68
891.391	20.58
891.823	23.38
892.256	12.38
892.688	7.58
893.121	10.28
893.553	13.38
893.985	29.18
894.418	20.38
894.85	12.48
895.282	19.88
895.715	19.48
896.147	14.88
896.579	18.08
897.011	14.88
897.444	17.08
897.876	11.58
898.308	21.08
898.74	10.78
899.172	10.08
899.604	23.08
900.036	18.28
900.468	16.88
900.9	13.88
901.332	16.68
901.764	11.78
902.196	19.68
902.628	16.28
903.06	20.38
903.491	32.18
903.923	22.18
904.355	23.68
904.787	24.08
905.218	25.48
905.65	20.38
906.082	10.88
906.513	13.88
906.945	14.98
907.376	14.08
907.808	21.28
908.239	20.88
908.671	17.28
909.102	21.38
909.534	25.48
909.965	53.68
910.397	101.08
910.828	343.08
911.259	490.68
911.691	228.68
912.122	120.98
912.553	54.78
912.984	33.38
913.415	25.58
913.847	22.48
914.278	12.78
914.709	7.98
915.14	13.68
915.571	16.68
916.002	7.68
916.433	23.28
916.864	19.48
917.295	1.28
917.726	20.58
918.157	14.38
918.587	30.38
919.018	20.98
919.449	23.68
919.88	28.68
920.311	38.38
920.741	50.98
921.172	178.58
921.603	164.48
922.033	73.88
922.464	47.08
922.895	23.18
923.325	19.18
923.756	17.88
924.186	13.28
924.617	16.48
925.047	18.58
925.478	21.38
925.908	24.58
926.338	15.68
926.769	13.08
927.199	17.28
927.629	9.98
928.06	14.28
928.49	17.48
928.92	14.18
929.35	10.78
929.78	6.88
930.21	10.68
930.641	3.78
931.071	6.38
931.501	1.48
931.931	7.38
932.361	6.98
932.791	-1.22
933.221	3.08
933.651	8.18
934.08	18.78
934.51	29.38
934.94	14.78
935.37	6.08
935.8	12.98
936.229	0.48
936.659	5.78
937.089	3.68
937.519	15.88
937.948	21.08
938.378	13.28
938.807	5.18
939.237	1.58
939.666	6.68
940.096	-8.32
940.525	1.48
940.955	5.98
941.384	2.18
941.814	-3.22
942.243	5.28
942.672	5.38
943.102	-2.62
943.531	2.38
943.96	7.88
944.39	4.08
944.819	0.48
945.248	2.48
945.677	8.58
946.106	13.08
946.535	10.18
946.964	-2.22
947.393	-1.62
947.822	2.78
948.251	-6.62
948.68	3.68
949.109	5.98
949.538	4.68
949.967	-1.62
950.396	2.48
950.825	-6.92
951.254	1.88
951.682	-5.52
952.111	4.88
952.54	-0.82
952.969	-10.72
953.397	-6.92
953.826	-0.42
954.254	-2.72
954.683	-2.22
955.112	-3.72
955.54	2.38
955.969	2.48
956.397	2.08
956.826	-1.62
957.254	0.28
957.682	-4.22
958.111	3.78
958.539	-2.62
958.967	0.98
959.396	2.68
959.824	7.18
960.252	5.38
960.68	-11.52
961.109	1.08
961.537	-4.22
961.965	3.58
962.393	-1.82
962.821	-12.32
963.249	1.18
963.677	5.08
964.105	6.08
964.533	43.88
964.961	35.58
965.389	22.38
965.817	14.18
966.245	2.68
966.672	-0.42
967.1	0.78
967.528	-1.62
967.956	-0.42
968.383	-1.92
968.811	-6.82
969.239	-0.22
969.666	-0.62
970.094	-0.42
970.522	-0.62
970.949	0.78
971.377	-2.32
971.804	-2.02
972.232	-4.12
972.659	2.48
973.087	-4.32
973.514	-4.42
973.941	-10.42
974.369	1.98
974.796	-3.92
975.223	-0.92
975.651	-3.32
976.078	2.18
976.505	1.68
976.932	2.88
977.359	13.88
977.786	18.18
978.214	7.58
978.641	2.58
979.068	-3.42
979.495	-4.02
979.922	-4.12
980.349	-3.22
980.776	2.08
981.202	3.08
981.629	6.58
982.056	4.58
982.483	-3.42
982.91	1.78
983.337	-7.42
983.763	1.88
984.19	-7.62
984.617	-2.02
985.043	-6.92
985.47	-5.72
985.897	-6.22
986.323	-8.22
986.75	2.48
987.176	-6.82
987.603	0.68
988.029	6.98
988.456	-5.32
988.882	3.38
989.308	-7.02
989.735	-1.02
990.161	6.48
990.587	-4.02
991.014	2.78
991.44	3.78
991.866	-4.12
992.292	-2.82
992.719	-7.22
993.145	4.58
993.571	-10.02
993.997	-8.22
994.423	-2.42
994.849	-7.52
995.275	-4.12
995.701	-1.72
996.127	-7.02
996.553	-1.62
996.979	-2.12
997.405	0.98
997.83	-3.32
998.256	-3.32
998.682	-2.82
999.108	-7.12
999.534	-0.72
999.959	-1.22
1000.385	-7.72
1000.811	-6.02
1001.236	-7.72
1001.662	-4.52
1002.087	-10.02
1002.513	-2.32
1002.938	4.48
1003.364	-1.22
1003.789	-1.32
1004.215	4.58
1004.64	-4.62
1005.066	-1.12
1005.491	4.68
1005.916	-2.32
1006.342	-8.52
1006.767	-7.12
1007.192	3.18
1007.617	-7.72
1008.042	-3.92
1008.468	-10.42
1008.893	-4.12
1009.318	-5.72
1009.743	-7.92
1010.168	1.48
1010.593	2.08
1011.018	-8.82
1011.443	-2.42
1011.868	0.08
1012.293	-0.42
1012.718	-4.72
1013.143	-2.42
1013.567	1.68
1013.992	1.88
1014.417	-16.72
1014.842	-0.12
1015.267	-7.72
1015.691	-4.72
1016.116	4.68
1016.541	-2.12
1016.965	-1.12
1017.39	5.98
1017.814	-3.92
1018.239	-6.52
1018.663	-4.92
1019.088	-8.32
1019.512	-2.42
1019.937	-2.92
1020.361	-1.92
1020.785	-6.82
1021.21	-3.92
1021.634	-2.22
1022.058	-2.32
1022.483	1.28
1022.907	-4.52
1023.331	-6.52
1023.755	-6.92
1024.179	2.18
1024.604	-6.02
1025.028	-9.22
1025.452	-8.52
1025.876	-3.62
1026.3	-0.82
1026.724	-14.62
1027.148	-2.12
1027.572	-12.52
1027.996	-3.92
1028.42	0.98
1028.843	-11.92
1029.267	-2.12
1029.691	-6.12
1030.115	-0.72
1030.539	-10.72
1030.962	-5.92
1031.386	-15.22
1031.81	-3.52
1032.233	-3.82
1032.657	-8.62
1033.08	-2.42
1033.504	-6.52
1033.927	-10.92
1034.351	-3.42
1034.774	-3.92
1035.198	-6.72
1035.621	-11.82
1036.045	-8.52
1036.468	-0.02
1036.891	-13.52
1037.315	-14.42
1037.738	-11.72
1038.161	-2.02
1038.584	-6.82
1039.008	-9.42
1039.431	-2.62
1039.854	-0.52
1040.277	-7.02
1040.7	-8.32
1041.123	-1.72
1041.546	-8.12
1041.969	-4.82
1042.392	-6.32
1042.815	-6.72
1043.238	-6.62
1043.661	-1.02
1044.084	-5.62
1044.507	-7.42
1044.93	-1.62
1045.352	-5.92
1045.775	-0.72
1046.198	-5.52
1046.621	-4.52
1047.043	5.98
1047.466	8.88
1047.889	-0.52
1048.311	-8.72
1048.734	-2.12
1049.156	-8.72
1049.579	-5.02
1050.001	-5.42
1050.424	-1.42
1050.846	-5.62
1051.269	-1.02
1051.691	-5.72
1052.113	-3.42
1052.536	-6.22
1052.958	-0.52
1053.38	-5.92
1053.802	-10.62
1054.225	1.98
1054.647	-6.42
1055.069	-7.92
1055.491	2.88
1055.913	-5.22
1056.335	-1.82
1056.757	-9.42
1057.179	-6.62
1057.601	-8.92
1058.023	-9.82
1058.445	0.98
1058.867	-7.22
1059.289	-7.62
1059.711	-3.82
1060.133	-6.92
1060.555	-5.82
1060.976	-3.22
1061.398	-4.02
1061.82	-11.82
1062.241	-7.32
1062.663	-11.32
1063.085	-10.12
1063.506	-4.02
1063.928	-2.12
1064.35	-3.32
1064.771	-3.92
1065.193	-4.62
1065.614	-14.42
1066.035	-2.32
1066.457	-7.22
1066.878	-1.92
1067.3	-8.02
1067.721	-7.52
1068.142	-4.32
1068.564	-2.62
1068.985	-2.02
1069.406	-5.12
1069.827	-1.82
1070.248	-3.52
1070.67	-10.02
1071.091	-6.82
1071.512	-9.82
1071.933	-4.12
1072.354	-5.82
1072.775	-2.62
1073.196	-8.62
1073.617	-6.02
1074.038	-10.02
1074.459	-7.22
1074.88	-10.42
1075.3	2.78
1075.721	-5.02
1076.142	4.38
1076.563	0.48
1076.983	-9.72
1077.404	-1.82
1077.825	-9.32
1078.246	-0.72
1078.666	-7.92
1079.087	-7.82
1079.507	-5.42
1079.928	3.08
1080.348	-1.32
1080.769	-4.12
1081.189	0.18
1081.61	-1.12
1082.03	-4.82
1082.451	-7.62
1082.871	-3.02
1083.291	-5.92
1083.711	-15.12
1084.132	-8.92
1084.552	-13.62
1084.972	-6.52
1085.392	-8.72
1085.813	-13.22
1086.233	-7.02
1086.653	-7.02
1087.073	-4.52
1087.493	-7.02
1087.913	-8.72
1088.333	-6.32
1088.753	-10.02
1089.173	1.88
1089.593	-6.32
1090.013	1.98
1090.433	-1.32
1090.852	-0.52
1091.272	-5.02
1091.692	2.38
1092.112	-5.32
1092.531	-4.42
1092.951	-12.02
1093.371	-6.22
1093.79	-0.82
1094.21	-10.02
1094.63	-5.92
1095.049	-8.12
1095.469	-4.42
1095.888	-7.92
1096.308	1.38
1096.727	0.38
1097.146	-11.02
1097.566	-0.72
1097.985	-9.92
1098.405	-5.42
1098.824	-10.92
1099.243	-2.62
1099.662	-14.92
1100.082	-5.42
1100.501	-2.02
1100.92	-2.02
1101.339	-3.42
1101.758	-5.62
