Data from 20171114-ORNL-Ar_H_NY_Subt18_08-05-50-434.txt Node
Date: Tue Nov 14 08:05:50 EST 2017
User: Ender
Spectrometer: HR+D1039
Trigger mode: 0
Integration Time (sec): 2.730000E-2
Scans to average: 10
Electric dark correction enabled: true
Nonlinearity correction enabled: false
Boxcar width: 0
XAxis mode: Wavelengths
Number of Pixels in Spectrum: 2048
>>>>>Begin Spectral Data<<<<<
187.836	-0.34
188.309	-0.34
188.782	-0.34
189.255	1.96
189.728	2.26
190.201	9.56
190.674	-1.64
191.147	-0.54
191.619	-2.94
192.092	-1.44
192.565	6.66
193.038	-4.04
193.511	-0.94
193.984	-0.84
194.456	-4.14
194.929	-0.54
195.402	-1.84
195.874	-1.14
196.347	0.36
196.82	-5.24
197.292	4.66
197.765	-3.54
198.237	-7.24
198.71	2.66
199.182	-0.44
199.655	3.86
200.127	-1.44
200.6	-4.24
201.072	1.46
201.544	-1.94
202.017	-1.54
202.489	3.26
202.961	0.26
203.433	-4.54
203.906	-7.34
204.378	-2.44
204.85	-1.84
205.322	-12.24
205.794	-3.64
206.266	-9.34
206.739	-10.94
207.211	0.76
207.683	-3.94
208.155	-6.84
208.627	0.66
209.099	-3.74
209.57	-7.54
210.042	-5.24
210.514	1.16
210.986	4.66
211.458	-6.64
211.93	-4.54
212.402	-2.14
212.873	-4.04
213.345	-8.34
213.817	-15.54
214.288	-7.04
214.76	-8.84
215.232	-7.34
215.703	-4.54
216.175	0.06
216.646	-2.54
217.118	-8.94
217.589	-6.14
218.061	-6.24
218.532	-9.94
219.004	0.36
219.475	-5.04
219.946	-0.34
220.418	-2.14
220.889	2.66
221.36	4.76
221.832	-5.64
222.303	-5.44
222.774	-4.34
223.245	-6.54
223.717	-8.44
224.188	-4.64
224.659	-12.64
225.13	-6.54
225.601	-6.14
226.072	3.56
226.543	-5.04
227.014	-3.24
227.485	1.66
227.956	-7.14
228.427	-2.94
228.898	-2.54
229.369	10.66
229.839	-3.14
230.31	-7.44
230.781	5.46
231.252	-4.24
231.722	-2.24
232.193	0.26
232.664	2.26
233.135	2.26
233.605	-2.24
234.076	-2.74
234.546	-0.64
235.017	3.66
235.487	1.36
235.958	-0.24
236.428	-0.74
236.899	2.66
237.369	1.06
237.84	-1.14
238.31	12.86
238.78	5.66
239.251	0.46
239.721	0.06
240.191	-2.14
240.662	-1.34
241.132	0.36
241.602	1.76
242.072	-3.24
242.542	9.36
243.013	-1.44
243.483	12.36
243.953	4.56
244.423	4.96
244.893	-7.94
245.363	3.86
245.833	5.66
246.303	-3.04
246.773	8.56
247.243	2.76
247.712	-0.44
248.182	6.76
248.652	11.26
249.122	1.46
249.592	11.36
250.061	23.56
250.531	32.36
251.001	16.06
251.471	21.36
251.94	19.66
252.41	10.26
252.879	1.06
253.349	9.66
253.818	7.06
254.288	4.66
254.757	4.96
255.227	4.26
255.696	8.96
256.166	4.96
256.635	4.46
257.105	5.66
257.574	5.86
258.043	6.66
258.513	15.16
258.982	17.66
259.451	4.26
259.92	8.16
260.389	10.96
260.859	13.16
261.328	12.66
261.797	15.26
262.266	7.46
262.735	10.16
263.204	0.76
263.673	2.76
264.142	5.86
264.611	-2.84
265.08	-2.44
265.549	8.26
266.018	4.16
266.487	-3.14
266.955	-0.04
267.424	-1.14
267.893	2.86
268.362	1.66
268.83	0.96
269.299	10.16
269.768	4.66
270.236	9.66
270.705	6.76
271.174	6.46
271.642	9.66
272.111	9.26
272.579	19.86
273.048	25.66
273.516	29.56
273.985	29.86
274.453	30.76
274.922	25.86
275.39	9.36
275.858	8.66
276.327	12.96
276.795	17.76
277.263	9.46
277.731	28.86
278.2	54.56
278.668	59.46
279.136	43.96
279.604	14.66
280.072	12.36
280.54	13.96
281.008	12.76
281.477	23.86
281.945	10.56
282.413	12.66
282.881	17.06
283.348	6.86
283.816	17.66
284.284	15.16
284.752	20.86
285.22	13.76
285.688	14.96
286.156	17.76
286.623	41.56
287.091	52.46
287.559	36.86
288.026	16.06
288.494	13.06
288.962	8.06
289.429	14.46
289.897	24.66
290.364	16.76
290.832	21.26
291.3	17.06
291.767	14.76
292.234	15.26
292.702	11.76
293.169	16.16
293.637	23.56
294.104	21.66
294.571	7.26
295.039	13.76
295.506	16.46
295.973	20.76
296.44	13.76
296.908	20.76
297.375	21.16
297.842	17.56
298.309	22.16
298.776	17.36
299.243	21.06
299.71	17.06
300.177	22.46
300.644	32.36
301.111	20.86
301.578	26.36
302.045	17.66
302.512	22.46
302.979	25.86
303.446	22.16
303.913	21.96
304.379	23.86
304.846	28.96
305.313	22.86
305.78	24.26
306.246	21.66
306.713	33.36
307.18	29.96
307.646	28.36
308.113	33.36
308.579	24.86
309.046	30.16
309.512	27.86
309.979	20.76
310.445	28.96
310.912	27.96
311.378	28.16
311.845	33.06
312.311	28.66
312.777	35.86
313.244	32.26
313.71	36.66
314.176	31.46
314.642	37.76
315.109	31.56
315.575	41.66
316.041	37.46
316.507	34.26
316.973	43.16
317.439	36.36
317.905	32.36
318.371	38.56
318.837	33.96
319.303	32.46
319.769	33.26
320.235	39.26
320.701	37.16
321.167	35.66
321.633	34.26
322.099	42.46
322.564	43.56
323.03	42.16
323.496	42.36
323.962	42.86
324.427	38.76
324.893	42.06
325.359	44.76
325.824	37.46
326.29	38.26
326.755	36.26
327.221	43.66
327.686	42.46
328.152	49.36
328.617	44.76
329.083	48.66
329.548	51.06
330.014	47.96
330.479	44.36
330.944	44.06
331.41	41.46
331.875	50.86
332.34	50.06
332.805	39.76
333.271	48.86
333.736	51.96
334.201	57.46
334.666	53.26
335.131	57.16
335.596	57.76
336.061	54.06
336.526	42.56
336.991	54.16
337.456	53.36
337.921	50.96
338.386	45.86
338.851	46.56
339.316	45.56
339.781	51.16
340.246	53.96
340.711	50.86
341.175	48.76
341.64	48.66
342.105	49.66
342.569	56.86
343.034	66.06
343.499	59.56
343.963	54.56
344.428	63.56
344.893	61.56
345.357	66.56
345.822	66.36
346.286	72.16
346.751	81.76
347.215	70.26
347.679	75.26
348.144	93.96
348.608	88.96
349.073	73.26
349.537	75.86
350.001	85.46
350.465	97.66
350.93	80.16
351.394	78.56
351.858	73.16
352.322	81.16
352.786	86.76
353.25	109.36
353.715	110.86
354.179	101.36
354.643	124.06
355.107	129.46
355.571	109.56
356.035	103.16
356.498	118.56
356.962	124.46
357.426	135.06
357.89	113.66
358.354	91.26
358.818	85.86
359.281	86.06
359.745	83.56
360.209	83.06
360.673	76.16
361.136	80.76
361.6	90.76
362.064	88.56
362.527	82.76
362.991	86.86
363.454	80.46
363.918	78.96
364.381	77.56
364.845	91.46
365.308	92.66
365.772	88.96
366.235	83.66
366.698	84.66
367.162	86.46
367.625	89.76
368.088	90.16
368.552	94.76
369.015	86.56
369.478	97.56
369.941	101.96
370.404	98.56
370.867	100.86
371.331	111.76
371.794	116.76
372.257	113.66
372.72	113.06
373.183	114.66
373.646	108.86
374.109	107.16
374.572	110.36
375.035	112.76
375.497	111.26
375.96	103.36
376.423	103.56
376.886	115.66
377.349	112.46
377.811	101.86
378.274	105.56
378.737	110.36
379.199	113.76
379.662	113.26
380.125	118.36
380.587	113.56
381.05	126.06
381.512	128.56
381.975	132.96
382.437	133.36
382.9	122.76
383.362	136.06
383.825	139.96
384.287	149.76
384.75	148.16
385.212	139.56
385.674	145.16
386.136	134.66
386.599	129.16
387.061	131.36
387.523	137.16
387.985	137.16
388.447	144.76
388.91	151.16
389.372	161.36
389.834	152.16
390.296	153.66
390.758	153.96
391.22	176.06
391.682	214.06
392.144	292.96
392.606	235.16
393.068	170.66
393.529	170.26
393.991	156.56
394.453	150.46
394.915	156.86
395.377	198.26
395.838	210.76
396.3	160.46
396.762	146.86
397.224	137.66
397.685	132.26
398.147	140.76
398.608	139.96
399.07	132.66
399.531	133.96
399.993	142.56
400.454	154.26
400.916	143.86
401.377	150.16
401.839	158.36
402.3	160.46
402.762	163.36
403.223	183.46
403.684	175.36
404.145	163.76
404.607	165.66
405.068	168.26
405.529	169.76
405.99	188.56
406.451	180.76
406.913	172.06
407.374	167.86
407.835	158.46
408.296	173.16
408.757	175.66
409.218	187.26
409.679	186.36
410.14	179.46
410.601	179.96
411.062	189.96
411.522	188.16
411.983	197.36
412.444	179.66
412.905	187.56
413.366	188.36
413.826	203.56
414.287	220.46
414.748	261.66
415.208	253.16
415.669	217.26
416.13	207.16
416.59	209.86
417.051	210.06
417.511	220.76
417.972	245.76
418.432	253.66
418.893	296.16
419.353	259.06
419.814	209.56
420.274	188.36
420.734	184.56
421.195	202.06
421.655	195.66
422.115	190.26
422.576	196.66
423.036	203.56
423.496	208.16
423.956	221.26
424.416	230.96
424.876	276.06
425.336	265.36
425.797	263.46
426.257	254.16
426.717	238.36
427.177	232.26
427.637	221.96
428.097	233.06
428.556	253.56
429.016	277.76
429.476	264.16
429.936	282.16
430.396	289.26
430.856	297.36
431.315	320.16
431.775	357.26
432.235	386.76
432.694	349.96
433.154	373.06
433.614	397.36
434.073	346.36
434.533	289.36
434.993	271.46
435.452	288.76
435.912	303.96
436.371	291.86
436.83	285.56
437.29	272.46
437.749	251.16
438.209	250.26
438.668	276.76
439.127	289.56
439.587	273.66
440.046	255.76
440.505	269.96
440.964	290.26
441.424	329.06
441.883	323.96
442.342	265.46
442.801	230.06
443.26	221.76
443.719	226.96
444.178	216.26
444.637	218.76
445.096	222.26
445.555	234.06
446.014	230.66
446.473	228.16
446.932	234.76
447.391	231.16
447.849	232.56
448.308	220.76
448.767	223.26
449.226	240.26
449.685	245.66
450.143	250.86
450.602	235.66
451.061	229.46
451.519	236.96
451.978	231.16
452.436	234.76
452.895	236.36
453.353	256.16
453.812	247.86
454.27	243.56
454.729	246.06
455.187	245.96
455.646	249.46
456.104	245.46
456.562	260.96
457.021	279.36
457.479	263.26
457.937	274.16
458.395	259.66
458.854	253.06
459.312	254.86
459.77	281.06
460.228	265.36
460.686	247.36
461.144	256.46
461.602	247.46
462.06	246.16
462.518	263.36
462.976	261.76
463.434	262.66
463.892	274.16
464.35	280.56
464.808	285.16
465.266	270.86
465.724	278.26
466.181	278.36
466.639	275.16
467.097	296.06
467.555	304.86
468.012	309.76
468.47	318.16
468.928	345.66
469.385	345.56
469.843	351.16
470.3	353.16
470.758	374.46
471.215	396.76
471.673	421.96
472.13	414.16
472.588	423.96
473.045	371.56
473.503	382.26
473.96	404.46
474.417	409.16
474.875	435.06
475.332	483.56
475.789	472.56
476.246	478.36
476.704	499.46
477.161	518.26
477.618	534.56
478.075	573.66
478.532	634.46
478.989	700.36
479.446	822.26
479.903	787.86
480.36	821.86
480.817	879.36
481.274	991.96
481.731	1102.96
482.188	1191.86
482.645	1319.76
483.102	1421.46
483.558	1563.26
484.015	1628.16
484.472	1607.46
484.929	1555.26
485.385	1512.86
485.842	1453.66
486.299	1400.16
486.755	1321.06
487.212	1111.66
487.668	935.76
488.125	871.96
488.582	794.16
489.038	757.46
489.494	723.86
489.951	702.16
490.407	682.26
490.864	658.26
491.32	665.26
491.776	662.86
492.233	652.06
492.689	623.16
493.145	614.46
493.602	611.46
494.058	620.56
494.514	640.96
494.97	653.16
495.426	653.96
495.882	632.76
496.338	625.46
496.794	636.96
497.251	629.16
497.707	644.86
498.163	652.56
498.618	656.36
499.074	661.26
499.53	692.06
499.986	685.96
500.442	652.26
500.898	643.36
501.354	631.16
501.809	652.16
502.265	653.36
502.721	675.96
503.177	680.66
503.632	679.66
504.088	691.66
504.543	718.96
504.999	725.26
505.455	667.66
505.91	646.56
506.366	643.56
506.821	650.66
507.277	631.86
507.732	632.06
508.187	638.26
508.643	645.26
509.098	635.96
509.553	663.76
510.009	678.16
510.464	670.16
510.919	699.96
511.375	699.16
511.83	719.06
512.285	728.26
512.74	762.96
513.195	794.56
513.65	786.76
514.105	783.26
514.56	774.56
515.015	806.16
515.47	820.96
515.925	804.46
516.38	797.86
516.835	801.36
517.29	795.16
517.745	794.26
518.2	781.06
518.655	767.36
519.109	768.46
519.564	753.26
520.019	744.66
520.474	730.06
520.928	732.06
521.383	728.56
521.838	717.56
522.292	727.06
522.747	721.16
523.201	722.66
523.656	710.26
524.11	699.26
524.565	698.86
525.019	700.76
525.474	699.86
525.928	713.06
526.382	705.36
526.837	693.46
527.291	717.76
527.745	715.86
528.2	709.06
528.654	697.96
529.108	692.36
529.562	693.56
530.016	700.36
530.47	702.06
530.925	704.06
531.379	713.46
531.833	716.66
532.287	704.86
532.741	715.86
533.195	711.36
533.649	715.06
534.103	723.86
534.556	723.66
535.01	716.06
535.464	714.86
535.918	739.66
536.372	733.36
536.826	726.86
537.279	714.36
537.733	713.86
538.187	723.26
538.64	720.46
539.094	735.26
539.548	737.26
540.001	731.96
540.455	733.86
540.908	733.96
541.362	744.56
541.815	749.06
542.269	766.96
542.722	771.26
543.175	783.66
543.629	782.96
544.082	796.46
544.536	809.56
544.989	800.96
545.442	805.46
545.895	799.86
546.349	800.36
546.802	806.66
547.255	800.16
547.708	813.16
548.161	818.06
548.614	829.76
549.067	839.66
549.52	819.46
549.973	822.66
550.426	818.16
550.879	803.16
551.332	811.26
551.785	809.46
552.238	813.96
552.691	824.16
553.144	836.96
553.596	848.26
554.049	877.96
554.502	898.86
554.955	920.56
555.407	918.86
555.86	906.96
556.313	908.06
556.765	889.26
557.218	901.36
557.67	895.16
558.123	875.06
558.576	875.66
559.028	888.26
559.48	893.16
559.933	885.96
560.385	844.76
560.838	814.76
561.29	787.96
561.742	784.96
562.195	768.46
562.647	765.46
563.099	778.06
563.551	772.06
564.004	777.96
564.456	766.46
564.908	767.66
565.36	756.26
565.812	746.56
566.264	725.26
566.716	732.96
567.168	722.96
567.62	721.86
568.072	717.36
568.524	698.36
568.976	687.36
569.428	675.76
569.88	678.66
570.332	678.96
570.784	681.76
571.235	685.06
571.687	698.46
572.139	698.96
572.59	711.26
573.042	720.36
573.494	715.86
573.945	708.76
574.397	695.46
574.849	697.56
575.3	694.06
575.752	687.96
576.203	680.26
576.655	692.46
577.106	675.46
577.557	665.26
578.009	671.46
578.46	670.36
578.912	671.26
579.363	661.76
579.814	664.36
580.265	672.16
580.717	669.46
581.168	678.06
581.619	683.46
582.07	676.56
582.521	672.76
582.972	669.06
583.423	682.76
583.875	676.36
584.326	696.86
584.777	744.86
585.227	823.96
585.678	916.26
586.129	1001.46
586.58	1076.96
587.031	1156.66
587.482	1309.56
587.933	1491.66
588.384	1305.46
588.834	967.86
589.285	805.36
589.736	790.16
590.186	778.06
590.637	770.76
591.088	736.26
591.538	733.96
591.989	732.56
592.439	728.56
592.89	718.86
593.34	701.76
593.791	711.96
594.241	705.66
594.692	703.66
595.142	699.56
595.593	694.76
596.043	714.46
596.493	716.46
596.943	715.76
597.394	724.46
597.844	706.66
598.294	716.36
598.744	744.46
599.195	770.46
599.645	808.96
600.095	847.96
600.545	903.56
600.995	970.36
601.445	1025.16
601.895	1078.36
602.345	1127.96
602.795	1106.66
603.245	1066.96
603.695	1009.16
604.145	952.46
604.594	901.46
605.044	860.76
605.494	794.96
605.944	752.06
606.393	734.26
606.843	724.26
607.293	730.46
607.743	736.76
608.192	740.76
608.642	765.36
609.091	765.36
609.541	761.56
609.99	775.26
610.44	765.56
610.889	716.96
611.339	696.26
611.788	681.26
612.238	697.46
612.687	716.66
613.136	713.46
613.586	726.96
614.035	740.46
614.484	737.66
614.933	752.06
615.383	747.76
615.832	734.86
616.281	720.76
616.73	676.56
617.179	652.76
617.628	640.26
618.077	636.36
618.526	621.26
618.975	616.36
619.424	616.06
619.873	610.96
620.322	613.56
620.771	604.66
621.22	597.06
621.669	592.16
622.118	583.46
622.567	566.06
623.015	564.86
623.464	565.86
623.913	552.96
624.361	551.26
624.81	542.96
625.259	547.26
625.707	551.06
626.156	553.06
626.604	560.46
627.053	559.36
627.501	553.86
627.95	557.76
628.398	564.06
628.847	568.46
629.295	565.26
629.744	567.26
630.192	566.26
630.64	561.06
631.089	560.36
631.537	574.76
631.985	574.96
632.433	598.86
632.881	596.06
633.33	649.06
633.778	628.66
634.226	557.36
634.674	553.56
635.122	565.46
635.57	586.86
636.018	611.86
636.466	578.46
636.914	548.66
637.362	558.56
637.81	562.56
638.258	569.76
638.705	573.36
639.153	608.76
639.601	611.16
640.049	629.76
640.497	659.86
640.944	685.16
641.392	633.36
641.84	607.16
642.287	572.76
642.735	564.16
643.182	564.26
643.63	562.76
644.078	562.16
644.525	584.36
644.973	590.96
645.42	600.36
645.867	620.46
646.315	627.56
646.762	645.96
647.21	672.46
647.657	696.66
648.104	734.76
648.551	751.06
648.999	833.06
649.446	900.36
649.893	987.86
650.34	1139.36
650.787	1366.36
651.234	1691.46
651.682	2229.46
652.129	3044.06
652.576	4364.66
653.023	6458.06
653.47	8821.66
653.917	11074.56
654.363	12848.26
654.81	14255.46
655.257	13550.26
655.704	8907.76
656.151	5237.46
656.598	3389.46
657.044	2399.56
657.491	1836.16
657.938	1471.06
658.385	1236.66
658.831	1060.86
659.278	953.46
659.724	849.26
660.171	773.86
660.618	720.66
661.064	683.66
661.511	663.96
661.957	648.06
662.404	631.16
662.85	639.56
663.296	610.76
663.743	563.16
664.189	533.76
664.635	519.26
665.082	511.46
665.528	520.26
665.974	509.16
666.42	501.96
666.867	491.66
667.313	486.16
667.759	465.96
668.205	471.86
668.651	472.56
669.097	476.36
669.543	497.26
669.989	464.36
670.435	434.56
670.881	433.26
671.327	439.96
671.773	453.66
672.219	476.76
672.665	528.36
673.11	562.56
673.556	616.16
674.002	648.96
674.448	634.26
674.893	534.66
675.339	466.66
675.785	426.66
676.23	405.86
676.676	386.86
677.122	370.76
677.567	368.06
678.013	366.06
678.458	343.56
678.904	352.56
679.349	341.36
679.794	345.06
680.24	348.76
680.685	338.66
681.131	342.56
681.576	348.36
682.021	347.36
682.466	336.86
682.912	333.36
683.357	345.66
683.802	371.96
684.247	396.66
684.692	443.16
685.137	479.86
685.583	514.66
686.028	551.16
686.473	507.46
686.918	435.06
687.363	398.56
687.807	379.56
688.252	358.96
688.697	353.76
689.142	331.26
689.587	321.86
690.032	322.16
690.477	330.26
690.921	340.66
691.366	371.46
691.811	386.26
692.255	426.46
692.7	456.46
693.145	493.96
693.589	669.36
694.034	1081.36
694.478	1477.36
694.923	1685.26
695.367	2207.36
695.812	1162.96
696.256	488.26
696.701	359.06
697.145	335.46
697.59	322.66
698.034	311.66
698.478	321.56
698.922	316.46
699.367	312.26
699.811	333.06
700.255	346.66
700.699	370.86
701.143	411.36
701.588	466.36
702.032	493.46
702.476	492.56
702.92	473.36
703.364	473.06
703.808	611.86
704.252	978.36
704.696	1383.56
705.14	1609.86
705.584	2080.76
706.027	1040.76
706.471	511.96
706.915	385.46
707.359	340.56
707.803	308.46
708.246	300.96
708.69	299.26
709.134	310.76
709.577	304.86
710.021	308.36
710.465	302.06
710.908	293.26
711.352	287.26
711.795	301.06
712.239	334.86
712.682	370.36
713.126	410.36
713.569	445.46
714.012	369.26
714.456	317.66
714.899	295.46
715.342	267.56
715.786	250.16
716.229	243.46
716.672	246.96
717.115	244.76
717.558	246.06
718.002	240.66
718.445	247.96
718.888	272.16
719.331	279.66
719.774	301.16
720.217	296.16
720.66	280.26
721.103	266.86
721.546	243.96
721.989	242.16
722.432	222.86
722.874	229.46
723.317	226.36
723.76	223.26
724.203	253.86
724.645	303.86
725.088	424.16
725.531	545.76
725.974	620.06
726.416	532.36
726.859	295.26
727.301	236.76
727.744	227.66
728.187	225.56
728.629	233.36
729.071	236.16
729.514	240.86
729.956	260.56
730.399	273.16
730.841	278.26
731.283	264.56
731.726	259.36
732.168	255.06
732.61	253.26
733.053	277.26
733.495	303.06
733.937	338.16
734.379	381.36
734.821	413.86
735.263	516.96
735.705	789.66
736.148	1498.16
736.59	2474.96
737.032	2979.86
737.474	2422.46
737.916	775.56
738.357	416.06
738.799	310.96
739.241	289.16
739.683	278.66
740.125	283.76
740.567	286.06
741.008	303.56
741.45	299.46
741.892	311.16
742.334	336.56
742.775	349.86
743.217	327.16
743.658	258.86
744.1	247.26
744.542	252.16
744.983	300.56
745.425	334.16
745.866	335.36
746.307	282.06
746.749	273.56
747.19	318.56
747.632	431.16
748.073	831.36
748.514	1770.96
748.956	2736.16
749.397	3437.06
749.838	2835.36
750.279	2875.76
750.72	1446.56
751.162	532.06
751.603	308.46
752.044	249.26
752.485	205.36
752.926	201.46
753.367	189.76
753.808	193.36
754.249	193.16
754.69	182.66
755.131	179.26
755.572	175.56
756.013	177.36
756.453	178.26
756.894	184.66
757.335	190.86
757.776	192.06
758.216	192.76
758.657	197.46
759.098	192.56
759.538	216.26
759.979	254.36
760.42	348.46
760.86	669.26
761.301	1720.06
761.741	4193.46
762.182	6248.56
762.622	4409.76
763.063	1269.56
763.503	520.96
763.943	332.16
764.384	328.66
764.824	390.56
765.264	423.36
765.705	297.46
766.145	204.06
766.585	178.26
767.025	174.66
767.465	181.06
767.906	229.26
768.346	302.26
768.786	322.36
769.226	247.76
769.666	300.76
770.106	582.16
770.546	1474.56
770.986	2562.36
771.426	2310.96
771.866	766.36
772.306	321.16
772.745	203.86
773.185	162.66
773.625	165.36
774.065	158.36
774.505	192.06
774.944	290.96
775.384	641.96
775.824	1175.26
776.263	1158.06
776.703	489.96
777.142	212.36
777.582	152.86
778.021	130.06
778.461	135.76
778.9	132.36
779.34	124.56
779.779	115.76
780.219	108.66
780.658	105.16
781.097	106.16
781.537	110.56
781.976	105.76
782.415	104.66
782.855	101.16
783.294	107.16
783.733	105.66
784.172	102.66
784.611	101.06
785.05	103.86
785.489	109.46
785.928	120.26
786.367	112.26
786.806	109.76
787.245	124.36
787.684	130.96
788.123	147.96
788.562	128.56
789.001	124.16
789.44	115.36
789.879	116.36
790.317	119.96
790.756	119.56
791.195	128.36
791.634	141.36
792.072	194.16
792.511	345.16
792.95	956.06
793.388	2049.96
793.827	1899.26
794.265	657.46
794.704	272.86
795.142	175.96
795.581	147.66
796.019	131.86
796.458	128.86
796.896	117.96
797.334	124.66
797.773	149.36
798.211	205.76
798.649	411.76
799.087	965.76
799.526	1527.66
799.964	1919.06
800.402	1966.86
800.84	735.86
801.278	296.36
801.716	182.46
802.154	147.46
802.592	140.36
803.03	140.36
803.468	129.26
803.906	137.96
804.344	139.66
804.782	140.46
805.22	124.56
805.658	121.86
806.096	145.26
806.533	148.96
806.971	166.76
807.409	204.76
807.847	296.06
808.284	627.96
808.722	1767.96
809.16	3135.96
809.597	2962.86
810.035	5190.66
810.472	5636.76
810.91	2028.46
811.347	770.06
811.785	392.56
812.222	248.16
812.66	189.76
813.097	156.96
813.535	138.56
813.972	127.06
814.409	117.76
814.846	104.26
815.284	108.06
815.721	96.26
816.158	98.26
816.595	113.96
817.032	172.66
817.47	193.26
817.907	171.96
818.344	147.56
818.781	115.36
819.218	97.06
819.655	116.96
820.092	174.56
820.529	206.96
820.966	168.76
821.403	129.06
821.839	106.26
822.276	103.26
822.713	116.76
823.15	131.36
823.587	118.16
824.023	143.16
824.46	281.06
824.897	851.76
825.333	1309.16
825.77	561.66
826.206	221.56
826.643	129.56
827.08	101.16
827.516	82.76
827.953	74.56
828.389	77.76
828.825	61.56
829.262	61.56
829.698	59.76
830.135	64.26
830.571	58.66
831.007	65.26
831.443	54.66
831.88	62.66
832.316	56.96
832.752	67.06
833.188	61.06
833.624	65.76
834.06	63.86
834.497	63.56
834.933	69.66
835.369	70.56
835.805	58.76
836.241	72.46
836.677	77.16
837.112	84.16
837.548	99.56
837.984	127.76
838.42	191.46
838.856	467.46
839.292	1429.56
839.727	2238.66
840.163	1033.06
840.599	870.76
841.034	1938.26
841.47	2060.36
841.906	749.76
842.341	318.26
842.777	222.46
843.212	308.26
843.648	294.96
844.083	150.36
844.519	91.56
844.954	74.36
845.39	60.96
845.825	56.26
846.261	51.66
846.696	56.56
847.131	43.56
847.566	59.16
848.002	50.86
848.437	54.36
848.872	60.56
849.307	63.76
849.742	78.46
850.177	174.96
850.613	529.96
851.048	855.36
851.483	365.26
851.918	149.36
852.353	86.96
852.788	61.66
853.223	59.96
853.657	51.86
854.092	46.66
854.527	38.26
854.962	35.46
855.397	43.46
855.832	45.26
856.266	40.26
856.701	38.16
857.136	31.76
857.57	35.06
858.005	42.76
858.44	56.16
858.874	39.86
859.309	48.06
859.743	34.86
860.178	51.06
860.612	41.46
861.047	48.46
861.481	62.36
861.915	65.86
862.35	51.46
862.784	27.46
863.218	32.46
863.653	30.06
864.087	44.76
864.521	53.76
864.955	64.26
865.39	150.86
865.824	165.16
866.258	110.76
866.692	161.76
867.126	163.96
867.56	103.76
867.994	49.16
868.428	37.46
868.862	43.46
869.296	57.06
869.73	58.16
870.164	49.26
870.598	45.46
871.031	42.46
871.465	26.36
871.899	31.76
872.333	23.06
872.766	23.66
873.2	21.76
873.634	31.76
874.067	25.26
874.501	21.06
874.935	36.86
875.368	29.46
875.802	26.36
876.235	27.36
876.669	23.36
877.102	19.66
877.535	24.06
877.969	22.06
878.402	29.16
878.836	14.86
879.269	18.16
879.702	25.06
880.135	21.46
880.569	25.26
881.002	27.56
881.435	18.86
881.868	20.26
882.301	23.56
882.734	13.06
883.167	20.76
883.601	20.06
884.034	22.36
884.467	9.96
884.899	20.96
885.332	14.66
885.765	15.26
886.198	15.46
886.631	22.56
887.064	21.56
887.497	19.06
887.929	27.66
888.362	16.76
888.795	12.86
889.228	15.66
889.66	19.56
890.093	12.66
890.526	16.56
890.958	10.46
891.391	20.66
891.823	21.46
892.256	8.56
892.688	8.26
893.121	10.56
893.553	12.36
893.985	21.76
894.418	14.86
894.85	12.36
895.282	15.36
895.715	14.56
896.147	16.86
896.579	18.16
897.011	13.36
897.444	18.16
897.876	10.56
898.308	17.86
898.74	13.66
899.172	10.96
899.604	23.36
900.036	17.46
900.468	14.66
900.9	9.16
901.332	12.66
901.764	10.96
902.196	22.36
902.628	13.46
903.06	15.76
903.491	24.86
903.923	19.56
904.355	19.36
904.787	17.06
905.218	23.16
905.65	20.46
906.082	10.06
906.513	14.46
906.945	20.86
907.376	15.36
907.808	20.86
908.239	24.86
908.671	19.46
909.102	21.86
909.534	32.86
909.965	42.26
910.397	89.06
910.828	296.26
911.259	450.76
911.691	209.16
912.122	105.76
912.553	49.56
912.984	34.56
913.415	26.26
913.847	25.36
914.278	14.66
914.709	16.76
915.14	14.46
915.571	11.76
916.002	6.46
916.433	21.96
916.864	16.76
917.295	10.86
917.726	19.06
918.157	13.76
918.587	23.56
919.018	17.86
919.449	23.66
919.88	23.16
920.311	34.06
920.741	46.56
921.172	161.46
921.603	144.26
922.033	67.56
922.464	46.46
922.895	23.86
923.325	18.56
923.756	13.36
924.186	14.46
924.617	27.26
925.047	42.26
925.478	51.06
925.908	40.36
926.338	27.36
926.769	14.26
927.199	20.16
927.629	4.46
928.06	12.36
928.49	19.06
928.92	14.36
929.35	13.66
929.78	15.66
930.21	7.06
930.641	6.76
931.071	10.96
931.501	7.16
931.931	11.06
932.361	9.36
932.791	2.26
933.221	1.96
933.651	5.26
934.08	17.56
934.51	30.06
934.94	10.76
935.37	11.66
935.8	11.76
936.229	5.86
936.659	13.26
937.089	8.36
937.519	10.36
937.948	26.76
938.378	13.46
938.807	4.66
939.237	6.76
939.666	6.56
940.096	-8.04
940.525	0.56
940.955	0.26
941.384	0.96
941.814	-0.64
942.243	-2.14
942.672	0.96
943.102	-3.84
943.531	3.76
943.96	6.76
944.39	2.96
944.819	-0.34
945.248	8.16
945.677	2.96
946.106	4.36
946.535	9.56
946.964	-0.24
947.393	4.56
947.822	-4.04
948.251	-4.84
948.68	8.46
949.109	3.66
949.538	8.16
949.967	3.16
950.396	3.66
950.825	-3.84
951.254	1.76
951.682	-6.34
952.111	2.86
952.54	8.36
952.969	-6.84
953.397	-10.84
953.826	6.36
954.254	-4.74
954.683	1.36
955.112	-8.04
955.54	-3.24
955.969	-2.74
956.397	-3.94
956.826	-3.74
957.254	7.66
957.682	3.56
958.111	4.26
958.539	-7.54
958.967	0.86
959.396	-5.54
959.824	-7.64
960.252	3.16
960.68	-5.84
961.109	-1.04
961.537	-8.04
961.965	3.36
962.393	3.06
962.821	1.46
963.249	-4.04
963.677	-0.44
964.105	6.06
964.533	44.76
964.961	38.06
965.389	20.76
965.817	8.46
966.245	3.16
966.672	-6.34
967.1	-8.34
967.528	-3.34
967.956	-4.04
968.383	3.56
968.811	1.86
969.239	4.26
969.666	-6.44
970.094	-2.14
970.522	-1.54
970.949	-1.04
971.377	-9.44
971.804	-4.14
972.232	-2.44
972.659	0.86
973.087	-3.74
973.514	1.56
973.941	-2.64
974.369	4.16
974.796	2.66
975.223	5.46
975.651	-5.74
976.078	1.96
976.505	-4.74
976.932	4.66
977.359	14.26
977.786	10.76
978.214	4.76
978.641	1.16
979.068	-2.44
979.495	-5.94
979.922	-0.04
980.349	-0.84
980.776	-2.34
981.202	-1.04
981.629	1.46
982.056	5.66
982.483	2.36
982.91	1.46
983.337	-4.44
983.763	4.96
984.19	-1.84
984.617	-3.54
985.043	-7.44
985.47	-4.84
985.897	-1.34
986.323	-7.14
986.75	-0.94
987.176	-6.64
987.603	-1.34
988.029	3.66
988.456	-2.24
988.882	-0.64
989.308	-4.64
989.735	1.46
990.161	3.66
990.587	-8.64
991.014	-4.84
991.44	2.96
991.866	-3.24
992.292	-6.14
992.719	-3.64
993.145	-5.64
993.571	-11.54
993.997	-7.84
994.423	-4.84
994.849	-10.54
995.275	-2.34
995.701	3.66
996.127	0.06
996.553	-4.64
996.979	-3.44
997.405	-1.54
997.83	-10.44
998.256	-9.14
998.682	-5.84
999.108	-6.84
999.534	2.16
999.959	1.16
1000.385	1.86
1000.811	-0.14
1001.236	-4.94
1001.662	-7.74
1002.087	-7.84
1002.513	-2.24
1002.938	-2.24
1003.364	-4.94
1003.789	-0.34
1004.215	3.86
1004.64	-1.24
1005.066	1.86
1005.491	0.76
1005.916	-1.04
1006.342	-4.04
1006.767	-6.44
1007.192	8.86
1007.617	-8.14
1008.042	-9.34
1008.468	-7.94
1008.893	-7.34
1009.318	-1.94
1009.743	0.66
1010.168	4.76
1010.593	-0.74
1011.018	-4.94
1011.443	-6.34
1011.868	-2.84
1012.293	-3.24
1012.718	-5.24
1013.143	-3.94
1013.567	-0.84
1013.992	0.66
1014.417	-8.54
1014.842	-3.14
1015.267	0.16
1015.691	-0.84
1016.116	3.56
1016.541	-3.64
1016.965	1.06
1017.39	6.26
1017.814	0.66
1018.239	0.06
1018.663	-3.04
1019.088	-9.14
1019.512	0.56
1019.937	-0.84
1020.361	-1.24
1020.785	-12.04
1021.21	-3.64
1021.634	-4.04
1022.058	1.16
1022.483	7.46
1022.907	-3.24
1023.331	-3.24
1023.755	-4.84
1024.179	0.26
1024.604	-4.44
1025.028	-9.44
1025.452	-2.64
1025.876	-4.64
1026.3	-1.04
1026.724	-12.34
1027.148	-9.14
1027.572	-9.64
1027.996	-6.94
1028.42	-4.64
1028.843	-1.84
1029.267	-3.34
1029.691	-3.14
1030.115	-4.24
1030.539	-4.94
1030.962	-5.94
1031.386	-6.44
1031.81	-3.54
1032.233	-3.24
1032.657	-5.64
1033.08	-2.44
1033.504	-1.54
1033.927	-8.84
1034.351	0.36
1034.774	-2.94
1035.198	-2.34
1035.621	-3.34
1036.045	-8.84
1036.468	1.56
1036.891	-11.04
1037.315	1.26
1037.738	-12.64
1038.161	3.16
1038.584	-8.04
1039.008	0.26
1039.431	-1.94
1039.854	-0.24
1040.277	-8.04
1040.7	-13.44
1041.123	2.06
1041.546	-7.74
1041.969	-5.84
1042.392	-4.04
1042.815	1.36
1043.238	-4.84
1043.661	-0.74
1044.084	-8.04
1044.507	-5.84
1044.93	-4.84
1045.352	-3.24
1045.775	1.66
1046.198	-2.74
1046.621	-5.34
1047.043	-0.64
1047.466	6.16
1047.889	-3.14
1048.311	-12.64
1048.734	-2.84
1049.156	0.16
1049.579	-0.44
1050.001	-6.84
1050.424	-1.74
1050.846	-14.84
1051.269	-2.94
1051.691	-1.14
1052.113	-6.54
1052.536	-5.74
1052.958	-4.44
1053.38	-6.14
1053.802	-9.54
1054.225	-1.94
1054.647	-15.94
1055.069	-8.64
1055.491	2.06
1055.913	-6.74
1056.335	-0.64
1056.757	-6.34
1057.179	-7.04
1057.601	-5.64
1058.023	5.06
1058.445	-4.24
1058.867	-3.24
1059.289	-1.44
1059.711	-5.64
1060.133	-2.54
1060.555	-6.54
1060.976	-5.84
1061.398	-6.64
1061.82	-7.34
1062.241	-9.74
1062.663	-7.54
1063.085	-6.14
1063.506	-5.14
1063.928	2.16
1064.35	-1.24
1064.771	-15.34
1065.193	-9.14
1065.614	-12.24
1066.035	-3.94
1066.457	-1.14
1066.878	-1.34
1067.3	-4.44
1067.721	-4.54
1068.142	-3.44
1068.564	-4.34
1068.985	-2.84
1069.406	-12.74
1069.827	-4.54
1070.248	-0.14
1070.67	-4.94
1071.091	-7.04
1071.512	-1.64
1071.933	-6.74
1072.354	-7.14
1072.775	-0.94
1073.196	-7.74
1073.617	2.66
1074.038	-1.24
1074.459	-2.04
1074.88	-11.84
1075.3	-0.24
1075.721	-1.14
1076.142	-1.14
1076.563	-4.84
1076.983	-11.54
1077.404	-11.64
1077.825	-9.84
1078.246	-4.04
1078.666	-12.34
1079.087	-5.14
1079.507	-1.74
1079.928	6.06
1080.348	-1.74
1080.769	-5.24
1081.189	-2.04
1081.61	2.26
1082.03	-11.24
1082.451	-9.54
1082.871	1.46
1083.291	-3.94
1083.711	-5.54
1084.132	-8.64
1084.552	-5.74
1084.972	-4.14
1085.392	-9.54
1085.813	-10.54
1086.233	-4.94
1086.653	-4.34
1087.073	-3.34
1087.493	-6.94
1087.913	-3.34
1088.333	-12.74
1088.753	-3.54
1089.173	0.46
1089.593	-2.04
1090.013	-0.44
1090.433	2.66
1090.852	-4.04
1091.272	0.26
1091.692	-5.74
1092.112	-4.24
1092.531	-8.34
1092.951	-8.94
1093.371	-3.84
1093.79	0.26
1094.21	-7.14
1094.63	-3.14
1095.049	-8.94
1095.469	-7.94
1095.888	1.66
1096.308	-1.94
1096.727	2.26
1097.146	-9.74
1097.566	-6.34
1097.985	-10.54
1098.405	-6.84
1098.824	-8.44
1099.243	-8.34
1099.662	-7.44
1100.082	-0.44
1100.501	1.56
1100.92	-10.74
1101.339	-3.44
1101.758	-9.74
