Data from 20171114-ORNL-Ar_H_NY_Subt18_08-05-26-685.txt Node
Date: Tue Nov 14 08:05:26 EST 2017
User: Ender
Spectrometer: HR+D1039
Trigger mode: 0
Integration Time (sec): 2.730000E-2
Scans to average: 10
Electric dark correction enabled: true
Nonlinearity correction enabled: false
Boxcar width: 0
XAxis mode: Wavelengths
Number of Pixels in Spectrum: 2048
>>>>>Begin Spectral Data<<<<<
187.836	-9.58
188.309	-9.58
188.782	-9.58
189.255	-0.58
189.728	0.32
190.201	7.52
190.674	-1.38
191.147	4.52
191.619	-14.98
192.092	1.82
192.565	6.92
193.038	-1.98
193.511	0.42
193.984	6.42
194.456	-3.18
194.929	0.52
195.402	0.52
195.874	2.72
196.347	-0.28
196.82	-4.68
197.292	8.32
197.765	2.52
198.237	-0.38
198.71	6.32
199.182	3.02
199.655	-0.58
200.127	5.12
200.6	6.92
201.072	-0.58
201.544	-6.68
202.017	-2.18
202.489	4.62
202.961	-2.48
203.433	-1.08
203.906	-0.28
204.378	-5.58
204.85	-6.38
205.322	-8.58
205.794	0.62
206.266	-3.88
206.739	-6.98
207.211	4.52
207.683	-4.38
208.155	-2.88
208.627	-5.98
209.099	-5.18
209.57	-7.98
210.042	-3.78
210.514	-3.68
210.986	-3.08
211.458	-3.58
211.93	0.32
212.402	-0.38
212.873	-5.18
213.345	-5.78
213.817	-9.38
214.288	-1.88
214.76	-10.88
215.232	-1.88
215.703	-3.38
216.175	0.72
216.646	2.92
217.118	-2.28
217.589	-5.18
218.061	0.52
218.532	-7.58
219.004	4.42
219.475	0.22
219.946	1.72
220.418	-1.98
220.889	0.72
221.36	1.22
221.832	-1.08
222.303	-5.98
222.774	4.42
223.245	-7.88
223.717	-7.68
224.188	0.32
224.659	-4.38
225.13	-0.28
225.601	0.12
226.072	4.72
226.543	1.12
227.014	3.92
227.485	0.82
227.956	-0.68
228.427	0.62
228.898	3.22
229.369	8.02
229.839	1.92
230.31	-2.68
230.781	6.62
231.252	1.02
231.722	3.12
232.193	-0.78
232.664	5.32
233.135	2.52
233.605	1.92
234.076	-11.88
234.546	1.32
235.017	11.92
235.487	7.62
235.958	1.82
236.428	-2.88
236.899	3.92
237.369	2.82
237.84	3.52
238.31	6.12
238.78	3.92
239.251	1.12
239.721	7.62
240.191	3.72
240.662	0.32
241.132	2.02
241.602	-3.48
242.072	3.82
242.542	9.32
243.013	5.92
243.483	8.12
243.953	10.32
244.423	2.82
244.893	0.62
245.363	8.42
245.833	2.02
246.303	1.62
246.773	7.22
247.243	5.22
247.712	6.12
248.182	10.22
248.652	11.22
249.122	3.32
249.592	14.12
250.061	24.42
250.531	34.12
251.001	18.82
251.471	28.52
251.94	20.42
252.41	10.32
252.879	3.22
253.349	12.92
253.818	11.22
254.288	5.02
254.757	6.22
255.227	5.22
255.696	3.22
256.166	7.62
256.635	5.92
257.105	9.52
257.574	6.72
258.043	7.52
258.513	17.82
258.982	20.62
259.451	12.02
259.92	18.52
260.389	13.32
260.859	19.82
261.328	15.12
261.797	25.52
262.266	8.42
262.735	13.02
263.204	11.62
263.673	-1.88
264.142	10.02
264.611	-5.18
265.08	2.82
265.549	4.72
266.018	8.42
266.487	1.32
266.955	2.72
267.424	2.02
267.893	8.92
268.362	3.02
268.83	5.32
269.299	16.42
269.768	6.52
270.236	15.32
270.705	6.12
271.174	10.72
271.642	10.22
272.111	11.92
272.579	16.62
273.048	21.52
273.516	27.72
273.985	28.02
274.453	30.62
274.922	22.92
275.39	14.42
275.858	5.92
276.327	14.72
276.795	24.82
277.263	15.22
277.731	41.32
278.2	63.72
278.668	70.22
279.136	56.42
279.604	26.22
280.072	19.82
280.54	16.82
281.008	13.62
281.477	17.62
281.945	19.72
282.413	12.92
282.881	15.22
283.348	3.22
283.816	19.12
284.284	14.22
284.752	21.62
285.22	13.72
285.688	21.42
286.156	23.52
286.623	49.82
287.091	54.72
287.559	32.72
288.026	29.12
288.494	16.02
288.962	11.32
289.429	13.62
289.897	31.92
290.364	22.72
290.832	18.72
291.3	17.02
291.767	21.32
292.234	20.92
292.702	16.02
293.169	22.72
293.637	30.42
294.104	20.42
294.571	13.12
295.039	16.02
295.506	19.82
295.973	18.52
296.44	21.02
296.908	24.52
297.375	23.02
297.842	19.12
298.309	23.22
298.776	11.72
299.243	21.42
299.71	14.82
300.177	24.32
300.644	27.32
301.111	24.02
301.578	25.22
302.045	21.52
302.512	27.12
302.979	26.02
303.446	22.72
303.913	27.72
304.379	20.42
304.846	32.42
305.313	26.52
305.78	21.12
306.246	28.32
306.713	29.02
307.18	31.62
307.646	29.42
308.113	32.32
308.579	29.02
309.046	29.52
309.512	27.52
309.979	17.82
310.445	29.12
310.912	31.62
311.378	41.32
311.845	35.32
312.311	40.82
312.777	41.02
313.244	35.42
313.71	41.82
314.176	39.82
314.642	37.12
315.109	33.72
315.575	43.12
316.041	37.72
316.507	37.52
316.973	45.02
317.439	36.82
317.905	39.42
318.371	43.12
318.837	41.72
319.303	41.72
319.769	38.32
320.235	35.22
320.701	37.12
321.167	40.12
321.633	42.32
322.099	43.82
322.564	48.92
323.03	42.02
323.496	43.92
323.962	42.62
324.427	37.72
324.893	46.92
325.359	44.02
325.824	37.42
326.29	40.52
326.755	46.62
327.221	39.12
327.686	50.52
328.152	51.42
328.617	43.92
329.083	51.62
329.548	50.02
330.014	50.72
330.479	40.72
330.944	42.12
331.41	45.72
331.875	49.72
332.34	46.62
332.805	48.72
333.271	49.22
333.736	46.12
334.201	57.52
334.666	53.62
335.131	58.02
335.596	54.02
336.061	52.92
336.526	53.42
336.991	60.62
337.456	59.12
337.921	51.52
338.386	47.42
338.851	49.12
339.316	50.92
339.781	54.32
340.246	51.52
340.711	51.82
341.175	57.52
341.64	46.62
342.105	52.92
342.569	59.52
343.034	67.32
343.499	59.32
343.963	54.02
344.428	64.32
344.893	66.12
345.357	63.32
345.822	62.22
346.286	70.62
346.751	78.52
347.215	74.92
347.679	79.92
348.144	109.42
348.608	87.12
349.073	70.52
349.537	87.12
350.001	83.22
350.465	90.62
350.93	81.52
351.394	86.62
351.858	79.12
352.322	90.12
352.786	91.52
353.25	100.52
353.715	114.42
354.179	105.02
354.643	129.42
355.107	128.12
355.571	112.62
356.035	104.82
356.498	117.92
356.962	124.62
357.426	134.92
357.89	119.42
358.354	89.22
358.818	78.12
359.281	84.62
359.745	81.52
360.209	84.42
360.673	81.82
361.136	77.12
361.6	77.22
362.064	81.92
362.527	95.22
362.991	94.12
363.454	92.22
363.918	76.12
364.381	88.32
364.845	86.62
365.308	92.22
365.772	88.12
366.235	87.02
366.698	85.62
367.162	83.52
367.625	90.42
368.088	88.62
368.552	87.32
369.015	90.02
369.478	99.92
369.941	100.62
370.404	97.52
370.867	106.52
371.331	116.02
371.794	123.52
372.257	109.32
372.72	114.02
373.183	105.22
373.646	102.32
374.109	106.82
374.572	112.42
375.035	111.62
375.497	105.22
375.96	107.92
376.423	112.22
376.886	114.92
377.349	113.12
377.811	111.72
378.274	108.22
378.737	115.72
379.199	112.82
379.662	112.02
380.125	124.32
380.587	122.02
381.05	124.82
381.512	134.62
381.975	136.72
382.437	131.52
382.9	128.52
383.362	138.12
383.825	143.72
384.287	143.62
384.75	141.12
385.212	144.62
385.674	147.42
386.136	138.82
386.599	122.72
387.061	128.22
387.523	130.72
387.985	135.32
388.447	146.32
388.91	140.82
389.372	155.62
389.834	144.22
390.296	147.32
390.758	148.62
391.22	168.42
391.682	212.72
392.144	292.42
392.606	229.42
393.068	165.62
393.529	168.22
393.991	156.82
394.453	152.62
394.915	160.92
395.377	187.42
395.838	212.92
396.3	154.22
396.762	144.42
397.224	133.02
397.685	127.92
398.147	129.72
398.608	133.22
399.07	125.32
399.531	136.82
399.993	139.72
400.454	155.72
400.916	144.22
401.377	141.42
401.839	153.92
402.3	150.72
402.762	159.02
403.223	177.92
403.684	175.32
404.145	160.62
404.607	162.22
405.068	160.82
405.529	169.72
405.99	188.02
406.451	169.72
406.913	170.52
407.374	163.32
407.835	159.82
408.296	165.72
408.757	168.42
409.218	184.82
409.679	179.32
410.14	174.82
410.601	173.72
411.062	185.32
411.522	188.32
411.983	190.12
412.444	176.02
412.905	177.52
413.366	180.22
413.826	190.22
414.287	211.42
414.748	261.42
415.208	250.52
415.669	209.32
416.13	203.82
416.59	196.52
417.051	209.82
417.511	211.52
417.972	232.32
418.432	242.52
418.893	280.52
419.353	245.92
419.814	199.92
420.274	187.12
420.734	173.12
421.195	199.22
421.655	197.02
422.115	193.82
422.576	193.42
423.036	201.32
423.496	204.32
423.956	217.22
424.416	233.22
424.876	265.42
425.336	257.12
425.797	254.52
426.257	262.12
426.717	241.62
427.177	234.02
427.637	224.42
428.097	239.62
428.556	241.12
429.016	269.22
429.476	260.12
429.936	274.72
430.396	273.02
430.856	286.12
431.315	316.72
431.775	346.92
432.235	375.92
432.694	352.12
433.154	355.52
433.614	394.12
434.073	343.22
434.533	285.02
434.993	272.72
435.452	285.32
435.912	292.52
436.371	287.92
436.83	280.22
437.29	268.42
437.749	246.22
438.209	244.82
438.668	276.42
439.127	290.62
439.587	267.32
440.046	247.42
440.505	261.22
440.964	277.92
441.424	319.82
441.883	306.12
442.342	257.62
442.801	226.92
443.26	216.52
443.719	223.42
444.178	217.12
444.637	216.42
445.096	222.62
445.555	222.42
446.014	224.32
446.473	221.22
446.932	229.42
447.391	217.52
447.849	226.02
448.308	220.82
448.767	221.72
449.226	239.42
449.685	239.52
450.143	245.62
450.602	240.32
451.061	224.92
451.519	228.72
451.978	236.72
452.436	229.82
452.895	234.72
453.353	250.02
453.812	243.52
454.27	239.42
454.729	234.52
455.187	245.42
455.646	245.52
456.104	241.72
456.562	259.22
457.021	258.82
457.479	256.12
457.937	277.02
458.395	261.12
458.854	240.12
459.312	257.92
459.77	272.12
460.228	248.92
460.686	245.22
461.144	251.82
461.602	247.22
462.06	247.72
462.518	253.42
462.976	249.42
463.434	258.62
463.892	264.42
464.35	281.22
464.808	288.72
465.266	265.42
465.724	272.02
466.181	278.82
466.639	271.02
467.097	281.22
467.555	305.22
468.012	303.62
468.47	310.92
468.928	333.12
469.385	340.52
469.843	348.42
470.3	348.72
470.758	359.42
471.215	384.72
471.673	407.82
472.13	404.72
472.588	413.42
473.045	370.72
473.503	372.92
473.96	401.62
474.417	403.12
474.875	433.62
475.332	478.82
475.789	460.92
476.246	468.52
476.704	480.82
477.161	501.42
477.618	531.62
478.075	555.42
478.532	619.52
478.989	687.12
479.446	802.42
479.903	774.62
480.36	807.52
480.817	874.02
481.274	969.92
481.731	1077.22
482.188	1174.02
482.645	1303.02
483.102	1413.32
483.558	1548.22
484.015	1598.62
484.472	1573.82
484.929	1540.42
485.385	1475.62
485.842	1432.62
486.299	1376.22
486.755	1312.22
487.212	1090.82
487.668	916.62
488.125	867.32
488.582	790.72
489.038	746.62
489.494	715.62
489.951	686.52
490.407	666.62
490.864	653.02
491.32	649.92
491.776	638.62
492.233	645.52
492.689	605.62
493.145	603.42
493.602	597.52
494.058	615.02
494.514	625.02
494.97	633.22
495.426	644.42
495.882	626.32
496.338	625.82
496.794	630.42
497.251	617.82
497.707	641.62
498.163	639.02
498.618	643.72
499.074	646.42
499.53	682.92
499.986	678.22
500.442	662.92
500.898	634.82
501.354	627.52
501.809	640.72
502.265	647.52
502.721	666.92
503.177	672.32
503.632	662.82
504.088	671.32
504.543	711.12
504.999	710.42
505.455	649.32
505.91	637.12
506.366	639.92
506.821	627.22
507.277	624.22
507.732	620.52
508.187	620.02
508.643	633.62
509.098	629.32
509.553	653.62
510.009	673.02
510.464	664.62
510.919	680.62
511.375	695.22
511.83	704.22
512.285	724.72
512.74	767.82
513.195	786.92
513.65	778.02
514.105	763.72
514.56	769.12
515.015	793.42
515.47	816.22
515.925	794.32
516.38	796.42
516.835	792.92
517.29	786.22
517.745	786.82
518.2	770.82
518.655	751.52
519.109	757.82
519.564	740.82
520.019	728.82
520.474	739.92
520.928	728.92
521.383	722.32
521.838	718.42
522.292	715.02
522.747	712.12
523.201	702.12
523.656	694.12
524.11	688.12
524.565	693.72
525.019	691.42
525.474	708.52
525.928	703.02
526.382	693.82
526.837	697.22
527.291	706.02
527.745	706.42
528.2	695.02
528.654	700.22
529.108	691.72
529.562	686.92
530.016	693.42
530.47	688.72
530.925	696.82
531.379	694.12
531.833	713.52
532.287	709.82
532.741	710.32
533.195	710.82
533.649	717.12
534.103	716.42
534.556	716.62
535.01	705.72
535.464	707.12
535.918	725.22
536.372	715.72
536.826	724.12
537.279	708.72
537.733	708.02
538.187	715.82
538.64	722.52
539.094	718.72
539.548	735.02
540.001	726.92
540.455	719.82
540.908	719.72
541.362	728.82
541.815	743.42
542.269	751.82
542.722	760.92
543.175	761.22
543.629	770.02
544.082	781.82
544.536	785.02
544.989	777.02
545.442	783.02
545.895	781.12
546.349	785.22
546.802	778.12
547.255	792.12
547.708	803.22
548.161	814.22
548.614	819.22
549.067	828.22
549.52	821.32
549.973	811.42
550.426	812.62
550.879	789.62
551.332	790.62
551.785	800.12
552.238	803.12
552.691	816.82
553.144	826.82
553.596	839.32
554.049	851.72
554.502	880.52
554.955	909.02
555.407	911.02
555.86	892.32
556.313	892.32
556.765	885.12
557.218	884.42
557.67	878.42
558.123	869.32
558.576	855.32
559.028	879.12
559.48	885.12
559.933	866.12
560.385	829.62
560.838	802.52
561.29	771.82
561.742	771.52
562.195	760.42
562.647	751.62
563.099	773.72
563.551	767.22
564.004	775.32
564.456	767.12
564.908	749.22
565.36	738.42
565.812	730.32
566.264	718.12
566.716	715.02
567.168	709.12
567.62	725.82
568.072	700.62
568.524	701.82
568.976	676.72
569.428	678.02
569.88	667.62
570.332	668.92
570.784	673.62
571.235	675.02
571.687	686.62
572.139	687.32
572.59	701.52
573.042	706.32
573.494	709.22
573.945	705.12
574.397	682.32
574.849	686.22
575.3	675.62
575.752	675.02
576.203	666.92
576.655	681.12
577.106	660.82
577.557	654.22
578.009	660.02
578.46	654.42
578.912	661.32
579.363	663.32
579.814	665.62
580.265	667.52
580.717	657.82
581.168	659.12
581.619	671.72
582.07	678.72
582.521	671.32
582.972	668.22
583.423	666.72
583.875	665.62
584.326	691.22
584.777	740.92
585.227	819.82
585.678	896.82
586.129	978.32
586.58	1060.62
587.031	1144.52
587.482	1302.52
587.933	1486.62
588.384	1293.02
588.834	953.52
589.285	783.32
589.736	775.82
590.186	760.42
590.637	750.42
591.088	728.72
591.538	726.72
591.989	718.62
592.439	710.82
592.89	706.22
593.34	700.62
593.791	704.42
594.241	691.92
594.692	691.72
595.142	692.22
595.593	680.32
596.043	688.22
596.493	700.72
596.943	703.92
597.394	702.62
597.844	698.42
598.294	709.82
598.744	733.52
599.195	768.92
599.645	800.62
600.095	833.62
600.545	900.72
600.995	953.52
601.445	1010.92
601.895	1062.92
602.345	1116.32
602.795	1088.02
603.245	1034.82
603.695	984.62
604.145	932.12
604.594	888.12
605.044	841.42
605.494	787.72
605.944	742.42
606.393	727.22
606.843	716.72
607.293	715.02
607.743	722.22
608.192	725.32
608.642	739.62
609.091	741.32
609.541	750.02
609.99	751.02
610.44	743.12
610.889	699.62
611.339	679.62
611.788	673.42
612.238	678.72
612.687	704.82
613.136	706.22
613.586	732.42
614.035	712.82
614.484	728.92
614.933	750.52
615.383	734.52
615.832	720.12
616.281	714.42
616.73	659.82
617.179	643.62
617.628	634.82
618.077	622.02
618.526	619.52
618.975	602.02
619.424	594.72
619.873	595.82
620.322	600.82
620.771	597.12
621.22	587.42
621.669	577.52
622.118	576.92
622.567	568.72
623.015	555.92
623.464	555.92
623.913	542.82
624.361	538.52
624.81	540.22
625.259	547.22
625.707	546.92
626.156	535.12
626.604	548.22
627.053	544.12
627.501	542.72
627.95	557.62
628.398	562.12
628.847	539.92
629.295	551.82
629.744	557.42
630.192	554.82
630.64	554.92
631.089	545.52
631.537	556.82
631.985	560.02
632.433	571.82
632.881	577.02
633.33	629.12
633.778	615.62
634.226	540.32
634.674	559.12
635.122	563.32
635.57	586.22
636.018	604.72
636.466	564.92
636.914	543.62
637.362	558.42
637.81	554.22
638.258	563.22
638.705	568.42
639.153	583.52
639.601	592.92
640.049	629.52
640.497	645.82
640.944	676.32
641.392	615.12
641.84	589.52
642.287	566.72
642.735	549.42
643.182	559.92
643.63	553.22
644.078	552.72
644.525	569.62
644.973	571.92
645.42	585.52
645.867	598.12
646.315	614.32
646.762	640.22
647.21	669.82
647.657	693.42
648.104	728.32
648.551	746.12
648.999	814.72
649.446	892.22
649.893	975.92
650.34	1110.32
650.787	1327.52
651.234	1639.32
651.682	2153.32
652.129	2945.42
652.576	4239.82
653.023	6316.72
653.47	8681.22
653.917	10888.82
654.363	12642.52
654.81	14060.32
655.257	13382.92
655.704	8771.92
656.151	5161.42
656.598	3333.52
657.044	2356.32
657.491	1810.52
657.938	1464.12
658.385	1208.12
658.831	1053.82
659.278	926.42
659.724	827.32
660.171	758.32
660.618	700.02
661.064	665.72
661.511	643.52
661.957	625.42
662.404	616.82
662.85	631.12
663.296	595.12
663.743	542.12
664.189	515.22
664.635	514.12
665.082	511.02
665.528	513.62
665.974	498.92
666.42	495.52
666.867	480.82
667.313	471.72
667.759	461.22
668.205	455.42
668.651	462.32
669.097	458.22
669.543	481.32
669.989	455.42
670.435	426.02
670.881	430.62
671.327	432.62
671.773	437.82
672.219	474.72
672.665	523.52
673.11	557.62
673.556	597.02
674.002	637.22
674.448	618.62
674.893	529.02
675.339	457.62
675.785	423.32
676.23	395.12
676.676	376.02
677.122	364.02
677.567	359.72
678.013	359.92
678.458	341.62
678.904	344.12
679.349	330.82
679.794	337.62
680.24	331.32
680.685	333.02
681.131	326.42
681.576	330.62
682.021	346.82
682.466	328.72
682.912	335.22
683.357	332.22
683.802	368.42
684.247	390.42
684.692	434.92
685.137	473.42
685.583	513.22
686.028	532.92
686.473	486.22
686.918	430.52
687.363	394.52
687.807	376.22
688.252	348.22
688.697	331.32
689.142	321.72
689.587	321.32
690.032	309.02
690.477	331.52
690.921	328.62
691.366	355.42
691.811	380.32
692.255	407.52
692.7	445.02
693.145	475.82
693.589	649.72
694.034	1051.02
694.478	1448.02
694.923	1658.62
695.367	2157.02
695.812	1138.62
696.256	477.42
696.701	357.72
697.145	324.22
697.59	314.82
698.034	301.22
698.478	311.42
698.922	305.52
699.367	317.92
699.811	317.82
700.255	341.72
700.699	371.92
701.143	409.02
701.588	450.62
702.032	491.42
702.476	490.52
702.92	460.92
703.364	468.52
703.808	596.82
704.252	961.12
704.696	1356.32
705.14	1592.02
705.584	2019.22
706.027	1015.02
706.471	499.42
706.915	372.82
707.359	330.32
707.803	312.52
708.246	293.42
708.69	296.72
709.134	295.12
709.577	296.82
710.021	301.32
710.465	293.32
710.908	281.22
711.352	289.42
711.795	301.52
712.239	335.52
712.682	359.52
713.126	390.42
713.569	439.82
714.012	356.72
714.456	306.72
714.899	281.72
715.342	258.92
715.786	253.12
716.229	251.72
716.672	249.12
717.115	236.52
717.558	235.42
718.002	233.62
718.445	247.72
718.888	274.02
719.331	278.52
719.774	294.82
720.217	287.32
720.66	270.82
721.103	253.52
721.546	246.72
721.989	239.52
722.432	226.62
722.874	226.22
723.317	213.62
723.76	230.62
724.203	244.32
724.645	293.92
725.088	425.52
725.531	537.62
725.974	618.72
726.416	515.52
726.859	288.42
727.301	232.22
727.744	226.02
728.187	216.72
728.629	220.12
729.071	226.12
729.514	243.02
729.956	260.12
730.399	267.82
730.841	279.12
731.283	261.22
731.726	246.92
732.168	245.82
732.61	252.02
733.053	271.32
733.495	301.42
733.937	325.92
734.379	376.92
734.821	411.02
735.263	503.42
735.705	778.42
736.148	1452.72
736.59	2414.52
737.032	2898.62
737.474	2358.32
737.916	761.42
738.357	402.72
738.799	304.32
739.241	284.72
739.683	264.42
740.125	277.62
740.567	285.82
741.008	294.72
741.45	291.62
741.892	297.32
742.334	327.82
742.775	331.12
743.217	324.82
743.658	247.62
744.1	242.52
744.542	246.72
744.983	288.42
745.425	323.92
745.866	326.62
746.307	263.72
746.749	269.52
747.19	306.52
747.632	426.52
748.073	801.62
748.514	1707.32
748.956	2687.42
749.397	3344.02
749.838	2783.52
750.279	2826.52
750.72	1422.32
751.162	520.62
751.603	313.02
752.044	240.62
752.485	201.62
752.926	194.52
753.367	191.52
753.808	180.42
754.249	178.42
754.69	177.82
755.131	170.62
755.572	174.22
756.013	168.92
756.453	177.12
756.894	177.32
757.335	176.62
757.776	185.42
758.216	191.72
758.657	187.62
759.098	195.32
759.538	210.72
759.979	250.42
760.42	346.42
760.86	645.22
761.301	1664.62
761.741	4080.02
762.182	6134.82
762.622	4301.02
763.063	1248.72
763.503	515.02
763.943	325.72
764.384	324.32
764.824	381.72
765.264	433.02
765.705	289.32
766.145	202.22
766.585	183.42
767.025	171.72
767.465	174.72
767.906	232.42
768.346	300.32
768.786	330.42
769.226	249.32
769.666	299.42
770.106	569.92
770.546	1425.12
770.986	2505.42
771.426	2259.42
771.866	742.22
772.306	316.52
772.745	194.32
773.185	169.52
773.625	167.52
774.065	161.72
774.505	187.12
774.944	284.12
775.384	630.92
775.824	1161.82
776.263	1146.12
776.703	479.42
777.142	211.22
777.582	144.92
778.021	129.02
778.461	135.12
778.9	134.32
779.34	121.12
779.779	113.32
780.219	104.92
780.658	103.42
781.097	109.92
781.537	103.82
781.976	108.82
782.415	102.02
782.855	102.92
783.294	97.02
783.733	105.32
784.172	100.42
784.611	101.72
785.05	108.52
785.489	110.12
785.928	117.12
786.367	115.42
786.806	110.52
787.245	126.82
787.684	127.32
788.123	143.52
788.562	130.52
789.001	122.72
789.44	114.02
789.879	116.12
790.317	109.72
790.756	121.32
791.195	126.32
791.634	135.42
792.072	193.92
792.511	335.62
792.95	919.82
793.388	2002.72
793.827	1844.12
794.265	638.52
794.704	265.32
795.142	172.72
795.581	151.12
796.019	131.82
796.458	124.42
796.896	112.82
797.334	122.02
797.773	147.52
798.211	204.62
798.649	403.22
799.087	939.32
799.526	1490.12
799.964	1878.92
800.402	1925.72
800.84	718.42
801.278	282.92
801.716	173.52
802.154	150.32
802.592	139.12
803.03	131.32
803.468	127.72
803.906	135.82
804.344	136.12
804.782	131.42
805.22	127.32
805.658	123.62
806.096	136.72
806.533	151.22
806.971	166.32
807.409	202.02
807.847	288.92
808.284	602.62
808.722	1714.42
809.16	3091.12
809.597	2880.32
810.035	5046.42
810.472	5514.82
810.91	1979.52
811.347	748.92
811.785	389.82
812.222	241.02
812.66	192.12
813.097	159.42
813.535	140.22
813.972	125.62
814.409	116.22
814.846	102.62
815.284	108.62
815.721	98.52
816.158	104.62
816.595	111.32
817.032	173.42
817.47	189.82
817.907	171.52
818.344	144.52
818.781	107.82
819.218	95.32
819.655	116.92
820.092	174.02
820.529	196.02
820.966	163.62
821.403	124.82
821.839	107.72
822.276	108.32
822.713	115.32
823.15	132.02
823.587	113.22
824.023	135.12
824.46	267.62
824.897	816.32
825.333	1287.22
825.77	553.42
826.206	214.82
826.643	128.72
827.08	99.92
827.516	82.52
827.953	73.02
828.389	79.12
828.825	71.52
829.262	67.72
829.698	63.72
830.135	61.62
830.571	60.82
831.007	69.32
831.443	61.12
831.88	64.42
832.316	64.72
832.752	65.42
833.188	69.72
833.624	60.92
834.06	66.32
834.497	65.42
834.933	69.02
835.369	68.22
835.805	68.42
836.241	72.82
836.677	74.12
837.112	79.82
837.548	99.02
837.984	129.92
838.42	183.12
838.856	452.22
839.292	1404.12
839.727	2192.02
840.163	1013.62
840.599	848.92
841.034	1908.22
841.47	2028.72
841.906	737.82
842.341	313.12
842.777	216.32
843.212	304.82
843.648	296.62
844.083	150.12
844.519	89.92
844.954	77.42
845.39	60.12
845.825	56.32
846.261	57.72
846.696	53.02
847.131	53.52
847.566	57.72
848.002	51.32
848.437	50.52
848.872	59.72
849.307	56.32
849.742	83.62
850.177	165.42
850.613	519.32
851.048	834.02
851.483	368.52
851.918	143.02
852.353	84.72
852.788	58.62
853.223	55.42
853.657	58.92
854.092	44.22
854.527	42.12
854.962	43.52
855.397	42.02
855.832	56.22
856.266	45.02
856.701	40.92
857.136	37.12
857.57	41.42
858.005	46.62
858.44	53.22
858.874	42.32
859.309	50.92
859.743	34.32
860.178	43.12
860.612	36.12
861.047	45.92
861.481	65.32
861.915	69.12
862.35	44.12
862.784	33.62
863.218	38.12
863.653	34.82
864.087	41.12
864.521	56.72
864.955	68.42
865.39	149.92
865.824	171.12
866.258	111.92
866.692	149.82
867.126	172.42
867.56	101.52
867.994	50.12
868.428	40.42
868.862	44.22
869.296	61.22
869.73	55.82
870.164	50.12
870.598	46.52
871.031	35.12
871.465	26.22
871.899	34.72
872.333	27.42
872.766	24.02
873.2	24.42
873.634	31.12
874.067	34.42
874.501	25.22
874.935	34.92
875.368	29.52
875.802	29.72
876.235	25.32
876.669	26.92
877.102	23.32
877.535	32.72
877.969	22.02
878.402	21.82
878.836	21.92
879.269	21.22
879.702	28.12
880.135	21.92
880.569	25.92
881.002	26.02
881.435	19.52
881.868	19.12
882.301	21.02
882.734	16.62
883.167	21.52
883.601	20.42
884.034	20.92
884.467	12.62
884.899	20.52
885.332	14.92
885.765	18.92
886.198	19.72
886.631	16.32
887.064	12.62
887.497	20.92
887.929	24.12
888.362	15.72
888.795	9.22
889.228	13.72
889.66	21.92
890.093	15.92
890.526	16.82
890.958	23.72
891.391	22.42
891.823	25.22
892.256	17.72
892.688	12.82
893.121	15.02
893.553	14.72
893.985	26.42
894.418	21.02
894.85	11.82
895.282	15.92
895.715	14.82
896.147	12.22
896.579	15.42
897.011	13.92
897.444	18.52
897.876	13.22
898.308	16.42
898.74	12.92
899.172	16.22
899.604	20.52
900.036	22.02
900.468	14.82
900.9	13.02
901.332	24.52
901.764	13.62
902.196	20.62
902.628	19.52
903.06	20.72
903.491	23.32
903.923	23.22
904.355	20.92
904.787	24.62
905.218	22.12
905.65	23.12
906.082	17.52
906.513	6.72
906.945	18.12
907.376	14.92
907.808	26.12
908.239	26.22
908.671	19.42
909.102	21.42
909.534	28.82
909.965	38.42
910.397	81.92
910.828	294.62
911.259	451.22
911.691	210.92
912.122	104.52
912.553	49.72
912.984	29.62
913.415	25.02
913.847	21.62
914.278	19.02
914.709	14.22
915.14	17.42
915.571	18.92
916.002	15.22
916.433	26.22
916.864	19.62
917.295	14.72
917.726	23.72
918.157	18.32
918.587	25.12
919.018	26.12
919.449	24.32
919.88	27.42
920.311	35.72
920.741	43.22
921.172	160.42
921.603	144.92
922.033	69.12
922.464	48.72
922.895	25.82
923.325	16.92
923.756	14.62
924.186	14.62
924.617	27.42
925.047	43.42
925.478	51.92
925.908	45.12
926.338	30.72
926.769	20.92
927.199	16.62
927.629	9.12
928.06	17.32
928.49	15.52
928.92	15.52
929.35	7.62
929.78	14.02
930.21	7.22
930.641	7.92
931.071	11.72
931.501	0.22
931.931	9.72
932.361	9.32
932.791	5.12
933.221	2.32
933.651	2.42
934.08	15.82
934.51	32.02
934.94	10.12
935.37	16.82
935.8	17.02
936.229	5.22
936.659	8.32
937.089	5.82
937.519	13.72
937.948	24.72
938.378	20.02
938.807	6.92
939.237	-1.68
939.666	11.92
940.096	1.92
940.525	0.12
940.955	9.72
941.384	1.52
941.814	-1.88
942.243	-2.28
942.672	4.02
943.102	-5.28
943.531	8.22
943.96	0.62
944.39	1.02
944.819	4.72
945.248	1.92
945.677	3.52
946.106	4.82
946.535	5.02
946.964	3.52
947.393	1.82
947.822	1.82
948.251	-1.58
948.68	3.42
949.109	9.52
949.538	6.32
949.967	5.52
950.396	4.42
950.825	5.02
951.254	10.02
951.682	-4.08
952.111	9.52
952.54	14.62
952.969	-3.68
953.397	-7.48
953.826	3.72
954.254	-4.48
954.683	2.92
955.112	2.02
955.54	5.12
955.969	-2.78
956.397	-0.48
956.826	1.22
957.254	9.02
957.682	4.02
958.111	9.72
958.539	-3.78
958.967	2.82
959.396	0.92
959.824	4.72
960.252	5.32
960.68	-2.18
961.109	-0.58
961.537	-5.98
961.965	-0.28
962.393	-0.08
962.821	3.92
963.249	7.52
963.677	7.82
964.105	4.12
964.533	41.82
964.961	41.42
965.389	18.52
965.817	14.12
966.245	5.32
966.672	5.92
967.1	-10.78
967.528	4.42
967.956	-3.58
968.383	4.22
968.811	3.12
969.239	-4.58
969.666	-8.98
970.094	2.62
970.522	11.82
970.949	-0.78
971.377	1.52
971.804	-2.18
972.232	0.22
972.659	-3.68
973.087	5.62
973.514	1.52
973.941	-2.38
974.369	4.42
974.796	3.72
975.223	4.32
975.651	-3.68
976.078	3.72
976.505	2.62
976.932	6.62
977.359	14.72
977.786	13.42
978.214	4.22
978.641	-3.78
979.068	-6.58
979.495	-3.58
979.922	0.22
980.349	-2.78
980.776	2.52
981.202	2.92
981.629	9.12
982.056	7.22
982.483	2.32
982.91	8.02
983.337	-4.58
983.763	7.12
984.19	-4.08
984.617	-0.08
985.043	0.32
985.47	0.32
985.897	-1.38
986.323	-5.48
986.75	3.92
987.176	-0.88
987.603	1.22
988.029	1.92
988.456	-3.88
988.882	3.72
989.308	-4.38
989.735	-2.08
990.161	3.02
990.587	-3.08
991.014	4.92
991.44	7.12
991.866	4.82
992.292	-4.68
992.719	-3.28
993.145	7.52
993.571	-6.68
993.997	1.02
994.423	-1.38
994.849	-4.48
995.275	7.72
995.701	3.92
996.127	-1.48
996.553	8.52
996.979	1.52
997.405	-1.18
997.83	-0.68
998.256	-3.08
998.682	-5.68
999.108	-6.68
999.534	-1.78
999.959	3.52
1000.385	-3.88
1000.811	1.12
1001.236	-7.68
1001.662	-7.28
1002.087	-4.08
1002.513	-6.08
1002.938	7.82
1003.364	-0.98
1003.789	1.82
1004.215	5.02
1004.64	-2.58
1005.066	4.12
1005.491	1.92
1005.916	-0.48
1006.342	1.52
1006.767	-3.78
1007.192	3.02
1007.617	-5.88
1008.042	-8.48
1008.468	-5.48
1008.893	0.22
1009.318	-2.48
1009.743	-2.88
1010.168	10.22
1010.593	3.62
1011.018	-11.28
1011.443	1.72
1011.868	-2.08
1012.293	-0.18
1012.718	-5.58
1013.143	1.42
1013.567	4.82
1013.992	5.92
1014.417	-9.98
1014.842	-2.78
1015.267	-3.38
1015.691	-3.78
1016.116	4.92
1016.541	4.42
1016.965	3.22
1017.39	4.62
1017.814	2.02
1018.239	-3.38
1018.663	-9.18
1019.088	-6.18
1019.512	-0.88
1019.937	-5.08
1020.361	-7.38
1020.785	-11.58
1021.21	-3.48
1021.634	-7.88
1022.058	1.72
1022.483	-0.38
1022.907	-1.38
1023.331	-1.88
1023.755	0.12
1024.179	-1.68
1024.604	-7.58
1025.028	-1.38
1025.452	-5.68
1025.876	1.82
1026.3	4.52
1026.724	-5.58
1027.148	-2.78
1027.572	-5.18
1027.996	-4.28
1028.42	1.62
1028.843	-2.58
1029.267	-6.28
1029.691	0.72
1030.115	-1.68
1030.539	-0.48
1030.962	-4.68
1031.386	-10.88
1031.81	-0.38
1032.233	-0.28
1032.657	-1.48
1033.08	-1.78
1033.504	-1.78
1033.927	-2.98
1034.351	4.32
1034.774	-4.88
1035.198	1.22
1035.621	-5.48
1036.045	-10.68
1036.468	1.62
1036.891	-11.68
1037.315	-6.28
1037.738	-7.18
1038.161	3.62
1038.584	-4.08
1039.008	-5.98
1039.431	-4.08
1039.854	-1.48
1040.277	-7.48
1040.7	-8.98
1041.123	-3.18
1041.546	-9.58
1041.969	0.12
1042.392	-6.28
1042.815	-1.38
1043.238	-0.78
1043.661	-2.18
1044.084	-9.28
1044.507	1.22
1044.93	-3.58
1045.352	2.32
1045.775	-1.68
1046.198	-3.18
1046.621	0.52
1047.043	1.72
1047.466	5.22
1047.889	-5.28
1048.311	-3.78
1048.734	3.22
1049.156	3.42
1049.579	-6.28
1050.001	-4.48
1050.424	-0.38
1050.846	-4.78
1051.269	-2.58
1051.691	-3.88
1052.113	-3.28
1052.536	-1.18
1052.958	0.22
1053.38	-3.68
1053.802	-9.58
1054.225	5.22
1054.647	-8.08
1055.069	-8.58
1055.491	4.12
1055.913	-8.88
1056.335	1.92
1056.757	-0.68
1057.179	-4.18
1057.601	4.02
1058.023	3.02
1058.445	-5.08
1058.867	-1.88
1059.289	-7.58
1059.711	-8.88
1060.133	-2.68
1060.555	-2.88
1060.976	-2.58
1061.398	-8.18
1061.82	-2.68
1062.241	-3.78
1062.663	-5.08
1063.085	-2.48
1063.506	-1.48
1063.928	0.92
1064.35	-5.48
1064.771	-8.58
1065.193	-1.18
1065.614	-7.88
1066.035	0.02
1066.457	-4.38
1066.878	2.92
1067.3	-0.18
1067.721	-3.68
1068.142	2.32
1068.564	-3.08
1068.985	-2.68
1069.406	-4.98
1069.827	-6.78
1070.248	4.82
1070.67	-4.88
1071.091	-8.78
1071.512	-1.58
1071.933	-6.68
1072.354	-3.98
1072.775	-3.88
1073.196	-0.88
1073.617	0.62
1074.038	-6.98
1074.459	3.52
1074.88	-2.18
1075.3	1.02
1075.721	-7.78
1076.142	3.72
1076.563	0.72
1076.983	-6.38
1077.404	-7.28
1077.825	-6.48
1078.246	-3.18
1078.666	-5.08
1079.087	-6.08
1079.507	-2.58
1079.928	-0.78
1080.348	2.12
1080.769	-4.08
1081.189	0.02
1081.61	1.42
1082.03	-8.18
1082.451	-6.18
1082.871	-4.28
1083.291	-6.38
1083.711	-7.08
1084.132	-1.58
1084.552	2.02
1084.972	2.82
1085.392	-9.78
1085.813	-8.28
1086.233	-2.38
1086.653	-3.58
1087.073	-1.58
1087.493	-5.58
1087.913	-3.58
1088.333	-5.88
1088.753	-7.18
1089.173	1.42
1089.593	-0.18
1090.013	9.32
1090.433	7.72
1090.852	-4.18
1091.272	1.42
1091.692	1.82
1092.112	-0.88
1092.531	-4.18
1092.951	-11.08
1093.371	-5.98
1093.79	3.92
1094.21	-5.68
1094.63	-0.28
1095.049	-1.18
1095.469	-0.28
1095.888	-3.28
1096.308	1.92
1096.727	7.52
1097.146	-10.38
1097.566	4.42
1097.985	-9.68
1098.405	-1.68
1098.824	-6.08
1099.243	-7.68
1099.662	-4.08
1100.082	-3.58
1100.501	0.02
1100.92	-4.38
1101.339	-5.28
1101.758	-3.28
