Data from 20171114-ORNL-Ar_H_NY_Subt18_08-03-47-322.txt Node
Date: Tue Nov 14 08:03:47 EST 2017
User: Ender
Spectrometer: HR+D1039
Trigger mode: 0
Integration Time (sec): 2.730000E-2
Scans to average: 10
Electric dark correction enabled: true
Nonlinearity correction enabled: false
Boxcar width: 0
XAxis mode: Wavelengths
Number of Pixels in Spectrum: 2048
>>>>>Begin Spectral Data<<<<<
187.836	-4.68
188.309	-4.68
188.782	-4.68
189.255	-0.98
189.728	0.72
190.201	3.12
190.674	-2.78
191.147	1.72
191.619	-6.58
192.092	-2.88
192.565	1.32
193.038	2.72
193.511	1.92
193.984	3.62
194.456	-0.48
194.929	3.22
195.402	-1.18
195.874	1.22
196.347	2.82
196.82	-10.68
197.292	8.32
197.765	2.52
198.237	-7.88
198.71	-0.38
199.182	-0.38
199.655	2.12
200.127	3.42
200.6	-11.88
201.072	-1.88
201.544	0.22
202.017	-2.18
202.489	2.12
202.961	2.72
203.433	-6.58
203.906	-6.48
204.378	-5.08
204.85	0.02
205.322	-10.68
205.794	-0.88
206.266	-4.78
206.739	-7.38
207.211	2.12
207.683	-6.98
208.155	-6.18
208.627	-6.18
209.099	0.12
209.57	-11.18
210.042	-4.28
210.514	1.42
210.986	-0.78
211.458	-8.38
211.93	2.52
212.402	4.22
212.873	-6.68
213.345	-6.08
213.817	-13.58
214.288	-0.38
214.76	-4.58
215.232	-3.58
215.703	-2.68
216.175	-1.08
216.646	1.82
217.118	-5.88
217.589	-6.38
218.061	-0.48
218.532	-4.78
219.004	-6.28
219.475	-1.68
219.946	-4.88
220.418	-5.28
220.889	2.72
221.36	2.22
221.832	-2.68
222.303	-5.88
222.774	4.02
223.245	-7.68
223.717	-8.58
224.188	-4.28
224.659	-3.18
225.13	-3.08
225.601	-2.98
226.072	5.62
226.543	5.02
227.014	0.92
227.485	1.62
227.956	-8.48
228.427	0.22
228.898	1.72
229.369	0.22
229.839	-0.08
230.31	-8.28
230.781	-0.38
231.252	-4.08
231.722	-7.28
232.193	-6.78
232.664	0.82
233.135	-2.38
233.605	1.52
234.076	-10.58
234.546	-0.98
235.017	0.22
235.487	-2.68
235.958	-2.78
236.428	-10.98
236.899	1.02
237.369	-5.48
237.84	-4.28
238.31	-0.58
238.78	-4.38
239.251	-5.38
239.721	0.22
240.191	2.82
240.662	-8.78
241.132	-4.18
241.602	-3.88
242.072	-1.78
242.542	4.92
243.013	0.22
243.483	-3.18
243.953	1.62
244.423	1.92
244.893	-8.68
245.363	-3.98
245.833	2.12
246.303	-3.58
246.773	8.42
247.243	-0.08
247.712	-1.98
248.182	1.02
248.652	7.32
249.122	-9.78
249.592	-3.98
250.061	0.12
250.531	14.92
251.001	-2.98
251.471	8.32
251.94	6.02
252.41	1.12
252.879	-3.18
253.349	6.62
253.818	8.12
254.288	5.92
254.757	-1.08
255.227	0.82
255.696	5.22
256.166	1.62
256.635	3.22
257.105	3.22
257.574	-0.38
258.043	-0.38
258.513	-4.88
258.982	4.22
259.451	1.02
259.92	-0.38
260.389	2.02
260.859	12.22
261.328	-2.08
261.797	6.32
262.266	3.82
262.735	8.52
263.204	3.12
263.673	0.92
264.142	0.82
264.611	-6.58
265.08	1.32
265.549	-3.18
266.018	1.12
266.487	-5.88
266.955	-12.78
267.424	0.92
267.893	1.52
268.362	-0.78
268.83	3.12
269.299	8.82
269.768	3.12
270.236	1.82
270.705	-1.68
271.174	-0.78
271.642	1.62
272.111	-0.68
272.579	2.42
273.048	0.72
273.516	0.72
273.985	1.72
274.453	4.52
274.922	12.32
275.39	6.42
275.858	0.02
276.327	5.92
276.795	11.12
277.263	2.02
277.731	11.92
278.2	1.82
278.668	10.82
279.136	7.62
279.604	3.62
280.072	6.12
280.54	6.72
281.008	5.92
281.477	13.92
281.945	6.52
282.413	10.92
282.881	8.42
283.348	4.42
283.816	6.62
284.284	10.12
284.752	10.52
285.22	7.02
285.688	5.62
286.156	2.02
286.623	12.42
287.091	11.02
287.559	8.42
288.026	4.22
288.494	11.52
288.962	-1.78
289.429	10.22
289.897	10.42
290.364	11.52
290.832	9.12
291.3	7.72
291.767	13.22
292.234	9.02
292.702	7.62
293.169	7.82
293.637	16.42
294.104	9.42
294.571	4.92
295.039	7.92
295.506	9.32
295.973	9.32
296.44	12.02
296.908	11.12
297.375	4.82
297.842	15.82
298.309	8.62
298.776	2.92
299.243	11.62
299.71	0.82
300.177	8.82
300.644	15.12
301.111	10.92
301.578	14.22
302.045	7.52
302.512	17.12
302.979	22.62
303.446	17.42
303.913	13.52
304.379	11.42
304.846	16.72
305.313	13.32
305.78	16.82
306.246	19.82
306.713	20.12
307.18	20.32
307.646	16.42
308.113	17.02
308.579	15.92
309.046	21.52
309.512	16.62
309.979	10.62
310.445	26.02
310.912	22.22
311.378	23.22
311.845	22.22
312.311	21.02
312.777	15.12
313.244	18.62
313.71	28.62
314.176	24.02
314.642	18.42
315.109	20.32
315.575	31.22
316.041	24.72
316.507	19.82
316.973	25.52
317.439	20.62
317.905	30.92
318.371	26.22
318.837	28.62
319.303	25.92
319.769	29.22
320.235	30.92
320.701	28.52
321.167	25.02
321.633	28.42
322.099	30.02
322.564	30.72
323.03	26.32
323.496	30.72
323.962	29.52
324.427	26.22
324.893	29.72
325.359	27.72
325.824	33.32
326.29	33.22
326.755	28.22
327.221	35.12
327.686	31.42
328.152	43.72
328.617	31.22
329.083	40.42
329.548	44.22
330.014	40.32
330.479	30.42
330.944	34.22
331.41	34.82
331.875	36.02
332.34	31.82
332.805	32.22
333.271	38.42
333.736	26.82
334.201	44.42
334.666	44.12
335.131	43.32
335.596	47.02
336.061	40.12
336.526	39.02
336.991	34.32
337.456	51.62
337.921	41.22
338.386	42.12
338.851	44.02
339.316	44.72
339.781	41.92
340.246	47.92
340.711	40.32
341.175	45.92
341.64	43.12
342.105	50.82
342.569	46.82
343.034	53.12
343.499	50.82
343.963	45.82
344.428	56.22
344.893	55.82
345.357	53.72
345.822	63.62
346.286	61.42
346.751	62.82
347.215	58.72
347.679	68.92
348.144	81.32
348.608	70.32
349.073	62.22
349.537	62.22
350.001	66.52
350.465	78.02
350.93	76.02
351.394	77.52
351.858	63.52
352.322	74.52
352.786	73.42
353.25	82.22
353.715	95.92
354.179	82.62
354.643	96.32
355.107	99.82
355.571	86.92
356.035	88.32
356.498	104.32
356.962	101.12
357.426	111.52
357.89	97.02
358.354	78.72
358.818	65.62
359.281	77.12
359.745	76.62
360.209	75.32
360.673	75.72
361.136	72.52
361.6	81.32
362.064	72.22
362.527	80.42
362.991	88.22
363.454	76.82
363.918	75.12
364.381	74.42
364.845	76.52
365.308	81.72
365.772	80.72
366.235	85.62
366.698	84.92
367.162	84.02
367.625	82.62
368.088	82.62
368.552	83.52
369.015	86.92
369.478	94.92
369.941	94.42
370.404	87.12
370.867	94.42
371.331	96.12
371.794	106.92
372.257	99.42
372.72	111.32
373.183	98.72
373.646	98.12
374.109	102.42
374.572	103.22
375.035	97.32
375.497	103.82
375.96	108.02
376.423	98.12
376.886	114.22
377.349	105.62
377.811	106.52
378.274	102.42
378.737	110.82
379.199	110.22
379.662	116.62
380.125	113.72
380.587	111.02
381.05	115.62
381.512	114.52
381.975	122.32
382.437	122.92
382.9	115.02
383.362	125.02
383.825	128.32
384.287	128.52
384.75	121.52
385.212	124.72
385.674	127.22
386.136	135.02
386.599	114.82
387.061	128.92
387.523	121.02
387.985	132.92
388.447	137.82
388.91	127.12
389.372	133.12
389.834	132.32
390.296	127.32
390.758	139.22
391.22	138.42
391.682	138.82
392.144	151.42
392.606	147.72
393.068	151.32
393.529	157.72
393.991	145.62
394.453	139.82
394.915	140.82
395.377	135.02
395.838	138.42
396.3	140.92
396.762	144.52
397.224	144.02
397.685	135.82
398.147	140.22
398.608	142.42
399.07	138.52
399.531	143.32
399.993	149.82
400.454	154.32
400.916	146.02
401.377	155.52
401.839	163.32
402.3	162.22
402.762	175.82
403.223	184.32
403.684	179.02
404.145	168.22
404.607	166.12
405.068	166.02
405.529	170.52
405.99	183.02
406.451	177.52
406.913	183.02
407.374	176.12
407.835	176.22
408.296	173.02
408.757	178.52
409.218	188.82
409.679	187.22
410.14	187.82
410.601	178.62
411.062	194.12
411.522	189.02
411.983	184.62
412.444	185.62
412.905	192.82
413.366	195.82
413.826	211.62
414.287	237.32
414.748	287.62
415.208	266.02
415.669	229.32
416.13	227.42
416.59	215.02
417.051	231.22
417.511	236.72
417.972	272.42
418.432	271.52
418.893	317.72
419.353	282.32
419.814	213.42
420.274	202.72
420.734	200.32
421.195	212.32
421.655	197.72
422.115	202.52
422.576	207.52
423.036	210.82
423.496	224.02
423.956	232.32
424.416	251.42
424.876	282.52
425.336	271.42
425.797	272.02
426.257	268.82
426.717	242.32
427.177	242.32
427.637	238.52
428.097	240.72
428.556	250.72
429.016	275.72
429.476	270.22
429.936	276.72
430.396	286.82
430.856	301.32
431.315	321.02
431.775	354.82
432.235	383.32
432.694	355.92
433.154	363.92
433.614	380.72
434.073	335.32
434.533	292.32
434.993	276.52
435.452	276.72
435.912	286.32
436.371	280.52
436.83	272.32
437.29	275.82
437.749	250.42
438.209	243.92
438.668	270.52
439.127	279.22
439.587	262.22
440.046	244.32
440.505	255.22
440.964	274.42
441.424	299.92
441.883	297.72
442.342	260.72
442.801	233.02
443.26	232.22
443.719	233.22
444.178	226.22
444.637	228.22
445.096	232.02
445.555	238.12
446.014	237.12
446.473	233.52
446.932	238.02
447.391	238.42
447.849	241.72
448.308	237.02
448.767	232.92
449.226	247.52
449.685	253.32
450.143	260.32
450.602	251.72
451.061	241.32
451.519	238.32
451.978	242.62
452.436	239.82
452.895	239.62
453.353	250.52
453.812	250.62
454.27	245.52
454.729	247.82
455.187	251.32
455.646	246.22
456.104	249.62
456.562	261.92
457.021	269.92
457.479	255.92
457.937	273.02
458.395	259.22
458.854	251.62
459.312	257.62
459.77	272.02
460.228	264.62
460.686	254.02
461.144	253.72
461.602	253.32
462.06	255.82
462.518	260.52
462.976	256.62
463.434	268.62
463.892	267.82
464.35	279.22
464.808	292.12
465.266	272.82
465.724	282.12
466.181	280.62
466.639	284.42
467.097	296.72
467.555	305.32
468.012	304.62
468.47	308.42
468.928	322.82
469.385	348.12
469.843	351.02
470.3	348.52
470.758	359.32
471.215	369.92
471.673	386.52
472.13	388.12
472.588	408.02
473.045	378.92
473.503	378.82
473.96	393.52
474.417	401.42
474.875	428.62
475.332	455.72
475.789	443.62
476.246	460.12
476.704	472.12
477.161	491.52
477.618	507.12
478.075	525.22
478.532	590.92
478.989	640.22
479.446	727.42
479.903	716.62
480.36	759.52
480.817	796.62
481.274	877.32
481.731	964.22
482.188	1036.02
482.645	1162.12
483.102	1234.02
483.558	1350.32
484.015	1399.02
484.472	1398.42
484.929	1352.92
485.385	1305.42
485.842	1275.92
486.299	1231.22
486.755	1154.52
487.212	1003.02
487.668	882.82
488.125	815.02
488.582	742.32
489.038	725.92
489.494	675.02
489.951	660.52
490.407	650.62
490.864	633.22
491.32	616.12
491.776	620.02
492.233	612.82
492.689	588.92
493.145	587.22
493.602	573.62
494.058	602.12
494.514	579.92
494.97	605.82
495.426	612.42
495.882	594.72
496.338	572.82
496.794	586.62
497.251	580.92
497.707	594.12
498.163	599.62
498.618	590.62
499.074	597.52
499.53	609.12
499.986	619.32
500.442	594.92
500.898	578.82
501.354	585.62
501.809	593.72
502.265	582.72
502.721	605.32
503.177	590.22
503.632	608.32
504.088	618.02
504.543	622.32
504.999	635.22
505.455	610.12
505.91	601.92
506.366	607.72
506.821	599.02
507.277	593.62
507.732	607.92
508.187	589.82
508.643	609.62
509.098	601.22
509.553	613.42
510.009	621.42
510.464	623.22
510.919	639.52
511.375	649.62
511.83	652.72
512.285	663.82
512.74	697.12
513.195	715.22
513.65	691.92
514.105	696.62
514.56	716.82
515.015	716.62
515.47	735.82
515.925	719.62
516.38	721.12
516.835	731.22
517.29	720.42
517.745	717.22
518.2	694.62
518.655	689.42
519.109	686.42
519.564	664.62
520.019	666.12
520.474	656.22
520.928	662.92
521.383	652.62
521.838	655.52
522.292	658.52
522.747	660.82
523.201	645.42
523.656	650.52
524.11	634.22
524.565	640.32
525.019	629.42
525.474	640.12
525.928	633.32
526.382	624.72
526.837	630.82
527.291	632.12
527.745	630.32
528.2	632.42
528.654	628.62
529.108	618.42
529.562	618.92
530.016	620.02
530.47	626.32
530.925	621.42
531.379	616.72
531.833	633.52
532.287	635.02
532.741	621.62
533.195	621.52
533.649	628.22
534.103	629.82
534.556	619.62
535.01	622.72
535.464	627.32
535.918	629.12
536.372	625.22
536.826	628.92
537.279	623.02
537.733	629.12
538.187	614.82
538.64	620.92
539.094	632.42
539.548	637.42
540.001	633.22
540.455	637.32
540.908	648.52
541.362	647.82
541.815	657.12
542.269	666.52
542.722	649.22
543.175	670.02
543.629	675.12
544.082	694.22
544.536	690.82
544.989	685.32
545.442	691.22
545.895	689.02
546.349	698.52
546.802	694.92
547.255	692.92
547.708	696.92
548.161	705.22
548.614	705.62
549.067	715.62
549.52	707.52
549.973	703.82
550.426	693.82
550.879	687.92
551.332	683.12
551.785	699.82
552.238	688.92
552.691	699.82
553.144	706.22
553.596	713.42
554.049	731.82
554.502	744.92
554.955	775.62
555.407	758.42
555.86	761.42
556.313	742.82
556.765	749.32
557.218	734.82
557.67	739.42
558.123	731.32
558.576	736.92
559.028	738.02
559.48	749.02
559.933	730.52
560.385	716.22
560.838	697.12
561.29	667.32
561.742	659.22
562.195	656.12
562.647	658.62
563.099	662.12
563.551	652.52
564.004	660.42
564.456	646.62
564.908	635.62
565.36	617.52
565.812	600.92
566.264	596.82
566.716	596.62
567.168	579.32
567.62	597.62
568.072	574.02
568.524	576.12
568.976	576.32
569.428	557.52
569.88	551.42
570.332	568.52
570.784	563.52
571.235	568.42
571.687	565.42
572.139	584.72
572.59	580.52
573.042	579.92
573.494	576.92
573.945	572.22
574.397	556.12
574.849	566.42
575.3	561.82
575.752	558.72
576.203	546.22
576.655	570.42
577.106	536.92
577.557	528.12
578.009	544.32
578.46	538.62
578.912	528.92
579.363	536.32
579.814	538.52
580.265	530.82
580.717	540.22
581.168	543.42
581.619	540.42
582.07	540.72
582.521	533.82
582.972	533.32
583.423	535.42
583.875	535.62
584.326	543.12
584.777	546.12
585.227	577.72
585.678	597.62
586.129	609.92
586.58	631.22
587.031	657.42
587.482	701.92
587.933	736.92
588.384	707.52
588.834	643.02
589.285	615.82
589.736	624.12
590.186	615.92
590.637	611.32
591.088	589.42
591.538	585.92
591.989	572.62
592.439	571.02
592.89	573.92
593.34	551.82
593.791	550.42
594.241	546.72
594.692	548.72
595.142	549.82
595.593	543.62
596.043	543.02
596.493	557.42
596.943	553.72
597.394	569.22
597.844	558.62
598.294	573.72
598.744	593.42
599.195	607.82
599.645	625.32
600.095	665.32
600.545	700.52
600.995	736.62
601.445	792.22
601.895	831.72
602.345	872.62
602.795	860.22
603.245	832.32
603.695	784.72
604.145	742.22
604.594	709.42
605.044	671.52
605.494	621.22
605.944	574.62
606.393	570.72
606.843	551.92
607.293	563.22
607.743	563.42
608.192	566.62
608.642	570.32
609.091	568.62
609.541	574.52
609.99	575.52
610.44	572.42
610.889	541.42
611.339	526.02
611.788	516.62
612.238	524.02
612.687	535.62
613.136	523.72
613.586	543.42
614.035	518.82
614.484	531.42
614.933	535.42
615.383	530.02
615.832	526.62
616.281	525.12
616.73	510.02
617.179	496.32
617.628	487.52
618.077	477.12
618.526	474.42
618.975	462.82
619.424	468.82
619.873	456.12
620.322	461.92
620.771	444.22
621.22	448.32
621.669	446.42
622.118	437.42
622.567	443.02
623.015	418.42
623.464	428.12
623.913	417.22
624.361	421.22
624.81	415.92
625.259	415.22
625.707	416.82
626.156	409.92
626.604	421.42
627.053	409.32
627.501	418.22
627.95	422.32
628.398	427.92
628.847	431.22
629.295	418.62
629.744	428.52
630.192	420.02
630.64	416.92
631.089	407.22
631.537	398.72
631.985	393.32
632.433	388.82
632.881	386.92
633.33	389.12
633.778	375.82
634.226	380.72
634.674	396.32
635.122	395.82
635.57	397.62
636.018	411.82
636.466	415.42
636.914	408.12
637.362	418.12
637.81	423.72
638.258	425.42
638.705	428.72
639.153	437.92
639.601	462.42
640.049	474.12
640.497	493.62
640.944	508.22
641.392	478.32
641.84	456.12
642.287	426.52
642.735	408.02
643.182	410.22
643.63	410.82
644.078	413.02
644.525	427.12
644.973	420.52
645.42	434.82
645.867	454.02
646.315	462.82
646.762	470.72
647.21	494.62
647.657	513.82
648.104	534.82
648.551	535.02
648.999	578.32
649.446	626.62
649.893	691.22
650.34	780.12
650.787	927.82
651.234	1125.02
651.682	1437.32
652.129	1922.72
652.576	2705.02
653.023	3974.22
653.47	5475.32
653.917	6925.82
654.363	8159.82
654.81	9249.42
655.257	8791.02
655.704	5808.62
656.151	3444.22
656.598	2246.42
657.044	1622.22
657.491	1252.92
657.938	1005.62
658.385	833.62
658.831	727.02
659.278	664.92
659.724	589.92
660.171	541.82
660.618	499.02
661.064	471.12
661.511	461.92
661.957	444.42
662.404	437.72
662.85	449.02
663.296	425.02
663.743	396.72
664.189	381.72
664.635	379.92
665.082	378.12
665.528	369.02
665.974	362.72
666.42	360.12
666.867	360.42
667.313	334.52
667.759	338.52
668.205	315.22
668.651	324.82
669.097	324.62
669.543	317.32
669.989	324.62
670.435	313.22
670.881	321.12
671.327	327.92
671.773	337.42
672.219	352.72
672.665	391.22
673.11	414.22
673.556	443.92
674.002	482.32
674.448	473.52
674.893	403.02
675.339	344.72
675.785	327.72
676.23	300.32
676.676	278.22
677.122	272.92
677.567	267.62
678.013	265.22
678.458	256.62
678.904	255.22
679.349	241.52
679.794	257.52
680.24	245.82
680.685	255.02
681.131	252.62
681.576	245.32
682.021	249.92
682.466	248.32
682.912	238.22
683.357	247.82
683.802	267.52
684.247	283.22
684.692	322.52
685.137	340.82
685.583	383.82
686.028	405.32
686.473	375.72
686.918	318.82
687.363	293.52
687.807	281.92
688.252	260.92
688.697	256.72
689.142	238.62
689.587	239.12
690.032	225.92
690.477	244.32
690.921	243.92
691.366	266.82
691.811	290.12
692.255	310.92
692.7	333.52
693.145	350.72
693.589	470.82
694.034	772.62
694.478	1066.82
694.923	1265.32
695.367	1687.72
695.812	881.52
696.256	353.62
696.701	262.62
697.145	245.22
697.59	233.72
698.034	224.22
698.478	230.52
698.922	225.92
699.367	237.52
699.811	235.22
700.255	241.02
700.699	271.02
701.143	295.02
701.588	334.02
702.032	368.62
702.476	362.32
702.92	350.92
703.364	348.72
703.808	436.52
704.252	703.82
704.696	1014.02
705.14	1208.22
705.584	1579.52
706.027	782.72
706.471	379.42
706.915	276.22
707.359	243.52
707.803	220.72
708.246	219.02
708.69	222.22
709.134	223.72
709.577	224.52
710.021	232.12
710.465	215.12
710.908	214.82
711.352	206.12
711.795	223.62
712.239	253.62
712.682	265.32
713.126	290.62
713.569	329.12
714.012	251.42
714.456	213.62
714.899	206.12
715.342	193.92
715.786	180.32
716.229	179.52
716.672	177.42
717.115	179.32
717.558	176.12
718.002	175.72
718.445	186.82
718.888	201.92
719.331	196.22
719.774	212.62
720.217	219.52
720.66	201.82
721.103	192.72
721.546	178.32
721.989	174.62
722.432	167.82
722.874	169.42
723.317	157.12
723.76	158.02
724.203	181.02
724.645	217.32
725.088	298.92
725.531	397.42
725.974	454.52
726.416	395.42
726.859	221.22
727.301	167.92
727.744	168.42
728.187	167.32
728.629	175.22
729.071	165.52
729.514	176.42
729.956	185.82
730.399	192.62
730.841	200.62
731.283	190.02
731.726	182.22
732.168	186.62
732.61	182.22
733.053	204.32
733.495	218.52
733.937	243.62
734.379	273.82
734.821	304.02
735.263	374.82
735.705	559.02
736.148	1073.12
736.59	1804.92
737.032	2274.02
737.474	1874.32
737.916	577.72
738.357	307.62
738.799	230.52
739.241	209.72
739.683	199.72
740.125	205.32
740.567	214.52
741.008	235.62
741.45	221.02
741.892	222.92
742.334	250.12
742.775	268.72
743.217	251.22
743.658	203.32
744.1	181.42
744.542	195.52
744.983	236.02
745.425	264.22
745.866	261.32
746.307	202.72
746.749	195.42
747.19	220.42
747.632	309.22
748.073	577.12
748.514	1262.72
748.956	2027.82
749.397	2557.82
749.838	2124.92
750.279	2201.72
750.72	1119.32
751.162	398.32
751.603	227.92
752.044	178.62
752.485	150.12
752.926	149.32
753.367	142.42
753.808	142.92
754.249	128.52
754.69	135.32
755.131	123.72
755.572	135.42
756.013	127.72
756.453	129.32
756.894	132.32
757.335	131.82
757.776	136.72
758.216	137.22
758.657	133.62
759.098	140.72
759.538	156.22
759.979	187.92
760.42	256.52
760.86	469.02
761.301	1242.02
761.741	3122.12
762.182	4920.32
762.622	3471.32
763.063	979.02
763.503	393.32
763.943	236.62
764.384	205.92
764.824	196.92
765.264	192.92
765.705	154.12
766.145	132.42
766.585	123.92
767.025	116.52
767.465	110.22
767.906	129.92
768.346	155.52
768.786	159.02
769.226	148.02
769.666	212.22
770.106	402.52
770.546	1053.52
770.986	1925.52
771.426	1783.32
771.866	581.42
772.306	230.12
772.745	148.32
773.185	111.42
773.625	110.92
774.065	107.82
774.505	112.92
774.944	143.62
775.384	260.82
775.824	467.92
776.263	469.12
776.703	220.62
777.142	112.92
777.582	93.62
778.021	88.52
778.461	89.62
778.9	94.92
779.34	87.92
779.779	74.12
780.219	76.92
780.658	73.02
781.097	72.52
781.537	76.52
781.976	79.42
782.415	72.22
782.855	71.82
783.294	69.32
783.733	69.42
784.172	71.92
784.611	72.82
785.05	65.82
785.489	72.42
785.928	76.42
786.367	86.02
786.806	86.82
787.245	88.92
787.684	95.32
788.123	106.62
788.562	100.42
789.001	92.12
789.44	84.52
789.879	78.12
790.317	73.42
790.756	94.42
791.195	92.12
791.634	99.62
792.072	134.42
792.511	240.22
792.95	664.62
793.388	1530.42
793.827	1457.12
794.265	488.42
794.704	201.02
795.142	133.32
795.581	108.12
796.019	92.02
796.458	87.62
796.896	83.22
797.334	98.12
797.773	107.12
798.211	148.62
798.649	293.02
799.087	700.62
799.526	1133.02
799.964	1437.42
800.402	1525.02
800.84	557.52
801.278	213.52
801.716	127.62
802.154	106.62
802.592	102.12
803.03	93.62
803.468	93.02
803.906	99.22
804.344	106.62
804.782	99.12
805.22	89.22
805.658	89.32
806.096	104.72
806.533	109.52
806.971	121.82
807.409	155.82
807.847	217.82
808.284	443.62
808.722	1293.32
809.16	2452.52
809.597	2248.72
810.035	4022.02
810.472	4584.02
810.91	1622.12
811.347	590.62
811.785	302.92
812.222	180.82
812.66	141.52
813.097	116.32
813.535	104.32
813.972	94.62
814.409	83.32
814.846	75.02
815.284	80.12
815.721	69.02
816.158	74.12
816.595	81.92
817.032	114.32
817.47	146.12
817.907	113.12
818.344	77.92
818.781	79.82
819.218	63.32
819.655	91.22
820.092	149.82
820.529	171.12
820.966	132.42
821.403	95.92
821.839	71.72
822.276	65.22
822.713	88.52
823.15	100.22
823.587	79.42
824.023	100.32
824.46	197.62
824.897	628.92
825.333	1016.92
825.77	440.72
826.206	160.42
826.643	93.52
827.08	71.62
827.516	60.22
827.953	50.82
828.389	56.62
828.825	56.22
829.262	43.42
829.698	50.92
830.135	41.52
830.571	49.12
831.007	39.92
831.443	47.82
831.88	47.12
832.316	41.82
832.752	45.32
833.188	47.72
833.624	50.22
834.06	41.02
834.497	44.02
834.933	48.72
835.369	52.82
835.805	47.32
836.241	50.52
836.677	54.52
837.112	62.52
837.548	69.12
837.984	90.42
838.42	132.52
838.856	342.42
839.292	1078.42
839.727	1756.42
840.163	808.72
840.599	652.42
841.034	1474.72
841.47	1664.52
841.906	593.52
842.341	241.92
842.777	138.42
843.212	155.62
843.648	144.02
844.083	88.92
844.519	63.02
844.954	45.92
845.39	37.22
845.825	37.52
846.261	40.32
846.696	34.52
847.131	33.72
847.566	41.92
848.002	30.42
848.437	35.92
848.872	49.02
849.307	41.72
849.742	58.52
850.177	115.32
850.613	388.12
851.048	653.52
851.483	278.32
851.918	111.92
852.353	65.92
852.788	40.22
853.223	33.12
853.657	40.52
854.092	37.22
854.527	27.12
854.962	26.82
855.397	24.12
855.832	36.32
856.266	30.82
856.701	28.02
857.136	26.82
857.57	25.92
858.005	31.92
858.44	46.52
858.874	33.02
859.309	38.72
859.743	26.32
860.178	29.22
860.612	24.42
861.047	34.82
861.481	49.12
861.915	50.62
862.35	39.22
862.784	22.52
863.218	26.62
863.653	28.72
864.087	35.32
864.521	37.02
864.955	48.02
865.39	101.92
865.824	130.32
866.258	80.62
866.692	130.32
867.126	151.02
867.56	84.52
867.994	46.12
868.428	28.52
868.862	36.82
869.296	46.52
869.73	50.92
870.164	40.92
870.598	37.02
871.031	25.92
871.465	24.12
871.899	22.22
872.333	12.12
872.766	21.12
873.2	18.72
873.634	22.62
874.067	17.22
874.501	11.72
874.935	28.22
875.368	24.62
875.802	15.72
876.235	21.12
876.669	18.62
877.102	19.02
877.535	16.02
877.969	16.62
878.402	16.02
878.836	14.62
879.269	13.22
879.702	14.22
880.135	17.12
880.569	15.62
881.002	18.92
881.435	8.62
881.868	5.42
882.301	17.72
882.734	11.32
883.167	18.52
883.601	12.72
884.034	17.52
884.467	11.02
884.899	14.02
885.332	9.62
885.765	11.72
886.198	15.42
886.631	10.52
887.064	11.42
887.497	11.32
887.929	16.62
888.362	9.62
888.795	5.52
889.228	10.42
889.66	13.92
890.093	11.82
890.526	4.42
890.958	11.82
891.391	8.52
891.823	12.42
892.256	8.12
892.688	4.82
893.121	11.82
893.553	10.42
893.985	16.02
894.418	17.22
894.85	8.52
895.282	4.42
895.715	9.02
896.147	10.42
896.579	10.02
897.011	9.12
897.444	11.12
897.876	10.22
898.308	12.42
898.74	12.42
899.172	10.52
899.604	15.22
900.036	14.92
900.468	11.02
900.9	8.52
901.332	11.22
901.764	8.72
902.196	13.12
902.628	15.72
903.06	13.92
903.491	20.72
903.923	14.92
904.355	17.82
904.787	17.82
905.218	18.32
905.65	17.22
906.082	7.82
906.513	8.62
906.945	6.42
907.376	8.72
907.808	14.62
908.239	14.62
908.671	10.32
909.102	9.92
909.534	18.12
909.965	38.42
910.397	66.62
910.828	231.52
911.259	365.72
911.691	162.12
912.122	75.12
912.553	36.42
912.984	20.02
913.415	14.02
913.847	21.32
914.278	6.02
914.709	8.02
915.14	12.32
915.571	12.62
916.002	7.42
916.433	14.22
916.864	14.72
917.295	7.82
917.726	13.02
918.157	10.52
918.587	19.42
919.018	17.92
919.449	13.82
919.88	18.32
920.311	22.22
920.741	32.42
921.172	120.72
921.603	109.42
922.033	51.22
922.464	26.22
922.895	14.72
923.325	8.22
923.756	6.82
924.186	11.12
924.617	19.72
925.047	15.52
925.478	19.52
925.908	16.42
926.338	9.32
926.769	10.02
927.199	10.52
927.629	4.72
928.06	8.52
928.49	13.12
928.92	9.82
929.35	1.02
929.78	9.92
930.21	2.82
930.641	8.92
931.071	5.42
931.501	-2.08
931.931	3.92
932.361	3.32
932.791	1.42
933.221	-0.28
933.651	-2.18
934.08	8.52
934.51	22.02
934.94	8.22
935.37	5.52
935.8	7.02
936.229	5.92
936.659	3.82
937.089	-0.88
937.519	10.52
937.948	21.02
938.378	8.62
938.807	1.42
939.237	2.32
939.666	2.72
940.096	-3.68
940.525	1.42
940.955	2.52
941.384	3.02
941.814	-4.38
942.243	-4.28
942.672	-1.68
943.102	-1.28
943.531	3.72
943.96	0.72
944.39	2.32
944.819	-0.28
945.248	-0.68
945.677	-1.68
946.106	5.62
946.535	3.52
946.964	1.62
947.393	1.72
947.822	1.42
948.251	-6.78
948.68	3.02
949.109	-1.08
949.538	1.72
949.967	4.12
950.396	-2.48
950.825	-3.98
951.254	0.42
951.682	-5.18
952.111	1.12
952.54	10.62
952.969	-11.98
953.397	-7.08
953.826	-1.88
954.254	-8.98
954.683	-1.38
955.112	-6.68
955.54	3.02
955.969	-3.58
956.397	7.12
956.826	-0.58
957.254	5.32
957.682	1.92
958.111	4.42
958.539	-1.88
958.967	-0.48
959.396	-0.18
959.824	3.32
960.252	7.12
960.68	-9.38
961.109	-1.18
961.537	-3.38
961.965	-2.08
962.393	7.32
962.821	-3.88
963.249	-4.38
963.677	-4.68
964.105	1.72
964.533	36.62
964.961	30.92
965.389	13.32
965.817	6.52
966.245	-2.88
966.672	-3.78
967.1	-6.28
967.528	-4.68
967.956	-0.68
968.383	3.22
968.811	-4.28
969.239	2.12
969.666	-8.98
970.094	3.92
970.522	0.62
970.949	-4.58
971.377	-8.38
971.804	-3.68
972.232	-3.68
972.659	-0.28
973.087	-2.98
973.514	-0.38
973.941	-3.08
974.369	1.62
974.796	-2.28
975.223	-4.08
975.651	1.62
976.078	3.02
976.505	2.02
976.932	1.62
977.359	14.72
977.786	13.22
978.214	-0.58
978.641	2.62
979.068	-3.18
979.495	-5.38
979.922	-2.08
980.349	1.22
980.776	-2.68
981.202	-1.28
981.629	5.12
982.056	3.22
982.483	-1.18
982.91	-1.98
983.337	-1.28
983.763	-0.38
984.19	-5.38
984.617	-5.38
985.043	-8.08
985.47	-0.98
985.897	-3.88
986.323	-7.98
986.75	1.22
987.176	2.92
987.603	-4.08
988.029	4.92
988.456	-2.68
988.882	0.52
989.308	-8.18
989.735	-6.28
990.161	1.32
990.587	-10.18
991.014	-1.68
991.44	5.82
991.866	-0.58
992.292	-9.88
992.719	-3.98
993.145	7.52
993.571	-3.48
993.997	-4.98
994.423	-6.28
994.849	-5.78
995.275	-0.68
995.701	1.52
996.127	-5.98
996.553	3.02
996.979	-3.88
997.405	-2.18
997.83	-6.28
998.256	-2.18
998.682	-4.98
999.108	-11.38
999.534	-1.88
999.959	-2.98
1000.385	0.22
1000.811	2.42
1001.236	-10.28
1001.662	-4.88
1002.087	-7.08
1002.513	2.62
1002.938	-2.98
1003.364	-3.18
1003.789	-3.68
1004.215	-0.38
1004.64	-0.48
1005.066	0.32
1005.491	0.92
1005.916	-1.18
1006.342	-2.38
1006.767	-4.78
1007.192	1.32
1007.617	-8.98
1008.042	-2.98
1008.468	-8.38
1008.893	-5.28
1009.318	-5.48
1009.743	0.02
1010.168	3.52
1010.593	-2.38
1011.018	-7.88
1011.443	-6.98
1011.868	1.22
1012.293	-7.08
1012.718	-7.48
1013.143	-3.08
1013.567	1.12
1013.992	-2.48
1014.417	-12.68
1014.842	3.22
1015.267	-9.58
1015.691	0.32
1016.116	3.42
1016.541	2.42
1016.965	7.72
1017.39	1.12
1017.814	4.32
1018.239	3.12
1018.663	-8.58
1019.088	-11.88
1019.512	-4.18
1019.937	4.12
1020.361	-5.68
1020.785	-7.68
1021.21	-2.58
1021.634	-5.48
1022.058	2.72
1022.483	2.12
1022.907	-8.38
1023.331	-0.08
1023.755	-1.28
1024.179	-0.28
1024.604	-7.08
1025.028	-6.18
1025.452	-7.48
1025.876	0.12
1026.3	3.02
1026.724	-12.38
1027.148	-4.18
1027.572	-16.68
1027.996	1.52
1028.42	-7.48
1028.843	-6.98
1029.267	-13.18
1029.691	-2.88
1030.115	-1.68
1030.539	-10.38
1030.962	-5.08
1031.386	-10.88
1031.81	-0.68
1032.233	-2.88
1032.657	0.62
1033.08	0.82
1033.504	-5.78
1033.927	-5.68
1034.351	-3.88
1034.774	-10.68
1035.198	-2.88
1035.621	-1.78
1036.045	-9.18
1036.468	1.42
1036.891	-13.68
1037.315	-10.48
1037.738	-5.28
1038.161	4.62
1038.584	-4.88
1039.008	-12.88
1039.431	-3.38
1039.854	-3.38
1040.277	-9.58
1040.7	-14.18
1041.123	-2.18
1041.546	-3.58
1041.969	-10.58
1042.392	-5.18
1042.815	-3.18
1043.238	-3.18
1043.661	3.82
1044.084	-4.08
1044.507	-5.28
1044.93	-7.28
1045.352	-7.08
1045.775	-1.18
1046.198	-0.48
1046.621	-5.48
1047.043	-0.18
1047.466	3.92
1047.889	-0.88
1048.311	-1.88
1048.734	-4.08
1049.156	-2.68
1049.579	0.62
1050.001	-6.88
1050.424	-2.18
1050.846	-10.58
1051.269	-6.68
1051.691	-2.58
1052.113	-7.28
1052.536	0.02
1052.958	-4.68
1053.38	-5.78
1053.802	-10.18
1054.225	-4.18
1054.647	-7.78
1055.069	-8.98
1055.491	1.02
1055.913	-3.68
1056.335	0.92
1056.757	-3.08
1057.179	-4.28
1057.601	-6.98
1058.023	1.92
1058.445	-3.28
1058.867	-3.48
1059.289	-6.78
1059.711	-4.48
1060.133	-3.18
1060.555	-2.78
1060.976	-9.58
1061.398	-4.48
1061.82	-10.38
1062.241	-7.48
1062.663	-3.48
1063.085	0.52
1063.506	0.22
1063.928	-2.58
1064.35	-0.08
1064.771	-12.38
1065.193	-4.28
1065.614	-7.28
1066.035	0.52
1066.457	-2.78
1066.878	2.12
1067.3	-6.28
1067.721	-0.98
1068.142	-3.78
1068.564	-7.68
1068.985	0.92
1069.406	-5.78
1069.827	-5.98
1070.248	0.12
1070.67	-6.58
1071.091	-4.18
1071.512	-0.08
1071.933	-5.48
1072.354	-4.38
1072.775	-4.68
1073.196	-11.08
1073.617	-4.88
1074.038	-3.58
1074.459	-0.58
1074.88	-7.68
1075.3	-0.58
1075.721	-5.18
1076.142	1.42
1076.563	0.22
1076.983	-6.98
1077.404	-2.58
1077.825	-9.38
1078.246	-4.98
1078.666	-8.48
1079.087	-10.88
1079.507	-7.68
1079.928	-0.08
1080.348	0.62
1080.769	-5.88
1081.189	-2.18
1081.61	0.02
1082.03	-8.88
1082.451	-9.48
1082.871	-0.18
1083.291	-6.78
1083.711	-8.28
1084.132	-5.48
1084.552	-8.18
1084.972	-0.18
1085.392	-14.48
1085.813	-10.28
1086.233	-11.58
1086.653	-3.68
1087.073	-3.38
1087.493	-7.48
1087.913	-1.98
1088.333	-10.48
1088.753	-5.08
1089.173	3.82
1089.593	-1.08
1090.013	-0.78
1090.433	3.52
1090.852	-5.28
1091.272	4.62
1091.692	-4.58
1092.112	-0.18
1092.531	-8.48
1092.951	-14.28
1093.371	0.22
1093.79	0.42
1094.21	-4.28
1094.63	-1.68
1095.049	-2.18
1095.469	-1.18
1095.888	2.52
1096.308	-1.28
1096.727	4.52
1097.146	-1.28
1097.566	-3.38
1097.985	-4.48
1098.405	6.52
1098.824	-4.58
1099.243	-6.98
1099.662	-12.98
1100.082	-5.48
1100.501	-4.08
1100.92	-5.88
1101.339	-8.68
1101.758	-3.78
