Data from 20171114-ORNL-Ar_H_NY_Subt18_08-03-53-873.txt Node
Date: Tue Nov 14 08:03:53 EST 2017
User: Ender
Spectrometer: HR+D1039
Trigger mode: 0
Integration Time (sec): 2.730000E-2
Scans to average: 10
Electric dark correction enabled: true
Nonlinearity correction enabled: false
Boxcar width: 0
XAxis mode: Wavelengths
Number of Pixels in Spectrum: 2048
>>>>>Begin Spectral Data<<<<<
187.836	-1.72
188.309	-1.72
188.782	-1.72
189.255	0.78
189.728	4.38
190.201	4.68
190.674	2.48
191.147	0.98
191.619	-3.42
192.092	2.88
192.565	-1.32
193.038	4.58
193.511	-4.42
193.984	-3.02
194.456	-0.32
194.929	-1.62
195.402	-2.52
195.874	-2.32
196.347	1.78
196.82	-3.12
197.292	6.68
197.765	-1.52
198.237	-4.52
198.71	2.98
199.182	-3.92
199.655	3.48
200.127	-0.12
200.6	0.88
201.072	-1.52
201.544	-2.72
202.017	1.28
202.489	3.88
202.961	-0.92
203.433	-3.42
203.906	-1.62
204.378	1.48
204.85	2.68
205.322	-5.72
205.794	-7.22
206.266	-1.42
206.739	-4.42
207.211	3.18
207.683	-6.42
208.155	-1.02
208.627	-3.82
209.099	-5.22
209.57	-3.92
210.042	0.38
210.514	-1.12
210.986	7.18
211.458	-5.72
211.93	-1.62
212.402	2.08
212.873	1.48
213.345	-3.02
213.817	-6.92
214.288	-5.92
214.76	-12.52
215.232	1.58
215.703	-0.52
216.175	-5.72
216.646	-3.72
217.118	-10.62
217.589	2.08
218.061	-1.82
218.532	-3.02
219.004	-0.12
219.475	-1.62
219.946	-3.32
220.418	-5.42
220.889	0.08
221.36	4.68
221.832	-8.62
222.303	-7.12
222.774	3.78
223.245	-10.12
223.717	-6.72
224.188	1.28
224.659	-1.52
225.13	-4.62
225.601	2.78
226.072	3.88
226.543	5.58
227.014	0.48
227.485	-2.52
227.956	-0.82
228.427	2.58
228.898	5.78
229.369	2.78
229.839	-1.02
230.31	-5.62
230.781	-1.12
231.252	-4.72
231.722	-6.62
232.193	-5.32
232.664	5.38
233.135	4.68
233.605	-5.52
234.076	-4.12
234.546	-3.22
235.017	3.38
235.487	3.78
235.958	-0.52
236.428	-1.52
236.899	1.48
237.369	-1.92
237.84	-6.42
238.31	6.08
238.78	-0.42
239.251	-3.52
239.721	-0.42
240.191	-0.32
240.662	-7.22
241.132	-4.72
241.602	-5.92
242.072	-1.82
242.542	3.78
243.013	-0.22
243.483	7.78
243.953	3.48
244.423	2.38
244.893	-7.72
245.363	-2.72
245.833	0.18
246.303	-0.82
246.773	4.18
247.243	-1.32
247.712	1.58
248.182	-1.52
248.652	9.58
249.122	-9.72
249.592	-4.72
250.061	2.88
250.531	13.18
251.001	6.48
251.471	5.78
251.94	9.18
252.41	4.08
252.879	-3.32
253.349	5.78
253.818	12.68
254.288	3.88
254.757	-2.22
255.227	-5.22
255.696	-2.62
256.166	3.68
256.635	2.18
257.105	5.88
257.574	1.78
258.043	5.38
258.513	-0.52
258.982	1.68
259.451	-1.72
259.92	-1.22
260.389	3.08
260.859	5.18
261.328	8.18
261.797	6.78
262.266	7.38
262.735	14.18
263.204	3.28
263.673	-0.92
264.142	4.98
264.611	-3.52
265.08	-5.42
265.549	-0.02
266.018	4.58
266.487	-2.72
266.955	-5.82
267.424	0.48
267.893	5.58
268.362	-2.52
268.83	7.58
269.299	7.38
269.768	6.88
270.236	2.08
270.705	-0.82
271.174	1.58
271.642	3.28
272.111	3.48
272.579	-2.52
273.048	4.78
273.516	4.88
273.985	9.38
274.453	5.28
274.922	12.28
275.39	7.28
275.858	1.68
276.327	4.18
276.795	5.68
277.263	0.38
277.731	6.08
278.2	9.08
278.668	10.88
279.136	10.78
279.604	5.38
280.072	8.28
280.54	4.48
281.008	1.78
281.477	10.48
281.945	6.98
282.413	6.28
282.881	14.18
283.348	7.18
283.816	11.88
284.284	14.28
284.752	16.78
285.22	3.48
285.688	6.88
286.156	14.68
286.623	14.98
287.091	3.88
287.559	6.38
288.026	7.18
288.494	10.98
288.962	2.88
289.429	9.08
289.897	18.68
290.364	9.98
290.832	17.48
291.3	12.38
291.767	11.68
292.234	7.28
292.702	9.88
293.169	8.78
293.637	16.48
294.104	18.18
294.571	3.48
295.039	9.98
295.506	11.48
295.973	14.28
296.44	6.58
296.908	9.48
297.375	7.78
297.842	14.38
298.309	16.68
298.776	3.78
299.243	15.88
299.71	9.38
300.177	15.08
300.644	12.68
301.111	12.98
301.578	17.68
302.045	7.78
302.512	19.28
302.979	19.88
303.446	16.38
303.913	17.48
304.379	10.98
304.846	18.68
305.313	20.08
305.78	19.58
306.246	23.68
306.713	19.58
307.18	22.08
307.646	21.68
308.113	19.18
308.579	17.08
309.046	16.38
309.512	26.98
309.979	11.08
310.445	22.28
310.912	21.88
311.378	25.48
311.845	21.58
312.311	26.18
312.777	23.08
313.244	25.98
313.71	32.68
314.176	20.08
314.642	22.78
315.109	22.08
315.575	25.58
316.041	37.78
316.507	20.68
316.973	24.18
317.439	22.58
317.905	21.28
318.371	25.78
318.837	24.78
319.303	25.88
319.769	23.18
320.235	24.38
320.701	24.48
321.167	25.78
321.633	25.68
322.099	31.78
322.564	37.28
323.03	33.78
323.496	27.98
323.962	29.98
324.427	31.28
324.893	39.48
325.359	31.88
325.824	24.88
326.29	34.18
326.755	30.38
327.221	32.88
327.686	32.38
328.152	36.28
328.617	27.98
329.083	39.58
329.548	39.28
330.014	42.88
330.479	37.98
330.944	33.88
331.41	32.18
331.875	39.98
332.34	39.38
332.805	37.38
333.271	32.78
333.736	35.38
334.201	41.08
334.666	42.48
335.131	44.48
335.596	44.18
336.061	39.68
336.526	34.18
336.991	39.08
337.456	49.28
337.921	45.28
338.386	34.88
338.851	42.18
339.316	40.98
339.781	34.48
340.246	47.58
340.711	39.28
341.175	43.48
341.64	32.28
342.105	43.58
342.569	44.68
343.034	46.68
343.499	46.38
343.963	39.08
344.428	50.48
344.893	56.58
345.357	56.18
345.822	50.38
346.286	60.08
346.751	61.48
347.215	63.08
347.679	56.28
348.144	77.28
348.608	70.78
349.073	54.78
349.537	67.78
350.001	67.98
350.465	74.28
350.93	68.38
351.394	71.18
351.858	62.28
352.322	75.28
352.786	75.08
353.25	85.88
353.715	83.48
354.179	83.58
354.643	97.48
355.107	97.08
355.571	90.48
356.035	86.48
356.498	97.48
356.962	94.38
357.426	101.18
357.89	95.08
358.354	84.58
358.818	73.28
359.281	70.08
359.745	65.18
360.209	64.78
360.673	68.48
361.136	69.58
361.6	75.18
362.064	79.18
362.527	80.38
362.991	77.98
363.454	72.08
363.918	73.98
364.381	72.78
364.845	82.58
365.308	79.58
365.772	86.58
366.235	81.68
366.698	78.08
367.162	82.38
367.625	82.98
368.088	90.48
368.552	86.68
369.015	87.78
369.478	90.98
369.941	94.78
370.404	86.18
370.867	99.28
371.331	92.18
371.794	96.98
372.257	89.98
372.72	98.78
373.183	93.68
373.646	87.48
374.109	92.98
374.572	93.78
375.035	97.08
375.497	93.38
375.96	96.98
376.423	99.08
376.886	104.08
377.349	99.58
377.811	98.58
378.274	108.18
378.737	97.68
379.199	103.78
379.662	99.28
380.125	108.68
380.587	106.78
381.05	109.78
381.512	110.88
381.975	119.78
382.437	117.08
382.9	118.08
383.362	114.58
383.825	122.08
384.287	119.58
384.75	107.48
385.212	122.98
385.674	126.98
386.136	125.28
386.599	112.08
387.061	113.18
387.523	120.98
387.985	122.28
388.447	127.28
388.91	120.48
389.372	122.08
389.834	123.18
390.296	126.58
390.758	127.78
391.22	129.88
391.682	146.18
392.144	156.48
392.606	147.48
393.068	137.38
393.529	145.18
393.991	137.28
394.453	128.78
394.915	135.68
395.377	134.08
395.838	136.28
396.3	139.18
396.762	142.58
397.224	134.08
397.685	130.98
398.147	125.68
398.608	130.48
399.07	132.78
399.531	135.78
399.993	137.38
400.454	152.58
400.916	151.58
401.377	144.28
401.839	149.68
402.3	154.48
402.762	162.38
403.223	174.08
403.684	159.48
404.145	161.08
404.607	160.48
405.068	160.58
405.529	164.98
405.99	176.28
406.451	166.58
406.913	167.88
407.374	166.48
407.835	162.48
408.296	168.68
408.757	166.68
409.218	180.38
409.679	175.48
410.14	169.08
410.601	173.88
411.062	177.18
411.522	177.18
411.983	183.28
412.444	173.98
412.905	185.18
413.366	185.88
413.826	200.08
414.287	220.38
414.748	266.78
415.208	245.88
415.669	217.78
416.13	212.38
416.59	206.28
417.051	218.88
417.511	228.08
417.972	241.88
418.432	262.38
418.893	300.78
419.353	268.88
419.814	203.88
420.274	188.68
420.734	179.98
421.195	196.67
421.655	197.78
422.115	196.58
422.576	199.08
423.036	201.18
423.496	207.98
423.956	223.68
424.416	235.88
424.876	266.18
425.336	258.08
425.797	263.48
426.257	249.08
426.717	234.18
427.177	224.28
427.637	221.68
428.097	230.28
428.556	233.48
429.016	257.88
429.476	258.48
429.936	266.88
430.396	257.98
430.856	283.67
431.315	292.28
431.775	328.78
432.235	356.08
432.694	334.28
433.154	340.88
433.614	362.98
434.073	318.98
434.533	270.28
434.993	254.88
435.452	270.88
435.912	268.48
436.371	270.88
436.83	266.48
437.29	246.38
437.749	237.58
438.209	238.58
438.668	253.27
439.127	274.58
439.587	247.28
440.046	241.28
440.505	245.18
440.964	255.98
441.424	285.48
441.883	280.08
442.342	246.48
442.801	222.98
443.26	222.68
443.719	226.58
444.178	226.18
444.637	212.98
445.096	219.48
445.555	226.77
446.014	223.58
446.473	226.68
446.932	229.68
447.391	228.08
447.849	231.38
448.308	222.08
448.767	221.28
449.226	238.08
449.685	239.58
450.143	249.38
450.602	248.48
451.061	223.77
451.519	231.58
451.978	237.38
452.436	225.68
452.895	239.68
453.353	248.68
453.812	236.78
454.27	237.38
454.729	234.98
455.187	234.48
455.646	237.18
456.104	236.68
456.562	254.98
457.021	251.48
457.479	245.58
457.937	265.78
458.395	254.48
458.854	244.38
459.312	243.68
459.77	256.48
460.228	246.17
460.686	245.18
461.144	248.77
461.602	255.48
462.06	237.88
462.518	249.48
462.976	254.28
463.434	258.38
463.892	262.78
464.35	261.28
464.808	281.28
465.266	263.28
465.724	269.58
466.181	264.98
466.639	267.58
467.097	279.38
467.555	294.28
468.012	298.08
468.47	296.98
468.928	309.78
469.385	322.08
469.843	329.88
470.3	325.98
470.758	337.68
471.215	358.68
471.673	375.58
472.13	369.68
472.588	387.98
473.045	358.88
473.503	367.08
473.96	381.48
474.417	384.98
474.875	409.98
475.332	440.08
475.789	431.68
476.246	440.48
476.704	457.78
477.161	475.58
477.618	480.98
478.075	523.48
478.532	560.08
478.989	621.38
479.446	692.08
479.903	695.58
480.36	723.48
480.817	764.88
481.274	841.77
481.731	927.58
482.188	1002.38
482.645	1109.18
483.102	1201.88
483.558	1312.68
484.015	1366.48
484.472	1346.28
484.929	1304.08
485.385	1267.38
485.842	1229.07
486.299	1190.58
486.755	1127.67
487.212	972.78
487.668	845.17
488.125	788.77
488.582	716.98
489.038	696.98
489.494	652.48
489.951	628.28
490.407	618.48
490.864	601.08
491.32	590.78
491.776	596.78
492.233	603.17
492.689	562.88
493.145	555.28
493.602	567.68
494.058	570.77
494.514	571.48
494.97	583.98
495.426	588.18
495.882	566.58
496.338	568.38
496.794	578.38
497.251	557.27
497.707	583.88
498.163	576.18
498.618	582.48
499.074	584.18
499.53	605.88
499.986	605.58
500.442	582.58
500.898	576.98
501.354	568.48
501.809	575.17
502.265	574.48
502.721	575.88
503.177	588.68
503.632	590.18
504.088	593.98
504.543	613.28
504.999	619.68
505.455	592.98
505.91	593.28
506.366	593.08
506.821	597.88
507.277	589.88
507.732	589.48
508.187	581.08
508.643	586.98
509.098	589.58
509.553	607.08
510.009	612.68
510.464	614.58
510.919	633.48
511.375	625.28
511.83	636.88
512.285	653.98
512.74	682.68
513.195	690.28
513.65	699.38
514.105	702.67
514.56	696.17
515.015	723.48
515.47	719.58
515.925	714.58
516.38	716.77
516.835	726.38
517.29	705.28
517.745	704.58
518.2	688.78
518.655	675.67
519.109	670.28
519.564	667.58
520.019	664.88
520.474	657.68
520.928	657.68
521.383	646.38
521.838	641.77
522.292	640.38
522.747	645.08
523.201	640.78
523.656	633.28
524.11	626.78
524.565	623.28
525.019	615.28
525.474	632.27
525.928	620.88
526.382	621.77
526.837	632.58
527.291	627.38
527.745	617.17
528.2	626.08
528.654	626.48
529.108	611.48
529.562	616.27
530.016	607.68
530.47	615.77
530.925	614.27
531.379	622.18
531.833	621.18
532.287	614.48
532.741	610.78
533.195	616.08
533.649	618.18
534.103	625.08
534.556	613.78
535.01	618.48
535.464	608.88
535.918	626.68
536.372	626.98
536.826	621.28
537.279	605.38
537.733	628.68
538.187	627.58
538.64	625.67
539.094	625.08
539.548	643.18
540.001	628.38
540.455	623.28
540.908	639.27
541.362	644.38
541.815	645.88
542.269	666.28
542.722	651.27
543.175	668.27
543.629	672.98
544.082	686.88
544.536	686.48
544.989	681.58
545.442	679.27
545.895	683.58
546.349	682.58
546.802	681.28
547.255	691.48
547.708	691.88
548.161	702.17
548.614	712.58
549.067	714.28
549.52	701.38
549.973	694.08
550.426	696.98
550.879	679.18
551.332	686.08
551.785	685.38
552.238	685.58
552.691	697.38
553.144	709.08
553.596	716.08
554.049	736.18
554.502	762.27
554.955	773.48
555.407	763.38
555.86	759.88
556.313	749.88
556.765	737.88
557.218	742.18
557.67	735.28
558.123	734.17
558.576	731.18
559.028	733.38
559.48	751.08
559.933	733.28
560.385	706.98
560.838	685.78
561.29	658.68
561.742	655.48
562.195	651.38
562.647	649.88
563.099	651.58
563.551	654.68
564.004	660.28
564.456	643.88
564.908	637.28
565.36	617.77
565.812	610.08
566.264	602.68
566.716	596.38
567.168	584.08
567.62	590.78
568.072	575.58
568.524	573.08
568.976	573.67
569.428	555.48
569.88	566.18
570.332	563.38
570.784	557.88
571.235	565.08
571.687	569.78
572.139	575.88
572.59	594.38
573.042	582.98
573.494	584.68
573.945	583.17
574.397	561.28
574.849	572.18
575.3	558.88
575.752	564.38
576.203	552.38
576.655	563.08
577.106	547.88
577.557	547.28
578.009	530.18
578.46	534.98
578.912	539.98
579.363	539.68
579.814	540.08
580.265	524.78
580.717	537.08
581.168	535.27
581.619	539.18
582.07	543.68
582.521	541.67
582.972	542.28
583.423	541.58
583.875	542.78
584.326	543.67
584.777	558.98
585.227	581.88
585.678	585.58
586.129	600.08
586.58	632.38
587.031	647.88
587.482	686.88
587.933	715.08
588.384	694.18
588.834	638.48
589.285	615.18
589.736	620.88
590.186	620.88
590.637	615.58
591.088	589.58
591.538	592.98
591.989	590.48
592.439	574.38
592.89	574.78
593.34	557.38
593.791	554.88
594.241	539.58
594.692	554.18
595.142	539.88
595.593	544.88
596.043	554.98
596.493	554.08
596.943	553.18
597.394	561.48
597.844	560.38
598.294	569.98
598.744	584.08
599.195	610.38
599.645	645.48
600.095	667.18
600.545	713.18
600.995	746.58
601.445	799.08
601.895	838.48
602.345	887.68
602.795	868.98
603.245	828.18
603.695	783.38
604.145	752.98
604.594	717.98
605.044	686.58
605.494	625.28
605.944	585.68
606.393	573.78
606.843	562.98
607.293	559.88
607.743	559.68
608.192	563.08
608.642	577.18
609.091	586.68
609.541	585.48
609.99	581.58
610.44	576.18
610.889	550.18
611.339	534.88
611.788	521.78
612.238	532.18
612.687	549.58
613.136	529.08
613.586	540.18
614.035	535.88
614.484	540.98
614.933	537.58
615.383	533.98
615.832	535.68
616.281	532.88
616.73	515.08
617.179	503.18
617.628	485.48
618.077	477.18
618.526	465.48
618.975	467.08
619.424	466.08
619.873	470.18
620.322	469.27
620.771	453.38
621.22	459.78
621.669	448.18
622.118	445.88
622.567	432.28
623.015	428.77
623.464	430.48
623.913	417.38
624.361	413.08
624.81	409.98
625.259	415.88
625.707	418.48
626.156	420.58
626.604	431.98
627.053	422.08
627.501	421.58
627.95	428.98
628.398	432.88
628.847	425.78
629.295	426.18
629.744	424.78
630.192	422.58
630.64	413.78
631.089	403.78
631.537	401.28
631.985	399.18
632.433	396.38
632.881	385.28
633.33	391.78
633.778	390.38
634.226	389.38
634.674	401.48
635.122	405.18
635.57	407.28
636.018	418.98
636.466	414.98
636.914	413.58
637.362	419.78
637.81	435.18
638.258	429.58
638.705	432.27
639.153	455.38
639.601	450.68
640.049	479.98
640.497	500.28
640.944	515.28
641.392	478.88
641.84	462.28
642.287	438.58
642.735	413.18
643.182	416.48
643.63	412.38
644.078	418.98
644.525	426.67
644.973	425.48
645.42	436.98
645.867	455.18
646.315	461.68
646.762	492.28
647.21	501.78
647.657	503.28
648.104	533.88
648.551	540.58
648.999	591.78
649.446	632.98
649.893	688.18
650.34	784.18
650.787	923.28
651.234	1134.97
651.682	1435.88
652.129	1926.18
652.576	2720.78
653.023	3991.98
653.47	5529.77
653.917	6991.88
654.363	8224.78
654.81	9286.57
655.257	8861.38
655.704	5869.68
656.151	3454.27
656.598	2284.88
657.044	1636.88
657.491	1248.58
657.938	1008.28
658.385	849.58
658.831	748.88
659.278	668.08
659.724	594.88
660.171	560.38
660.618	509.27
661.064	472.08
661.511	456.88
661.957	444.08
662.404	434.77
662.85	450.38
663.296	426.18
663.743	402.88
664.189	392.58
664.635	371.48
665.082	376.08
665.528	376.18
665.974	370.88
666.42	366.68
666.867	353.77
667.313	340.98
667.759	339.38
668.205	326.28
668.651	327.68
669.097	318.17
669.543	316.88
669.989	328.38
670.435	319.98
670.881	321.48
671.327	326.68
671.773	344.48
672.219	359.28
672.665	390.38
673.11	426.17
673.556	457.88
674.002	494.48
674.448	481.58
674.893	413.38
675.339	348.08
675.785	322.48
676.23	311.28
676.676	288.38
677.122	274.48
677.567	264.18
678.013	267.88
678.458	259.08
678.904	266.28
679.349	253.38
679.794	262.38
680.24	252.58
680.685	242.68
681.131	240.88
681.576	254.48
682.021	259.58
682.466	250.48
682.912	248.38
683.357	241.38
683.802	275.38
684.247	292.48
684.692	316.88
685.137	354.48
685.583	387.98
686.028	406.67
686.473	374.78
686.918	318.88
687.363	295.18
687.807	283.38
688.252	264.58
688.697	259.08
689.142	241.68
689.587	234.68
690.032	236.78
690.477	240.08
690.921	252.48
691.366	271.98
691.811	283.58
692.255	310.58
692.7	328.48
693.145	357.18
693.589	481.18
694.034	789.18
694.478	1104.08
694.923	1297.38
695.367	1716.38
695.812	898.78
696.256	360.17
696.701	264.38
697.145	254.28
697.59	234.17
698.034	228.88
698.478	232.18
698.922	226.98
699.367	230.58
699.811	247.68
700.255	250.38
700.699	269.18
701.143	293.08
701.588	345.78
702.032	369.78
702.476	367.08
702.92	351.08
703.364	346.88
703.808	440.58
704.252	714.08
704.696	1039.38
705.14	1236.18
705.584	1608.58
706.027	787.67
706.471	383.08
706.915	292.58
707.359	248.98
707.803	230.98
708.246	221.18
708.69	226.68
709.134	227.38
709.577	226.98
710.021	225.68
710.465	221.58
710.908	214.48
711.352	213.68
711.795	228.78
712.239	245.98
712.682	264.67
713.126	296.67
713.569	322.88
714.012	254.58
714.456	213.28
714.899	207.58
715.342	185.18
715.786	185.18
716.229	186.78
716.672	184.38
717.115	181.28
717.558	182.78
718.002	180.28
718.445	181.48
718.888	200.28
719.331	202.08
719.774	226.98
720.217	214.58
720.66	204.38
721.103	185.38
721.546	184.08
721.989	176.48
722.432	159.68
722.874	171.58
723.317	157.58
723.76	169.38
724.203	185.58
724.645	219.48
725.088	299.98
725.531	408.18
725.974	466.98
726.416	398.48
726.859	220.28
727.301	171.68
727.744	173.28
728.187	163.38
728.629	172.98
729.071	173.88
729.514	188.98
729.956	198.18
730.399	198.08
730.841	208.58
731.283	190.08
731.726	194.38
732.168	188.28
732.61	196.78
733.053	199.98
733.495	217.48
733.937	240.28
734.379	277.17
734.821	302.98
735.263	368.08
735.705	576.98
736.148	1083.97
736.59	1839.08
737.032	2309.57
737.474	1897.08
737.916	593.08
738.357	307.18
738.799	233.88
739.241	208.88
739.683	198.17
740.125	210.98
740.567	217.27
741.008	228.98
741.45	224.88
741.892	229.88
742.334	255.38
742.775	264.58
743.217	256.67
743.658	197.08
744.1	180.08
744.542	187.38
744.983	227.78
745.425	261.28
745.866	254.18
746.307	199.98
746.749	194.18
747.19	222.78
747.632	314.28
748.073	589.48
748.514	1286.98
748.956	2069.68
749.397	2596.58
749.838	2154.68
750.279	2253.08
750.72	1127.08
751.162	403.08
751.603	231.58
752.044	184.18
752.485	154.48
752.926	151.48
753.367	143.58
753.808	140.48
754.249	139.38
754.69	130.98
755.131	130.78
755.572	130.28
756.013	127.18
756.453	129.38
756.894	132.58
757.335	141.78
757.776	136.28
758.216	134.28
758.657	140.08
759.098	140.78
759.538	159.58
759.979	189.17
760.42	261.38
760.86	481.68
761.301	1250.97
761.741	3159.78
762.182	4994.58
762.622	3563.68
763.063	995.78
763.503	396.88
763.943	233.08
764.384	201.78
764.824	186.28
765.264	189.38
765.705	158.08
766.145	133.98
766.585	123.98
767.025	121.88
767.465	106.48
767.906	130.68
768.346	154.08
768.786	154.18
769.226	151.98
769.666	213.67
770.106	408.08
770.546	1048.88
770.986	1974.78
771.426	1819.58
771.866	593.68
772.306	232.58
772.745	146.18
773.185	113.48
773.625	120.18
774.065	113.58
774.505	114.68
774.944	145.48
775.384	265.78
775.824	465.48
776.263	468.98
776.703	211.68
777.142	125.78
777.582	87.58
778.021	91.18
778.461	91.88
778.9	97.78
779.34	92.78
779.779	76.68
780.219	72.28
780.658	74.18
781.097	74.58
781.537	78.38
781.976	78.98
782.415	68.88
782.855	75.68
783.294	74.28
783.733	73.58
784.172	80.18
784.611	66.78
785.05	77.08
785.489	78.68
785.928	86.08
786.367	89.58
786.806	84.88
787.245	89.88
787.684	95.88
788.123	105.48
788.562	90.38
789.001	94.68
789.44	87.88
789.879	81.28
790.317	79.88
790.756	85.18
791.195	94.48
791.634	100.28
792.072	140.38
792.511	247.08
792.95	691.68
793.388	1554.97
793.827	1494.68
794.265	500.48
794.704	203.58
795.142	128.78
795.581	108.78
796.019	96.08
796.458	91.38
796.896	88.78
797.334	87.08
797.773	115.38
798.211	146.98
798.649	298.38
799.087	716.88
799.526	1152.38
799.964	1465.38
800.402	1543.08
800.84	573.58
801.278	218.88
801.716	142.08
802.154	108.28
802.592	103.28
803.03	102.28
803.468	94.28
803.906	101.78
804.344	107.98
804.782	104.98
805.22	93.58
805.658	92.48
806.096	106.28
806.533	116.88
806.971	124.38
807.409	151.28
807.847	226.48
808.284	456.88
808.722	1328.77
809.16	2480.68
809.597	2295.57
810.035	4054.28
810.472	4638.18
810.91	1639.28
811.347	607.48
811.785	311.98
812.222	194.58
812.66	137.88
813.097	113.78
813.535	99.28
813.972	86.78
814.409	85.98
814.846	76.58
815.284	80.18
815.721	73.88
816.158	77.38
816.595	82.58
817.032	112.58
817.47	138.78
817.907	98.48
818.344	74.78
818.781	70.88
819.218	67.18
819.655	91.38
820.092	146.18
820.529	172.88
820.966	137.48
821.403	100.08
821.839	79.58
822.276	71.38
822.713	89.18
823.15	100.48
823.587	83.78
824.023	102.88
824.46	203.48
824.897	634.08
825.333	1033.47
825.77	448.98
826.206	170.88
826.643	99.98
827.08	74.78
827.516	66.58
827.953	56.88
828.389	58.78
828.825	50.18
829.262	53.28
829.698	41.98
830.135	47.78
830.571	43.88
831.007	50.08
831.443	45.28
831.88	45.28
832.316	44.68
832.752	43.48
833.188	41.28
833.624	45.38
834.06	50.08
834.497	50.88
834.933	49.38
835.369	49.88
835.805	45.28
836.241	53.48
836.677	56.28
837.112	64.58
837.548	68.58
837.984	100.98
838.42	140.28
838.856	350.58
839.292	1095.78
839.727	1787.38
840.163	819.38
840.599	667.38
841.034	1502.58
841.47	1679.58
841.906	601.38
842.341	236.88
842.777	149.48
843.212	154.08
843.648	146.98
844.083	80.58
844.519	66.98
844.954	53.08
845.39	44.08
845.825	38.38
846.261	38.98
846.696	36.18
847.131	36.58
847.566	45.58
848.002	31.58
848.437	41.28
848.872	44.28
849.307	43.28
849.742	59.78
850.177	123.88
850.613	398.68
851.048	659.08
851.483	293.18
851.918	108.68
852.353	65.18
852.788	29.98
853.223	35.98
853.657	34.68
854.092	34.78
854.527	30.48
854.962	30.18
855.397	30.68
855.832	34.88
856.266	32.58
856.701	29.98
857.136	27.48
857.57	30.98
858.005	38.48
858.44	49.08
858.874	28.58
859.309	43.58
859.743	29.08
860.178	30.98
860.612	25.68
861.047	37.98
861.481	53.38
861.915	58.68
862.35	39.18
862.784	19.18
863.218	29.68
863.653	25.78
864.087	38.88
864.521	34.48
864.955	52.28
865.39	106.48
865.824	136.48
866.258	88.88
866.692	137.68
867.126	153.68
867.56	94.08
867.994	46.28
868.428	28.18
868.862	39.78
869.296	41.98
869.73	45.58
870.164	45.98
870.598	36.68
871.031	29.38
871.465	19.68
871.899	26.08
872.333	16.58
872.766	23.38
873.2	13.98
873.634	28.68
874.067	17.18
874.501	17.58
874.935	31.98
875.368	25.38
875.802	23.78
876.235	12.28
876.669	17.98
877.102	18.78
877.535	22.08
877.969	19.78
878.402	16.58
878.836	11.58
879.269	17.18
879.702	23.08
880.135	15.58
880.569	13.18
881.002	16.88
881.435	18.38
881.868	8.88
882.301	20.98
882.734	13.58
883.167	16.88
883.601	15.38
884.034	14.88
884.467	0.88
884.899	12.38
885.332	13.28
885.765	11.68
886.198	12.68
886.631	18.48
887.064	16.68
887.497	20.68
887.929	25.08
888.362	14.58
888.795	7.98
889.228	15.18
889.66	18.28
890.093	13.68
890.526	8.08
890.958	15.18
891.391	15.58
891.823	15.58
892.256	9.48
892.688	10.98
893.121	12.48
893.553	8.98
893.985	26.78
894.418	11.48
894.85	5.08
895.282	7.28
895.715	15.68
896.147	17.08
896.579	9.38
897.011	9.68
897.444	8.18
897.876	6.48
898.308	12.48
898.74	8.38
899.172	6.68
899.604	21.78
900.036	11.38
900.468	6.98
900.9	8.28
901.332	12.48
901.764	10.28
902.196	13.88
902.628	14.38
903.06	8.48
903.491	22.98
903.923	20.18
904.355	14.58
904.787	24.18
905.218	12.88
905.65	18.18
906.082	5.58
906.513	5.58
906.945	7.78
907.376	14.48
907.808	17.08
908.239	13.38
908.671	10.98
909.102	15.18
909.534	11.58
909.965	32.78
910.397	67.58
910.828	238.88
911.259	374.28
911.691	159.38
912.122	82.68
912.553	39.58
912.984	25.78
913.415	23.88
913.847	21.58
914.278	10.08
914.709	6.88
915.14	12.68
915.571	12.98
916.002	9.88
916.433	17.68
916.864	9.98
917.295	12.38
917.726	15.88
918.157	12.68
918.587	20.58
919.018	16.28
919.449	19.98
919.88	17.78
920.311	23.48
920.741	27.98
921.172	121.98
921.603	115.58
922.033	50.38
922.464	35.78
922.895	13.68
923.325	19.98
923.756	11.88
924.186	11.38
924.617	15.08
925.047	14.28
925.478	19.58
925.908	19.98
926.338	8.48
926.769	6.58
927.199	14.08
927.629	3.38
928.06	10.88
928.49	4.68
928.92	10.98
929.35	6.58
929.78	16.88
930.21	9.78
930.641	6.18
931.071	4.98
931.501	-0.42
931.931	8.68
932.361	8.98
932.791	3.28
933.221	3.28
933.651	-0.12
934.08	13.08
934.51	27.68
934.94	9.58
935.37	4.48
935.8	10.98
936.229	1.28
936.659	12.28
937.089	0.48
937.519	15.28
937.948	14.88
938.378	18.88
938.807	7.38
939.237	5.18
939.666	7.18
940.096	-3.62
940.525	-1.52
940.955	2.18
941.384	9.08
941.814	-6.62
942.243	-2.72
942.672	-0.42
943.102	-3.52
943.531	-1.22
943.96	5.18
944.39	1.08
944.819	-2.82
945.248	8.88
945.677	-1.32
946.106	4.78
946.535	7.78
946.964	-0.42
947.393	2.98
947.822	4.98
948.251	1.38
948.68	5.68
949.109	9.48
949.538	5.98
949.967	0.18
950.396	-3.62
950.825	-1.42
951.254	-1.12
951.682	-11.72
952.111	8.48
952.54	10.68
952.969	-1.92
953.397	-6.42
953.826	4.28
954.254	-6.22
954.683	8.68
955.112	-3.62
955.54	3.58
955.969	5.98
956.397	-1.92
956.826	-5.52
957.254	-1.22
957.682	5.48
958.111	5.88
958.539	2.08
958.967	2.78
959.396	-4.32
959.824	-2.72
960.252	0.28
960.68	4.78
961.109	-1.82
961.537	-0.72
961.965	-0.32
962.393	2.58
962.821	-5.32
963.249	-2.82
963.677	8.38
964.105	3.68
964.533	35.18
964.961	31.58
965.389	13.48
965.817	2.88
966.245	4.38
966.672	4.68
967.1	-7.72
967.528	5.68
967.956	-5.82
968.383	3.28
968.811	-3.32
969.239	2.88
969.666	-4.52
970.094	2.08
970.522	0.38
970.949	3.68
971.377	-4.02
971.804	-2.12
972.232	-5.52
972.659	-1.12
973.087	4.38
973.514	1.78
973.941	-4.22
974.369	1.18
974.796	8.08
975.223	-0.02
975.651	-1.72
976.078	6.58
976.505	1.38
976.932	4.38
977.359	9.18
977.786	12.08
978.214	-0.12
978.641	1.58
979.068	-12.62
979.495	-2.32
979.922	0.98
980.349	-3.62
980.776	4.48
981.202	1.08
981.629	8.78
982.056	5.18
982.483	1.58
982.91	4.28
983.337	-5.82
983.763	7.58
984.19	-5.42
984.617	-1.12
985.043	-4.92
985.47	2.38
985.897	-6.52
986.323	3.58
986.75	5.98
987.176	3.28
987.603	-0.22
988.029	-1.82
988.456	-4.72
988.882	-0.92
989.308	-3.32
989.735	-4.92
990.161	1.58
990.587	-6.22
991.014	3.08
991.44	7.28
991.866	-1.52
992.292	-10.52
992.719	-2.52
993.145	6.28
993.571	-7.92
993.997	-5.72
994.423	0.18
994.849	-3.02
995.275	0.48
995.701	-3.92
996.127	-4.72
996.553	4.28
996.979	3.48
997.405	0.78
997.83	-1.72
998.256	-1.82
998.682	0.28
999.108	-5.12
999.534	0.88
999.959	-2.12
1000.385	-3.42
1000.811	7.58
1001.236	-10.62
1001.662	-7.52
1002.087	-10.32
1002.513	1.08
1002.938	4.28
1003.364	-0.22
1003.789	3.78
1004.215	1.68
1004.64	5.38
1005.066	3.48
1005.491	2.28
1005.916	2.48
1006.342	-2.02
1006.767	-4.22
1007.192	10.38
1007.617	-7.42
1008.042	-1.62
1008.468	-0.92
1008.893	-3.02
1009.318	2.48
1009.743	1.18
1010.168	10.08
1010.593	-1.22
1011.018	-5.12
1011.443	1.48
1011.868	2.08
1012.293	-1.52
1012.718	-4.02
1013.143	4.68
1013.567	3.68
1013.992	-1.92
1014.417	-9.32
1014.842	0.78
1015.267	-3.02
1015.691	0.58
1016.116	9.08
1016.541	-1.92
1016.965	8.18
1017.39	1.18
1017.814	-0.42
1018.239	1.68
1018.663	-2.22
1019.088	-9.12
1019.512	-0.42
1019.937	-3.82
1020.361	-0.12
1020.785	-8.62
1021.21	-5.32
1021.634	-0.32
1022.058	-1.32
1022.483	9.78
1022.907	-1.72
1023.331	-0.72
1023.755	2.38
1024.179	2.58
1024.604	-2.82
1025.028	-3.62
1025.452	-3.82
1025.876	-6.42
1026.3	0.48
1026.724	-10.72
1027.148	-0.72
1027.572	-9.82
1027.996	2.68
1028.42	0.28
1028.843	-6.62
1029.267	-3.82
1029.691	3.28
1030.115	-2.72
1030.539	0.58
1030.962	-2.32
1031.386	-4.62
1031.81	-0.42
1032.233	-0.92
1032.657	-1.62
1033.08	2.48
1033.504	-2.12
1033.927	-6.92
1034.351	-1.32
1034.774	-4.22
1035.198	-2.42
1035.621	-1.72
1036.045	-2.32
1036.468	-2.52
1036.891	-5.22
1037.315	-10.32
1037.738	-6.62
1038.161	9.08
1038.584	-1.92
1039.008	-9.12
1039.431	-5.22
1039.854	-0.72
1040.277	-11.82
1040.7	-2.12
1041.123	1.08
1041.546	-2.12
1041.969	-2.42
1042.392	-0.62
1042.815	2.98
1043.238	6.18
1043.661	4.08
1044.084	0.18
1044.507	2.48
1044.93	-3.42
1045.352	-2.92
1045.775	3.58
1046.198	-2.62
1046.621	1.58
1047.043	3.28
1047.466	12.98
1047.889	1.58
1048.311	-5.72
1048.734	-4.12
1049.156	7.58
1049.579	3.38
1050.001	0.08
1050.424	2.98
1050.846	-2.52
1051.269	-0.82
1051.691	-7.02
1052.113	-8.92
1052.536	-4.02
1052.958	-2.02
1053.38	-4.72
1053.802	-7.02
1054.225	0.48
1054.647	-0.82
1055.069	-3.72
1055.491	1.28
1055.913	1.08
1056.335	4.38
1056.757	-2.52
1057.179	-5.82
1057.601	-1.22
1058.023	0.48
1058.445	-5.62
1058.867	-6.12
1059.289	-6.32
1059.711	-4.42
1060.133	-0.32
1060.555	-4.92
1060.976	-7.22
1061.398	0.38
1061.82	-4.82
1062.241	-2.02
1062.663	-5.82
1063.085	3.78
1063.506	6.98
1063.928	-1.42
1064.35	5.28
1064.771	-5.82
1065.193	-5.32
1065.614	-12.72
1066.035	-4.22
1066.457	-3.42
1066.878	4.98
1067.3	-4.52
1067.721	1.78
1068.142	-3.02
1068.564	-9.02
1068.985	1.68
1069.406	1.98
1069.827	-1.12
1070.248	0.68
1070.67	-3.22
1071.091	-4.62
1071.512	-4.12
1071.933	-10.12
1072.354	-5.12
1072.775	-0.82
1073.196	-6.12
1073.617	0.18
1074.038	-11.82
1074.459	-0.92
1074.88	-7.22
1075.3	1.58
1075.721	-1.92
1076.142	4.18
1076.563	-4.12
1076.983	-10.32
1077.404	-0.42
1077.825	-9.32
1078.246	-2.32
1078.666	-13.92
1079.087	-4.72
1079.507	-3.32
1079.928	-4.92
1080.348	1.28
1080.769	-0.82
1081.189	1.68
1081.61	-1.92
1082.03	-2.52
1082.451	-5.52
1082.871	-2.32
1083.291	-8.12
1083.711	-4.52
1084.132	1.68
1084.552	-2.42
1084.972	4.58
1085.392	-10.62
1085.813	-3.42
1086.233	-2.52
1086.653	-3.02
1087.073	-2.12
1087.493	-6.72
1087.913	-7.52
1088.333	-4.52
1088.753	2.88
1089.173	1.28
1089.593	-0.12
1090.013	0.38
1090.433	3.58
1090.852	0.18
1091.272	0.98
1091.692	2.18
1092.112	-0.52
1092.531	-5.02
1092.951	-8.02
1093.371	-1.52
1093.79	0.28
1094.21	-1.52
1094.63	-4.82
1095.049	-1.12
1095.469	2.48
1095.888	0.68
1096.308	3.78
1096.727	-1.02
1097.146	-0.82
1097.566	0.48
1097.985	1.18
1098.405	-1.92
1098.824	-1.42
1099.243	-2.82
1099.662	-7.92
1100.082	1.28
1100.501	1.08
1100.92	-4.62
1101.339	-3.62
1101.758	-2.62
