Data from 20171114-ORNL-Ar_H_NY_Subt18_08-04-23-900.txt Node
Date: Tue Nov 14 08:04:23 EST 2017
User: Ender
Spectrometer: HR+D1039
Trigger mode: 0
Integration Time (sec): 2.730000E-2
Scans to average: 10
Electric dark correction enabled: true
Nonlinearity correction enabled: false
Boxcar width: 0
XAxis mode: Wavelengths
Number of Pixels in Spectrum: 2048
>>>>>Begin Spectral Data<<<<<
187.836	-4.82
188.309	-4.82
188.782	-4.82
189.255	-3.02
189.728	-7.12
190.201	5.38
190.674	1.48
191.147	4.68
191.619	-5.22
192.092	2.98
192.565	8.58
193.038	-0.52
193.511	4.48
193.984	-0.22
194.456	-4.12
194.929	-0.72
195.402	-1.92
195.874	0.08
196.347	0.88
196.82	-8.32
197.292	1.68
197.765	0.98
198.237	-6.12
198.71	3.78
199.182	-3.92
199.655	4.78
200.127	4.98
200.6	1.78
201.072	-8.72
201.544	-9.62
202.017	-2.72
202.489	3.38
202.961	-1.62
203.433	-1.72
203.906	-6.22
204.378	0.68
204.85	-2.22
205.322	-6.92
205.794	-0.22
206.266	-0.22
206.739	-3.72
207.211	1.48
207.683	-5.02
208.155	-2.82
208.627	-4.32
209.099	-1.42
209.57	-6.12
210.042	-2.72
210.514	-6.52
210.986	-1.92
211.458	-6.22
211.93	2.98
212.402	1.98
212.873	-5.22
213.345	-9.72
213.817	-9.52
214.288	-4.12
214.76	-5.42
215.232	-6.52
215.703	-1.42
216.175	-8.82
216.646	1.28
217.118	-3.32
217.589	-5.92
218.061	2.48
218.532	-4.82
219.004	-1.72
219.475	-7.02
219.946	-0.92
220.418	-7.22
220.889	10.08
221.36	1.98
221.832	-2.82
222.303	-9.52
222.774	4.18
223.245	-9.12
223.717	-5.42
224.188	-3.62
224.659	-5.42
225.13	-1.32
225.601	1.68
226.072	4.68
226.543	-0.52
227.014	4.18
227.485	1.68
227.956	-5.02
228.427	9.38
228.898	0.18
229.369	1.98
229.839	-1.02
230.31	-2.32
230.781	0.58
231.252	0.38
231.722	1.28
232.193	1.78
232.664	4.18
233.135	5.18
233.605	5.68
234.076	-3.12
234.546	-1.52
235.017	2.98
235.487	0.68
235.958	-1.32
236.428	-3.22
236.899	6.08
237.369	-1.02
237.84	1.88
238.31	8.78
238.78	8.48
239.251	3.38
239.721	9.88
240.191	-3.92
240.662	-1.62
241.132	6.38
241.602	-8.12
242.072	6.38
242.542	6.48
243.013	8.78
243.483	6.68
243.953	8.08
244.423	4.08
244.893	0.88
245.363	9.68
245.833	2.18
246.303	3.28
246.773	9.38
247.243	2.78
247.712	9.18
248.182	8.78
248.652	10.98
249.122	3.28
249.592	14.88
250.061	25.98
250.531	37.78
251.001	22.78
251.471	29.58
251.94	19.48
252.41	12.38
252.879	3.58
253.349	15.48
253.818	11.08
254.288	7.68
254.757	7.58
255.227	3.28
255.696	9.38
256.166	11.98
256.635	8.58
257.105	11.08
257.574	7.68
258.043	7.38
258.513	18.48
258.982	19.48
259.451	8.58
259.92	19.78
260.389	8.88
260.859	19.88
261.328	19.98
261.797	21.08
262.266	13.68
262.735	19.58
263.204	8.18
263.673	-0.82
264.142	6.58
264.611	-1.12
265.08	3.08
265.549	9.98
266.018	9.78
266.487	-1.12
266.955	-4.12
267.424	2.58
267.893	9.38
268.362	5.98
268.83	0.78
269.299	13.48
269.768	10.38
270.236	14.38
270.705	6.08
271.174	9.68
271.642	11.58
272.111	10.48
272.579	21.18
273.048	19.58
273.516	29.38
273.985	31.58
274.453	33.48
274.922	17.98
275.39	14.08
275.858	6.08
276.327	12.68
276.795	16.28
277.263	10.48
277.731	33.08
278.2	55.78
278.668	67.68
279.136	52.98
279.604	25.08
280.072	21.68
280.54	9.98
281.008	12.18
281.477	15.28
281.945	14.28
282.413	21.78
282.881	17.38
283.348	12.68
283.816	20.68
284.284	15.28
284.752	23.28
285.22	13.88
285.688	17.08
286.156	19.18
286.623	41.18
287.091	49.28
287.559	35.18
288.026	19.78
288.494	19.78
288.962	8.18
289.429	8.18
289.897	20.58
290.364	17.38
290.832	16.38
291.3	20.18
291.767	17.78
292.234	24.78
292.702	10.78
293.169	22.98
293.637	29.78
294.104	23.18
294.571	14.28
295.039	8.88
295.506	16.58
295.973	21.18
296.44	18.78
296.908	19.08
297.375	21.68
297.842	21.28
298.309	23.98
298.776	20.88
299.243	26.78
299.71	11.98
300.177	23.98
300.644	20.98
301.111	23.88
301.578	32.18
302.045	17.88
302.512	21.08
302.979	25.48
303.446	25.18
303.913	26.08
304.379	19.98
304.846	29.68
305.313	27.88
305.78	22.08
306.246	33.18
306.713	26.88
307.18	23.18
307.646	30.98
308.113	29.08
308.579	22.78
309.046	29.68
309.512	27.98
309.979	17.98
310.445	29.18
310.912	29.88
311.378	32.58
311.845	28.88
312.311	36.88
312.777	35.58
313.244	28.08
313.71	36.88
314.176	37.58
314.642	34.88
315.109	32.78
315.575	36.58
316.041	42.08
316.507	31.78
316.973	40.58
317.439	35.58
317.905	39.38
318.371	36.68
318.837	31.68
319.303	36.08
319.769	36.18
320.235	37.88
320.701	33.98
321.167	32.38
321.633	32.58
322.099	38.48
322.564	44.28
323.03	41.88
323.496	41.58
323.962	39.08
324.427	35.18
324.893	38.78
325.359	34.28
325.824	40.88
326.29	35.78
326.755	39.58
327.221	39.58
327.686	41.78
328.152	45.78
328.617	44.48
329.083	47.78
329.548	49.18
330.014	48.98
330.479	36.68
330.944	41.48
331.41	39.98
331.875	44.18
332.34	42.98
332.805	41.58
333.271	42.88
333.736	39.08
334.201	52.78
334.666	51.08
335.131	49.58
335.596	45.08
336.061	45.28
336.526	40.68
336.991	53.98
337.456	51.18
337.921	49.58
338.386	41.98
338.851	43.18
339.316	45.58
339.781	44.18
340.246	56.08
340.711	46.18
341.175	46.48
341.64	42.08
342.105	54.78
342.569	54.08
343.034	54.98
343.499	59.68
343.963	52.58
344.428	62.48
344.893	54.08
345.357	68.58
345.822	60.38
346.286	70.98
346.751	65.68
347.215	58.48
347.679	66.18
348.144	86.98
348.608	84.28
349.073	65.98
349.537	68.48
350.001	74.68
350.465	86.28
350.93	73.18
351.394	75.08
351.858	75.98
352.322	85.08
352.786	84.18
353.25	99.68
353.715	105.98
354.179	94.18
354.643	110.78
355.107	110.08
355.571	104.08
356.035	96.08
356.498	100.78
356.962	115.68
357.426	122.28
357.89	111.38
358.354	91.38
358.818	82.78
359.281	79.38
359.745	74.48
360.209	71.88
360.673	71.88
361.136	75.68
361.6	79.88
362.064	78.38
362.527	76.78
362.991	89.68
363.454	83.48
363.918	74.98
364.381	73.78
364.845	80.48
365.308	84.98
365.772	82.48
366.235	78.48
366.698	75.48
367.162	79.98
367.625	82.28
368.088	80.08
368.552	86.38
369.015	84.48
369.478	89.48
369.941	95.38
370.404	88.58
370.867	96.18
371.331	99.58
371.794	114.18
372.257	102.28
372.72	109.38
373.183	101.18
373.646	101.48
374.109	91.28
374.572	108.48
375.035	103.78
375.497	105.28
375.96	100.98
376.423	95.98
376.886	105.38
377.349	99.48
377.811	98.48
378.274	93.18
378.737	95.58
379.199	98.88
379.662	99.88
380.125	109.88
380.587	111.58
381.05	119.28
381.512	123.58
381.975	125.38
382.437	123.78
382.9	118.08
383.362	122.28
383.825	128.68
384.287	136.98
384.75	130.58
385.212	124.18
385.674	126.08
386.136	124.28
386.599	113.78
387.061	121.68
387.523	116.98
387.985	125.58
388.447	138.88
388.91	130.38
389.372	136.88
389.834	137.28
390.296	133.48
390.758	133.98
391.22	156.68
391.682	190.98
392.144	273.28
392.606	211.38
393.068	154.08
393.529	150.58
393.991	140.48
394.453	128.78
394.915	147.68
395.377	175.38
395.838	197.08
396.3	143.28
396.762	124.38
397.224	128.08
397.685	123.08
398.147	121.68
398.608	121.88
399.07	121.28
399.531	129.68
399.993	131.18
400.454	139.08
400.916	136.18
401.377	131.48
401.839	141.68
402.3	141.88
402.762	154.68
403.223	160.78
403.684	160.58
404.145	144.08
404.607	150.28
405.068	153.28
405.529	158.98
405.99	163.88
406.451	156.18
406.913	155.78
407.374	149.08
407.835	150.38
408.296	156.38
408.757	156.68
409.218	165.48
409.679	166.28
410.14	165.08
410.601	162.68
411.062	172.88
411.522	169.98
411.983	173.38
412.444	160.98
412.905	164.68
413.366	165.68
413.826	175.28
414.287	199.28
414.748	236.28
415.208	227.78
415.669	193.58
416.13	192.98
416.59	183.98
417.051	201.08
417.511	199.08
417.972	225.08
418.432	223.78
418.893	265.48
419.353	227.68
419.814	177.68
420.274	167.28
420.734	163.88
421.195	182.18
421.655	182.28
422.115	177.78
422.576	175.08
423.036	178.78
423.496	187.78
423.956	198.18
424.416	214.88
424.876	239.38
425.336	241.18
425.797	236.98
426.257	233.28
426.717	215.18
427.177	208.48
427.637	205.28
428.097	216.78
428.556	218.88
429.016	247.48
429.476	246.08
429.936	249.78
430.396	256.38
430.856	262.58
431.315	285.68
431.775	316.08
432.235	336.98
432.694	318.58
433.154	334.38
433.614	346.88
434.073	292.88
434.533	258.68
434.993	242.18
435.452	265.38
435.912	272.08
436.371	263.68
436.83	256.38
437.29	247.38
437.749	229.88
438.209	219.18
438.668	244.38
439.127	258.38
439.587	246.48
440.046	224.18
440.505	232.88
440.964	253.68
441.424	284.68
441.883	278.98
442.342	237.78
442.801	207.48
443.26	192.08
443.719	198.88
444.178	202.28
444.637	198.28
445.096	197.38
445.555	203.08
446.014	207.78
446.473	201.88
446.932	207.38
447.391	208.68
447.849	207.08
448.308	197.38
448.767	207.38
449.226	220.18
449.685	218.08
450.143	228.48
450.602	210.98
451.061	200.18
451.519	218.98
451.978	214.98
452.436	215.48
452.895	219.98
453.353	221.08
453.812	220.68
454.27	219.68
454.729	214.58
455.187	212.38
455.646	226.28
456.104	225.88
456.562	226.18
457.021	239.78
457.479	230.08
457.937	256.68
458.395	238.78
458.854	219.28
459.312	223.58
459.77	247.38
460.228	240.78
460.686	221.58
461.144	233.08
461.602	221.38
462.06	222.18
462.518	230.68
462.976	235.08
463.434	233.98
463.892	242.68
464.35	255.88
464.808	267.18
465.266	251.58
465.724	251.88
466.181	255.18
466.639	250.18
467.097	268.18
467.555	276.78
468.012	273.88
468.47	276.58
468.928	300.48
469.385	313.68
469.843	310.88
470.3	313.48
470.758	324.98
471.215	342.98
471.673	362.68
472.13	353.78
472.588	366.58
473.045	335.38
473.503	343.38
473.96	355.78
474.417	367.58
474.875	393.68
475.332	426.48
475.789	419.78
476.246	424.88
476.704	435.28
477.161	456.28
477.618	471.28
478.075	509.38
478.532	562.98
478.989	614.78
479.446	719.78
479.903	695.08
480.36	732.18
480.817	778.78
481.274	882.68
481.731	970.18
482.188	1060.38
482.645	1180.18
483.102	1290.28
483.558	1410.28
484.015	1469.68
484.472	1436.58
484.929	1393.58
485.385	1358.98
485.842	1326.28
486.299	1247.28
486.755	1175.18
487.212	989.48
487.668	847.68
488.125	775.28
488.582	719.48
489.038	692.68
489.494	655.08
489.951	630.48
490.407	617.18
490.864	591.08
491.32	580.68
491.776	581.68
492.233	581.58
492.689	550.28
493.145	551.08
493.602	543.48
494.058	549.68
494.514	554.28
494.97	581.98
495.426	578.68
495.882	561.48
496.338	556.08
496.794	573.78
497.251	562.78
497.707	578.28
498.163	584.68
498.618	587.68
499.074	593.28
499.53	610.88
499.986	609.78
500.442	597.48
500.898	572.78
501.354	565.78
501.809	582.58
502.265	577.88
502.721	597.38
503.177	615.98
503.632	597.58
504.088	614.58
504.543	651.48
504.999	648.78
505.455	598.08
505.91	570.28
506.366	579.38
506.821	566.68
507.277	563.58
507.732	567.58
508.187	571.08
508.643	565.18
509.098	572.08
509.553	591.08
510.009	605.08
510.464	611.28
510.919	620.98
511.375	631.48
511.83	639.88
512.285	645.98
512.74	688.08
513.195	704.48
513.65	702.38
514.105	694.98
514.56	700.88
515.015	718.28
515.47	731.58
515.925	714.48
516.38	716.88
516.835	720.48
517.29	712.68
517.745	700.48
518.2	689.88
518.655	684.88
519.109	672.68
519.564	667.28
520.019	651.48
520.474	659.28
520.928	653.18
521.383	647.88
521.838	643.78
522.292	636.78
522.747	642.18
523.201	638.38
523.656	632.78
524.11	622.08
524.565	624.48
525.019	626.28
525.474	634.78
525.928	631.58
526.382	630.58
526.837	625.58
527.291	638.68
527.745	633.08
528.2	621.98
528.654	628.08
529.108	622.38
529.562	623.78
530.016	614.28
530.47	623.08
530.925	618.48
531.379	626.78
531.833	629.58
532.287	628.88
532.741	629.88
533.195	637.18
533.649	639.68
534.103	656.58
534.556	638.88
535.01	642.98
535.464	628.48
535.918	648.18
536.372	648.48
536.826	641.58
537.279	631.28
537.733	643.18
538.187	644.48
538.64	640.78
539.094	648.58
539.548	652.28
540.001	646.88
540.455	647.38
540.908	663.18
541.362	665.78
541.815	676.68
542.269	671.18
542.722	684.68
543.175	690.98
543.629	686.68
544.082	709.88
544.536	704.38
544.989	703.78
545.442	704.18
545.895	706.88
546.349	697.88
546.802	703.18
547.255	710.28
547.708	710.18
548.161	726.48
548.614	735.58
549.067	730.68
549.52	723.08
549.973	723.08
550.426	715.78
550.879	694.58
551.332	710.38
551.785	704.98
552.238	716.48
552.691	729.48
553.144	734.08
553.596	746.78
554.049	770.78
554.502	800.88
554.955	800.48
555.407	809.18
555.86	802.28
556.313	787.58
556.765	790.58
557.218	783.58
557.67	785.58
558.123	776.78
558.576	778.08
559.028	786.78
559.48	779.28
559.933	776.88
560.385	737.58
560.838	712.18
561.29	682.38
561.742	693.78
562.195	673.18
562.647	677.18
563.099	679.88
563.551	686.58
564.004	691.08
564.456	680.18
564.908	675.38
565.36	655.38
565.812	636.68
566.264	637.58
566.716	631.68
567.168	629.38
567.62	638.78
568.072	620.68
568.524	613.58
568.976	601.58
569.428	587.38
569.88	597.58
570.332	592.98
570.784	591.48
571.235	600.48
571.687	599.08
572.139	612.88
572.59	627.08
573.042	622.18
573.494	617.98
573.945	624.98
574.397	605.28
574.849	599.68
575.3	595.88
575.752	600.28
576.203	590.58
576.655	593.68
577.106	581.78
577.557	582.48
578.009	579.28
578.46	583.68
578.912	571.78
579.363	582.08
579.814	578.78
580.265	576.88
580.717	579.58
581.168	591.38
581.619	589.38
582.07	583.98
582.521	588.48
582.972	578.18
583.423	580.48
583.875	581.28
584.326	600.88
584.777	647.48
585.227	710.88
585.678	791.28
586.129	868.98
586.58	932.58
587.031	1006.28
587.482	1160.18
587.933	1319.68
588.384	1143.38
588.834	842.68
589.285	700.08
589.736	677.58
590.186	676.78
590.637	669.28
591.088	640.08
591.538	641.58
591.989	637.58
592.439	627.78
592.89	611.98
593.34	618.98
593.791	606.48
594.241	609.68
594.692	615.18
595.142	599.28
595.593	595.78
596.043	618.38
596.493	614.48
596.943	604.28
597.394	622.58
597.844	616.08
598.294	621.78
598.744	637.18
599.195	654.98
599.645	694.98
600.095	731.78
600.545	776.58
600.995	818.98
601.445	889.98
601.895	932.48
602.345	974.88
602.795	964.08
603.245	924.68
603.695	865.48
604.145	820.28
604.594	789.48
605.044	744.48
605.494	683.58
605.944	649.98
606.393	637.48
606.843	621.38
607.293	624.78
607.743	627.68
608.192	634.58
608.642	643.88
609.091	657.38
609.541	653.08
609.99	641.88
610.44	646.08
610.889	609.58
611.339	594.68
611.788	580.18
612.238	595.18
612.687	618.28
613.136	608.68
613.586	632.08
614.035	618.78
614.484	643.68
614.933	643.98
615.383	638.38
615.832	620.08
616.281	612.68
616.73	586.08
617.179	562.58
617.628	549.98
618.077	538.78
618.526	524.98
618.975	525.68
619.424	512.28
619.873	517.78
620.322	511.38
620.771	517.08
621.22	509.68
621.669	503.88
622.118	498.28
622.567	488.78
623.015	472.78
623.464	482.48
623.913	467.68
624.361	469.68
624.81	464.28
625.259	456.58
625.707	471.38
626.156	461.88
626.604	477.58
627.053	466.48
627.501	470.28
627.95	476.18
628.398	488.88
628.847	476.28
629.295	472.18
629.744	479.18
630.192	472.18
630.64	481.08
631.089	471.18
631.537	481.68
631.985	487.38
632.433	505.88
632.881	507.28
633.33	547.08
633.778	532.48
634.226	464.58
634.674	480.08
635.122	475.78
635.57	497.48
636.018	520.08
636.466	478.88
636.914	465.28
637.362	468.48
637.81	481.78
638.258	481.08
638.705	476.58
639.153	506.78
639.601	508.18
640.049	524.28
640.497	556.08
640.944	576.68
641.392	536.18
641.84	516.18
642.287	488.88
642.735	479.08
643.182	476.38
643.63	483.68
644.078	483.88
644.525	494.58
644.973	491.48
645.42	497.38
645.867	516.38
646.315	536.78
646.762	549.98
647.21	569.08
647.657	595.08
648.104	627.38
648.551	642.78
648.999	700.08
649.446	752.38
649.893	828.78
650.34	951.98
650.787	1148.18
651.234	1408.58
651.682	1816.18
652.129	2475.98
652.576	3586.68
653.023	5297.88
653.47	7333.78
653.917	9298.78
654.363	10912.38
654.81	12298.68
655.257	11723.98
655.704	7562.98
656.151	4440.58
656.598	2852.78
657.044	2037.08
657.491	1530.18
657.938	1243.98
658.385	1028.08
658.831	898.28
659.278	804.68
659.724	709.38
660.171	656.28
660.618	603.18
661.064	559.58
661.511	543.18
661.957	535.08
662.404	520.18
662.85	523.98
663.296	503.38
663.743	468.98
664.189	440.78
664.635	442.68
665.082	426.38
665.528	432.68
665.974	424.88
666.42	420.28
666.867	413.58
667.313	401.88
667.759	390.28
668.205	385.58
668.651	399.58
669.097	400.28
669.543	417.68
669.989	388.18
670.435	365.58
670.881	359.18
671.327	377.08
671.773	387.48
672.219	411.28
672.665	443.58
673.11	481.98
673.556	511.68
674.002	559.08
674.448	533.68
674.893	458.48
675.339	392.38
675.785	354.78
676.23	337.68
676.676	327.08
677.122	314.48
677.567	296.68
678.013	298.88
678.458	289.08
678.904	297.58
679.349	283.78
679.794	291.18
680.24	286.98
680.685	287.28
681.131	284.38
681.576	289.48
682.021	290.68
682.466	284.88
682.912	280.58
683.357	281.38
683.802	310.18
684.247	333.68
684.692	373.58
685.137	397.88
685.583	446.48
686.028	462.58
686.473	429.88
686.918	361.98
687.363	340.18
687.807	318.18
688.252	288.88
688.697	287.18
689.142	273.98
689.587	275.28
690.032	260.78
690.477	277.88
690.921	289.28
691.366	306.68
691.811	325.58
692.255	348.78
692.7	370.98
693.145	398.38
693.589	548.38
694.034	893.38
694.478	1246.78
694.923	1440.88
695.367	1895.68
695.812	993.68
696.256	410.78
696.701	310.38
697.145	282.28
697.59	267.88
698.034	257.98
698.478	273.58
698.922	268.08
699.367	266.28
699.811	268.98
700.255	287.88
700.699	312.88
701.143	352.28
701.588	396.58
702.032	424.38
702.476	418.08
702.92	400.78
703.364	394.28
703.808	498.38
704.252	816.38
704.696	1153.78
705.14	1375.38
705.584	1788.88
706.027	876.88
706.471	426.88
706.915	326.28
707.359	294.38
707.803	254.98
708.246	255.58
708.69	250.78
709.134	248.18
709.577	251.08
710.021	253.88
710.465	255.18
710.908	243.98
711.352	241.28
711.795	253.18
712.239	280.58
712.682	308.78
713.126	335.38
713.569	381.38
714.012	306.18
714.456	261.78
714.899	238.68
715.342	223.08
715.786	206.48
716.229	207.78
716.672	207.48
717.115	202.68
717.558	198.48
718.002	203.98
718.445	214.58
718.888	231.98
719.331	240.78
719.774	247.28
720.217	246.48
720.66	228.88
721.103	217.08
721.546	201.68
721.989	200.88
722.432	182.58
722.874	186.98
723.317	185.28
723.76	188.48
724.203	213.68
724.645	256.28
725.088	354.68
725.531	460.18
725.974	524.88
726.416	451.98
726.859	254.58
727.301	202.88
727.744	196.88
728.187	181.68
728.629	195.58
729.071	195.08
729.514	214.18
729.956	224.38
730.399	232.28
730.841	227.88
731.283	225.98
731.726	216.28
732.168	202.88
732.61	208.28
733.053	222.48
733.495	252.98
733.937	285.48
734.379	327.48
734.821	348.28
735.263	430.68
735.705	656.58
736.148	1230.18
736.59	2065.38
737.032	2566.98
737.474	2077.38
737.916	665.88
738.357	350.48
738.799	266.38
739.241	246.08
739.683	229.88
740.125	229.68
740.567	247.08
741.008	260.88
741.45	250.38
741.892	256.18
742.334	286.68
742.775	293.98
743.217	281.98
743.658	217.48
744.1	204.68
744.542	208.78
744.983	251.08
745.425	282.08
745.866	276.48
746.307	233.58
746.749	224.08
747.19	268.18
747.632	358.48
748.073	675.08
748.514	1459.98
748.956	2295.98
749.397	2900.58
749.838	2424.18
750.279	2492.48
750.72	1232.58
751.162	449.78
751.603	249.88
752.044	205.38
752.485	172.88
752.926	171.98
753.367	155.98
753.808	156.88
754.249	156.68
754.69	155.28
755.131	146.58
755.572	143.78
756.013	146.18
756.453	145.28
756.894	151.08
757.335	151.78
757.776	157.68
758.216	158.58
758.657	161.78
759.098	162.58
759.538	183.98
759.979	211.28
760.42	293.28
760.86	553.38
761.301	1394.88
761.741	3522.88
762.182	5445.98
762.622	3829.38
763.063	1084.68
763.503	439.28
763.943	277.08
764.384	265.18
764.824	328.08
765.264	360.58
765.705	249.68
766.145	175.78
766.585	145.88
767.025	138.18
767.465	142.78
767.906	189.28
768.346	255.48
768.786	282.28
769.226	205.78
769.666	247.98
770.106	473.68
770.546	1210.48
770.986	2184.38
771.426	1978.98
771.866	651.58
772.306	268.48
772.745	175.18
773.185	146.08
773.625	136.58
774.065	128.78
774.505	156.68
774.944	244.48
775.384	538.78
775.824	1031.18
776.263	1016.68
776.703	419.58
777.142	176.98
777.582	129.18
778.021	108.58
778.461	114.58
778.9	113.68
779.34	107.18
779.779	92.98
780.219	94.18
780.658	92.08
781.097	90.98
781.537	93.38
781.976	88.78
782.415	81.68
782.855	80.78
783.294	80.68
783.733	85.28
784.172	93.88
784.611	78.18
785.05	89.28
785.489	95.98
785.928	95.28
786.367	100.18
786.806	101.18
787.245	104.48
787.684	113.68
788.123	118.28
788.562	107.18
789.001	99.58
789.44	100.68
789.879	96.18
790.317	93.38
790.756	99.88
791.195	105.88
791.634	122.88
792.072	160.48
792.511	281.88
792.95	777.48
793.388	1773.98
793.827	1641.98
794.265	557.38
794.704	223.38
795.142	149.98
795.581	121.18
796.019	109.58
796.458	97.68
796.896	100.68
797.334	111.18
797.773	131.98
798.211	176.58
798.649	333.88
799.087	808.68
799.526	1273.78
799.964	1624.78
800.402	1698.38
800.84	629.68
801.278	241.98
801.716	151.88
802.154	127.18
802.592	115.68
803.03	111.58
803.468	107.98
803.906	113.38
804.344	126.28
804.782	105.98
805.22	108.48
805.658	104.78
806.096	116.68
806.533	122.38
806.971	140.38
807.409	180.18
807.847	243.38
808.284	508.68
808.722	1479.58
809.16	2720.58
809.597	2510.18
810.035	4428.68
810.472	4969.08
810.91	1770.98
811.347	657.28
811.785	325.78
812.222	209.98
812.66	155.98
813.097	139.18
813.535	121.68
813.972	106.88
814.409	98.78
814.846	91.18
815.284	91.38
815.721	83.78
816.158	80.98
816.595	94.78
817.032	152.78
817.47	163.48
817.907	144.08
818.344	118.08
818.781	96.08
819.218	85.68
819.655	100.58
820.092	152.98
820.529	180.68
820.966	147.38
821.403	112.78
821.839	85.58
822.276	87.78
822.713	103.58
823.15	116.58
823.587	95.28
824.023	117.08
824.46	233.58
824.897	713.98
825.333	1134.48
825.77	486.78
826.206	188.28
826.643	111.78
827.08	87.28
827.516	71.88
827.953	66.38
828.389	66.88
828.825	61.08
829.262	51.58
829.698	52.28
830.135	56.68
830.571	51.88
831.007	52.28
831.443	52.38
831.88	46.38
832.316	50.58
832.752	50.78
833.188	51.08
833.624	55.88
834.06	57.18
834.497	53.38
834.933	59.38
835.369	61.18
835.805	60.88
836.241	66.18
836.677	63.28
837.112	75.88
837.548	84.28
837.984	105.68
838.42	161.28
838.856	391.08
839.292	1226.18
839.727	1949.58
840.163	882.88
840.599	735.78
841.034	1669.38
841.47	1819.38
841.906	656.88
842.341	273.08
842.777	184.28
843.212	261.88
843.648	261.08
844.083	124.08
844.519	80.78
844.954	58.28
845.39	46.58
845.825	50.38
846.261	48.98
846.696	42.58
847.131	40.38
847.566	45.98
848.002	43.58
848.437	49.58
848.872	50.58
849.307	54.18
849.742	62.08
850.177	142.48
850.613	441.88
851.048	734.48
851.483	314.58
851.918	123.38
852.353	67.48
852.788	49.58
853.223	45.48
853.657	48.18
854.092	38.48
854.527	31.08
854.962	35.78
855.397	33.68
855.832	40.68
856.266	34.28
856.701	35.28
857.136	32.28
857.57	32.48
858.005	42.38
858.44	42.68
858.874	41.78
859.309	42.98
859.743	32.08
860.178	34.88
860.612	33.78
861.047	40.58
861.481	58.08
861.915	60.78
862.35	42.28
862.784	31.18
863.218	29.48
863.653	27.58
864.087	38.48
864.521	42.28
864.955	56.88
865.39	128.38
865.824	143.88
866.258	95.68
866.692	138.68
867.126	152.88
867.56	84.98
867.994	47.38
868.428	37.08
868.862	44.18
869.296	46.88
869.73	48.18
870.164	44.38
870.598	45.48
871.031	33.88
871.465	28.58
871.899	23.98
872.333	16.18
872.766	13.68
873.2	17.08
873.634	31.68
874.067	16.08
874.501	22.28
874.935	27.58
875.368	28.78
875.802	20.98
876.235	25.98
876.669	20.18
877.102	21.78
877.535	19.88
877.969	18.28
878.402	22.28
878.836	11.68
879.269	17.68
879.702	24.68
880.135	21.98
880.569	23.58
881.002	20.48
881.435	19.58
881.868	15.28
882.301	24.48
882.734	16.98
883.167	20.58
883.601	14.48
884.034	20.38
884.467	12.08
884.899	14.88
885.332	15.88
885.765	8.08
886.198	14.18
886.631	20.88
887.064	18.18
887.497	17.98
887.929	30.58
888.362	12.28
888.795	10.58
889.228	22.38
889.66	22.28
890.093	19.58
890.526	14.08
890.958	16.78
891.391	13.78
891.823	17.08
892.256	9.28
892.688	7.28
893.121	9.28
893.553	18.88
893.985	24.18
894.418	17.48
894.85	14.08
895.282	12.38
895.715	13.28
896.147	13.38
896.579	12.98
897.011	7.48
897.444	13.28
897.876	16.58
898.308	18.58
898.74	12.98
899.172	9.28
899.604	21.78
900.036	18.88
900.468	12.28
900.9	17.08
901.332	14.18
901.764	14.58
902.196	13.88
902.628	22.28
903.06	13.98
903.491	30.28
903.923	14.78
904.355	16.18
904.787	20.78
905.218	18.28
905.65	15.18
906.082	5.58
906.513	16.68
906.945	16.78
907.376	14.78
907.808	16.08
908.239	18.98
908.671	18.48
909.102	19.38
909.534	19.68
909.965	38.88
910.397	75.98
910.828	255.68
911.259	407.78
911.691	179.58
912.122	86.28
912.553	48.18
912.984	34.48
913.415	26.68
913.847	24.28
914.278	9.18
914.709	11.48
915.14	22.68
915.571	16.28
916.002	16.88
916.433	23.38
916.864	14.68
917.295	10.78
917.726	19.08
918.157	16.88
918.587	23.48
919.018	18.78
919.449	21.08
919.88	22.58
920.311	27.98
920.741	36.58
921.172	133.58
921.603	127.98
922.033	63.18
922.464	40.48
922.895	21.98
923.325	18.38
923.756	16.98
924.186	16.48
924.617	19.68
925.047	33.48
925.478	46.28
925.908	43.08
926.338	25.88
926.769	16.28
927.199	21.88
927.629	8.08
928.06	14.88
928.49	15.38
928.92	17.88
929.35	11.48
929.78	15.68
930.21	5.88
930.641	8.38
931.071	4.28
931.501	0.18
931.931	5.88
932.361	10.38
932.791	2.28
933.221	5.78
933.651	-0.12
934.08	10.18
934.51	27.18
934.94	5.68
935.37	13.68
935.8	11.08
936.229	6.78
936.659	7.38
937.089	11.78
937.519	15.48
937.948	19.68
938.378	17.28
938.807	0.58
939.237	3.08
939.666	9.18
940.096	-1.12
940.525	5.58
940.955	4.78
941.384	3.28
941.814	-7.62
942.243	-1.42
942.672	7.98
943.102	-5.52
943.531	2.18
943.96	4.98
944.39	-3.42
944.819	1.88
945.248	4.18
945.677	2.98
946.106	8.58
946.535	4.48
946.964	-3.82
947.393	0.38
947.822	5.18
948.251	-0.52
948.68	4.98
949.109	1.18
949.538	10.98
949.967	-1.22
950.396	0.58
950.825	6.38
951.254	0.78
951.682	-2.22
952.111	3.38
952.54	5.78
952.969	-0.42
953.397	-4.22
953.826	4.48
954.254	-5.92
954.683	2.98
955.112	-3.12
955.54	1.58
955.969	1.78
956.397	4.88
956.826	-2.12
957.254	7.88
957.682	5.48
958.111	6.98
958.539	0.68
958.967	1.28
959.396	-2.02
959.824	-3.02
960.252	3.38
960.68	-0.32
961.109	-0.62
961.537	-4.12
961.965	-2.42
962.393	6.08
962.821	-0.92
963.249	0.38
963.677	4.18
964.105	8.48
964.533	40.08
964.961	34.18
965.389	17.28
965.817	7.58
966.245	0.78
966.672	1.18
967.1	-4.82
967.528	1.28
967.956	-1.12
968.383	-0.22
968.811	4.98
969.239	-1.02
969.666	-0.32
970.094	6.68
970.522	6.38
970.949	2.58
971.377	0.88
971.804	0.68
972.232	-0.72
972.659	-2.82
973.087	-1.92
973.514	0.28
973.941	-6.12
974.369	0.18
974.796	7.68
975.223	0.08
975.651	0.18
976.078	1.58
976.505	-2.32
976.932	9.58
977.359	9.98
977.786	14.58
978.214	2.28
978.641	-2.92
979.068	-6.32
979.495	-0.12
979.922	2.98
980.349	0.28
980.776	5.38
981.202	3.88
981.629	4.48
982.056	-0.82
982.483	2.18
982.91	2.18
983.337	4.38
983.763	4.58
984.19	-5.12
984.617	-4.52
985.043	-2.42
985.47	2.48
985.897	1.88
986.323	-3.02
986.75	5.08
987.176	-0.42
987.603	-1.52
988.029	2.48
988.456	1.28
988.882	4.48
989.308	2.18
989.735	-3.92
990.161	9.28
990.587	-3.62
991.014	-2.82
991.44	4.38
991.866	-1.12
992.292	-6.22
992.719	-2.62
993.145	5.08
993.571	-3.12
993.997	-5.02
994.423	0.18
994.849	-5.72
995.275	5.38
995.701	3.98
996.127	-0.92
996.553	0.88
996.979	-7.42
997.405	0.78
997.83	-0.62
998.256	-6.42
998.682	-2.42
999.108	-6.92
999.534	-1.12
999.959	-2.22
1000.385	3.38
1000.811	1.78
1001.236	-9.82
1001.662	-9.12
1002.087	-11.62
1002.513	-2.62
1002.938	2.98
1003.364	6.28
1003.789	-2.42
1004.215	1.88
1004.64	-4.62
1005.066	6.18
1005.491	-2.32
1005.916	-2.52
1006.342	0.98
1006.767	-8.32
1007.192	11.98
1007.617	-3.62
1008.042	3.28
1008.468	-6.42
1008.893	-4.92
1009.318	-4.42
1009.743	-5.72
1010.168	11.18
1010.593	0.58
1011.018	-8.22
1011.443	-4.22
1011.868	1.78
1012.293	1.58
1012.718	-1.22
1013.143	6.88
1013.567	-0.22
1013.992	-3.82
1014.417	-11.12
1014.842	3.58
1015.267	-1.82
1015.691	-2.72
1016.116	3.88
1016.541	-0.62
1016.965	0.48
1017.39	0.08
1017.814	-0.52
1018.239	3.78
1018.663	-4.82
1019.088	-7.82
1019.512	-7.72
1019.937	-2.52
1020.361	-9.42
1020.785	-6.72
1021.21	-8.12
1021.634	-2.52
1022.058	0.08
1022.483	0.18
1022.907	-0.22
1023.331	5.38
1023.755	-3.32
1024.179	-3.12
1024.604	-4.12
1025.028	-4.12
1025.452	-6.72
1025.876	-0.82
1026.3	2.88
1026.724	-9.02
1027.148	-0.22
1027.572	-7.02
1027.996	-0.52
1028.42	-2.62
1028.843	-6.92
1029.267	-1.72
1029.691	-2.02
1030.115	-2.02
1030.539	-7.82
1030.962	-3.02
1031.386	-4.82
1031.81	-0.12
1032.233	2.88
1032.657	6.08
1033.08	0.28
1033.504	-2.42
1033.927	-3.02
1034.351	0.88
1034.774	-7.82
1035.198	0.28
1035.621	-7.52
1036.045	-5.32
1036.468	-3.22
1036.891	-6.32
1037.315	-3.72
1037.738	-3.22
1038.161	1.78
1038.584	0.18
1039.008	-2.12
1039.431	-3.72
1039.854	-5.22
1040.277	-6.92
1040.7	-2.52
1041.123	0.48
1041.546	-1.72
1041.969	-5.72
1042.392	-5.32
1042.815	-7.62
1043.238	-0.72
1043.661	4.98
1044.084	-4.92
1044.507	1.48
1044.93	-1.12
1045.352	-1.92
1045.775	1.98
1046.198	-1.72
1046.621	4.28
1047.043	3.88
1047.466	0.98
1047.889	-7.82
1048.311	0.98
1048.734	-1.62
1049.156	-3.22
1049.579	-1.32
1050.001	-2.72
1050.424	3.28
1050.846	-0.52
1051.269	-0.82
1051.691	-1.02
1052.113	-2.02
1052.536	1.18
1052.958	-0.42
1053.38	-11.22
1053.802	-5.12
1054.225	4.98
1054.647	-4.62
1055.069	-9.22
1055.491	0.68
1055.913	-7.22
1056.335	-1.92
1056.757	-4.12
1057.179	-7.42
1057.601	-3.62
1058.023	3.28
1058.445	-0.62
1058.867	-4.92
1059.289	-8.42
1059.711	-4.02
1060.133	-2.22
1060.555	-4.32
1060.976	-12.12
1061.398	0.78
1061.82	-2.32
1062.241	-2.12
1062.663	-4.92
1063.085	-5.12
1063.506	-1.52
1063.928	-1.52
1064.35	-4.52
1064.771	-3.62
1065.193	-0.72
1065.614	-15.52
1066.035	5.38
1066.457	-3.52
1066.878	-1.52
1067.3	3.18
1067.721	-5.42
1068.142	-9.52
1068.564	-1.02
1068.985	-3.12
1069.406	-1.72
1069.827	2.88
1070.248	-4.82
1070.67	-7.72
1071.091	-10.12
1071.512	-5.92
1071.933	-5.72
1072.354	-2.32
1072.775	-6.02
1073.196	-4.82
1073.617	-3.32
1074.038	-5.42
1074.459	0.48
1074.88	-6.02
1075.3	4.58
1075.721	-11.52
1076.142	1.88
1076.563	-1.02
1076.983	-9.12
1077.404	-6.42
1077.825	-5.52
1078.246	-3.92
1078.666	-8.62
1079.087	-0.92
1079.507	-7.32
1079.928	7.38
1080.348	1.68
1080.769	-9.32
1081.189	-0.02
1081.61	0.18
1082.03	-0.12
1082.451	-4.92
1082.871	0.48
1083.291	-7.62
1083.711	-8.92
1084.132	-3.02
1084.552	-1.32
1084.972	-3.72
1085.392	-7.32
1085.813	-9.22
1086.233	-4.12
1086.653	-2.62
1087.073	-4.02
1087.493	-5.12
1087.913	-2.12
1088.333	-8.02
1088.753	-3.42
1089.173	3.68
1089.593	0.48
1090.013	0.38
1090.433	-0.22
1090.852	-2.72
1091.272	0.28
1091.692	-1.12
1092.112	4.78
1092.531	-6.42
1092.951	-12.22
1093.371	-2.02
1093.79	7.48
1094.21	-1.32
1094.63	-3.42
1095.049	-4.52
1095.469	0.38
1095.888	-1.92
1096.308	-1.22
1096.727	5.68
1097.146	-6.72
1097.566	1.48
1097.985	-2.72
1098.405	-1.82
1098.824	-1.42
1099.243	0.58
1099.662	-2.02
1100.082	4.38
1100.501	2.08
1100.92	-3.02
1101.339	-6.72
1101.758	-2.52
