Data from 20171114-ORNL-Ar_H_NY_Subt18_08-08-14-838.txt Node
Date: Tue Nov 14 08:08:14 EST 2017
User: Ender
Spectrometer: HR+D1039
Trigger mode: 0
Integration Time (sec): 2.730000E-2
Scans to average: 10
Electric dark correction enabled: true
Nonlinearity correction enabled: false
Boxcar width: 0
XAxis mode: Wavelengths
Number of Pixels in Spectrum: 2048
>>>>>Begin Spectral Data<<<<<
187.836	-7.13
188.309	-7.13
188.782	-7.13
189.255	-0.43
189.728	-4.13
190.201	7.27
190.674	0.77
191.147	12.37
191.619	-6.83
192.092	0.07
192.565	1.37
193.038	2.27
193.511	-2.43
193.984	-2.93
194.456	-0.63
194.929	-1.93
195.402	2.27
195.874	-0.03
196.347	-3.63
196.82	-7.63
197.292	3.57
197.765	-1.03
198.237	-4.83
198.71	0.77
199.182	1.37
199.655	-0.73
200.127	2.27
200.6	-1.33
201.072	-2.03
201.544	-5.73
202.017	-9.63
202.489	1.17
202.961	-1.73
203.433	-8.53
203.906	-4.23
204.378	-4.93
204.85	-2.13
205.322	-7.03
205.794	-3.33
206.266	-3.73
206.739	-5.63
207.211	-2.73
207.683	-3.13
208.155	-5.63
208.627	-9.23
209.099	-3.23
209.57	-10.93
210.042	-2.13
210.514	-7.23
210.986	-2.63
211.458	-5.03
211.93	-2.83
212.402	1.07
212.873	-2.53
213.345	-11.53
213.817	-12.03
214.288	-2.43
214.76	-6.23
215.232	-4.83
215.703	-2.23
216.175	-5.13
216.646	-2.23
217.118	-5.63
217.589	-5.23
218.061	1.07
218.532	-8.53
219.004	-4.83
219.475	-6.23
219.946	-5.53
220.418	-8.33
220.889	3.47
221.36	6.87
221.832	-3.33
222.303	-8.13
222.774	-3.83
223.245	-6.23
223.717	-4.93
224.188	-3.23
224.659	-7.33
225.13	-3.73
225.601	-3.13
226.072	-3.53
226.543	-3.73
227.014	-1.93
227.485	-3.93
227.956	-10.73
228.427	-1.23
228.898	-1.23
229.369	-3.93
229.839	2.37
230.31	-6.93
230.781	4.17
231.252	-2.53
231.722	-4.03
232.193	-3.13
232.664	1.67
233.135	0.87
233.605	-0.83
234.076	-5.33
234.546	0.17
235.017	1.37
235.487	2.07
235.958	2.27
236.428	0.57
236.899	2.27
237.369	-1.93
237.84	-0.63
238.31	4.07
238.78	-2.43
239.251	-2.43
239.721	3.27
240.191	0.57
240.662	-7.43
241.132	0.57
241.602	-2.53
242.072	1.67
242.542	10.57
243.013	-0.93
243.483	6.07
243.953	-0.03
244.423	2.07
244.893	-6.13
245.363	2.17
245.833	0.37
246.303	-6.13
246.773	4.77
247.243	0.27
247.712	2.77
248.182	6.77
248.652	6.57
249.122	-2.53
249.592	10.47
250.061	20.37
250.531	25.07
251.001	13.17
251.471	22.77
251.94	21.17
252.41	6.37
252.879	6.07
253.349	13.87
253.818	8.37
254.288	1.37
254.757	-0.93
255.227	-2.23
255.696	2.47
256.166	9.67
256.635	8.77
257.105	9.47
257.574	9.17
258.043	11.07
258.513	10.57
258.982	10.57
259.451	6.37
259.92	11.57
260.389	9.27
260.859	8.57
261.328	14.07
261.797	18.67
262.266	5.57
262.735	7.07
263.204	9.97
263.673	3.17
264.142	3.97
264.611	-3.63
265.08	4.97
265.549	-2.43
266.018	1.37
266.487	-2.83
266.955	-3.43
267.424	2.77
267.893	6.67
268.362	-3.43
268.83	3.97
269.299	14.57
269.768	9.47
270.236	8.27
270.705	3.37
271.174	3.97
271.642	2.67
272.111	7.77
272.579	7.47
273.048	21.57
273.516	26.27
273.985	27.57
274.453	17.07
274.922	19.27
275.39	7.87
275.858	1.77
276.327	3.47
276.795	21.97
277.263	8.87
277.731	30.27
278.2	49.27
278.668	50.37
279.136	39.47
279.604	14.97
280.072	14.17
280.54	14.57
281.008	14.87
281.477	11.67
281.945	9.57
282.413	12.67
282.881	13.37
283.348	6.07
283.816	15.17
284.284	8.27
284.752	16.27
285.22	6.17
285.688	16.67
286.156	20.67
286.623	41.87
287.091	44.17
287.559	26.97
288.026	13.77
288.494	17.67
288.962	5.67
289.429	6.37
289.897	15.97
290.364	11.37
290.832	17.47
291.3	15.37
291.767	20.47
292.234	15.67
292.702	17.07
293.169	20.27
293.637	19.47
294.104	18.57
294.571	9.57
295.039	16.07
295.506	17.87
295.973	9.27
296.44	17.47
296.908	18.07
297.375	14.07
297.842	15.37
298.309	10.67
298.776	8.67
299.243	16.97
299.71	11.37
300.177	19.07
300.644	15.67
301.111	17.27
301.578	13.97
302.045	13.07
302.512	20.37
302.979	18.07
303.446	22.17
303.913	9.57
304.379	15.77
304.846	28.97
305.313	21.87
305.78	18.07
306.246	21.57
306.713	26.97
307.18	20.47
307.646	25.47
308.113	23.97
308.579	24.07
309.046	27.17
309.512	25.07
309.979	14.37
310.445	21.77
310.912	27.17
311.378	26.07
311.845	32.77
312.311	26.47
312.777	31.87
313.244	23.17
313.71	37.47
314.176	30.17
314.642	28.17
315.109	28.27
315.575	31.47
316.041	34.17
316.507	31.07
316.973	40.07
317.439	30.47
317.905	33.57
318.371	32.07
318.837	30.67
319.303	34.07
319.769	31.47
320.235	32.97
320.701	32.17
321.167	39.27
321.633	28.07
322.099	36.67
322.564	44.97
323.03	39.27
323.496	35.37
323.962	33.77
324.427	39.07
324.893	35.97
325.359	34.47
325.824	36.77
326.29	30.27
326.755	37.07
327.221	37.67
327.686	34.27
328.152	40.67
328.617	40.27
329.083	46.07
329.548	49.57
330.014	42.77
330.479	31.97
330.944	44.37
331.41	38.27
331.875	42.47
332.34	39.07
332.805	42.07
333.271	43.27
333.736	36.67
334.201	51.57
334.666	55.87
335.131	48.37
335.596	46.77
336.061	46.47
336.526	43.37
336.991	47.47
337.456	47.87
337.921	50.07
338.386	43.07
338.851	41.37
339.316	44.07
339.781	44.47
340.246	45.57
340.711	36.57
341.175	49.87
341.64	40.57
342.105	43.67
342.569	48.27
343.034	53.97
343.499	54.37
343.963	51.57
344.428	64.77
344.893	56.47
345.357	58.57
345.822	55.27
346.286	70.57
346.751	68.37
347.215	63.37
347.679	71.27
348.144	97.77
348.608	82.27
349.073	64.77
349.537	67.97
350.001	79.97
350.465	84.17
350.93	84.47
351.394	80.37
351.858	69.37
352.322	85.67
352.786	79.67
353.25	106.27
353.715	103.47
354.179	95.27
354.643	120.17
355.107	122.97
355.571	104.47
356.035	103.77
356.498	113.57
356.962	115.27
357.426	123.57
357.89	117.57
358.354	84.37
358.818	83.67
359.281	74.17
359.745	73.97
360.209	67.47
360.673	68.07
361.136	72.97
361.6	77.07
362.064	84.47
362.527	87.17
362.991	92.87
363.454	75.57
363.918	77.77
364.381	79.07
364.845	81.87
365.308	80.47
365.772	80.17
366.235	79.77
366.698	84.67
367.162	85.97
367.625	78.57
368.088	88.67
368.552	86.77
369.015	85.07
369.478	95.67
369.941	97.87
370.404	93.17
370.867	98.97
371.331	101.57
371.794	110.97
372.257	113.47
372.72	115.17
373.183	109.37
373.646	99.37
374.109	100.57
374.572	106.07
375.035	112.07
375.497	108.57
375.96	103.17
376.423	97.67
376.886	106.47
377.349	105.97
377.811	97.27
378.274	98.97
378.737	104.07
379.199	99.47
379.662	114.27
380.125	110.17
380.587	112.97
381.05	115.37
381.512	124.97
381.975	138.67
382.437	125.97
382.9	122.37
383.362	125.57
383.825	142.57
384.287	146.47
384.75	141.67
385.212	141.87
385.674	136.87
386.136	132.47
386.599	124.77
387.061	124.67
387.523	128.97
387.985	129.67
388.447	136.07
388.91	141.27
389.372	160.77
389.834	152.57
390.296	153.47
390.758	156.47
391.22	173.87
391.682	213.27
392.144	296.97
392.606	234.87
393.068	165.17
393.529	167.67
393.991	153.67
394.453	145.07
394.915	157.67
395.377	194.87
395.838	215.57
396.3	158.17
396.762	139.07
397.224	132.17
397.685	127.27
398.147	134.17
398.608	130.47
399.07	134.37
399.531	135.07
399.993	140.57
400.454	147.27
400.916	143.57
401.377	141.37
401.839	152.67
402.3	148.27
402.762	164.57
403.223	176.67
403.684	170.17
404.145	161.57
404.607	157.47
405.068	165.87
405.529	168.77
405.99	182.17
406.451	175.47
406.913	169.27
407.374	166.07
407.835	156.47
408.296	170.17
408.757	171.87
409.218	185.37
409.679	182.87
410.14	178.37
410.601	172.17
411.062	173.97
411.522	191.87
411.983	186.57
412.444	175.37
412.905	181.87
413.366	177.67
413.826	193.17
414.287	210.47
414.748	259.97
415.208	244.67
415.669	205.77
416.13	208.77
416.59	197.57
417.051	211.47
417.511	215.37
417.972	240.88
418.432	245.67
418.893	288.27
419.353	249.88
419.814	202.87
420.274	176.47
420.734	178.77
421.195	204.57
421.655	198.88
422.115	193.77
422.576	191.07
423.036	195.57
423.496	201.17
423.956	214.77
424.416	224.87
424.876	264.67
425.336	256.17
425.797	260.67
426.257	260.07
426.717	237.07
427.177	229.67
427.637	222.97
428.097	224.97
428.556	245.37
429.016	265.87
429.476	262.17
429.936	277.67
430.396	280.07
430.856	291.17
431.315	317.67
431.775	344.97
432.235	380.17
432.694	346.27
433.154	360.97
433.614	386.77
434.073	337.97
434.533	293.97
434.993	270.37
435.452	284.87
435.912	290.67
436.371	287.38
436.83	285.38
437.29	266.17
437.749	250.77
438.209	247.17
438.668	277.07
439.127	290.07
439.587	262.17
440.046	248.97
440.505	255.27
440.964	277.37
441.424	324.17
441.883	306.57
442.342	257.27
442.801	221.57
443.26	224.97
443.719	223.57
444.178	215.87
444.637	211.07
445.096	214.47
445.555	220.87
446.014	223.37
446.473	225.37
446.932	228.87
447.391	226.87
447.849	229.37
448.308	220.67
448.767	220.57
449.226	235.67
449.685	237.07
450.143	241.27
450.602	234.87
451.061	225.77
451.519	227.88
451.978	232.07
452.436	230.67
452.895	240.17
453.353	252.77
453.812	239.57
454.27	243.07
454.729	235.67
455.187	227.57
455.646	244.97
456.104	249.87
456.562	259.77
457.021	267.67
457.479	257.67
457.937	269.47
458.395	265.77
458.854	249.57
459.312	245.77
459.77	267.57
460.228	255.57
460.686	242.57
461.144	242.57
461.602	238.47
462.06	245.17
462.518	250.07
462.976	244.67
463.434	246.87
463.892	263.07
464.35	265.97
464.808	287.77
465.266	261.07
465.724	260.88
466.181	267.27
466.639	270.57
467.097	284.47
467.555	298.57
468.012	301.37
468.47	300.47
468.928	316.07
469.385	335.47
469.843	339.47
470.3	341.38
470.758	357.67
471.215	380.37
471.673	404.87
472.13	397.77
472.588	419.67
473.045	365.47
473.503	364.07
473.96	392.07
474.417	395.27
474.875	428.07
475.332	472.57
475.789	458.47
476.246	455.97
476.704	486.17
477.161	506.17
477.618	520.07
478.075	549.57
478.532	608.77
478.989	686.17
479.446	806.67
479.903	765.17
480.36	804.37
480.817	851.77
481.274	962.17
481.731	1057.87
482.188	1153.07
482.645	1286.17
483.102	1385.37
483.558	1533.47
484.015	1583.67
484.472	1547.97
484.929	1494.17
485.385	1449.77
485.842	1408.18
486.299	1334.38
486.755	1278.97
487.212	1076.47
487.668	906.77
488.125	824.07
488.582	768.67
489.038	737.27
489.494	688.97
489.951	672.97
490.407	654.38
490.864	630.57
491.32	628.67
491.776	636.77
492.233	628.77
492.689	596.47
493.145	596.07
493.602	587.87
494.058	610.17
494.514	615.57
494.97	620.57
495.426	631.07
495.882	603.37
496.338	599.17
496.794	608.07
497.251	609.27
497.707	624.57
498.163	619.77
498.618	622.97
499.074	629.57
499.53	665.07
499.986	667.67
500.442	638.97
500.898	620.57
501.354	615.07
501.809	636.07
502.265	633.17
502.721	657.27
503.177	665.38
503.632	651.07
504.088	675.27
504.543	705.87
504.999	701.57
505.455	636.17
505.91	618.77
506.366	620.07
506.821	614.97
507.277	608.77
507.732	604.07
508.187	606.37
508.643	615.37
509.098	621.47
509.553	638.17
510.009	652.17
510.464	653.37
510.919	674.97
511.375	679.67
511.83	689.87
512.285	701.37
512.74	740.67
513.195	769.47
513.65	761.27
514.105	751.67
514.56	751.97
515.015	780.27
515.47	797.47
515.925	769.77
516.38	769.17
516.835	777.97
517.29	776.67
517.745	760.97
518.2	745.17
518.655	730.47
519.109	725.77
519.564	727.47
520.019	716.77
520.474	711.17
520.928	707.07
521.383	705.87
521.838	691.07
522.292	701.27
522.747	701.97
523.201	679.67
523.656	678.27
524.11	684.17
524.565	686.27
525.019	679.37
525.474	695.97
525.928	689.57
526.382	674.27
526.837	683.67
527.291	691.97
527.745	682.07
528.2	680.37
528.654	677.87
529.108	677.67
529.562	668.87
530.016	674.88
530.47	680.67
530.925	671.97
531.379	691.47
531.833	690.87
532.287	683.67
532.741	691.97
533.195	690.77
533.649	701.17
534.103	703.57
534.556	682.17
535.01	690.97
535.464	683.37
535.918	710.27
536.372	705.17
536.826	710.27
537.279	691.27
537.733	697.57
538.187	703.17
538.64	700.17
539.094	716.27
539.548	715.77
540.001	712.67
540.455	705.57
540.908	709.87
541.362	726.87
541.815	730.87
542.269	745.77
542.722	741.77
543.175	755.27
543.629	757.97
544.082	768.97
544.536	763.87
544.989	761.77
545.442	783.67
545.895	777.57
546.349	772.47
546.802	780.57
547.255	779.77
547.708	789.17
548.161	802.47
548.614	797.67
549.067	815.77
549.52	798.87
549.973	787.77
550.426	788.67
550.879	783.07
551.332	780.97
551.785	789.27
552.238	789.97
552.691	795.38
553.144	822.87
553.596	830.17
554.049	848.77
554.502	876.87
554.955	896.77
555.407	884.27
555.86	883.17
556.313	868.77
556.765	853.57
557.218	854.97
557.67	856.57
558.123	863.97
558.576	851.17
559.028	860.57
559.48	865.27
559.933	843.77
560.385	812.27
560.838	788.07
561.29	776.77
561.742	772.77
562.195	749.37
562.647	751.17
563.099	771.57
563.551	759.07
564.004	764.97
564.456	769.27
564.908	745.37
565.36	729.97
565.812	725.17
566.264	710.07
566.716	712.67
567.168	708.57
567.62	715.47
568.072	694.47
568.524	681.57
568.976	666.77
569.428	666.67
569.88	662.37
570.332	674.27
570.784	671.87
571.235	665.37
571.687	682.37
572.139	690.07
572.59	698.77
573.042	702.47
573.494	698.17
573.945	689.57
574.397	683.67
574.849	676.77
575.3	687.77
575.752	673.47
576.203	668.37
576.655	675.37
577.106	649.07
577.557	653.77
578.009	664.67
578.46	653.67
578.912	650.27
579.363	661.07
579.814	652.47
580.265	649.27
580.717	644.47
581.168	661.87
581.619	665.57
582.07	672.47
582.521	667.37
582.972	661.17
583.423	664.57
583.875	673.47
584.326	694.17
584.777	747.07
585.227	823.57
585.678	916.07
586.129	996.77
586.58	1074.88
587.031	1172.28
587.482	1310.57
587.933	1489.07
588.384	1297.97
588.834	963.97
589.285	796.27
589.736	789.87
590.186	763.37
590.637	759.47
591.088	730.77
591.538	721.77
591.989	728.77
592.439	720.07
592.89	719.37
593.34	700.67
593.791	704.07
594.241	694.67
594.692	707.77
595.142	699.97
595.593	694.37
596.043	687.07
596.493	714.47
596.943	702.67
597.394	705.77
597.844	704.17
598.294	721.67
598.744	749.27
599.195	769.47
599.645	810.97
600.095	852.87
600.545	905.67
600.995	962.87
601.445	1006.17
601.895	1070.88
602.345	1115.38
602.795	1083.97
603.245	1038.67
603.695	996.67
604.145	930.87
604.594	890.27
605.044	839.37
605.494	777.77
605.944	732.57
606.393	724.07
606.843	718.17
607.293	720.17
607.743	723.67
608.192	741.67
608.642	748.47
609.091	758.67
609.541	767.87
609.99	759.38
610.44	764.88
610.889	710.88
611.339	694.17
611.788	682.77
612.238	696.27
612.687	727.17
613.136	724.17
613.586	738.37
614.035	731.47
614.484	749.87
614.933	754.17
615.383	743.07
615.832	731.77
616.281	713.07
616.73	682.87
617.179	654.17
617.628	645.77
618.077	622.57
618.526	609.87
618.975	605.17
619.424	619.37
619.873	611.17
620.322	613.77
620.771	595.57
621.22	605.17
621.669	588.57
622.118	580.07
622.567	573.88
623.015	557.27
623.464	551.77
623.913	554.37
624.361	550.47
624.81	543.07
625.259	544.97
625.707	550.27
626.156	549.17
626.604	563.67
627.053	554.57
627.501	552.17
627.95	563.97
628.398	573.57
628.847	563.47
629.295	555.27
629.744	566.87
630.192	563.37
630.64	555.57
631.089	554.57
631.537	576.77
631.985	587.77
632.433	596.67
632.881	609.88
633.33	668.47
633.778	640.37
634.226	566.07
634.674	567.38
635.122	567.17
635.57	593.67
636.018	632.07
636.466	583.57
636.914	550.17
637.362	562.77
637.81	569.67
638.258	568.67
638.705	573.07
639.153	608.97
639.601	609.97
640.049	641.07
640.497	667.87
640.944	682.27
641.392	634.27
641.84	605.87
642.287	569.17
642.735	569.67
643.182	569.67
643.63	572.27
644.078	578.57
644.525	584.97
644.973	595.67
645.42	610.37
645.867	620.87
646.315	628.57
646.762	656.47
647.21	686.57
647.657	704.57
648.104	747.47
648.551	763.27
648.999	825.57
649.446	909.27
649.893	995.87
650.34	1157.27
650.787	1395.07
651.234	1740.77
651.682	2283.07
652.129	3130.38
652.576	4500.28
653.023	6666.57
653.47	9096.87
653.917	11292.17
654.363	12897.88
654.81	14211.57
655.257	13530.98
655.704	8821.47
656.151	5226.27
656.598	3375.98
657.044	2399.27
657.491	1850.77
657.938	1470.47
658.385	1242.47
658.831	1078.07
659.278	946.77
659.724	846.57
660.171	782.37
660.618	714.37
661.064	679.47
661.511	659.67
661.957	653.07
662.404	642.07
662.85	651.07
663.296	619.97
663.743	556.47
664.189	531.77
664.635	532.37
665.082	528.37
665.528	520.47
665.974	516.97
666.42	510.67
666.867	504.67
667.313	484.77
667.759	480.57
668.205	483.77
668.651	484.88
669.097	480.87
669.543	498.97
669.989	469.77
670.435	449.07
670.881	444.57
671.327	455.67
671.773	466.57
672.219	478.27
672.665	542.27
673.11	578.77
673.556	618.17
674.002	654.17
674.448	653.27
674.893	532.87
675.339	465.27
675.785	429.67
676.23	417.67
676.676	379.27
677.122	386.67
677.567	365.07
678.013	356.87
678.458	354.57
678.904	352.47
679.349	348.97
679.794	356.57
680.24	348.67
680.685	347.57
681.131	344.47
681.576	337.37
682.021	345.77
682.466	330.57
682.912	346.67
683.357	349.07
683.802	376.47
684.247	413.57
684.692	458.27
685.137	497.97
685.583	532.17
686.028	554.67
686.473	504.37
686.918	436.57
687.363	416.07
687.807	391.97
688.252	366.57
688.697	343.67
689.142	333.57
689.587	333.87
690.032	328.67
690.477	332.77
690.921	341.97
691.366	385.17
691.811	403.37
692.255	419.17
692.7	453.47
693.145	498.47
693.589	701.67
694.034	1130.57
694.478	1539.07
694.923	1703.47
695.367	2209.98
695.812	1170.27
696.256	500.57
696.701	369.47
697.145	337.97
697.59	328.27
698.034	321.37
698.478	327.67
698.922	325.17
699.367	332.47
699.811	334.37
700.255	354.17
700.699	373.67
701.143	421.97
701.588	474.07
702.032	516.37
702.476	504.27
702.92	482.97
703.364	495.37
703.808	635.57
704.252	1047.88
704.696	1450.57
705.14	1649.18
705.584	2077.48
706.027	1038.57
706.471	511.27
706.915	395.37
707.359	335.67
707.803	312.27
708.246	310.07
708.69	308.87
709.134	309.97
709.577	304.57
710.021	317.87
710.465	303.37
710.908	299.07
711.352	303.67
711.795	310.77
712.239	353.37
712.682	378.57
713.126	413.57
713.569	462.27
714.012	376.57
714.456	322.77
714.899	295.57
715.342	267.77
715.786	267.77
716.229	261.47
716.672	252.57
717.115	246.37
717.558	246.27
718.002	249.77
718.445	262.77
718.888	291.97
719.331	292.38
719.774	309.97
720.217	305.27
720.66	282.67
721.103	264.37
721.546	256.97
721.989	243.77
722.432	233.77
722.874	230.37
723.317	228.07
723.76	235.37
724.203	263.37
724.645	322.57
725.088	450.27
725.531	571.57
725.974	641.87
726.416	538.27
726.859	309.37
727.301	241.77
727.744	236.27
728.187	236.88
728.629	233.57
729.071	244.87
729.514	256.67
729.956	274.87
730.399	281.17
730.841	281.97
731.283	276.38
731.726	257.97
732.168	262.37
732.61	261.57
733.053	283.47
733.495	316.88
733.937	356.27
734.379	390.57
734.821	427.07
735.263	539.27
735.705	841.67
736.148	1600.87
736.59	2564.57
737.032	2971.38
737.474	2434.57
737.916	789.87
738.357	427.17
738.799	319.47
739.241	298.17
739.683	282.07
740.125	293.77
740.567	297.37
741.008	314.77
741.45	311.97
741.892	313.27
742.334	340.47
742.775	350.27
743.217	333.07
743.658	266.57
744.1	251.27
744.542	260.27
744.983	305.27
745.425	330.77
745.866	342.87
746.307	281.57
746.749	280.97
747.19	326.07
747.632	465.07
748.073	901.37
748.514	1891.28
748.956	2813.08
749.397	3552.67
749.838	2942.78
750.279	2881.78
750.72	1465.97
751.162	540.27
751.603	314.87
752.044	247.47
752.485	215.27
752.926	211.47
753.367	194.17
753.808	191.07
754.249	188.27
754.69	183.57
755.131	181.37
755.572	185.07
756.013	179.77
756.453	181.17
756.894	187.57
757.335	188.07
757.776	195.97
758.216	193.77
758.657	203.47
759.098	197.47
759.538	223.67
759.979	266.57
760.42	377.37
760.86	733.27
761.301	1891.28
761.741	4429.18
762.182	6219.08
762.622	4385.57
763.063	1286.67
763.503	541.97
763.943	353.47
764.384	344.27
764.824	407.77
765.264	436.07
765.705	311.87
766.145	212.37
766.585	185.37
767.025	172.57
767.465	188.67
767.906	245.17
768.346	319.47
768.786	347.87
769.226	265.67
769.666	321.27
770.106	636.57
770.546	1586.07
770.986	2593.88
771.426	2303.28
771.866	776.67
772.306	328.27
772.745	210.67
773.185	174.67
773.625	175.77
774.065	171.07
774.505	202.37
774.944	311.57
775.384	701.97
775.824	1230.07
776.263	1179.67
776.703	507.57
777.142	222.77
777.582	157.67
778.021	135.27
778.461	140.37
778.9	133.77
779.34	132.07
779.779	119.47
780.219	114.37
780.658	104.27
781.097	102.67
781.537	113.17
781.976	109.57
782.415	110.37
782.855	99.97
783.294	106.77
783.733	107.67
784.172	110.17
784.611	103.27
785.05	115.37
785.489	115.17
785.928	118.27
786.367	115.27
786.806	112.27
787.245	136.27
787.684	136.77
788.123	145.97
788.562	127.47
789.001	121.27
789.44	124.97
789.879	116.07
790.317	123.57
790.756	127.97
791.195	127.37
791.634	145.47
792.072	202.07
792.511	373.47
792.95	1034.47
793.388	2109.88
793.827	1883.27
794.265	669.47
794.704	282.07
795.142	183.47
795.581	154.07
796.019	138.37
796.458	124.97
796.896	126.27
797.334	134.17
797.773	153.07
798.211	222.57
798.649	441.27
799.087	1031.77
799.526	1587.67
799.964	1996.97
800.402	1953.17
800.84	743.27
801.278	296.17
801.716	179.07
802.154	160.07
802.592	142.37
803.03	145.97
803.468	133.57
803.906	137.27
804.344	140.77
804.782	135.97
805.22	134.47
805.658	131.87
806.096	148.07
806.533	145.07
806.971	169.17
807.409	212.57
807.847	321.27
808.284	678.67
808.722	1883.97
809.16	3223.27
809.597	3129.68
810.035	5371.28
810.472	5537.48
810.91	2035.18
811.347	779.27
811.785	394.27
812.222	250.87
812.66	198.97
813.097	157.17
813.535	134.17
813.972	121.07
814.409	116.87
814.846	107.37
815.284	104.77
815.721	90.97
816.158	100.17
816.595	115.07
817.032	182.77
817.47	195.37
817.907	163.97
818.344	151.07
818.781	121.77
819.218	99.47
819.655	122.27
820.092	187.97
820.529	208.67
820.966	167.67
821.403	132.47
821.839	104.97
822.276	99.27
822.713	122.07
823.15	126.67
823.587	113.17
824.023	150.77
824.46	315.57
824.897	903.47
825.333	1318.87
825.77	573.57
826.206	230.67
826.643	130.37
827.08	101.97
827.516	90.47
827.953	75.07
828.389	78.97
828.825	69.27
829.262	59.47
829.698	59.97
830.135	70.87
830.571	60.57
831.007	68.97
831.443	64.77
831.88	57.87
832.316	59.07
832.752	63.67
833.188	63.97
833.624	63.27
834.06	70.47
834.497	72.17
834.933	73.87
835.369	74.57
835.805	63.97
836.241	77.67
836.677	78.97
837.112	82.57
837.548	110.47
837.984	129.77
838.42	201.47
838.856	499.67
839.292	1534.27
839.727	2228.68
840.163	1053.27
840.599	933.87
841.034	2012.47
841.47	2035.78
841.906	754.67
842.341	333.97
842.777	232.88
843.212	320.47
843.648	310.47
844.083	155.97
844.519	93.97
844.954	76.37
845.39	56.47
845.825	59.77
846.261	55.37
846.696	52.17
847.131	55.87
847.566	55.77
848.002	51.37
848.437	55.57
848.872	60.97
849.307	63.17
849.742	87.67
850.177	183.67
850.613	560.57
851.048	871.97
851.483	370.27
851.918	158.27
852.353	85.97
852.788	57.47
853.223	56.47
853.657	50.37
854.092	46.27
854.527	38.47
854.962	40.67
855.397	46.57
855.832	49.07
856.266	46.37
856.701	42.47
857.136	35.67
857.57	38.07
858.005	43.97
858.44	56.07
858.874	43.27
859.309	52.87
859.743	39.67
860.178	44.87
860.612	44.27
861.047	47.87
861.481	68.37
861.915	70.77
862.35	54.57
862.784	32.07
863.218	34.27
863.653	37.47
864.087	43.67
864.521	51.97
864.955	71.07
865.39	157.17
865.824	166.67
866.258	111.77
866.692	163.87
867.126	171.17
867.56	106.77
867.994	54.87
868.428	36.17
868.862	45.67
869.296	47.97
869.73	50.57
870.164	51.17
870.598	44.97
871.031	35.17
871.465	34.07
871.899	31.57
872.333	24.97
872.766	22.27
873.2	20.67
873.634	30.97
874.067	25.17
874.501	29.47
874.935	37.37
875.368	29.67
875.802	29.07
876.235	23.47
876.669	23.57
877.102	19.27
877.535	23.37
877.969	14.97
878.402	22.27
878.836	18.57
879.269	24.07
879.702	23.47
880.135	19.97
880.569	19.87
881.002	29.57
881.435	22.57
881.868	19.87
882.301	26.67
882.734	11.77
883.167	23.07
883.601	17.47
884.034	23.47
884.467	16.17
884.899	20.57
885.332	20.87
885.765	10.57
886.198	16.37
886.631	18.57
887.064	22.77
887.497	21.17
887.929	20.97
888.362	11.57
888.795	9.97
889.228	15.57
889.66	13.07
890.093	16.77
890.526	15.07
890.958	12.77
891.391	16.17
891.823	20.17
892.256	14.57
892.688	9.97
893.121	15.97
893.553	14.57
893.985	23.97
894.418	16.97
894.85	13.87
895.282	12.07
895.715	15.97
896.147	13.67
896.579	14.87
897.011	11.47
897.444	21.87
897.876	13.07
898.308	21.07
898.74	16.67
899.172	9.57
899.604	22.87
900.036	18.07
900.468	15.27
900.9	9.87
901.332	13.67
901.764	18.07
902.196	11.67
902.628	18.27
903.06	12.57
903.491	27.57
903.923	21.77
904.355	19.67
904.787	19.47
905.218	16.77
905.65	23.77
906.082	8.47
906.513	11.17
906.945	14.77
907.376	14.47
907.808	22.87
908.239	18.17
908.671	18.07
909.102	24.17
909.534	24.17
909.965	55.07
910.397	95.47
910.828	306.37
911.259	461.97
911.691	211.47
912.122	110.27
912.553	51.77
912.984	31.37
913.415	28.37
913.847	19.27
914.278	15.07
914.709	11.67
915.14	20.97
915.571	17.67
916.002	12.07
916.433	16.47
916.864	19.67
917.295	14.27
917.726	17.67
918.157	15.87
918.587	26.07
919.018	20.47
919.449	18.57
919.88	26.67
920.311	34.17
920.741	48.97
921.172	170.97
921.603	145.27
922.033	75.07
922.464	45.97
922.895	22.27
923.325	23.37
923.756	16.37
924.186	15.77
924.617	28.27
925.047	40.67
925.478	45.37
925.908	46.67
926.338	20.77
926.769	21.37
927.199	18.07
927.629	7.97
928.06	15.07
928.49	13.17
928.92	17.97
929.35	8.67
929.78	10.67
930.21	12.37
930.641	9.07
931.071	6.17
931.501	4.97
931.931	6.07
932.361	8.27
932.791	1.17
933.221	1.57
933.651	2.67
934.08	18.27
934.51	31.17
934.94	7.07
935.37	7.07
935.8	13.77
936.229	8.87
936.659	13.07
937.089	4.17
937.519	19.37
937.948	20.67
938.378	16.97
938.807	5.37
939.237	9.17
939.666	7.87
940.096	-2.43
940.525	0.97
940.955	3.87
941.384	2.77
941.814	-10.53
942.243	0.27
942.672	4.27
943.102	1.47
943.531	-1.33
943.96	9.17
944.39	1.97
944.819	-3.33
945.248	4.47
945.677	-1.73
946.106	6.17
946.535	3.17
946.964	1.77
947.393	0.17
947.822	0.67
948.251	-6.93
948.68	-0.53
949.109	5.37
949.538	7.07
949.967	1.67
950.396	-0.63
950.825	0.67
951.254	-0.63
951.682	-7.03
952.111	5.17
952.54	1.57
952.969	-6.23
953.397	-5.73
953.826	3.97
954.254	-6.33
954.683	3.77
955.112	-6.23
955.54	2.37
955.969	4.87
956.397	-3.43
956.826	-4.63
957.254	0.07
957.682	6.47
958.111	-5.23
958.539	0.97
958.967	-2.43
959.396	2.87
959.824	7.27
960.252	-3.53
960.68	-3.83
961.109	-5.63
961.537	1.37
961.965	-6.63
962.393	-1.13
962.821	-7.23
963.249	-0.13
963.677	5.87
964.105	8.07
964.533	50.07
964.961	41.37
965.389	20.77
965.817	8.97
966.245	8.07
966.672	-1.83
967.1	-5.63
967.528	2.87
967.956	-3.63
968.383	2.97
968.811	-0.33
969.239	-4.23
969.666	0.87
970.094	3.47
970.522	1.17
970.949	-0.33
971.377	-8.53
971.804	1.37
972.232	5.07
972.659	3.97
973.087	-2.13
973.514	0.97
973.941	-4.53
974.369	3.07
974.796	-3.03
975.223	0.67
975.651	0.17
976.078	1.87
976.505	-2.83
976.932	7.17
977.359	17.87
977.786	15.87
978.214	3.77
978.641	-3.23
979.068	-4.33
979.495	-2.13
979.922	-0.83
980.349	-5.33
980.776	1.37
981.202	-4.73
981.629	5.87
982.056	6.27
982.483	2.77
982.91	5.17
983.337	-4.43
983.763	-2.63
984.19	-8.63
984.617	-3.73
985.043	-6.33
985.47	-2.83
985.897	-3.23
986.323	-6.23
986.75	4.07
987.176	0.97
987.603	2.57
988.029	1.37
988.456	0.67
988.882	-0.23
989.308	-3.53
989.735	-5.13
990.161	-1.53
990.587	-8.13
991.014	-0.33
991.44	7.57
991.866	-5.13
992.292	2.87
992.719	-3.93
993.145	4.87
993.571	-7.13
993.997	-3.33
994.423	-1.13
994.849	-8.03
995.275	0.87
995.701	-4.53
996.127	-3.03
996.553	-3.33
996.979	-5.13
997.405	-2.93
997.83	-0.23
998.256	-6.93
998.682	-6.33
999.108	-10.73
999.534	-4.63
999.959	-5.53
1000.385	-5.33
1000.811	-3.93
1001.236	-8.33
1001.662	-1.23
1002.087	-7.83
1002.513	-5.63
1002.938	1.17
1003.364	-1.93
1003.789	4.07
1004.215	-1.23
1004.64	1.17
1005.066	-1.53
1005.491	3.87
1005.916	-2.83
1006.342	-6.73
1006.767	-8.93
1007.192	3.27
1007.617	-3.03
1008.042	-2.23
1008.468	-5.33
1008.893	-4.13
1009.318	-2.23
1009.743	-5.53
1010.168	1.47
1010.593	-0.83
1011.018	-6.33
1011.443	-2.03
1011.868	-0.63
1012.293	-1.73
1012.718	-9.93
1013.143	1.77
1013.567	-1.33
1013.992	-3.63
1014.417	-14.53
1014.842	1.17
1015.267	-2.43
1015.691	-4.43
1016.116	6.67
1016.541	-6.43
1016.965	-2.13
1017.39	1.77
1017.814	0.07
1018.239	0.07
1018.663	-7.83
1019.088	-10.03
1019.512	2.97
1019.937	-1.23
1020.361	-3.93
1020.785	-9.73
1021.21	-3.53
1021.634	3.87
1022.058	-3.13
1022.483	10.37
1022.907	-1.03
1023.331	-4.83
1023.755	0.07
1024.179	-0.73
1024.604	-5.63
1025.028	-7.43
1025.452	-5.13
1025.876	-4.43
1026.3	0.47
1026.724	-11.93
1027.148	-8.63
1027.572	-7.23
1027.996	-3.53
1028.42	-3.83
1028.843	-4.43
1029.267	-7.13
1029.691	-6.63
1030.115	-4.53
1030.539	-7.33
1030.962	-9.93
1031.386	-10.03
1031.81	-1.43
1032.233	3.37
1032.657	-3.53
1033.08	-0.93
1033.504	-1.63
1033.927	-3.23
1034.351	-0.23
1034.774	-6.43
1035.198	-4.53
1035.621	-9.43
1036.045	-3.33
1036.468	1.87
1036.891	-14.63
1037.315	-16.33
1037.738	-8.03
1038.161	-1.23
1038.584	-6.93
1039.008	-10.23
1039.431	-6.83
1039.854	-6.13
1040.277	-10.83
1040.7	-15.63
1041.123	-0.33
1041.546	-2.23
1041.969	-0.73
1042.392	-7.03
1042.815	-0.53
1043.238	-0.43
1043.661	1.87
1044.084	-3.03
1044.507	-9.23
1044.93	-6.23
1045.352	-7.53
1045.775	-2.03
1046.198	0.27
1046.621	-3.23
1047.043	-4.23
1047.466	6.97
1047.889	-1.83
1048.311	-1.13
1048.734	-8.83
1049.156	-3.93
1049.579	1.07
1050.001	-2.23
1050.424	-2.53
1050.846	-4.63
1051.269	-4.63
1051.691	-3.73
1052.113	-0.33
1052.536	-1.93
1052.958	0.07
1053.38	-0.83
1053.802	-8.23
1054.225	-0.43
1054.647	-10.93
1055.069	-4.03
1055.491	0.77
1055.913	-7.03
1056.335	-5.63
1056.757	-9.03
1057.179	-10.03
1057.601	-4.63
1058.023	-1.03
1058.445	-10.13
1058.867	-4.23
1059.289	-9.33
1059.711	-4.23
1060.133	-2.23
1060.555	-3.73
1060.976	-9.23
1061.398	-12.83
1061.82	-2.03
1062.241	-0.83
1062.663	-3.73
1063.085	-8.03
1063.506	-1.43
1063.928	-1.83
1064.35	-1.23
1064.771	-10.93
1065.193	-7.63
1065.614	-8.13
1066.035	-5.53
1066.457	-5.13
1066.878	0.87
1067.3	-6.63
1067.721	-9.63
1068.142	-5.23
1068.564	-6.93
1068.985	-2.93
1069.406	-4.83
1069.827	-3.23
1070.248	-4.23
1070.67	-13.33
1071.091	-10.33
1071.512	-3.63
1071.933	-10.23
1072.354	-5.93
1072.775	-10.13
1073.196	-8.33
1073.617	3.47
1074.038	-5.63
1074.459	-0.43
1074.88	0.87
1075.3	5.47
1075.721	-6.83
1076.142	3.57
1076.563	-5.73
1076.983	-10.33
1077.404	-4.73
1077.825	-10.53
1078.246	-3.33
1078.666	-9.73
1079.087	-8.43
1079.507	-9.83
1079.928	-3.43
1080.348	5.17
1080.769	-6.83
1081.189	-0.03
1081.61	-0.93
1082.03	-9.83
1082.451	-6.03
1082.871	-3.03
1083.291	-2.93
1083.711	-7.53
1084.132	-8.73
1084.552	-8.83
1084.972	-2.43
1085.392	-4.53
1085.813	-10.03
1086.233	-10.33
1086.653	-6.23
1087.073	-3.63
1087.493	-9.13
1087.913	-8.83
1088.333	-6.63
1088.753	-2.83
1089.173	-0.53
1089.593	-5.13
1090.013	1.87
1090.433	5.37
1090.852	-7.63
1091.272	-3.53
1091.692	-1.93
1092.112	-1.63
1092.531	-4.83
1092.951	-10.83
1093.371	-4.73
1093.79	2.97
1094.21	-12.23
1094.63	-7.43
1095.049	-8.63
1095.469	-0.13
1095.888	-1.83
1096.308	2.87
1096.727	-1.13
1097.146	-6.33
1097.566	3.87
1097.985	-10.13
1098.405	-1.83
1098.824	-1.13
1099.243	-4.13
1099.662	-8.33
1100.082	-7.33
1100.501	-0.73
1100.92	-4.23
1101.339	-5.83
1101.758	-6.93
