Data from 20171114-ORNL-Ar_H_NY_Subt18_08-08-12-654.txt Node
Date: Tue Nov 14 08:08:12 EST 2017
User: Ender
Spectrometer: HR+D1039
Trigger mode: 0
Integration Time (sec): 2.730000E-2
Scans to average: 10
Electric dark correction enabled: true
Nonlinearity correction enabled: false
Boxcar width: 0
XAxis mode: Wavelengths
Number of Pixels in Spectrum: 2048
>>>>>Begin Spectral Data<<<<<
187.836	2.02
188.309	2.02
188.782	2.02
189.255	3.22
189.728	-1.48
190.201	4.02
190.674	-0.38
191.147	4.82
191.619	-8.68
192.092	1.62
192.565	2.32
193.038	0.12
193.511	-0.08
193.984	0.32
194.456	-1.88
194.929	-4.38
195.402	0.72
195.874	-2.38
196.347	-0.98
196.82	-6.38
197.292	5.82
197.765	-4.08
198.237	-8.68
198.71	3.22
199.182	-2.78
199.655	3.62
200.127	-1.68
200.6	-5.68
201.072	-1.08
201.544	-4.18
202.017	-4.38
202.489	3.72
202.961	-3.38
203.433	-8.38
203.906	-2.78
204.378	-11.78
204.85	-2.38
205.322	-7.78
205.794	-2.88
206.266	-7.78
206.739	-6.98
207.211	0.42
207.683	-3.38
208.155	-11.68
208.627	-9.28
209.099	-0.98
209.57	-7.78
210.042	3.82
210.514	-3.78
210.986	-7.28
211.458	-11.08
211.93	-1.98
212.402	3.82
212.873	-4.58
213.345	-10.18
213.817	-11.68
214.288	-8.88
214.76	-12.38
215.232	-6.38
215.703	-2.58
216.175	-5.08
216.646	-3.48
217.118	-6.38
217.589	0.62
218.061	-5.28
218.532	-3.98
219.004	-5.58
219.475	-6.38
219.946	-4.18
220.418	-9.88
220.889	3.42
221.36	2.02
221.832	2.12
222.303	-10.28
222.774	-4.98
223.245	-10.28
223.717	-2.88
224.188	-5.68
224.659	-12.28
225.13	-5.58
225.601	-0.88
226.072	2.32
226.543	-0.08
227.014	4.52
227.485	-5.28
227.956	-4.58
228.427	-2.98
228.898	3.82
229.369	4.02
229.839	-1.18
230.31	0.12
230.781	1.32
231.252	-3.48
231.722	-1.18
232.193	-2.98
232.664	-1.78
233.135	-0.08
233.605	0.92
234.076	-2.68
234.546	5.62
235.017	4.62
235.487	4.02
235.958	-2.08
236.428	-2.88
236.899	0.72
237.369	5.32
237.84	-1.78
238.31	9.82
238.78	-0.18
239.251	-1.28
239.721	0.72
240.191	-10.08
240.662	4.92
241.132	0.22
241.602	2.72
242.072	-3.08
242.542	7.92
243.013	-0.78
243.483	10.22
243.953	1.12
244.423	-5.78
244.893	-3.38
245.363	0.82
245.833	3.02
246.303	-2.38
246.773	3.72
247.243	3.42
247.712	1.82
248.182	8.32
248.652	13.22
249.122	-7.88
249.592	9.22
250.061	22.52
250.531	31.22
251.001	10.72
251.471	12.82
251.94	16.42
252.41	7.32
252.879	-2.28
253.349	8.72
253.818	5.82
254.288	3.62
254.757	4.32
255.227	2.12
255.696	2.12
256.166	10.22
256.635	2.82
257.105	1.22
257.574	6.02
258.043	5.32
258.513	13.42
258.982	12.92
259.451	7.82
259.92	10.52
260.389	6.12
260.859	12.02
261.328	5.72
261.797	18.52
262.266	6.52
262.735	10.22
263.204	4.02
263.673	0.32
264.142	6.32
264.611	-2.08
265.08	-4.38
265.549	-7.28
266.018	7.72
266.487	0.02
266.955	-5.58
267.424	-3.68
267.893	13.92
268.362	1.72
268.83	-2.18
269.299	5.02
269.768	4.52
270.236	7.22
270.705	1.42
271.174	2.82
271.642	7.42
272.111	12.82
272.579	14.22
273.048	16.42
273.516	23.32
273.985	24.92
274.453	17.02
274.922	15.62
275.39	8.52
275.858	-1.98
276.327	13.72
276.795	18.62
277.263	11.92
277.731	26.92
278.2	44.22
278.668	52.02
279.136	40.12
279.604	18.72
280.072	14.32
280.54	14.02
281.008	8.82
281.477	12.62
281.945	10.32
282.413	11.92
282.881	11.22
283.348	10.02
283.816	16.92
284.284	15.52
284.752	20.22
285.22	14.12
285.688	14.32
286.156	12.92
286.623	45.22
287.091	45.12
287.559	27.02
288.026	14.52
288.494	13.42
288.962	11.92
289.429	10.42
289.897	17.12
290.364	11.52
290.832	12.62
291.3	18.02
291.767	16.22
292.234	16.12
292.702	9.12
293.169	18.42
293.637	20.72
294.104	18.12
294.571	1.72
295.039	10.12
295.506	13.72
295.973	7.52
296.44	16.22
296.908	12.72
297.375	15.92
297.842	14.42
298.309	12.72
298.776	10.52
299.243	16.22
299.71	10.42
300.177	15.92
300.644	23.12
301.111	15.72
301.578	18.42
302.045	14.62
302.512	23.02
302.979	23.02
303.446	26.92
303.913	20.12
304.379	18.72
304.846	25.42
305.313	18.42
305.78	19.12
306.246	22.42
306.713	25.52
307.18	27.42
307.646	25.22
308.113	29.12
308.579	24.92
309.046	26.92
309.512	17.72
309.979	20.72
310.445	26.22
310.912	31.72
311.378	29.12
311.845	28.42
312.311	28.92
312.777	28.02
313.244	27.32
313.71	27.52
314.176	29.22
314.642	24.92
315.109	26.62
315.575	35.12
316.041	34.52
316.507	28.52
316.973	38.12
317.439	34.32
317.905	27.82
318.371	36.82
318.837	35.12
319.303	29.12
319.769	28.72
320.235	35.22
320.701	33.82
321.167	34.02
321.633	29.32
322.099	31.72
322.564	42.22
323.03	36.62
323.496	35.12
323.962	39.22
324.427	32.72
324.893	37.12
325.359	33.52
325.824	38.62
326.29	35.52
326.755	36.92
327.221	36.02
327.686	43.12
328.152	43.72
328.617	42.02
329.083	44.92
329.548	48.22
330.014	49.82
330.479	40.22
330.944	42.12
331.41	40.72
331.875	39.62
332.34	33.12
332.805	39.12
333.271	45.32
333.736	37.92
334.201	48.12
334.666	54.12
335.131	50.12
335.596	42.62
336.061	48.02
336.526	42.42
336.991	43.22
337.456	51.22
337.921	45.42
338.386	39.02
338.851	44.12
339.316	53.52
339.781	47.22
340.246	51.32
340.711	38.02
341.175	51.72
341.64	45.22
342.105	50.82
342.569	53.92
343.034	52.92
343.499	50.62
343.963	49.82
344.428	64.92
344.893	58.92
345.357	63.62
345.822	56.22
346.286	66.12
346.751	72.22
347.215	56.62
347.679	65.52
348.144	86.82
348.608	78.12
349.073	65.02
349.537	75.52
350.001	70.92
350.465	78.82
350.93	78.82
351.394	73.72
351.858	67.02
352.322	84.12
352.786	82.62
353.25	101.22
353.715	108.32
354.179	92.92
354.643	121.82
355.107	124.92
355.571	99.82
356.035	105.42
356.498	115.32
356.962	122.72
357.426	130.22
357.89	122.22
358.354	86.42
358.818	78.22
359.281	72.02
359.745	73.02
360.209	78.02
360.673	68.12
361.136	75.72
361.6	78.22
362.064	81.32
362.527	80.42
362.991	91.82
363.454	73.82
363.918	72.42
364.381	74.72
364.845	87.02
365.308	86.32
365.772	88.22
366.235	88.52
366.698	81.32
367.162	84.32
367.625	81.22
368.088	84.42
368.552	83.82
369.015	87.52
369.478	92.62
369.941	96.62
370.404	98.22
370.867	100.72
371.331	104.12
371.794	116.32
372.257	114.72
372.72	108.82
373.183	108.22
373.646	102.32
374.109	97.72
374.572	108.02
375.035	106.02
375.497	110.12
375.96	104.12
376.423	107.52
376.886	110.02
377.349	103.62
377.811	93.72
378.274	104.82
378.737	106.22
379.199	111.12
379.662	112.02
380.125	109.12
380.587	121.62
381.05	120.62
381.512	126.02
381.975	134.62
382.437	129.72
382.9	125.52
383.362	125.92
383.825	143.02
384.287	146.92
384.75	137.42
385.212	135.02
385.674	132.92
386.136	136.12
386.599	118.62
387.061	128.92
387.523	125.32
387.985	137.82
388.447	148.92
388.91	146.22
389.372	152.32
389.834	148.02
390.296	142.42
390.758	151.92
391.22	167.02
391.682	204.22
392.144	302.12
392.606	231.62
393.068	171.82
393.529	165.22
393.991	152.22
394.453	148.72
394.915	154.62
395.377	193.42
395.838	212.92
396.3	153.82
396.762	142.32
397.224	131.32
397.685	123.02
398.147	131.42
398.608	122.92
399.07	125.42
399.531	129.32
399.993	144.32
400.454	158.52
400.916	139.42
401.377	145.82
401.839	145.22
402.3	144.02
402.762	168.02
403.223	172.12
403.684	166.52
404.145	153.92
404.607	158.32
405.068	156.72
405.529	165.82
405.99	186.32
406.451	168.02
406.913	171.92
407.374	159.52
407.835	161.52
408.296	161.22
408.757	165.72
409.218	187.42
409.679	184.02
410.14	175.52
410.601	170.52
411.062	183.22
411.522	192.72
411.983	190.02
412.444	179.12
412.905	173.02
413.366	174.52
413.826	183.22
414.287	213.42
414.748	251.82
415.208	242.62
415.669	201.92
416.13	210.12
416.59	198.52
417.051	206.42
417.511	214.32
417.972	237.92
418.432	243.12
418.893	283.12
419.353	248.62
419.814	198.82
420.274	174.72
420.734	172.52
421.195	194.12
421.655	197.52
422.115	189.52
422.576	187.42
423.036	196.02
423.496	200.72
423.956	212.33
424.416	230.92
424.876	256.92
425.336	257.52
425.797	256.92
426.257	251.82
426.717	234.83
427.177	235.62
427.637	227.62
428.097	229.32
428.556	241.62
429.016	264.12
429.476	261.52
429.936	275.12
430.396	275.22
430.856	291.22
431.315	315.72
431.775	351.42
432.235	378.72
432.694	353.72
433.154	362.73
433.614	400.22
434.073	339.02
434.533	283.22
434.993	271.32
435.452	277.52
435.912	292.82
436.371	287.12
436.83	284.12
437.29	261.72
437.749	240.52
438.209	243.32
438.668	272.72
439.127	292.32
439.587	268.12
440.046	252.42
440.505	260.62
440.964	278.32
441.424	327.72
441.883	311.82
442.342	257.62
442.801	219.32
443.26	221.92
443.719	220.52
444.178	211.12
444.637	209.62
445.096	219.62
445.555	224.92
446.014	225.62
446.473	219.32
446.932	232.12
447.391	221.32
447.849	223.52
448.308	220.23
448.767	216.42
449.226	231.12
449.685	227.82
450.143	243.62
450.602	229.12
451.061	222.62
451.519	228.92
451.978	231.22
452.436	221.12
452.895	233.92
453.353	244.22
453.812	228.92
454.27	237.12
454.729	233.12
455.187	234.42
455.646	237.22
456.104	241.62
456.562	261.62
457.021	264.22
457.479	265.52
457.937	272.92
458.395	259.22
458.854	243.42
459.312	258.32
459.77	274.62
460.228	252.12
460.686	236.62
461.144	246.52
461.602	243.42
462.06	239.22
462.518	246.22
462.976	254.22
463.434	253.73
463.892	255.82
464.35	274.82
464.808	277.92
465.266	258.62
465.724	267.62
466.181	260.82
466.639	264.92
467.097	276.73
467.555	291.23
468.012	292.22
468.47	302.92
468.928	317.72
469.385	331.72
469.843	338.72
470.3	340.62
470.758	363.42
471.215	387.02
471.673	406.52
472.13	408.42
472.588	416.02
473.045	379.52
473.503	373.62
473.96	387.82
474.417	400.62
474.875	424.52
475.332	473.62
475.789	457.12
476.246	454.42
476.704	473.92
477.161	497.02
477.618	523.32
478.075	552.02
478.532	605.62
478.989	685.62
479.446	804.72
479.903	764.12
480.36	796.82
480.817	851.12
481.274	940.72
481.731	1038.92
482.188	1136.92
482.645	1250.72
483.102	1363.72
483.558	1517.82
484.015	1554.72
484.472	1538.22
484.929	1481.22
485.385	1444.33
485.842	1396.52
486.299	1323.83
486.755	1268.62
487.212	1075.42
487.668	909.62
488.125	828.62
488.582	756.92
489.038	740.42
489.494	693.12
489.951	675.12
490.407	658.22
490.864	630.02
491.32	629.02
491.776	633.42
492.233	640.12
492.689	592.12
493.145	594.32
493.602	584.42
494.058	597.12
494.514	594.52
494.97	618.62
495.426	633.73
495.882	620.42
496.338	599.52
496.794	606.82
497.251	593.72
497.707	612.33
498.163	621.02
498.618	635.72
499.074	634.92
499.53	669.32
499.986	664.52
500.442	644.92
500.898	617.32
501.354	608.52
501.809	626.72
502.265	630.12
502.721	649.62
503.177	659.52
503.632	653.12
504.088	660.02
504.543	702.82
504.999	699.62
505.455	640.52
505.91	618.23
506.366	618.02
506.821	614.32
507.277	605.82
507.732	616.32
508.187	606.42
508.643	616.52
509.098	615.32
509.553	640.22
510.009	656.32
510.464	651.52
510.919	666.23
511.375	670.92
511.83	693.12
512.285	706.62
512.74	747.23
513.195	768.73
513.65	760.12
514.105	752.22
514.56	756.42
515.015	773.62
515.47	790.42
515.925	774.33
516.38	767.62
516.835	773.62
517.29	762.42
517.745	760.52
518.2	745.12
518.655	728.82
519.109	726.72
519.564	720.92
520.019	714.12
520.474	716.33
520.928	707.62
521.383	706.32
521.838	697.92
522.292	693.02
522.747	695.52
523.201	690.42
523.656	686.52
524.11	675.62
524.565	687.92
525.019	692.02
525.474	687.02
525.928	686.12
526.382	678.02
526.837	681.82
527.291	685.72
527.745	677.52
528.2	681.12
528.654	671.82
529.108	672.42
529.562	666.02
530.016	681.83
530.47	669.22
530.925	675.02
531.379	678.52
531.833	692.72
532.287	686.62
532.741	687.52
533.195	692.92
533.649	693.22
534.103	707.52
534.556	696.42
535.01	698.22
535.464	687.92
535.918	697.62
536.372	700.82
536.826	693.02
537.279	686.02
537.733	693.32
538.187	685.22
538.64	698.32
539.094	711.42
539.548	718.92
540.001	709.22
540.455	704.72
540.908	719.22
541.362	722.73
541.815	733.32
542.269	738.72
542.722	734.62
543.175	748.82
543.629	753.82
544.082	780.42
544.536	761.02
544.989	766.12
545.442	773.32
545.895	764.72
546.349	772.33
546.802	771.72
547.255	790.72
547.708	787.82
548.161	794.62
548.614	793.32
549.067	808.82
549.52	807.52
549.973	794.42
550.426	784.22
550.879	763.42
551.332	779.52
551.785	784.72
552.238	798.32
552.691	804.42
553.144	811.02
553.596	821.62
554.049	823.32
554.502	874.72
554.955	884.42
555.407	883.82
555.86	875.92
556.313	865.23
556.765	864.92
557.218	872.42
557.67	865.32
558.123	849.62
558.576	852.12
559.028	855.42
559.48	869.22
559.933	854.82
560.385	803.32
560.838	792.72
561.29	770.52
561.742	763.72
562.195	738.42
562.647	750.12
563.099	761.62
563.551	762.42
564.004	763.02
564.456	748.62
564.908	736.02
565.36	738.32
565.812	718.32
566.264	716.52
566.716	712.42
567.168	699.72
567.62	701.42
568.072	685.52
568.524	688.33
568.976	681.42
569.428	662.32
569.88	661.72
570.332	655.83
570.784	672.22
571.235	671.72
571.687	677.62
572.139	690.72
572.59	688.72
573.042	695.32
573.494	683.12
573.945	684.42
574.397	673.73
574.849	672.22
575.3	672.32
575.752	667.52
576.203	668.62
576.655	675.32
577.106	656.02
577.557	655.12
578.009	653.52
578.46	653.02
578.912	654.12
579.363	645.02
579.814	652.72
580.265	646.92
580.717	657.12
581.168	654.02
581.619	665.62
582.07	670.72
582.521	660.92
582.972	662.32
583.423	666.32
583.875	681.42
584.326	683.82
584.777	740.22
585.227	816.22
585.678	923.72
586.129	995.62
586.58	1056.02
587.031	1142.53
587.482	1300.42
587.933	1481.32
588.384	1289.03
588.834	968.23
589.285	800.12
589.736	766.52
590.186	762.52
590.637	761.32
591.088	726.42
591.538	727.12
591.989	718.82
592.439	714.92
592.89	709.62
593.34	699.82
593.791	707.82
594.241	703.12
594.692	700.42
595.142	698.62
595.593	689.12
596.043	699.12
596.493	700.02
596.943	707.62
597.394	711.23
597.844	701.52
598.294	718.02
598.744	741.82
599.195	764.82
599.645	805.12
600.095	843.72
600.545	901.22
600.995	956.72
601.445	1001.22
601.895	1062.72
602.345	1115.03
602.795	1097.53
603.245	1049.42
603.695	990.92
604.145	934.92
604.594	885.33
605.044	833.92
605.494	786.62
605.944	743.72
606.393	729.62
606.843	721.02
607.293	721.52
607.743	717.92
608.192	734.02
608.642	749.62
609.091	755.83
609.541	770.02
609.99	761.42
610.44	752.62
610.889	712.22
611.339	691.42
611.788	679.22
612.238	694.72
612.687	717.82
613.136	716.62
613.586	733.22
614.035	728.42
614.484	749.52
614.933	750.92
615.383	739.52
615.832	731.52
616.281	720.42
616.73	673.02
617.179	655.22
617.628	640.52
618.077	627.72
618.526	611.22
618.975	609.92
619.424	609.72
619.873	600.62
620.322	616.12
620.771	605.32
621.22	607.52
621.669	587.12
622.118	577.72
622.567	572.83
623.015	569.82
623.464	564.32
623.913	554.72
624.361	551.02
624.81	549.72
625.259	545.62
625.707	558.02
626.156	548.32
626.604	564.02
627.053	545.32
627.501	558.12
627.95	554.52
628.398	571.72
628.847	566.52
629.295	557.92
629.744	567.52
630.192	562.42
630.64	566.22
631.089	558.12
631.537	577.73
631.985	591.32
632.433	608.42
632.881	610.62
633.33	664.42
633.778	642.52
634.226	569.22
634.674	576.42
635.122	575.62
635.57	592.62
636.018	623.82
636.466	573.02
636.914	547.02
637.362	563.62
637.81	568.02
638.258	574.72
638.705	562.22
639.153	595.72
639.601	608.72
640.049	628.52
640.497	673.22
640.944	666.02
641.392	625.62
641.84	610.52
642.287	574.23
642.735	564.32
643.182	567.83
643.63	569.72
644.078	569.52
644.525	587.12
644.973	593.32
645.42	591.52
645.867	612.42
646.315	638.22
646.762	648.02
647.21	688.92
647.657	699.02
648.104	741.42
648.551	773.73
648.999	840.32
649.446	914.73
649.893	999.32
650.34	1157.72
650.787	1398.22
651.234	1723.72
651.682	2255.02
652.129	3114.42
652.576	4505.12
653.023	6611.52
653.47	9049.42
653.917	11200.02
654.363	12846.62
654.81	14121.33
655.257	13447.43
655.704	8798.92
656.151	5207.12
656.598	3368.82
657.044	2398.72
657.491	1839.72
657.938	1477.62
658.385	1224.83
658.831	1065.92
659.278	953.22
659.724	847.22
660.171	777.92
660.618	717.12
661.064	674.12
661.511	672.12
661.957	650.62
662.404	634.92
662.85	644.42
663.296	621.22
663.743	570.92
664.189	534.32
664.635	538.82
665.082	518.62
665.528	518.92
665.974	511.02
666.42	504.02
666.867	497.72
667.313	494.73
667.759	474.32
668.205	487.42
668.651	489.22
669.097	480.82
669.543	493.42
669.989	465.32
670.435	446.12
670.881	433.12
671.327	443.32
671.773	466.22
672.219	490.52
672.665	538.62
673.11	582.72
673.556	610.32
674.002	652.02
674.448	640.12
674.893	533.32
675.339	472.82
675.785	439.42
676.23	417.92
676.676	389.23
677.122	378.52
677.567	366.92
678.013	355.82
678.458	356.82
678.904	355.22
679.349	350.32
679.794	344.32
680.24	344.22
680.685	340.22
681.131	346.32
681.576	344.52
682.021	353.92
682.466	341.62
682.912	345.72
683.357	351.82
683.802	381.22
684.247	404.82
684.692	448.02
685.137	492.52
685.583	520.02
686.028	548.82
686.473	512.62
686.918	436.02
687.363	426.32
687.807	392.32
688.252	360.62
688.697	350.82
689.142	334.32
689.587	328.72
690.032	320.32
690.477	343.12
690.921	337.02
691.366	382.72
691.811	397.12
692.255	423.02
692.7	463.23
693.145	501.52
693.589	709.92
694.034	1137.92
694.478	1534.73
694.923	1695.43
695.367	2200.12
695.812	1169.52
696.256	493.12
696.701	365.52
697.145	335.82
697.59	331.42
698.034	313.22
698.478	324.02
698.922	321.42
699.367	324.73
699.811	337.22
700.255	355.12
700.699	391.42
701.143	420.62
701.588	483.12
702.032	510.23
702.476	514.62
702.92	482.83
703.364	487.12
703.808	648.82
704.252	1040.42
704.696	1444.92
705.14	1635.62
705.584	2068.62
706.027	1052.42
706.471	520.42
706.915	397.72
707.359	348.02
707.803	317.32
708.246	313.92
708.69	306.52
709.134	313.12
709.577	312.32
710.021	315.72
710.465	307.52
710.908	301.02
711.352	299.12
711.795	315.82
712.239	355.02
712.682	380.42
713.126	409.82
713.569	452.02
714.012	363.82
714.456	323.52
714.899	294.73
715.342	279.12
715.786	260.32
716.229	250.72
716.672	252.32
717.115	239.73
717.558	248.62
718.002	244.82
718.445	271.73
718.888	279.02
719.331	292.62
719.774	302.52
720.217	298.82
720.66	282.22
721.103	275.72
721.546	257.22
721.989	248.62
722.432	230.23
722.874	227.42
723.317	224.73
723.76	233.72
724.203	253.32
724.645	326.73
725.088	450.02
725.531	570.12
725.974	625.42
726.416	537.02
726.859	295.42
727.301	243.73
727.744	235.22
728.187	234.33
728.629	235.42
729.071	244.02
729.514	261.42
729.956	266.72
730.399	276.12
730.841	288.42
731.283	269.02
731.726	264.02
732.168	258.42
732.61	267.42
733.053	286.02
733.495	314.62
733.937	354.22
734.379	400.32
734.821	432.62
735.263	546.42
735.705	855.82
736.148	1590.22
736.59	2565.32
737.032	2961.02
737.474	2418.72
737.916	797.62
738.357	424.62
738.799	320.42
739.241	296.42
739.683	282.32
740.125	289.52
740.567	297.82
741.008	310.52
741.45	313.12
741.892	313.62
742.334	353.22
742.775	345.22
743.217	342.52
743.658	266.32
744.1	252.72
744.542	258.12
744.983	303.92
745.425	334.22
745.866	339.72
746.307	280.82
746.749	282.62
747.19	333.72
747.632	467.22
748.073	901.32
748.514	1887.83
748.956	2827.42
749.397	3549.83
749.838	2933.73
750.279	2860.72
750.72	1448.22
751.162	539.23
751.603	323.72
752.044	252.12
752.485	217.12
752.926	210.62
753.367	205.62
753.808	191.72
754.249	195.72
754.69	185.52
755.131	180.62
755.572	178.62
756.013	187.02
756.453	183.42
756.894	186.12
757.335	191.72
757.776	200.12
758.216	196.72
758.657	194.32
759.098	201.42
759.538	219.12
759.979	264.62
760.42	383.23
760.86	717.62
761.301	1860.82
761.741	4420.93
762.182	6222.73
762.622	4373.52
763.063	1295.22
763.503	539.02
763.943	347.42
764.384	339.92
764.824	403.22
765.264	433.22
765.705	310.02
766.145	212.62
766.585	183.32
767.025	188.32
767.465	188.52
767.906	251.92
768.346	314.72
768.786	343.62
769.226	268.32
769.666	327.12
770.106	643.22
770.546	1578.53
770.986	2569.23
771.426	2286.52
771.866	779.33
772.306	327.02
772.745	208.02
773.185	171.62
773.625	167.92
774.065	168.12
774.505	195.92
774.944	321.32
775.384	697.72
775.824	1219.42
776.263	1147.22
776.703	505.62
777.142	217.12
777.582	159.22
778.021	136.92
778.461	138.82
778.9	142.22
779.34	133.12
779.779	116.12
780.219	108.52
780.658	104.02
781.097	107.22
781.537	116.32
781.976	108.72
782.415	106.22
782.855	109.32
783.294	106.42
783.733	105.72
784.172	107.92
784.611	99.82
785.05	113.92
785.489	117.02
785.928	115.12
786.367	122.22
786.806	118.72
787.245	123.62
787.684	140.12
788.123	142.72
788.562	129.42
789.001	127.62
789.44	121.12
789.879	118.02
790.317	115.82
790.756	130.32
791.195	126.92
791.634	149.02
792.072	195.52
792.511	372.12
792.95	1028.12
793.388	2111.72
793.827	1872.92
794.265	660.72
794.704	279.62
795.142	182.22
795.581	154.92
796.019	129.22
796.458	123.42
796.896	114.42
797.334	133.02
797.773	158.32
798.211	213.32
798.649	452.92
799.087	1020.33
799.526	1584.22
799.964	1998.92
800.402	1937.12
800.84	738.32
801.278	298.62
801.716	177.82
802.154	149.12
802.592	147.82
803.03	138.42
803.468	129.72
803.906	144.92
804.344	149.12
804.782	138.82
805.22	129.82
805.658	127.72
806.096	149.12
806.533	156.42
806.971	172.32
807.409	215.82
807.847	316.82
808.284	683.32
808.722	1886.12
809.16	3207.03
809.597	3128.82
810.035	5359.62
810.472	5548.32
810.91	2023.12
811.347	778.52
811.785	399.83
812.222	246.12
812.66	198.72
813.097	168.12
813.535	138.62
813.972	137.82
814.409	114.62
814.846	108.32
815.284	111.32
815.721	102.02
816.158	103.72
816.595	119.32
817.032	182.52
817.47	196.02
817.907	162.22
818.344	150.02
818.781	121.22
819.218	101.12
819.655	121.32
820.092	185.62
820.529	203.52
820.966	175.92
821.403	128.32
821.839	103.42
822.276	99.32
822.713	124.02
823.15	126.42
823.587	113.02
824.023	152.52
824.46	310.42
824.897	904.62
825.333	1321.62
825.77	557.72
826.206	226.22
826.643	133.62
827.08	102.12
827.516	82.22
827.953	73.82
828.389	85.32
828.825	73.72
829.262	61.52
829.698	61.92
830.135	65.82
830.571	59.62
831.007	61.92
831.443	59.72
831.88	68.82
832.316	61.82
832.752	72.02
833.188	63.12
833.624	65.12
834.06	66.72
834.497	67.92
834.933	69.42
835.369	73.22
835.805	66.42
836.241	73.92
836.677	80.92
837.112	86.92
837.548	101.12
837.984	131.92
838.42	204.02
838.856	509.52
839.292	1529.72
839.727	2243.52
840.163	1053.02
840.599	934.82
841.034	2015.32
841.47	2050.22
841.906	757.83
842.341	331.42
842.777	228.22
843.212	319.32
843.648	301.42
844.083	148.22
844.519	101.32
844.954	70.22
845.39	59.52
845.825	55.12
846.261	62.52
846.696	47.02
847.131	49.82
847.566	61.12
848.002	57.42
848.437	49.62
848.872	58.72
849.307	61.52
849.742	82.92
850.177	181.12
850.613	560.42
851.048	858.92
851.483	369.32
851.918	152.32
852.353	88.52
852.788	61.22
853.223	63.92
853.657	52.72
854.092	43.42
854.527	38.92
854.962	38.62
855.397	43.62
855.832	47.92
856.266	47.12
856.701	43.82
857.136	36.72
857.57	36.12
858.005	53.12
858.44	53.52
858.874	43.62
859.309	57.52
859.743	40.72
860.178	43.92
860.612	43.02
861.047	53.42
861.481	68.62
861.915	74.32
862.35	52.12
862.784	36.02
863.218	41.12
863.653	35.22
864.087	41.12
864.521	51.72
864.955	74.02
865.39	155.02
865.824	181.82
866.258	112.92
866.692	158.82
867.126	171.22
867.56	103.32
867.994	57.42
868.428	31.22
868.862	41.62
869.296	48.02
869.73	52.62
870.164	48.02
870.598	49.02
871.031	30.32
871.465	36.02
871.899	29.42
872.333	22.02
872.766	27.82
873.2	21.12
873.634	31.62
874.067	29.02
874.501	26.62
874.935	31.42
875.368	30.22
875.802	26.22
876.235	27.82
876.669	25.32
877.102	24.52
877.535	24.72
877.969	21.92
878.402	25.72
878.836	15.32
879.269	22.42
879.702	20.22
880.135	18.42
880.569	26.62
881.002	23.92
881.435	21.22
881.868	12.22
882.301	19.32
882.734	18.32
883.167	20.52
883.601	17.62
884.034	21.32
884.467	13.52
884.899	11.92
885.332	15.12
885.765	11.12
886.198	10.52
886.631	17.22
887.064	21.52
887.497	22.92
887.929	26.22
888.362	13.62
888.795	12.52
889.228	14.82
889.66	15.02
890.093	14.32
890.526	12.12
890.958	19.72
891.391	20.02
891.823	20.32
892.256	16.72
892.688	11.02
893.121	14.72
893.553	15.62
893.985	22.22
894.418	19.12
894.85	18.12
895.282	14.32
895.715	15.92
896.147	17.82
896.579	13.12
897.011	15.32
897.444	17.12
897.876	13.32
898.308	17.12
898.74	15.42
899.172	9.32
899.604	21.22
900.036	25.32
900.468	10.82
900.9	13.52
901.332	16.62
901.764	17.82
902.196	22.02
902.628	17.02
903.06	11.12
903.491	26.52
903.923	26.42
904.355	15.72
904.787	23.32
905.218	15.92
905.65	22.42
906.082	13.52
906.513	9.32
906.945	15.52
907.376	10.92
907.808	20.32
908.239	20.82
908.671	21.52
909.102	24.52
909.534	22.42
909.965	49.42
910.397	87.02
910.828	323.62
911.259	461.42
911.691	214.92
912.122	100.22
912.553	49.22
912.984	31.02
913.415	28.32
913.847	25.22
914.278	15.52
914.709	13.62
915.14	17.52
915.571	19.82
916.002	9.82
916.433	18.42
916.864	13.32
917.295	13.32
917.726	18.12
918.157	22.62
918.587	27.72
919.018	14.82
919.449	20.22
919.88	25.62
920.311	27.92
920.741	47.52
921.172	168.62
921.603	137.82
922.033	70.52
922.464	49.32
922.895	23.62
923.325	18.22
923.756	9.52
924.186	15.42
924.617	25.42
925.047	44.42
925.478	53.02
925.908	46.32
926.338	24.22
926.769	18.32
927.199	23.02
927.629	9.62
928.06	14.52
928.49	16.02
928.92	13.82
929.35	9.22
929.78	9.92
930.21	9.52
930.641	12.32
931.071	9.62
931.501	5.82
931.931	8.42
932.361	7.42
932.791	6.42
933.221	1.92
933.651	3.72
934.08	19.62
934.51	27.12
934.94	17.42
935.37	8.62
935.8	11.12
936.229	5.72
936.659	9.92
937.089	4.42
937.519	12.22
937.948	19.82
938.378	17.02
938.807	5.82
939.237	1.92
939.666	6.02
940.096	-5.28
940.525	2.82
940.955	5.92
941.384	-0.68
941.814	-8.98
942.243	-0.18
942.672	7.02
943.102	-6.48
943.531	-0.18
943.96	9.82
944.39	4.22
944.819	-1.88
945.248	4.32
945.677	0.52
946.106	6.52
946.535	8.42
946.964	3.02
947.393	4.92
947.822	0.12
948.251	-2.18
948.68	1.52
949.109	6.92
949.538	5.42
949.967	0.02
950.396	6.12
950.825	-4.28
951.254	1.42
951.682	-9.28
952.111	6.72
952.54	4.42
952.969	-4.58
953.397	-1.48
953.826	5.62
954.254	-7.68
954.683	-1.68
955.112	-1.58
955.54	1.02
955.969	-1.58
956.397	4.12
956.826	-2.18
957.254	6.92
957.682	-0.58
958.111	4.12
958.539	-2.18
958.967	3.02
959.396	-2.58
959.824	2.02
960.252	3.62
960.68	-6.78
961.109	1.32
961.537	-0.18
961.965	-4.98
962.393	-1.28
962.821	-10.88
963.249	-5.78
963.677	2.62
964.105	1.82
964.533	39.92
964.961	39.22
965.389	21.12
965.817	7.82
966.245	-2.78
966.672	-0.18
967.1	-4.98
967.528	-1.48
967.956	-5.98
968.383	3.52
968.811	-4.48
969.239	-0.18
969.666	-5.28
970.094	-0.88
970.522	-0.08
970.949	-5.68
971.377	-4.68
971.804	-1.88
972.232	4.02
972.659	-0.98
973.087	-3.18
973.514	-3.78
973.941	-7.98
974.369	0.52
974.796	3.62
975.223	3.52
975.651	-4.58
976.078	8.92
976.505	2.72
976.932	1.02
977.359	16.12
977.786	16.52
978.214	3.22
978.641	-2.68
979.068	-0.98
979.495	-5.58
979.922	-3.68
980.349	-8.08
980.776	1.22
981.202	-5.48
981.629	0.72
982.056	4.62
982.483	-2.88
982.91	2.62
983.337	-5.48
983.763	5.12
984.19	-6.08
984.617	-1.38
985.043	-6.08
985.47	-7.88
985.897	-3.28
986.323	-3.78
986.75	4.02
987.176	1.52
987.603	-1.58
988.029	-0.28
988.456	-3.08
988.882	-1.68
989.308	-6.88
989.735	-4.38
990.161	-3.78
990.587	-2.88
991.014	3.92
991.44	4.92
991.866	-1.78
992.292	-6.78
992.719	-3.48
993.145	-2.48
993.571	-11.28
993.997	-3.08
994.423	-8.48
994.849	-6.58
995.275	-0.78
995.701	3.92
996.127	-4.58
996.553	4.62
996.979	-4.38
997.405	-1.88
997.83	-6.48
998.256	-7.28
998.682	-7.48
999.108	-9.18
999.534	-1.08
999.959	-1.28
1000.385	-4.88
1000.811	-2.58
1001.236	-7.58
1001.662	-6.68
1002.087	-8.18
1002.513	0.92
1002.938	1.42
1003.364	-3.38
1003.789	1.52
1004.215	5.32
1004.64	-5.48
1005.066	5.72
1005.491	-3.48
1005.916	-1.78
1006.342	-6.68
1006.767	-11.98
1007.192	1.72
1007.617	-4.08
1008.042	-7.78
1008.468	-5.88
1008.893	-4.88
1009.318	-3.18
1009.743	-7.38
1010.168	3.02
1010.593	0.62
1011.018	-5.68
1011.443	-3.28
1011.868	-2.88
1012.293	-2.48
1012.718	-8.48
1013.143	0.02
1013.567	4.72
1013.992	-3.18
1014.417	-16.18
1014.842	1.12
1015.267	-6.48
1015.691	-6.08
1016.116	7.72
1016.541	-1.78
1016.965	-1.78
1017.39	1.62
1017.814	-1.98
1018.239	-0.38
1018.663	-9.88
1019.088	-6.68
1019.512	-1.98
1019.937	0.02
1020.361	-3.48
1020.785	-12.38
1021.21	-6.48
1021.634	-5.38
1022.058	-1.08
1022.483	-1.78
1022.907	-8.68
1023.331	-8.28
1023.755	-9.08
1024.179	-2.48
1024.604	-3.58
1025.028	-6.88
1025.452	-8.68
1025.876	-5.18
1026.3	1.12
1026.724	-12.38
1027.148	-9.98
1027.572	-7.98
1027.996	-3.98
1028.42	-2.48
1028.843	-2.98
1029.267	-8.58
1029.691	1.72
1030.115	-7.98
1030.539	-8.88
1030.962	-7.78
1031.386	-6.48
1031.81	-0.88
1032.233	-0.18
1032.657	-5.18
1033.08	-1.78
1033.504	-4.88
1033.927	-6.08
1034.351	1.22
1034.774	-5.18
1035.198	-2.78
1035.621	-9.88
1036.045	-11.98
1036.468	0.02
1036.891	-4.88
1037.315	-3.48
1037.738	-5.98
1038.161	5.32
1038.584	-7.78
1039.008	-5.28
1039.431	-0.68
1039.854	-1.18
1040.277	-9.28
1040.7	-10.08
1041.123	-2.88
1041.546	-8.28
1041.969	0.32
1042.392	-1.08
1042.815	0.82
1043.238	-1.88
1043.661	3.02
1044.084	-9.18
1044.507	-4.08
1044.93	-6.68
1045.352	-7.28
1045.775	-2.58
1046.198	-1.98
1046.621	-2.18
1047.043	-1.78
1047.466	1.22
1047.889	0.22
1048.311	-6.68
1048.734	-1.98
1049.156	-1.38
1049.579	-1.28
1050.001	-5.68
1050.424	-2.38
1050.846	-10.98
1051.269	-6.98
1051.691	-6.48
1052.113	-1.48
1052.536	3.42
1052.958	-1.68
1053.38	-5.38
1053.802	-10.48
1054.225	-2.28
1054.647	-12.98
1055.069	-4.28
1055.491	-2.88
1055.913	-6.38
1056.335	0.52
1056.757	-6.38
1057.179	-5.78
1057.601	-6.08
1058.023	-2.58
1058.445	-5.78
1058.867	-1.08
1059.289	-3.78
1059.711	-8.78
1060.133	1.92
1060.555	-3.58
1060.976	-9.38
1061.398	-3.18
1061.82	-9.88
1062.241	-8.78
1062.663	-8.28
1063.085	-4.38
1063.506	-6.58
1063.928	-3.98
1064.35	-6.08
1064.771	-13.98
1065.193	-7.58
1065.614	-10.88
1066.035	-5.18
1066.457	-0.08
1066.878	3.62
1067.3	-7.08
1067.721	-2.58
1068.142	-1.88
1068.564	-2.98
1068.985	-8.98
1069.406	-4.58
1069.827	-3.48
1070.248	-0.88
1070.67	-7.38
1071.091	-4.78
1071.512	-3.18
1071.933	-7.58
1072.354	-2.98
1072.775	-3.78
1073.196	-6.78
1073.617	-3.68
1074.038	-10.88
1074.459	-6.68
1074.88	-8.28
1075.3	-2.98
1075.721	-8.78
1076.142	3.22
1076.563	-0.78
1076.983	-7.78
1077.404	-9.68
1077.825	-12.98
1078.246	-5.58
1078.666	-11.68
1079.087	-3.08
1079.507	-4.38
1079.928	-5.98
1080.348	-3.08
1080.769	-2.38
1081.189	-1.48
1081.61	-2.28
1082.03	-1.98
1082.451	-8.38
1082.871	-7.08
1083.291	-9.88
1083.711	-4.88
1084.132	-7.18
1084.552	-5.78
1084.972	-3.38
1085.392	-7.68
1085.813	-11.88
1086.233	-6.08
1086.653	-6.48
1087.073	-3.08
1087.493	-11.78
1087.913	-8.78
1088.333	-4.88
1088.753	-3.98
1089.173	8.52
1089.593	-1.08
1090.013	1.02
1090.433	-2.58
1090.852	-4.88
1091.272	2.52
1091.692	-4.58
1092.112	-6.08
1092.531	-10.98
1092.951	-14.88
1093.371	-6.88
1093.79	-0.48
1094.21	-2.68
1094.63	-8.78
1095.049	-6.68
1095.469	-1.48
1095.888	3.72
1096.308	5.92
1096.727	2.02
1097.146	-5.28
1097.566	-5.58
1097.985	-6.08
1098.405	-4.58
1098.824	-5.68
1099.243	-8.98
1099.662	-7.38
1100.082	-9.88
1100.501	0.72
1100.92	-6.68
1101.339	-2.88
1101.758	-5.28
