Data from 20171114-ORNL-Ar_H_NY_Subt18_08-07-15-875.txt Node
Date: Tue Nov 14 08:07:15 EST 2017
User: Ender
Spectrometer: HR+D1039
Trigger mode: 0
Integration Time (sec): 2.730000E-2
Scans to average: 10
Electric dark correction enabled: true
Nonlinearity correction enabled: false
Boxcar width: 0
XAxis mode: Wavelengths
Number of Pixels in Spectrum: 2048
>>>>>Begin Spectral Data<<<<<
187.836	-1.62
188.309	-1.62
188.782	-1.62
189.255	4.88
189.728	-1.42
190.201	7.28
190.674	-3.72
191.147	6.98
191.619	-5.52
192.092	0.88
192.565	0.88
193.038	0.18
193.511	-2.02
193.984	-0.82
194.456	-1.22
194.929	0.58
195.402	-2.32
195.874	-3.02
196.347	-0.32
196.82	-1.22
197.292	7.68
197.765	-1.52
198.237	-6.72
198.71	4.58
199.182	2.58
199.655	5.58
200.127	4.58
200.6	1.38
201.072	-0.92
201.544	-4.92
202.017	-7.32
202.489	6.38
202.961	-4.52
203.433	4.18
203.906	-2.52
204.378	-5.52
204.85	-6.72
205.322	-9.52
205.794	-6.12
206.266	-1.12
206.739	-8.82
207.211	0.88
207.683	-7.12
208.155	-2.12
208.627	-7.32
209.099	-4.62
209.57	-13.72
210.042	1.68
210.514	-3.72
210.986	-3.32
211.458	-3.82
211.93	-1.22
212.402	-0.72
212.873	-6.62
213.345	-10.32
213.817	-13.92
214.288	-2.02
214.76	-11.92
215.232	-6.02
215.703	-4.82
216.175	-5.42
216.646	-8.62
217.118	-2.82
217.589	-2.12
218.061	-0.52
218.532	-3.82
219.004	-3.12
219.475	-4.62
219.946	-7.82
220.418	-4.92
220.889	2.98
221.36	-1.12
221.832	-2.82
222.303	-9.12
222.774	0.78
223.245	-7.32
223.717	-3.52
224.188	-7.12
224.659	-2.72
225.13	-3.42
225.601	-5.52
226.072	-2.22
226.543	-2.22
227.014	-1.42
227.485	-4.72
227.956	-3.22
228.427	-1.62
228.898	-6.42
229.369	4.98
229.839	-9.22
230.31	-4.72
230.781	-0.42
231.252	0.98
231.722	-4.52
232.193	-5.32
232.664	-5.82
233.135	-0.22
233.605	-7.82
234.076	-8.52
234.546	-5.22
235.017	-1.42
235.487	-4.22
235.958	-6.62
236.428	-9.42
236.899	-0.62
237.369	2.38
237.84	-7.62
238.31	-0.62
238.78	-3.32
239.251	-2.82
239.721	-5.42
240.191	-7.12
240.662	-1.92
241.132	1.98
241.602	-5.92
242.072	-1.22
242.542	2.18
243.013	-4.82
243.483	-7.22
243.953	-0.82
244.423	-1.32
244.893	-8.92
245.363	-2.52
245.833	2.68
246.303	-3.32
246.773	3.98
247.243	3.18
247.712	-4.92
248.182	-0.82
248.652	-3.42
249.122	-9.82
249.592	7.38
250.061	-1.32
250.531	6.78
251.001	-5.62
251.471	3.68
251.94	5.38
252.41	-2.22
252.879	-9.02
253.349	8.68
253.818	8.58
254.288	-2.42
254.757	-8.72
255.227	-8.02
255.696	-1.52
256.166	0.08
256.635	0.88
257.105	0.78
257.574	-0.32
258.043	-5.12
258.513	-6.62
258.982	-3.62
259.451	-4.92
259.92	2.08
260.389	-0.42
260.859	10.88
261.328	-0.32
261.797	5.18
262.266	-0.72
262.735	6.08
263.204	2.58
263.673	-5.52
264.142	5.68
264.611	-6.82
265.08	-3.12
265.549	-6.62
266.018	5.58
266.487	-1.92
266.955	-3.72
267.424	-3.52
267.893	2.68
268.362	-6.62
268.83	-0.12
269.299	7.78
269.768	-0.42
270.236	1.48
270.705	-0.72
271.174	-0.52
271.642	2.28
272.111	-0.22
272.579	0.08
273.048	0.08
273.516	-3.62
273.985	-0.22
274.453	2.18
274.922	6.88
275.39	2.88
275.858	-0.12
276.327	4.58
276.795	10.68
277.263	2.58
277.731	9.28
278.2	5.48
278.668	-2.72
279.136	4.98
279.604	-3.52
280.072	6.08
280.54	9.98
281.008	5.18
281.477	13.58
281.945	7.38
282.413	9.58
282.881	10.88
283.348	0.88
283.816	8.88
284.284	8.28
284.752	17.58
285.22	6.98
285.688	11.68
286.156	9.58
286.623	12.08
287.091	2.38
287.559	5.48
288.026	10.18
288.494	14.38
288.962	-3.32
289.429	1.08
289.897	9.18
290.364	7.28
290.832	7.48
291.3	9.48
291.767	9.08
292.234	7.98
292.702	8.18
293.169	6.88
293.637	12.18
294.104	15.78
294.571	-2.42
295.039	5.98
295.506	13.58
295.973	8.98
296.44	4.18
296.908	14.48
297.375	12.48
297.842	6.48
298.309	7.28
298.776	6.18
299.243	14.48
299.71	9.38
300.177	19.38
300.644	19.58
301.111	10.28
301.578	15.78
302.045	13.28
302.512	18.18
302.979	19.78
303.446	14.28
303.913	16.88
304.379	10.38
304.846	22.28
305.313	10.78
305.78	14.38
306.246	15.68
306.713	14.68
307.18	17.28
307.646	21.38
308.113	20.08
308.579	17.48
309.046	19.38
309.512	17.38
309.979	17.18
310.445	24.18
310.912	23.38
311.378	26.58
311.845	22.08
312.311	22.88
312.777	22.98
313.244	26.18
313.71	29.38
314.176	20.38
314.642	22.78
315.109	24.28
315.575	26.58
316.041	30.18
316.507	23.98
316.973	29.38
317.439	25.98
317.905	28.28
318.371	28.28
318.837	21.88
319.303	25.28
319.769	31.58
320.235	25.48
320.701	25.38
321.167	27.18
321.633	23.08
322.099	30.78
322.564	33.08
323.03	29.98
323.496	27.58
323.962	34.28
324.427	26.08
324.893	31.98
325.359	27.88
325.824	35.88
326.29	34.18
326.755	33.38
327.221	33.28
327.686	32.78
328.152	38.08
328.617	36.08
329.083	41.68
329.548	44.78
330.014	41.48
330.479	33.48
330.944	36.48
331.41	39.88
331.875	46.08
332.34	36.28
332.805	33.28
333.271	37.18
333.736	29.68
334.201	44.38
334.666	42.78
335.131	45.88
335.596	42.18
336.061	42.58
336.526	32.18
336.991	46.78
337.456	49.38
337.921	41.08
338.386	34.88
338.851	38.18
339.316	38.48
339.781	41.88
340.246	44.88
340.711	43.68
341.175	45.18
341.64	40.18
342.105	47.68
342.569	51.18
343.034	47.18
343.499	44.78
343.963	51.28
344.428	55.98
344.893	54.08
345.357	52.48
345.822	54.18
346.286	57.88
346.751	66.98
347.215	50.78
347.679	60.78
348.144	72.98
348.608	68.88
349.073	63.38
349.537	66.88
350.001	61.38
350.465	73.08
350.93	68.18
351.394	67.48
351.858	63.78
352.322	77.88
352.786	75.78
353.25	84.48
353.715	90.78
354.179	76.68
354.643	97.68
355.107	99.98
355.571	88.58
356.035	82.78
356.498	95.28
356.962	90.68
357.426	99.98
357.89	87.88
358.354	71.48
358.818	74.68
359.281	72.88
359.745	72.28
360.209	69.68
360.673	71.88
361.136	70.38
361.6	76.08
362.064	79.88
362.527	78.58
362.991	83.98
363.454	70.38
363.918	70.98
364.381	66.38
364.845	71.18
365.308	87.98
365.772	78.78
366.235	79.68
366.698	77.28
367.162	88.08
367.625	79.28
368.088	78.98
368.552	84.98
369.015	82.78
369.478	88.28
369.941	85.78
370.404	80.88
370.867	93.28
371.331	96.88
371.794	95.78
372.257	86.88
372.72	93.78
373.183	91.18
373.646	86.58
374.109	88.48
374.572	94.18
375.035	91.28
375.497	97.18
375.96	98.58
376.423	96.28
376.886	105.78
377.349	103.38
377.811	94.78
378.274	96.28
378.737	99.98
379.199	96.08
379.662	98.28
380.125	109.28
380.587	95.98
381.05	102.58
381.512	99.78
381.975	116.18
382.437	111.78
382.9	111.58
383.362	118.18
383.825	124.38
384.287	116.68
384.75	113.28
385.212	120.68
385.674	120.58
386.136	125.08
386.599	116.28
387.061	116.88
387.523	116.98
387.985	125.38
388.447	133.28
388.91	119.78
389.372	123.88
389.834	125.28
390.296	120.98
390.758	124.28
391.22	131.08
391.682	133.78
392.144	142.78
392.606	131.88
393.068	136.98
393.529	149.18
393.991	140.78
394.453	128.38
394.915	124.68
395.377	128.78
395.838	126.38
396.3	134.38
396.762	134.88
397.224	137.98
397.685	130.28
398.147	124.48
398.608	132.68
399.07	131.78
399.531	138.88
399.993	143.08
400.454	149.58
400.916	146.18
401.377	147.88
401.839	146.98
402.3	144.28
402.762	162.68
403.223	165.98
403.684	164.78
404.145	159.38
404.607	165.38
405.068	158.78
405.529	163.58
405.99	178.08
406.451	174.48
406.913	172.58
407.374	166.58
407.835	166.68
408.296	162.58
408.757	173.88
409.218	177.68
409.679	178.98
410.14	168.08
410.601	177.98
411.062	184.28
411.522	178.18
411.983	175.38
412.444	174.58
412.905	182.58
413.366	189.08
413.826	204.48
414.287	224.88
414.748	266.28
415.208	259.08
415.669	224.18
416.13	222.58
416.59	214.88
417.051	221.18
417.511	225.78
417.972	248.38
418.432	255.08
418.893	304.98
419.353	261.38
419.814	204.78
420.274	189.38
420.734	190.58
421.195	205.88
421.655	195.28
422.115	196.18
422.576	201.28
423.036	206.48
423.496	215.58
423.956	219.38
424.416	238.98
424.876	277.98
425.336	268.38
425.797	267.08
426.257	260.88
426.717	249.08
427.177	235.38
427.637	224.78
428.097	242.38
428.556	252.98
429.016	274.28
429.476	266.58
429.936	274.88
430.396	282.18
430.856	296.18
431.315	309.08
431.775	341.98
432.235	382.68
432.694	347.98
433.154	362.78
433.614	389.78
434.073	332.18
434.533	283.68
434.993	273.38
435.452	276.18
435.912	290.08
436.371	291.68
436.83	284.68
437.29	260.58
437.749	251.18
438.209	248.88
438.668	273.28
439.127	292.08
439.587	263.78
440.046	254.78
440.505	266.08
440.964	281.88
441.424	317.98
441.883	307.68
442.342	271.38
442.801	231.38
443.26	226.38
443.719	231.58
444.178	225.58
444.637	219.48
445.096	235.78
445.555	229.98
446.014	245.98
446.473	238.68
446.932	244.98
447.391	244.88
447.849	238.78
448.308	234.08
448.767	233.68
449.226	244.88
449.685	246.48
450.143	253.58
450.602	258.68
451.061	246.68
451.519	245.98
451.978	247.38
452.436	246.18
452.895	248.48
453.353	268.08
453.812	252.28
454.27	251.78
454.729	253.28
455.187	258.28
455.646	259.78
456.104	265.28
456.562	272.88
457.021	270.28
457.479	269.08
457.937	285.98
458.395	274.68
458.854	266.08
459.312	269.58
459.77	291.88
460.228	266.78
460.686	258.58
461.144	262.28
461.602	257.38
462.06	261.78
462.518	273.28
462.976	270.48
463.434	275.38
463.892	287.68
464.35	293.18
464.808	306.78
465.266	285.08
465.724	291.28
466.181	294.08
466.639	292.68
467.097	312.48
467.555	326.98
468.012	316.18
468.47	329.38
468.928	347.78
469.385	354.78
469.843	359.98
470.3	367.68
470.758	384.98
471.215	403.38
471.673	422.78
472.13	427.18
472.588	436.58
473.045	391.48
473.503	401.98
473.96	420.68
474.417	431.88
474.875	458.78
475.332	495.48
475.789	479.18
476.246	493.88
476.704	508.98
477.161	538.78
477.618	540.48
478.075	579.08
478.532	632.98
478.989	709.18
479.446	809.38
479.903	780.78
480.36	806.98
480.817	857.18
481.274	945.28
481.731	1047.78
482.188	1123.58
482.645	1239.28
483.102	1335.18
483.558	1467.48
484.015	1495.88
484.472	1471.98
484.929	1451.18
485.385	1401.58
485.842	1351.68
486.299	1316.98
486.755	1277.28
487.212	1079.98
487.668	922.98
488.125	863.18
488.582	793.98
489.038	768.18
489.494	744.08
489.951	695.88
490.407	689.28
490.864	676.08
491.32	677.28
491.776	673.38
492.233	672.88
492.689	639.98
493.145	639.18
493.602	627.98
494.058	642.38
494.514	642.78
494.97	674.48
495.426	673.78
495.882	653.28
496.338	642.18
496.794	666.08
497.251	645.28
497.707	666.38
498.163	667.48
498.618	678.68
499.074	673.88
499.53	709.28
499.986	701.78
500.442	678.68
500.898	644.28
501.354	642.98
501.809	649.98
502.265	657.08
502.721	668.48
503.177	671.58
503.632	672.48
504.088	675.68
504.543	696.88
504.999	715.28
505.455	693.78
505.91	662.38
506.366	673.08
506.821	672.28
507.277	674.88
507.732	667.48
508.187	668.08
508.643	679.68
509.098	677.28
509.553	705.48
510.009	712.68
510.464	716.88
510.919	729.78
511.375	742.58
511.83	751.58
512.285	765.88
512.74	802.78
513.195	819.08
513.65	810.48
514.105	803.78
514.56	817.18
515.015	831.08
515.47	845.38
515.925	826.08
516.38	822.38
516.835	827.78
517.29	828.38
517.745	816.88
518.2	819.28
518.655	793.78
519.109	783.98
519.564	777.78
520.019	770.78
520.474	768.88
520.928	772.48
521.383	760.88
521.838	749.18
522.292	752.28
522.747	760.68
523.201	748.08
523.656	743.08
524.11	734.98
524.565	738.78
525.019	732.08
525.474	738.38
525.928	735.28
526.382	737.68
526.837	750.88
527.291	752.18
527.745	743.88
528.2	738.98
528.654	734.68
529.108	729.28
529.562	736.08
530.016	728.88
530.47	730.48
530.925	729.28
531.379	727.88
531.833	738.08
532.287	736.88
532.741	740.08
533.195	743.18
533.649	749.48
534.103	760.98
534.556	741.08
535.01	750.68
535.464	737.88
535.918	760.08
536.372	762.08
536.826	760.68
537.279	752.98
537.733	753.08
538.187	756.08
538.64	750.68
539.094	767.68
539.548	767.08
540.001	759.38
540.455	763.28
540.908	773.88
541.362	783.08
541.815	790.68
542.269	805.98
542.722	793.98
543.175	810.48
543.629	807.78
544.082	836.28
544.536	839.98
544.989	837.68
545.442	839.58
545.895	844.38
546.349	846.58
546.802	845.18
547.255	848.18
547.708	859.88
548.161	868.08
548.614	867.18
549.067	885.38
549.52	875.58
549.973	869.18
550.426	864.58
550.879	849.08
551.332	848.68
551.785	860.68
552.238	857.48
552.691	869.08
553.144	891.68
553.596	898.68
554.049	910.78
554.502	954.38
554.955	974.28
555.407	959.38
555.86	950.18
556.313	949.48
556.765	933.58
557.218	930.28
557.67	935.58
558.123	926.38
558.576	917.98
559.028	922.38
559.48	942.08
559.933	936.08
560.385	895.48
560.838	862.48
561.29	832.58
561.742	830.58
562.195	816.28
562.647	815.28
563.099	824.88
563.551	829.48
564.004	831.48
564.456	821.48
564.908	807.48
565.36	789.28
565.812	778.48
566.264	759.48
566.716	764.38
567.168	742.68
567.62	741.18
568.072	737.68
568.524	733.38
568.976	733.78
569.428	717.48
569.88	717.08
570.332	728.38
570.784	729.88
571.235	729.08
571.687	741.08
572.139	740.08
572.59	751.58
573.042	762.98
573.494	757.28
573.945	749.38
574.397	731.48
574.849	734.18
575.3	732.18
575.752	730.28
576.203	722.58
576.655	729.58
577.106	709.48
577.557	708.08
578.009	705.18
578.46	701.98
578.912	701.48
579.363	700.48
579.814	702.08
580.265	703.08
580.717	715.48
581.168	710.38
581.619	711.08
582.07	721.98
582.521	706.98
582.972	709.18
583.423	709.58
583.875	716.08
584.326	719.18
584.777	734.08
585.227	755.68
585.678	753.88
586.129	764.18
586.58	782.08
587.031	810.68
587.482	837.48
587.933	853.68
588.384	838.88
588.834	815.08
589.285	809.58
589.736	813.68
590.186	813.78
590.637	804.88
591.088	795.38
591.538	773.58
591.989	770.98
592.439	756.58
592.89	755.58
593.34	742.48
593.791	743.58
594.241	735.98
594.692	732.28
595.142	729.28
595.593	725.88
596.043	732.18
596.493	733.78
596.943	741.18
597.394	751.88
597.844	749.88
598.294	769.38
598.744	798.28
599.195	821.78
599.645	858.38
600.095	903.18
600.545	970.08
600.995	1011.68
601.445	1081.38
601.895	1136.68
602.345	1194.88
602.795	1183.58
603.245	1125.18
603.695	1069.18
604.145	1008.18
604.594	971.38
605.044	904.38
605.494	846.08
605.944	803.88
606.393	776.28
606.843	761.28
607.293	770.68
607.743	758.48
608.192	765.88
608.642	781.88
609.091	791.88
609.541	797.98
609.99	796.78
610.44	791.78
610.889	751.68
611.339	727.28
611.788	709.18
612.238	719.48
612.687	732.08
613.136	732.98
613.586	745.08
614.035	727.28
614.484	732.98
614.933	728.28
615.383	740.48
615.832	737.68
616.281	732.28
616.73	701.48
617.179	688.48
617.628	674.98
618.077	657.48
618.526	647.08
618.975	656.38
619.424	632.38
619.873	638.08
620.322	646.48
620.771	638.08
621.22	630.08
621.669	619.58
622.118	610.98
622.567	600.38
623.015	603.38
623.464	597.98
623.913	589.58
624.361	582.18
624.81	587.38
625.259	586.88
625.707	586.88
626.156	576.48
626.604	592.98
627.053	585.88
627.501	589.28
627.95	592.58
628.398	600.28
628.847	590.08
629.295	594.68
629.744	603.88
630.192	593.98
630.64	582.48
631.089	570.08
631.537	557.68
631.985	560.08
632.433	553.78
632.881	548.38
633.33	555.68
633.778	539.08
634.226	540.48
634.674	564.18
635.122	557.58
635.57	582.28
636.018	580.78
636.466	590.88
636.914	583.98
637.362	592.98
637.81	605.78
638.258	599.68
638.705	606.08
639.153	635.38
639.601	647.78
640.049	667.38
640.497	698.58
640.944	722.28
641.392	669.68
641.84	643.88
642.287	608.18
642.735	584.98
643.182	595.08
643.63	582.28
644.078	584.68
644.525	600.68
644.973	605.28
645.42	606.88
645.867	640.88
646.315	659.78
646.762	686.28
647.21	704.58
647.657	719.48
648.104	762.08
648.551	773.98
648.999	838.58
649.446	909.18
649.893	995.88
650.34	1135.88
650.787	1351.18
651.234	1651.88
651.682	2152.88
652.129	2915.38
652.576	4135.88
653.023	6012.08
653.47	8143.48
653.917	10081.48
654.363	11653.58
654.81	12821.18
655.257	12115.88
655.704	8008.88
656.151	4834.48
656.598	3193.58
657.044	2286.08
657.491	1775.28
657.938	1428.08
658.385	1211.48
658.831	1052.68
659.278	947.68
659.724	847.08
660.171	790.68
660.618	723.28
661.064	693.88
661.511	676.88
661.957	662.38
662.404	656.98
662.85	666.88
663.296	629.18
663.743	571.38
664.189	553.28
664.635	551.28
665.082	550.68
665.528	553.88
665.974	549.28
666.42	524.98
666.867	522.88
667.313	505.28
667.759	490.48
668.205	473.48
668.651	470.38
669.097	468.48
669.543	448.18
669.989	459.38
670.435	458.88
670.881	461.88
671.327	471.28
671.773	485.88
672.219	510.38
672.665	575.08
673.11	619.48
673.556	666.08
674.002	693.78
674.448	681.88
674.893	580.78
675.339	501.58
675.785	465.98
676.23	439.28
676.676	412.58
677.122	407.18
677.567	389.68
678.013	382.18
678.458	374.78
678.904	381.48
679.349	373.38
679.794	369.78
680.24	369.78
680.685	370.58
681.131	369.18
681.576	375.38
682.021	374.38
682.466	365.08
682.912	365.18
683.357	365.78
683.802	399.78
684.247	432.98
684.692	475.18
685.137	513.18
685.583	557.88
686.028	587.48
686.473	541.98
686.918	468.48
687.363	441.48
687.807	411.28
688.252	384.78
688.697	371.18
689.142	356.48
689.587	356.68
690.032	345.18
690.477	361.68
690.921	369.28
691.366	402.58
691.811	410.08
692.255	446.68
692.7	480.28
693.145	529.08
693.589	733.98
694.034	1208.78
694.478	1632.38
694.923	1829.98
695.367	2388.78
695.812	1255.88
696.256	521.08
696.701	380.28
697.145	357.68
697.59	344.78
698.034	339.78
698.478	334.98
698.922	339.48
699.367	333.48
699.811	353.68
700.255	372.88
700.699	397.98
701.143	444.58
701.588	502.08
702.032	540.48
702.476	536.88
702.92	519.18
703.364	527.68
703.808	676.08
704.252	1107.38
704.696	1548.08
705.14	1767.48
705.584	2241.68
706.027	1126.08
706.471	548.08
706.915	421.08
707.359	371.98
707.803	333.98
708.246	324.08
708.69	322.48
709.134	330.68
709.577	329.58
710.021	323.98
710.465	320.28
710.908	310.18
711.352	307.78
711.795	334.18
712.239	365.38
712.682	396.58
713.126	428.88
713.569	477.48
714.012	370.88
714.456	313.58
714.899	304.98
715.342	281.48
715.786	274.68
716.229	273.08
716.672	260.68
717.115	259.58
717.558	255.68
718.002	263.38
718.445	272.08
718.888	298.68
719.331	297.88
719.774	331.18
720.217	320.88
720.66	292.38
721.103	273.28
721.546	263.38
721.989	258.58
722.432	234.28
722.874	249.18
723.317	240.18
723.76	235.38
724.203	268.98
724.645	329.18
725.088	477.58
725.531	601.78
725.974	674.28
726.416	578.18
726.859	316.38
727.301	257.28
727.744	251.38
728.187	245.28
728.629	248.08
729.071	252.88
729.514	267.48
729.956	291.68
730.399	299.78
730.841	298.08
731.283	290.68
731.726	283.38
732.168	275.28
732.61	283.78
733.053	297.48
733.495	333.18
733.937	373.18
734.379	417.78
734.821	462.58
735.263	580.88
735.705	892.38
736.148	1691.78
736.59	2746.08
737.032	3234.58
737.474	2628.28
737.916	862.48
738.357	448.98
738.799	350.58
739.241	319.68
739.683	295.88
740.125	310.28
740.567	315.58
741.008	331.98
741.45	335.38
741.892	330.78
742.334	366.38
742.775	380.08
743.217	370.08
743.658	291.38
744.1	265.08
744.542	279.38
744.983	326.38
745.425	365.28
745.866	361.98
746.307	285.98
746.749	292.98
747.19	340.08
747.632	486.28
748.073	951.18
748.514	2003.08
748.956	3057.28
749.397	3818.38
749.838	3170.08
750.279	3142.38
750.72	1587.28
751.162	585.58
751.603	343.68
752.044	268.98
752.485	232.78
752.926	227.68
753.367	215.78
753.808	201.08
754.249	196.18
754.69	200.28
755.131	185.38
755.572	192.68
756.013	188.28
756.453	194.08
756.894	194.38
757.335	191.38
757.776	205.38
758.216	208.38
758.657	210.48
759.098	208.48
759.538	238.08
759.979	284.18
760.42	403.38
760.86	761.98
761.301	1990.78
761.741	4767.48
762.182	6796.78
762.622	4804.18
763.063	1394.88
763.503	562.78
763.943	338.28
764.384	274.38
764.824	248.68
765.264	225.68
765.705	205.68
766.145	188.18
766.585	185.68
767.025	174.78
767.465	169.98
767.906	172.58
768.346	195.18
768.786	193.78
769.226	212.18
769.666	330.18
770.106	652.98
770.546	1658.58
770.986	2808.28
771.426	2508.68
771.866	835.18
772.306	342.48
772.745	219.08
773.185	175.08
773.625	168.98
774.065	155.28
774.505	167.98
774.944	212.38
775.384	364.68
775.824	590.98
776.263	581.58
776.703	282.28
777.142	168.88
777.582	138.58
778.021	132.98
778.461	132.68
778.9	123.38
779.34	122.48
779.779	121.48
780.219	110.78
780.658	111.78
781.097	112.58
781.537	115.18
781.976	114.58
782.415	106.28
782.855	109.18
783.294	109.18
783.733	104.18
784.172	110.68
784.611	106.38
785.05	106.68
785.489	117.28
785.928	120.38
786.367	125.98
786.806	120.58
787.245	136.88
787.684	139.48
788.123	156.58
788.562	140.18
789.001	131.98
789.44	129.78
789.879	123.98
790.317	121.18
790.756	135.98
791.195	135.08
791.634	158.88
792.072	212.68
792.511	385.78
792.95	1071.78
793.388	2232.78
793.827	2001.98
794.265	702.58
794.704	298.38
795.142	192.98
795.581	157.98
796.019	145.18
796.458	141.88
796.896	125.28
797.334	137.38
797.773	166.18
798.211	239.48
798.649	477.08
799.087	1085.18
799.526	1709.68
799.964	2151.88
800.402	2124.18
800.84	803.08
801.278	321.08
801.716	197.68
802.154	163.28
802.592	148.48
803.03	141.18
803.468	141.78
803.906	150.38
804.344	160.08
804.782	148.68
805.22	144.28
805.658	140.08
806.096	149.28
806.533	166.98
806.971	186.28
807.409	235.08
807.847	344.68
808.284	705.98
808.722	1995.88
809.16	3501.18
809.597	3372.08
810.035	5817.08
810.472	6108.48
810.91	2222.58
811.347	857.78
811.785	432.08
812.222	268.98
812.66	207.08
813.097	175.68
813.535	150.08
813.972	130.88
814.409	127.18
814.846	120.88
815.284	115.38
815.721	105.68
816.158	108.98
816.595	113.68
817.032	157.88
817.47	189.68
817.907	142.58
818.344	108.18
818.781	103.88
819.218	104.68
819.655	135.58
820.092	200.28
820.529	235.38
820.966	181.58
821.403	132.08
821.839	104.68
822.276	98.28
822.713	128.08
823.15	143.48
823.587	130.88
824.023	154.28
824.46	317.88
824.897	957.38
825.333	1424.98
825.77	626.18
826.206	243.98
826.643	140.58
827.08	101.38
827.516	87.18
827.953	83.38
828.389	85.68
828.825	81.18
829.262	68.98
829.698	65.48
830.135	62.78
830.571	61.28
831.007	60.18
831.443	65.08
831.88	62.08
832.316	60.38
832.752	75.08
833.188	67.58
833.624	66.18
834.06	73.98
834.497	70.98
834.933	73.58
835.369	70.08
835.805	68.68
836.241	82.08
836.677	82.38
837.112	101.28
837.548	109.88
837.984	139.48
838.42	219.48
838.856	531.98
839.292	1626.88
839.727	2445.48
840.163	1151.28
840.599	987.08
841.034	2161.28
841.47	2244.68
841.906	819.48
842.341	348.18
842.777	201.48
843.212	206.18
843.648	196.08
844.083	120.48
844.519	89.48
844.954	74.08
845.39	58.78
845.825	58.68
846.261	62.38
846.696	58.88
847.131	55.18
847.566	57.88
848.002	56.18
848.437	57.68
848.872	66.28
849.307	67.78
849.742	97.88
850.177	195.08
850.613	592.28
851.048	922.58
851.483	407.08
851.918	163.58
852.353	94.98
852.788	58.48
853.223	52.98
853.657	58.48
854.092	44.48
854.527	39.68
854.962	39.68
855.397	45.58
855.832	52.28
856.266	40.58
856.701	41.98
857.136	43.38
857.57	44.28
858.005	56.08
858.44	62.18
858.874	45.18
859.309	53.98
859.743	40.08
860.178	45.88
860.612	47.58
861.047	56.48
861.481	72.58
861.915	78.68
862.35	50.28
862.784	37.68
863.218	41.28
863.653	40.68
864.087	47.98
864.521	58.08
864.955	72.78
865.39	160.38
865.824	193.28
866.258	123.88
866.692	187.28
867.126	192.58
867.56	117.18
867.994	53.58
868.428	45.28
868.862	49.28
869.296	56.98
869.73	57.48
870.164	61.98
870.598	57.58
871.031	41.98
871.465	33.58
871.899	31.18
872.333	21.38
872.766	23.68
873.2	18.98
873.634	32.98
874.067	21.38
874.501	24.98
874.935	34.98
875.368	35.88
875.802	31.18
876.235	24.88
876.669	25.98
877.102	25.08
877.535	26.18
877.969	24.58
878.402	28.78
878.836	22.08
879.269	20.88
879.702	24.38
880.135	21.78
880.569	23.38
881.002	22.78
881.435	23.78
881.868	13.68
882.301	27.08
882.734	18.58
883.167	27.58
883.601	18.68
884.034	22.28
884.467	17.28
884.899	22.48
885.332	26.58
885.765	22.08
886.198	18.98
886.631	18.38
887.064	18.78
887.497	18.88
887.929	24.98
888.362	20.98
888.795	16.78
889.228	19.58
889.66	25.48
890.093	17.58
890.526	16.58
890.958	14.68
891.391	17.08
891.823	24.08
892.256	17.08
892.688	11.18
893.121	16.08
893.553	16.08
893.985	25.68
894.418	18.28
894.85	16.58
895.282	18.38
895.715	20.58
896.147	13.98
896.579	16.58
897.011	18.78
897.444	23.38
897.876	10.68
898.308	13.38
898.74	12.78
899.172	11.88
899.604	27.08
900.036	22.78
900.468	15.68
900.9	20.08
901.332	15.08
901.764	14.58
902.196	20.58
902.628	20.18
903.06	21.38
903.491	30.78
903.923	23.88
904.355	26.38
904.787	30.98
905.218	21.58
905.65	22.48
906.082	16.78
906.513	13.98
906.945	11.98
907.376	13.78
907.808	22.38
908.239	22.98
908.671	16.98
909.102	23.28
909.534	25.98
909.965	51.08
910.397	89.08
910.828	326.58
911.259	499.68
911.691	226.58
912.122	113.48
912.553	58.28
912.984	36.08
913.415	23.88
913.847	22.88
914.278	18.08
914.709	19.38
915.14	17.78
915.571	15.38
916.002	13.48
916.433	25.18
916.864	26.48
917.295	19.38
917.726	22.18
918.157	14.98
918.587	34.48
919.018	25.58
919.449	21.68
919.88	30.68
920.311	33.98
920.741	53.68
921.172	181.08
921.603	158.88
922.033	77.58
922.464	51.58
922.895	20.78
923.325	16.08
923.756	14.98
924.186	13.78
924.617	17.28
925.047	18.48
925.478	25.68
925.908	19.88
926.338	15.48
926.769	8.58
927.199	15.78
927.629	8.38
928.06	12.68
928.49	16.98
928.92	15.18
929.35	7.08
929.78	13.88
930.21	3.58
930.641	8.48
931.071	6.88
931.501	5.98
931.931	7.88
932.361	6.88
932.791	6.68
933.221	7.48
933.651	1.58
934.08	27.08
934.51	32.58
934.94	10.18
935.37	7.58
935.8	7.78
936.229	11.68
936.659	12.18
937.089	7.78
937.519	16.98
937.948	29.48
938.378	21.58
938.807	10.58
939.237	5.48
939.666	5.08
940.096	-2.42
940.525	-1.32
940.955	4.48
941.384	3.78
941.814	0.88
942.243	-4.42
942.672	2.78
943.102	1.58
943.531	-2.42
943.96	4.48
944.39	-0.52
944.819	9.28
945.248	5.98
945.677	-3.02
946.106	2.68
946.535	5.28
946.964	1.58
947.393	0.48
947.822	2.28
948.251	-3.82
948.68	5.08
949.109	4.88
949.538	7.98
949.967	-2.42
950.396	3.98
950.825	-2.92
951.254	-0.52
951.682	-5.92
952.111	4.48
952.54	3.08
952.969	-1.92
953.397	-8.32
953.826	0.08
954.254	-2.62
954.683	2.98
955.112	0.78
955.54	1.98
955.969	2.68
956.397	2.98
956.826	2.98
957.254	6.08
957.682	8.88
958.111	-0.22
958.539	-1.12
958.967	5.78
959.396	-7.02
959.824	-3.02
960.252	6.28
960.68	-1.72
961.109	-7.92
961.537	-3.32
961.965	0.38
962.393	-1.92
962.821	-4.62
963.249	-2.02
963.677	5.88
964.105	6.68
964.533	50.18
964.961	39.48
965.389	19.58
965.817	9.38
966.245	3.68
966.672	0.18
967.1	-1.92
967.528	-1.62
967.956	0.58
968.383	-1.62
968.811	1.58
969.239	-5.32
969.666	-3.82
970.094	4.38
970.522	-2.52
970.949	-2.82
971.377	-1.62
971.804	-4.02
972.232	-6.02
972.659	2.18
973.087	3.08
973.514	-3.72
973.941	-5.22
974.369	6.78
974.796	4.58
975.223	-4.22
975.651	3.88
976.078	2.18
976.505	-1.12
976.932	8.78
977.359	17.08
977.786	20.78
978.214	2.88
978.641	-2.52
979.068	3.28
979.495	-0.72
979.922	-0.32
980.349	-4.82
980.776	3.18
981.202	2.78
981.629	4.18
982.056	3.58
982.483	-6.62
982.91	3.88
983.337	-0.22
983.763	-3.82
984.19	-6.42
984.617	-4.42
985.043	-6.22
985.47	-0.72
985.897	-4.72
986.323	-8.62
986.75	3.18
987.176	-1.82
987.603	-2.52
988.029	-2.52
988.456	-4.02
988.882	-2.72
989.308	-3.32
989.735	-2.32
990.161	0.68
990.587	-3.62
991.014	-0.02
991.44	8.48
991.866	0.68
992.292	-7.52
992.719	2.68
993.145	6.48
993.571	-4.22
993.997	-4.72
994.423	1.28
994.849	-2.22
995.275	0.08
995.701	0.18
996.127	-2.22
996.553	4.58
996.979	-5.12
997.405	-5.22
997.83	-5.42
998.256	-2.42
998.682	-5.92
999.108	-7.82
999.534	-5.82
999.959	-3.32
1000.385	-7.52
1000.811	1.58
1001.236	-5.32
1001.662	-10.62
1002.087	-12.52
1002.513	1.98
1002.938	5.28
1003.364	-0.02
1003.789	-0.02
1004.215	7.68
1004.64	-5.62
1005.066	-3.92
1005.491	-0.42
1005.916	-1.92
1006.342	0.28
1006.767	-9.62
1007.192	11.48
1007.617	-6.62
1008.042	-4.42
1008.468	-7.82
1008.893	-1.92
1009.318	0.18
1009.743	-3.22
1010.168	10.98
1010.593	-3.52
1011.018	-3.12
1011.443	-0.32
1011.868	6.18
1012.293	-1.92
1012.718	-0.42
1013.143	-3.12
1013.567	3.28
1013.992	-0.92
1014.417	-9.42
1014.842	5.18
1015.267	-6.92
1015.691	-2.92
1016.116	9.68
1016.541	2.08
1016.965	4.08
1017.39	1.48
1017.814	-0.02
1018.239	0.48
1018.663	-7.12
1019.088	-7.52
1019.512	2.08
1019.937	-2.42
1020.361	-6.42
1020.785	-7.72
1021.21	-3.62
1021.634	-1.52
1022.058	-3.72
1022.483	3.58
1022.907	2.98
1023.331	-2.22
1023.755	-2.12
1024.179	-1.42
1024.604	-9.72
1025.028	-5.72
1025.452	-3.82
1025.876	-2.42
1026.3	-2.92
1026.724	-9.52
1027.148	-5.62
1027.572	-4.12
1027.996	-3.32
1028.42	-4.92
1028.843	-2.82
1029.267	-1.12
1029.691	-8.62
1030.115	-9.92
1030.539	-9.62
1030.962	-1.02
1031.386	-7.02
1031.81	3.58
1032.233	-0.72
1032.657	-4.22
1033.08	-5.12
1033.504	-0.72
1033.927	-3.62
1034.351	-5.12
1034.774	-6.32
1035.198	-2.62
1035.621	-4.72
1036.045	-6.82
1036.468	4.78
1036.891	-11.32
1037.315	-9.92
1037.738	-11.92
1038.161	1.08
1038.584	-6.12
1039.008	-3.42
1039.431	-5.02
1039.854	-1.22
1040.277	-11.52
1040.7	-8.92
1041.123	-4.02
1041.546	-7.22
1041.969	-5.92
1042.392	-4.52
1042.815	1.18
1043.238	2.68
1043.661	-0.32
1044.084	-12.12
1044.507	-5.82
1044.93	-11.82
1045.352	0.88
1045.775	-3.22
1046.198	2.98
1046.621	-4.62
1047.043	0.98
1047.466	10.78
1047.889	-5.32
1048.311	-4.32
1048.734	-2.52
1049.156	-2.22
1049.579	-3.72
1050.001	1.08
1050.424	0.68
1050.846	0.78
1051.269	-4.02
1051.691	-6.02
1052.113	-1.72
1052.536	4.58
1052.958	-9.82
1053.38	-0.42
1053.802	-5.42
1054.225	1.38
1054.647	-5.02
1055.069	-6.02
1055.491	-2.82
1055.913	-7.62
1056.335	1.98
1056.757	-2.82
1057.179	-4.62
1057.601	-4.02
1058.023	-6.92
1058.445	-6.22
1058.867	-5.42
1059.289	1.38
1059.711	-5.72
1060.133	-6.62
1060.555	-9.02
1060.976	-8.22
1061.398	-3.12
1061.82	-4.72
1062.241	-1.62
1062.663	-6.22
1063.085	-9.92
1063.506	1.28
1063.928	-4.52
1064.35	3.38
1064.771	-9.52
1065.193	-2.62
1065.614	-11.12
1066.035	0.38
1066.457	-4.92
1066.878	-2.32
1067.3	-3.92
1067.721	1.68
1068.142	-5.42
1068.564	-2.32
1068.985	-5.22
1069.406	-4.02
1069.827	-1.22
1070.248	-0.02
1070.67	-8.52
1071.091	-8.62
1071.512	-7.22
1071.933	-4.42
1072.354	-6.42
1072.775	-3.32
1073.196	-6.82
1073.617	-3.02
1074.038	-4.32
1074.459	-1.02
1074.88	-9.02
1075.3	-4.22
1075.721	-5.92
1076.142	-1.02
1076.563	2.28
1076.983	-19.62
1077.404	-9.02
1077.825	-5.72
1078.246	-2.02
1078.666	-14.42
1079.087	-2.12
1079.507	-3.22
1079.928	2.88
1080.348	-1.72
1080.769	-7.92
1081.189	-1.92
1081.61	-8.02
1082.03	-6.32
1082.451	-5.32
1082.871	-1.22
1083.291	-7.22
1083.711	-8.12
1084.132	-3.42
1084.552	-6.52
1084.972	-1.42
1085.392	-7.72
1085.813	-7.02
1086.233	-5.92
1086.653	-11.12
1087.073	-5.92
1087.493	-6.12
1087.913	-10.92
1088.333	-9.52
1088.753	-7.12
1089.173	4.08
1089.593	-1.72
1090.013	-1.02
1090.433	3.48
1090.852	-3.22
1091.272	-1.72
1091.692	0.68
1092.112	-6.82
1092.531	-12.42
1092.951	-12.62
1093.371	-4.62
1093.79	0.28
1094.21	-9.62
1094.63	-8.12
1095.049	-6.22
1095.469	-2.32
1095.888	-5.12
1096.308	-1.02
1096.727	-2.32
1097.146	-4.92
1097.566	-1.82
1097.985	-3.12
1098.405	0.58
1098.824	-4.52
1099.243	-6.12
1099.662	-7.22
1100.082	-5.12
1100.501	-5.42
1100.92	-2.22
1101.339	-5.92
1101.758	-2.12
