Data from 20171114-ORNL-Ar_H_NY_Subt18_08-08-33-946.txt Node
Date: Tue Nov 14 08:08:33 EST 2017
User: Ender
Spectrometer: HR+D1039
Trigger mode: 0
Integration Time (sec): 2.730000E-2
Scans to average: 10
Electric dark correction enabled: true
Nonlinearity correction enabled: false
Boxcar width: 0
XAxis mode: Wavelengths
Number of Pixels in Spectrum: 2048
>>>>>Begin Spectral Data<<<<<
187.836	-2.91
188.309	-2.91
188.782	-2.91
189.255	-0.91
189.728	-3.01
190.201	8.99
190.674	-2.71
191.147	1.79
191.619	-8.11
192.092	4.69
192.565	5.79
193.038	-1.71
193.511	0.09
193.984	-0.31
194.456	3.79
194.929	3.49
195.402	-0.21
195.874	-8.81
196.347	0.29
196.82	-5.91
197.292	4.69
197.765	-3.41
198.237	-9.51
198.71	8.19
199.182	-5.31
199.655	0.19
200.127	0.59
200.6	-2.51
201.072	-2.71
201.544	-5.71
202.017	1.09
202.489	1.79
202.961	-0.31
203.433	-6.11
203.906	-9.41
204.378	-3.91
204.85	-5.71
205.322	-4.51
205.794	-5.41
206.266	-5.11
206.739	-14.31
207.211	2.39
207.683	-7.91
208.155	-2.61
208.627	-9.91
209.099	-3.41
209.57	-12.71
210.042	-7.61
210.514	-4.81
210.986	-2.71
211.458	-11.91
211.93	-3.61
212.402	0.09
212.873	-3.81
213.345	-10.71
213.817	-12.81
214.288	-5.41
214.76	-10.71
215.232	-10.01
215.703	-9.31
216.175	-3.01
216.646	-8.11
217.118	-5.31
217.589	-12.21
218.061	-1.81
218.532	-4.31
219.004	-2.21
219.475	-7.01
219.946	-1.11
220.418	-8.31
220.889	1.49
221.36	-3.81
221.832	-12.91
222.303	-8.31
222.774	4.89
223.245	-7.01
223.717	-8.31
224.188	0.89
224.659	-10.81
225.13	-5.91
225.601	1.29
226.072	-1.41
226.543	-7.81
227.014	-1.61
227.485	-0.51
227.956	-8.71
228.427	-8.71
228.898	0.89
229.369	3.49
229.839	-4.61
230.31	-8.01
230.781	0.29
231.252	-1.11
231.722	-5.21
232.193	-6.41
232.664	-7.51
233.135	-3.81
233.605	-4.21
234.076	-7.81
234.546	-7.71
235.017	-2.81
235.487	1.89
235.958	-1.41
236.428	-1.41
236.899	-2.11
237.369	1.39
237.84	-4.81
238.31	3.19
238.78	-5.11
239.251	-6.71
239.721	-5.01
240.191	-1.41
240.662	-4.61
241.132	1.69
241.602	-7.91
242.072	-0.31
242.542	0.49
243.013	-6.61
243.483	1.29
243.953	-1.21
244.423	-1.01
244.893	-14.81
245.363	-2.01
245.833	-3.21
246.303	-1.91
246.773	-2.31
247.243	0.59
247.712	0.99
248.182	2.79
248.652	5.79
249.122	-2.91
249.592	-0.51
250.061	6.09
250.531	18.99
251.001	1.39
251.471	7.09
251.94	3.39
252.41	5.49
252.879	-3.91
253.349	8.39
253.818	3.59
254.288	2.79
254.757	-1.41
255.227	-3.71
255.696	-1.01
256.166	0.39
256.635	-0.41
257.105	2.39
257.574	-3.31
258.043	3.39
258.513	-5.51
258.982	5.79
259.451	-4.51
259.92	2.59
260.389	3.79
260.859	9.59
261.328	8.29
261.797	6.79
262.266	1.49
262.735	3.39
263.204	-1.11
263.673	-2.51
264.142	2.89
264.611	-3.91
265.08	-3.11
265.549	-5.21
266.018	4.09
266.487	-4.01
266.955	-0.11
267.424	1.49
267.893	2.89
268.362	-0.11
268.83	-0.71
269.299	9.79
269.768	-0.81
270.236	4.59
270.705	1.09
271.174	2.79
271.642	2.89
272.111	-1.01
272.579	3.59
273.048	5.49
273.516	4.49
273.985	4.79
274.453	7.19
274.922	11.49
275.39	7.89
275.858	2.39
276.327	7.49
276.795	14.99
277.263	-0.61
277.731	11.09
278.2	23.59
278.668	26.19
279.136	20.69
279.604	0.19
280.072	8.49
280.54	9.39
281.008	8.19
281.477	10.29
281.945	10.59
282.413	11.39
282.881	11.29
283.348	1.69
283.816	7.49
284.284	9.59
284.752	15.19
285.22	10.89
285.688	8.49
286.156	13.39
286.623	24.19
287.091	17.99
287.559	15.59
288.026	11.39
288.494	9.19
288.962	1.89
289.429	8.79
289.897	16.19
290.364	8.49
290.832	9.39
291.3	12.29
291.767	11.99
292.234	10.19
292.702	8.69
293.169	14.99
293.637	15.49
294.104	11.29
294.571	7.69
295.039	6.09
295.506	7.49
295.973	14.99
296.44	7.49
296.908	14.79
297.375	11.49
297.842	18.29
298.309	14.99
298.776	11.39
299.243	20.29
299.71	5.99
300.177	17.69
300.644	18.39
301.111	15.19
301.578	18.19
302.045	11.99
302.512	14.49
302.979	20.49
303.446	16.69
303.913	16.99
304.379	20.19
304.846	21.39
305.313	23.69
305.78	14.99
306.246	18.89
306.713	20.79
307.18	16.09
307.646	22.79
308.113	24.09
308.579	17.19
309.046	16.79
309.512	26.99
309.979	11.09
310.445	17.09
310.912	22.79
311.378	32.39
311.845	28.49
312.311	25.89
312.777	27.79
313.244	26.69
313.71	31.99
314.176	27.49
314.642	26.29
315.109	24.39
315.575	38.99
316.041	33.39
316.507	26.39
316.973	34.79
317.439	27.39
317.905	30.99
318.371	23.49
318.837	31.39
319.303	28.39
319.769	34.59
320.235	27.49
320.701	29.89
321.167	30.59
321.633	23.79
322.099	37.99
322.564	32.19
323.03	32.29
323.496	34.59
323.962	35.89
324.427	33.49
324.893	39.19
325.359	35.29
325.824	40.59
326.29	30.49
326.755	30.49
327.221	35.49
327.686	35.99
328.152	38.29
328.617	39.19
329.083	42.29
329.548	45.99
330.014	40.19
330.479	34.49
330.944	37.89
331.41	38.59
331.875	39.29
332.34	42.39
332.805	37.89
333.271	36.09
333.736	38.29
334.201	42.69
334.666	43.19
335.131	46.59
335.596	49.99
336.061	38.09
336.526	38.29
336.991	45.29
337.456	51.59
337.921	45.69
338.386	37.69
338.851	41.59
339.316	46.49
339.781	45.69
340.246	44.89
340.711	41.69
341.175	42.49
341.64	41.79
342.105	45.39
342.569	50.59
343.034	54.09
343.499	48.79
343.963	57.09
344.428	59.29
344.893	56.79
345.357	57.89
345.822	56.79
346.286	60.09
346.751	71.39
347.215	61.49
347.679	67.69
348.144	83.39
348.608	73.29
349.073	64.79
349.537	75.29
350.001	75.69
350.465	83.59
350.93	77.09
351.394	80.69
351.858	65.39
352.322	82.69
352.786	81.29
353.25	95.69
353.715	102.29
354.179	102.39
354.643	114.89
355.107	114.49
355.571	99.49
356.035	92.59
356.498	103.89
356.962	109.29
357.426	113.29
357.89	108.09
358.354	86.49
358.818	80.69
359.281	73.29
359.745	74.19
360.209	69.69
360.673	64.59
361.136	75.79
361.6	85.69
362.064	79.29
362.527	79.69
362.991	88.39
363.454	78.79
363.918	71.59
364.381	73.89
364.845	79.99
365.308	81.69
365.772	77.79
366.235	82.49
366.698	83.09
367.162	86.59
367.625	84.69
368.088	81.39
368.552	81.99
369.015	86.39
369.478	91.89
369.941	98.59
370.404	89.29
370.867	99.19
371.331	104.69
371.794	112.29
372.257	100.69
372.72	110.59
373.183	104.39
373.646	90.79
374.109	102.39
374.572	97.19
375.035	104.69
375.497	100.29
375.96	103.49
376.423	104.99
376.886	111.29
377.349	113.99
377.811	97.39
378.274	100.19
378.737	102.69
379.199	110.69
379.662	106.79
380.125	113.69
380.587	106.39
381.05	118.09
381.512	120.09
381.975	119.49
382.437	117.39
382.9	117.69
383.362	127.99
383.825	131.79
384.287	132.99
384.75	126.39
385.212	126.49
385.674	137.39
386.136	131.79
386.599	124.19
387.061	118.59
387.523	122.39
387.985	131.59
388.447	137.89
388.91	130.79
389.372	135.89
389.834	140.59
390.296	129.89
390.758	138.89
391.22	146.89
391.682	171.99
392.144	210.59
392.606	174.09
393.068	148.79
393.529	159.39
393.991	148.79
394.453	133.59
394.915	145.99
395.377	156.69
395.838	164.99
396.3	140.29
396.762	144.09
397.224	133.29
397.685	134.39
398.147	131.49
398.608	134.59
399.07	138.49
399.531	137.19
399.993	148.19
400.454	153.29
400.916	152.49
401.377	149.09
401.839	152.29
402.3	154.19
402.762	171.29
403.223	179.29
403.684	176.89
404.145	169.29
404.607	156.59
405.068	170.49
405.529	165.29
405.99	193.79
406.451	175.49
406.913	175.39
407.374	166.59
407.835	166.09
408.296	178.39
408.757	174.09
409.218	188.79
409.679	182.59
410.14	172.39
410.601	176.79
411.062	189.89
411.522	188.09
411.983	184.09
412.444	182.39
412.905	182.59
413.366	186.19
413.826	207.59
414.287	230.69
414.748	273.09
415.208	257.59
415.669	227.29
416.13	209.79
416.59	213.29
417.051	214.29
417.511	225.69
417.972	249.39
418.432	266.99
418.893	295.19
419.353	266.99
419.814	211.09
420.274	191.09
420.734	192.19
421.195	198.89
421.655	196.99
422.115	193.49
422.576	205.99
423.036	208.39
423.496	217.59
423.956	221.39
424.416	238.69
424.876	278.79
425.336	269.49
425.797	272.89
426.257	269.19
426.717	250.39
427.177	241.49
427.637	228.39
428.097	238.49
428.556	245.99
429.016	282.59
429.476	267.29
429.936	277.49
430.396	286.29
430.856	297.39
431.315	325.99
431.775	355.59
432.235	388.49
432.694	358.39
433.154	376.69
433.614	403.59
434.073	350.99
434.533	291.19
434.993	275.59
435.452	289.09
435.912	303.79
436.371	292.19
436.83	287.39
437.29	271.39
437.749	259.59
438.209	257.29
438.668	283.19
439.127	298.69
439.587	271.09
440.046	259.69
440.505	271.99
440.964	289.49
441.424	327.09
441.883	317.39
442.342	268.99
442.801	236.49
443.26	236.49
443.719	233.09
444.178	235.69
444.637	218.09
445.096	233.59
445.555	236.59
446.014	238.89
446.473	244.79
446.932	243.69
447.391	232.19
447.849	239.59
448.308	231.59
448.767	240.99
449.226	246.69
449.685	252.79
450.143	264.39
450.602	257.39
451.061	236.49
451.519	242.89
451.978	242.29
452.436	239.09
452.895	251.69
453.353	262.59
453.812	250.29
454.27	243.19
454.729	252.49
455.187	255.89
455.646	265.89
456.104	262.79
456.562	275.89
457.021	280.69
457.479	278.89
457.937	291.89
458.395	272.09
458.854	269.29
459.312	273.79
459.77	290.49
460.228	263.79
460.686	254.29
461.144	267.49
461.602	261.59
462.06	259.29
462.518	268.49
462.976	275.79
463.434	269.79
463.892	269.99
464.35	278.69
464.808	302.79
465.266	277.39
465.724	285.59
466.181	284.09
466.639	279.09
467.097	301.09
467.555	303.89
468.012	314.29
468.47	334.69
468.928	343.49
469.385	356.99
469.843	361.19
470.3	366.89
470.758	385.69
471.215	396.79
471.673	433.39
472.13	423.59
472.588	434.69
473.045	395.09
473.503	394.29
473.96	414.89
474.417	430.59
474.875	465.89
475.332	497.39
475.789	485.09
476.246	489.39
476.704	518.29
477.161	525.59
477.618	540.49
478.075	582.79
478.532	638.79
478.989	712.09
479.446	830.99
479.903	786.59
480.36	821.19
480.817	867.19
481.274	974.89
481.731	1048.89
482.188	1140.39
482.645	1253.59
483.102	1356.79
483.558	1483.99
484.015	1518.59
484.472	1508.39
484.929	1466.39
485.385	1416.89
485.842	1391.69
486.299	1331.39
486.755	1283.89
487.212	1091.39
487.668	938.49
488.125	864.79
488.582	785.89
489.038	756.49
489.494	733.79
489.951	708.59
490.407	691.69
490.864	674.79
491.32	669.29
491.776	659.19
492.233	666.29
492.689	636.89
493.145	624.79
493.602	613.89
494.058	635.29
494.514	622.89
494.97	661.49
495.426	665.89
495.882	651.19
496.338	629.79
496.794	641.99
497.251	633.69
497.707	653.89
498.163	661.59
498.618	664.09
499.074	668.69
499.53	692.69
499.986	693.99
500.442	668.79
500.898	649.09
501.354	642.39
501.809	646.89
502.265	654.19
502.721	665.09
503.177	680.89
503.632	678.79
504.088	681.99
504.543	697.49
504.999	726.09
505.455	684.29
505.91	660.39
506.366	658.49
506.821	660.59
507.277	662.99
507.732	657.89
508.187	659.59
508.643	672.29
509.098	668.49
509.553	689.49
510.009	703.09
510.464	695.39
510.919	720.89
511.375	731.89
511.83	735.49
512.285	751.09
512.74	787.49
513.195	821.99
513.65	794.09
514.105	792.79
514.56	803.39
515.015	816.29
515.47	824.39
515.925	812.79
516.38	823.19
516.835	822.49
517.29	815.69
517.745	802.99
518.2	790.69
518.655	782.49
519.109	769.49
519.564	768.99
520.019	756.99
520.474	749.99
520.928	741.79
521.383	747.79
521.838	734.09
522.292	734.99
522.747	743.69
523.201	731.99
523.656	725.99
524.11	718.19
524.565	724.89
525.019	722.89
525.474	734.09
525.928	729.79
526.382	727.79
526.837	723.39
527.291	732.59
527.745	727.99
528.2	719.39
528.654	720.69
529.108	711.39
529.562	716.09
530.016	715.09
530.47	725.39
530.925	715.19
531.379	717.79
531.833	740.29
532.287	721.89
532.741	724.39
533.195	726.19
533.649	736.99
534.103	743.49
534.556	736.89
535.01	732.39
535.464	729.29
535.918	736.29
536.372	741.79
536.826	737.79
537.279	736.09
537.733	742.09
538.187	739.29
538.64	745.59
539.094	747.29
539.548	754.39
540.001	741.39
540.455	752.29
540.908	762.19
541.362	765.59
541.815	772.29
542.269	789.89
542.722	792.19
543.175	801.59
543.629	800.49
544.082	811.39
544.536	817.99
544.989	825.89
545.442	831.49
545.895	823.49
546.349	822.99
546.802	830.99
547.255	833.39
547.708	848.19
548.161	855.39
548.614	847.29
549.067	861.99
549.52	855.49
549.973	847.99
550.426	838.39
550.879	832.89
551.332	826.99
551.785	844.09
552.238	848.39
552.691	853.69
553.144	867.69
553.596	888.19
554.049	894.99
554.502	931.89
554.955	949.39
555.407	943.39
555.86	928.49
556.313	923.99
556.765	917.99
557.218	922.89
557.67	919.69
558.123	914.39
558.576	913.99
559.028	920.09
559.48	911.19
559.933	895.09
560.385	870.29
560.838	842.29
561.29	827.59
561.742	817.19
562.195	802.59
562.647	799.59
563.099	809.99
563.551	807.69
564.004	823.89
564.456	805.49
564.908	792.89
565.36	772.19
565.812	750.89
566.264	753.89
566.716	747.39
567.168	737.69
567.62	740.09
568.072	729.39
568.524	724.99
568.976	724.69
569.428	698.59
569.88	716.39
570.332	718.89
570.784	713.89
571.235	715.29
571.687	727.69
572.139	726.49
572.59	748.29
573.042	740.49
573.494	737.59
573.945	732.49
574.397	718.09
574.849	722.09
575.3	718.99
575.752	718.09
576.203	710.29
576.655	714.39
577.106	702.79
577.557	701.99
578.009	689.89
578.46	696.29
578.912	694.09
579.363	691.19
579.814	696.09
580.265	693.89
580.717	700.09
581.168	693.39
581.619	706.49
582.07	715.59
582.521	705.99
582.972	700.89
583.423	710.09
583.875	704.19
584.326	718.79
584.777	747.99
585.227	780.39
585.678	815.59
586.129	856.49
586.58	901.69
587.031	929.69
587.482	1000.19
587.933	1068.19
588.384	996.99
588.834	870.89
589.285	810.69
589.736	805.69
590.186	809.09
590.637	791.49
591.088	770.79
591.538	761.79
591.989	753.09
592.439	760.69
592.89	747.39
593.34	732.29
593.791	739.19
594.241	736.89
594.692	735.39
595.142	723.49
595.593	718.19
596.043	721.19
596.493	731.09
596.943	740.29
597.394	755.39
597.844	752.39
598.294	765.19
598.744	789.29
599.195	818.29
599.645	859.09
600.095	897.89
600.545	948.79
600.995	1003.19
601.445	1072.29
601.895	1125.19
602.345	1180.59
602.795	1159.49
603.245	1103.29
603.695	1054.19
604.145	1007.79
604.594	956.79
605.044	902.89
605.494	836.19
605.944	787.19
606.393	773.69
606.843	762.19
607.293	756.69
607.743	749.69
608.192	762.89
608.642	784.19
609.091	794.09
609.541	794.19
609.99	798.39
610.44	795.79
610.889	742.59
611.339	726.49
611.788	710.79
612.238	722.59
612.687	737.09
613.136	723.69
613.586	740.49
614.035	730.99
614.484	747.79
614.933	745.89
615.383	743.29
615.832	738.09
616.281	738.99
616.73	703.79
617.179	687.49
617.628	674.89
618.077	660.39
618.526	651.69
618.975	635.59
619.424	640.19
619.873	642.69
620.322	639.09
620.771	625.59
621.22	632.89
621.669	629.09
622.118	612.69
622.567	602.59
623.015	594.29
623.464	596.79
623.913	588.19
624.361	577.49
624.81	574.09
625.259	570.59
625.707	586.69
626.156	577.19
626.604	590.19
627.053	591.39
627.501	590.69
627.95	595.49
628.398	602.39
628.847	590.69
629.295	595.39
629.744	596.69
630.192	596.99
630.64	584.19
631.089	579.29
631.537	569.39
631.985	568.99
632.433	579.29
632.881	574.99
633.33	592.69
633.778	578.79
634.226	560.79
634.674	570.39
635.122	578.19
635.57	587.49
636.018	602.69
636.466	582.29
636.914	581.19
637.362	601.59
637.81	608.39
638.258	612.29
638.705	613.39
639.153	642.79
639.601	660.79
640.049	669.89
640.497	704.59
640.944	731.69
641.392	663.39
641.84	647.79
642.287	616.69
642.735	587.29
643.182	586.39
643.63	586.09
644.078	590.69
644.525	597.19
644.973	608.89
645.42	619.69
645.867	639.59
646.315	663.09
646.762	695.49
647.21	713.69
647.657	737.19
648.104	771.59
648.551	783.69
648.999	868.49
649.446	933.19
649.893	1023.69
650.34	1170.79
650.787	1403.29
651.234	1726.69
651.682	2251.19
652.129	3028.89
652.576	4331.49
653.023	6317.09
653.47	8511.59
653.917	10548.29
654.363	12080.49
654.81	13274.79
655.257	12595.09
655.704	8341.39
656.151	5003.69
656.598	3292.99
657.044	2347.39
657.491	1811.79
657.938	1481.59
658.385	1228.49
658.831	1076.19
659.278	966.79
659.724	861.79
660.171	789.69
660.618	735.89
661.064	706.59
661.511	687.79
661.957	675.89
662.404	660.79
662.85	670.19
663.296	654.49
663.743	584.29
664.189	558.39
664.635	556.29
665.082	554.09
665.528	552.59
665.974	545.69
666.42	521.49
666.867	535.89
667.313	505.79
667.759	496.39
668.205	474.69
668.651	477.69
669.097	481.49
669.543	467.09
669.989	469.39
670.435	466.59
670.881	471.49
671.327	476.09
671.773	499.59
672.219	513.99
672.665	574.19
673.11	615.29
673.556	661.69
674.002	704.99
674.448	692.79
674.893	576.49
675.339	497.99
675.785	463.99
676.23	436.59
676.676	420.19
677.122	402.19
677.567	389.69
678.013	387.89
678.458	382.79
678.904	379.79
679.349	356.99
679.794	369.89
680.24	365.39
680.685	363.59
681.131	364.79
681.576	375.89
682.021	377.39
682.466	369.69
682.912	363.49
683.357	376.19
683.802	403.39
684.247	433.49
684.692	479.79
685.137	520.69
685.583	563.59
686.028	590.79
686.473	549.09
686.918	475.29
687.363	435.69
687.807	411.49
688.252	381.79
688.697	372.09
689.142	352.99
689.587	352.69
690.032	351.19
690.477	361.69
690.921	375.59
691.366	396.49
691.811	417.59
692.255	458.79
692.7	486.79
693.145	539.79
693.589	749.19
694.034	1228.59
694.478	1628.89
694.923	1803.89
695.367	2352.19
695.812	1261.29
696.256	526.69
696.701	380.19
697.145	364.19
697.59	343.99
698.034	337.89
698.478	334.89
698.922	338.79
699.367	336.99
699.811	358.49
700.255	375.19
700.699	407.79
701.143	445.59
701.588	499.79
702.032	542.09
702.476	542.59
702.92	522.29
703.364	524.59
703.808	693.29
704.252	1137.19
704.696	1546.59
705.14	1768.39
705.584	2239.79
706.027	1125.49
706.471	554.59
706.915	419.29
707.359	370.99
707.803	341.19
708.246	326.69
708.69	322.49
709.134	326.29
709.577	329.79
710.021	333.79
710.465	326.19
710.908	315.59
711.352	310.89
711.795	329.19
712.239	375.59
712.682	408.89
713.126	430.19
713.569	479.79
714.012	374.29
714.456	326.09
714.899	307.99
715.342	284.09
715.786	273.99
716.229	274.39
716.672	266.89
717.115	259.29
717.558	256.99
718.002	265.49
718.445	273.89
718.888	297.69
719.331	307.89
719.774	321.79
720.217	319.09
720.66	295.09
721.103	276.99
721.546	265.39
721.989	263.59
722.432	246.19
722.874	245.79
723.317	239.39
723.76	246.59
724.203	271.89
724.645	341.59
725.088	478.19
725.531	604.69
725.974	680.59
726.416	577.69
726.859	326.79
727.301	257.99
727.744	253.89
728.187	248.89
728.629	246.09
729.071	254.79
729.514	274.09
729.956	291.79
730.399	301.49
730.841	307.19
731.283	298.09
731.726	279.49
732.168	274.29
732.61	289.89
733.053	304.69
733.495	334.79
733.937	376.59
734.379	415.29
734.821	465.49
735.263	585.09
735.705	914.39
736.148	1737.79
736.59	2769.09
737.032	3196.69
737.474	2582.59
737.916	864.49
738.357	462.69
738.799	348.29
739.241	318.39
739.683	301.89
740.125	308.29
740.567	311.99
741.008	332.39
741.45	338.09
741.892	337.19
742.334	369.99
742.775	378.79
743.217	361.29
743.658	287.09
744.1	271.49
744.542	284.39
744.983	328.19
745.425	358.09
745.866	363.89
746.307	305.99
746.749	296.89
747.19	342.69
747.632	499.09
748.073	974.99
748.514	2013.09
748.956	3061.79
749.397	3833.69
749.838	3158.49
750.279	3106.89
750.72	1588.49
751.162	576.49
751.603	346.19
752.044	266.69
752.485	224.49
752.926	219.49
753.367	215.89
753.808	205.69
754.249	197.99
754.69	195.99
755.131	187.29
755.572	190.39
756.013	184.39
756.453	187.69
756.894	201.49
757.335	203.89
757.776	209.29
758.216	198.19
758.657	211.89
759.098	214.59
759.538	240.49
759.979	282.99
760.42	403.29
760.86	786.49
761.301	2040.49
761.741	4773.19
762.182	6676.99
762.622	4729.69
763.063	1396.09
763.503	571.49
763.943	350.49
764.384	309.99
764.824	310.99
765.264	311.29
765.705	249.89
766.145	199.69
766.585	186.29
767.025	191.59
767.465	182.79
767.906	207.99
768.346	241.39
768.786	260.59
769.226	246.49
769.666	337.79
770.106	678.29
770.546	1714.39
770.986	2777.99
771.426	2464.59
771.866	841.29
772.306	349.19
772.745	220.29
773.185	181.09
773.625	169.69
774.065	151.69
774.505	175.19
774.944	247.69
775.384	473.39
775.824	773.49
776.263	748.19
776.703	344.59
777.142	180.69
777.582	152.19
778.021	139.19
778.461	127.69
778.9	134.09
779.34	138.69
779.779	117.89
780.219	114.19
780.658	110.49
781.097	115.29
781.537	118.49
781.976	117.69
782.415	109.59
782.855	107.29
783.294	111.19
783.733	107.19
784.172	108.59
784.611	109.19
785.05	113.39
785.489	117.59
785.928	119.59
786.367	123.49
786.806	125.79
787.245	135.89
787.684	136.09
788.123	156.69
788.562	144.59
789.001	134.29
789.44	126.79
789.879	124.29
790.317	120.69
790.756	130.39
791.195	130.99
791.634	159.39
792.072	215.29
792.511	389.79
792.95	1096.19
793.388	2235.39
793.827	1995.19
794.265	713.89
794.704	296.09
795.142	186.19
795.581	158.59
796.019	149.49
796.458	128.39
796.896	132.69
797.334	129.49
797.773	166.29
798.211	243.89
798.649	488.89
799.087	1109.99
799.526	1710.89
799.964	2162.79
800.402	2080.59
800.84	795.29
801.278	322.39
801.716	194.59
802.154	157.59
802.592	140.79
803.03	147.89
803.468	144.49
803.906	155.19
804.344	157.89
804.782	145.89
805.22	139.89
805.658	137.89
806.096	161.29
806.533	172.79
806.971	195.89
807.409	226.89
807.847	348.49
808.284	742.09
808.722	2042.19
809.16	3464.29
809.597	3399.29
810.035	5801.09
810.472	5953.29
810.91	2195.09
811.347	847.79
811.785	426.59
812.222	273.39
812.66	212.19
813.097	169.39
813.535	148.89
813.972	138.19
814.409	124.09
814.846	112.19
815.284	115.69
815.721	109.09
816.158	110.79
816.595	119.79
817.032	170.09
817.47	195.09
817.907	137.39
818.344	121.99
818.781	107.69
819.218	93.09
819.655	132.69
820.092	201.79
820.529	225.99
820.966	181.09
821.403	143.79
821.839	107.79
822.276	106.99
822.713	134.69
823.15	139.89
823.587	125.99
824.023	153.99
824.46	332.49
824.897	974.99
825.333	1418.79
825.77	617.19
826.206	245.79
826.643	144.39
827.08	105.29
827.516	93.69
827.953	85.39
828.389	91.39
828.825	70.79
829.262	70.69
829.698	65.79
830.135	66.59
830.571	66.19
831.007	65.79
831.443	69.19
831.88	58.29
832.316	66.49
832.752	62.99
833.188	66.19
833.624	69.09
834.06	71.49
834.497	70.29
834.933	68.09
835.369	80.89
835.805	72.89
836.241	80.99
836.677	82.09
837.112	93.59
837.548	110.59
837.984	150.39
838.42	216.49
838.856	552.39
839.292	1651.39
839.727	2391.59
840.163	1142.39
840.599	1015.99
841.034	2164.69
841.47	2203.79
841.906	807.09
842.341	349.99
842.777	220.79
843.212	245.49
843.648	229.79
844.083	124.79
844.519	87.29
844.954	77.09
845.39	60.99
845.825	61.09
846.261	60.69
846.696	48.79
847.131	50.59
847.566	54.89
848.002	59.89
848.437	53.39
848.872	63.99
849.307	64.99
849.742	84.49
850.177	198.69
850.613	590.99
851.048	926.69
851.483	391.19
851.918	157.69
852.353	90.39
852.788	57.19
853.223	50.69
853.657	58.49
854.092	46.89
854.527	43.59
854.962	43.29
855.397	48.59
855.832	51.49
856.266	40.99
856.701	45.49
857.136	38.29
857.57	41.49
858.005	58.29
858.44	60.99
858.874	47.99
859.309	51.79
859.743	45.69
860.178	51.89
860.612	53.99
861.047	54.29
861.481	76.79
861.915	73.39
862.35	49.89
862.784	36.19
863.218	39.89
863.653	30.59
864.087	39.29
864.521	62.19
864.955	76.09
865.39	169.99
865.824	183.29
866.258	121.99
866.692	178.29
867.126	184.59
867.56	109.79
867.994	56.69
868.428	45.89
868.862	47.19
869.296	58.69
869.73	57.49
870.164	57.79
870.598	52.09
871.031	40.89
871.465	29.49
871.899	31.99
872.333	29.09
872.766	27.39
873.2	30.79
873.634	31.79
874.067	26.69
874.501	24.79
874.935	29.69
875.368	33.49
875.802	33.19
876.235	28.79
876.669	23.99
877.102	21.29
877.535	24.49
877.969	23.59
878.402	25.89
878.836	17.29
879.269	23.19
879.702	24.39
880.135	19.89
880.569	18.99
881.002	32.79
881.435	24.09
881.868	16.39
882.301	23.29
882.734	8.29
883.167	22.09
883.601	17.59
884.034	21.09
884.467	16.79
884.899	27.39
885.332	12.29
885.765	16.19
886.198	17.09
886.631	19.39
887.064	9.69
887.497	25.89
887.929	23.69
888.362	14.49
888.795	17.79
889.228	17.99
889.66	18.89
890.093	11.69
890.526	17.29
890.958	15.39
891.391	12.99
891.823	25.69
892.256	10.89
892.688	12.59
893.121	10.59
893.553	6.39
893.985	27.89
894.418	17.59
894.85	10.39
895.282	17.09
895.715	19.19
896.147	16.29
896.579	18.89
897.011	10.89
897.444	17.69
897.876	18.89
898.308	13.39
898.74	22.49
899.172	8.39
899.604	22.79
900.036	23.29
900.468	17.79
900.9	13.29
901.332	17.59
901.764	18.39
902.196	16.79
902.628	17.49
903.06	16.19
903.491	36.29
903.923	20.49
904.355	21.49
904.787	22.19
905.218	26.49
905.65	27.09
906.082	15.59
906.513	12.19
906.945	16.79
907.376	18.09
907.808	23.89
908.239	26.09
908.671	16.29
909.102	24.89
909.534	22.29
909.965	52.79
910.397	104.99
910.828	336.99
911.259	495.69
911.691	228.39
912.122	121.89
912.553	52.99
912.984	34.09
913.415	31.29
913.847	22.29
914.278	16.59
914.709	18.19
915.14	17.59
915.571	13.89
916.002	15.29
916.433	17.29
916.864	17.69
917.295	0.69
917.726	22.99
918.157	19.79
918.587	27.89
919.018	23.49
919.449	22.19
919.88	21.09
920.311	26.99
920.741	51.59
921.172	181.09
921.603	157.49
922.033	76.39
922.464	46.69
922.895	28.19
923.325	18.29
923.756	15.79
924.186	8.49
924.617	21.89
925.047	26.69
925.478	29.49
925.908	26.19
926.338	14.09
926.769	12.99
927.199	13.79
927.629	9.19
928.06	12.09
928.49	13.69
928.92	13.49
929.35	7.59
929.78	13.89
930.21	6.79
930.641	5.29
931.071	7.69
931.501	9.29
931.931	5.69
932.361	10.19
932.791	-0.01
933.221	7.99
933.651	2.99
934.08	21.49
934.51	36.29
934.94	11.59
935.37	5.89
935.8	6.89
936.229	8.09
936.659	5.89
937.089	11.89
937.519	18.99
937.948	23.89
938.378	18.69
938.807	8.39
939.237	2.49
939.666	9.09
940.096	-6.21
940.525	-2.01
940.955	4.89
941.384	-0.01
941.814	-2.61
942.243	2.39
942.672	2.59
943.102	-1.71
943.531	-6.31
943.96	1.29
944.39	3.79
944.819	2.09
945.248	-0.01
945.677	-0.11
946.106	3.69
946.535	7.19
946.964	-1.31
947.393	-1.01
947.822	7.39
948.251	-8.21
948.68	3.09
949.109	2.59
949.538	6.19
949.967	0.79
950.396	-3.91
950.825	0.89
951.254	-3.51
951.682	-7.51
952.111	4.09
952.54	8.49
952.969	-4.61
953.397	-7.31
953.826	-1.71
954.254	-8.91
954.683	1.09
955.112	-1.81
955.54	1.39
955.969	4.19
956.397	-3.51
956.826	-3.01
957.254	4.59
957.682	1.89
958.111	1.59
958.539	4.99
958.967	1.99
959.396	-1.21
959.824	4.09
960.252	-2.01
960.68	-4.21
961.109	-4.31
961.537	-3.11
961.965	-3.61
962.393	-2.11
962.821	-8.21
963.249	-3.71
963.677	-0.81
964.105	9.69
964.533	49.79
964.961	44.29
965.389	19.59
965.817	4.49
966.245	-0.01
966.672	-0.51
967.1	-6.91
967.528	2.69
967.956	-3.11
968.383	-0.41
968.811	-5.71
969.239	-5.61
969.666	-4.81
970.094	5.99
970.522	-3.91
970.949	-0.11
971.377	-4.11
971.804	-4.21
972.232	-8.21
972.659	-3.71
973.087	-3.71
973.514	-4.21
973.941	-2.21
974.369	7.09
974.796	0.89
975.223	0.39
975.651	-3.11
976.078	1.39
976.505	-2.91
976.932	0.69
977.359	17.39
977.786	13.99
978.214	-0.31
978.641	-5.91
979.068	-5.51
979.495	-9.41
979.922	-4.51
980.349	-6.71
980.776	1.29
981.202	-3.81
981.629	0.99
982.056	1.69
982.483	1.99
982.91	2.69
983.337	-2.11
983.763	0.59
984.19	-5.51
984.617	-0.41
985.043	-6.71
985.47	3.49
985.897	-4.31
986.323	-9.61
986.75	-1.51
987.176	-4.41
987.603	-0.11
988.029	1.29
988.456	1.99
988.882	-1.01
989.308	-5.11
989.735	-5.61
990.161	5.29
990.587	-4.51
991.014	-4.01
991.44	-0.81
991.866	-2.31
992.292	-11.51
992.719	-7.51
993.145	0.19
993.571	-10.01
993.997	-4.61
994.423	-4.91
994.849	-6.21
995.275	3.99
995.701	0.59
996.127	-2.11
996.553	2.69
996.979	-2.71
997.405	-0.31
997.83	-6.91
998.256	-8.01
998.682	-6.01
999.108	-8.71
999.534	-2.51
999.959	-6.51
1000.385	-6.21
1000.811	3.69
1001.236	-8.61
1001.662	-2.81
1002.087	-9.91
1002.513	-0.31
1002.938	1.09
1003.364	0.79
1003.789	2.39
1004.215	3.59
1004.64	-3.61
1005.066	0.49
1005.491	1.79
1005.916	-8.01
1006.342	-5.81
1006.767	-10.41
1007.192	8.79
1007.617	-4.61
1008.042	-1.91
1008.468	-11.71
1008.893	-6.21
1009.318	-6.21
1009.743	-4.21
1010.168	0.29
1010.593	-3.61
1011.018	-7.11
1011.443	-0.61
1011.868	-0.81
1012.293	-1.91
1012.718	-7.41
1013.143	1.29
1013.567	0.89
1013.992	-0.81
1014.417	-15.11
1014.842	2.99
1015.267	-4.81
1015.691	-7.21
1016.116	2.89
1016.541	-4.51
1016.965	1.29
1017.39	0.09
1017.814	0.99
1018.239	2.99
1018.663	-6.01
1019.088	-11.41
1019.512	-8.91
1019.937	-0.31
1020.361	-6.71
1020.785	-9.31
1021.21	-3.21
1021.634	-3.31
1022.058	-2.81
1022.483	2.79
1022.907	-4.21
1023.331	-6.11
1023.755	-6.11
1024.179	-3.61
1024.604	-5.61
1025.028	-9.11
1025.452	-4.11
1025.876	-4.31
1026.3	-1.11
1026.724	-8.71
1027.148	-4.71
1027.572	-9.81
1027.996	-5.91
1028.42	-5.51
1028.843	-13.61
1029.267	-4.31
1029.691	-4.21
1030.115	-5.51
1030.539	-8.81
1030.962	-6.91
1031.386	-11.11
1031.81	-4.41
1032.233	5.69
1032.657	-10.21
1033.08	0.49
1033.504	-2.91
1033.927	-4.51
1034.351	-1.21
1034.774	-4.71
1035.198	-3.51
1035.621	-6.01
1036.045	-4.31
1036.468	4.19
1036.891	-13.81
1037.315	-6.41
1037.738	-12.11
1038.161	-2.31
1038.584	-5.91
1039.008	-7.01
1039.431	-2.11
1039.854	-3.51
1040.277	-8.11
1040.7	-11.51
1041.123	-0.91
1041.546	-14.01
1041.969	-7.61
1042.392	-6.11
1042.815	2.99
1043.238	1.19
1043.661	2.59
1044.084	-11.71
1044.507	-3.61
1044.93	-6.31
1045.352	-7.21
1045.775	-0.81
1046.198	0.89
1046.621	-1.91
1047.043	-4.81
1047.466	6.79
1047.889	-0.41
1048.311	-5.61
1048.734	-3.81
1049.156	3.99
1049.579	-1.81
1050.001	-7.31
1050.424	-2.81
1050.846	-2.91
1051.269	-1.81
1051.691	-6.71
1052.113	-4.21
1052.536	-4.31
1052.958	-4.61
1053.38	-5.31
1053.802	-7.91
1054.225	3.69
1054.647	-12.71
1055.069	-8.41
1055.491	0.99
1055.913	-11.41
1056.335	-4.71
1056.757	-6.01
1057.179	-3.91
1057.601	-6.31
1058.023	-2.91
1058.445	-7.21
1058.867	-4.91
1059.289	-0.41
1059.711	-4.61
1060.133	-2.21
1060.555	-5.61
1060.976	-10.01
1061.398	-6.61
1061.82	-4.61
1062.241	-8.71
1062.663	-8.71
1063.085	-4.81
1063.506	-0.21
1063.928	-10.81
1064.35	-0.31
1064.771	-14.01
1065.193	-3.51
1065.614	-12.51
1066.035	-4.51
1066.457	-4.51
1066.878	-0.31
1067.3	-3.21
1067.721	-0.01
1068.142	-3.41
1068.564	-7.21
1068.985	-10.11
1069.406	-3.01
1069.827	-2.61
1070.248	-2.61
1070.67	-10.91
1071.091	-3.81
1071.512	-5.91
1071.933	-8.01
1072.354	-4.21
1072.775	-6.51
1073.196	-12.91
1073.617	-5.61
1074.038	-6.81
1074.459	-5.91
1074.88	-4.61
1075.3	-4.61
1075.721	-8.81
1076.142	-6.51
1076.563	-5.01
1076.983	-12.01
1077.404	-8.21
1077.825	-5.91
1078.246	-5.21
1078.666	-13.81
1079.087	-7.61
1079.507	-9.51
1079.928	-1.91
1080.348	-2.91
1080.769	-2.01
1081.189	-0.01
1081.61	-4.91
1082.03	-8.91
1082.451	-8.11
1082.871	-5.21
1083.291	-5.21
1083.711	-12.01
1084.132	-5.91
1084.552	-8.31
1084.972	-4.81
1085.392	-14.41
1085.813	-13.81
1086.233	-4.91
1086.653	-3.71
1087.073	-7.21
1087.493	-4.61
1087.913	-1.61
1088.333	-15.51
1088.753	-3.71
1089.173	0.69
1089.593	-8.61
1090.013	3.59
1090.433	3.49
1090.852	-5.01
1091.272	-3.71
1091.692	-3.11
1092.112	-6.41
1092.531	-7.11
1092.951	-15.81
1093.371	-1.51
1093.79	-0.61
1094.21	-7.81
1094.63	-4.31
1095.049	-5.01
1095.469	-5.41
1095.888	-8.51
1096.308	-1.91
1096.727	4.19
1097.146	-6.91
1097.566	-0.01
1097.985	-9.81
1098.405	-3.41
1098.824	-2.41
1099.243	-4.31
1099.662	-14.11
1100.082	-6.11
1100.501	-6.41
1100.92	-0.81
1101.339	-2.61
1101.758	-8.61
