Data from 20171114-ORNL-Ar_H_NY_Subt18_08-08-05-830.txt Node
Date: Tue Nov 14 08:08:05 EST 2017
User: Ender
Spectrometer: HR+D1039
Trigger mode: 0
Integration Time (sec): 2.730000E-2
Scans to average: 10
Electric dark correction enabled: true
Nonlinearity correction enabled: false
Boxcar width: 0
XAxis mode: Wavelengths
Number of Pixels in Spectrum: 2048
>>>>>Begin Spectral Data<<<<<
187.836	-5.91
188.309	-5.91
188.782	-5.91
189.255	5.89
189.728	-1.31
190.201	3.19
190.674	3.49
191.147	2.29
191.619	-6.71
192.092	0.19
192.565	6.89
193.038	0.99
193.511	-0.91
193.984	-4.71
194.456	1.19
194.929	0.39
195.402	-2.41
195.874	-2.61
196.347	-4.01
196.82	-10.91
197.292	1.59
197.765	-2.01
198.237	-3.61
198.71	3.69
199.182	0.59
199.655	0.49
200.127	4.59
200.6	-0.01
201.072	-8.51
201.544	-5.41
202.017	-4.81
202.489	3.39
202.961	-4.31
203.433	0.49
203.906	-3.91
204.378	-10.71
204.85	-7.01
205.322	-7.01
205.794	-3.41
206.266	-5.41
206.739	-8.21
207.211	-0.81
207.683	-6.71
208.155	-6.31
208.627	-7.61
209.099	-1.41
209.57	-10.81
210.042	-7.41
210.514	-5.41
210.986	-2.71
211.458	-6.81
211.93	-2.21
212.402	7.09
212.873	-5.41
213.345	-7.31
213.817	-12.01
214.288	-4.01
214.76	-11.51
215.232	-2.31
215.703	-3.51
216.175	-3.01
216.646	-5.41
217.118	-7.21
217.589	-4.41
218.061	-3.01
218.532	-1.21
219.004	-0.51
219.475	-0.71
219.946	-2.81
220.418	-3.51
220.889	-0.01
221.36	-2.71
221.832	-5.81
222.303	-7.91
222.774	0.99
223.245	-8.81
223.717	-4.61
224.188	-4.21
224.659	-8.61
225.13	-8.11
225.601	-8.11
226.072	-0.91
226.543	-0.91
227.014	-4.31
227.485	2.19
227.956	-9.61
228.427	-7.91
228.898	-2.41
229.369	-1.41
229.839	-4.31
230.31	-7.41
230.781	3.79
231.252	-3.31
231.722	-6.31
232.193	-5.81
232.664	-5.41
233.135	2.69
233.605	-1.81
234.076	-6.41
234.546	2.89
235.017	4.79
235.487	-1.61
235.958	-4.91
236.428	-2.71
236.899	2.09
237.369	4.69
237.84	-3.21
238.31	5.49
238.78	-3.71
239.251	-2.61
239.721	0.49
240.191	-4.61
240.662	-4.61
241.132	-1.01
241.602	0.39
242.072	3.39
242.542	5.69
243.013	-6.61
243.483	-0.31
243.953	-0.21
244.423	-2.51
244.893	-2.31
245.363	0.19
245.833	4.19
246.303	-3.51
246.773	8.29
247.243	1.59
247.712	3.49
248.182	3.79
248.652	2.79
249.122	-8.01
249.592	10.29
250.061	24.29
250.531	30.09
251.001	9.79
251.471	20.79
251.94	16.39
252.41	-1.41
252.879	1.79
253.349	11.19
253.818	9.19
254.288	4.99
254.757	3.79
255.227	0.59
255.696	8.19
256.166	1.99
256.635	8.19
257.105	4.59
257.574	8.19
258.043	9.79
258.513	7.29
258.982	18.49
259.451	6.79
259.92	10.79
260.389	6.39
260.859	9.89
261.328	8.69
261.797	15.29
262.266	10.89
262.735	10.09
263.204	0.89
263.673	3.29
264.142	7.69
264.611	-8.91
265.08	-2.21
265.549	2.29
266.018	2.79
266.487	-0.31
266.955	-2.91
267.424	0.79
267.893	0.89
268.362	0.89
268.83	4.59
269.299	8.59
269.768	10.79
270.236	1.69
270.705	1.69
271.174	7.29
271.642	8.39
272.111	11.99
272.579	15.59
273.048	20.39
273.516	28.99
273.985	25.09
274.453	21.89
274.922	16.59
275.39	7.69
275.858	3.49
276.327	13.39
276.795	20.99
277.263	11.59
277.731	28.49
278.2	54.09
278.668	53.89
279.136	42.09
279.604	18.49
280.072	18.49
280.54	10.69
281.008	6.09
281.477	8.89
281.945	12.79
282.413	15.59
282.881	18.49
283.348	7.29
283.816	15.59
284.284	12.29
284.752	15.09
285.22	9.69
285.688	13.69
286.156	14.49
286.623	44.99
287.091	44.39
287.559	26.09
288.026	16.29
288.494	19.79
288.962	7.29
289.429	12.49
289.897	16.79
290.364	12.49
290.832	13.19
291.3	12.49
291.767	17.09
292.234	14.79
292.702	12.29
293.169	12.09
293.637	20.99
294.104	21.39
294.571	12.69
295.039	12.19
295.506	15.59
295.973	17.39
296.44	11.69
296.908	21.09
297.375	13.59
297.842	17.69
298.309	15.79
298.776	9.49
299.243	17.99
299.71	14.99
300.177	19.59
300.644	19.49
301.111	17.89
301.578	20.19
302.045	16.09
302.512	18.79
302.979	20.69
303.446	17.49
303.913	12.29
304.379	23.79
304.846	27.39
305.313	23.49
305.78	20.39
306.246	24.09
306.713	27.19
307.18	24.89
307.646	28.29
308.113	25.99
308.579	25.29
309.046	20.39
309.512	23.39
309.979	14.49
310.445	31.69
310.912	28.69
311.378	30.79
311.845	28.59
312.311	28.59
312.777	33.49
313.244	29.39
313.71	36.19
314.176	25.69
314.642	25.79
315.109	33.39
315.575	31.39
316.041	40.79
316.507	36.69
316.973	36.29
317.439	32.89
317.905	39.69
318.371	32.19
318.837	29.99
319.303	23.09
319.769	30.89
320.235	35.29
320.701	33.99
321.167	31.59
321.633	29.39
322.099	35.49
322.564	46.19
323.03	43.59
323.496	38.99
323.962	39.79
324.427	32.49
324.893	36.59
325.359	39.99
325.824	34.19
326.29	37.79
326.755	35.99
327.221	42.49
327.686	39.09
328.152	42.09
328.617	43.49
329.083	44.59
329.548	53.59
330.014	46.49
330.479	36.59
330.944	44.29
331.41	38.49
331.875	43.29
332.34	38.49
332.805	38.69
333.271	44.09
333.736	42.39
334.201	53.89
334.666	51.69
335.131	58.29
335.596	53.99
336.061	51.79
336.526	37.19
336.991	45.29
337.456	56.19
337.921	51.09
338.386	40.99
338.851	42.59
339.316	49.29
339.781	41.79
340.246	47.39
340.711	47.49
341.175	50.89
341.64	43.39
342.105	50.39
342.569	56.39
343.034	65.59
343.499	48.89
343.963	44.89
344.428	58.39
344.893	58.39
345.357	59.79
345.822	64.19
346.286	68.99
346.751	66.79
347.215	71.09
347.679	68.79
348.144	97.29
348.608	74.59
349.073	64.69
349.537	74.29
350.001	77.99
350.465	90.19
350.93	76.99
351.394	73.29
351.858	64.49
352.322	83.09
352.786	90.29
353.25	100.29
353.715	112.79
354.179	103.39
354.643	119.59
355.107	126.29
355.571	108.09
356.035	105.69
356.498	120.59
356.962	119.99
357.426	134.89
357.89	117.89
358.354	89.89
358.818	90.89
359.281	83.09
359.745	76.59
360.209	76.99
360.673	72.89
361.136	73.69
361.6	88.39
362.064	78.49
362.527	79.79
362.991	89.49
363.454	83.99
363.918	78.89
364.381	82.09
364.845	83.19
365.308	79.49
365.772	87.09
366.235	88.69
366.698	87.29
367.162	94.39
367.625	89.89
368.088	84.39
368.552	88.09
369.015	93.49
369.478	101.49
369.941	103.09
370.404	94.09
370.867	109.59
371.331	108.99
371.794	119.99
372.257	115.69
372.72	123.39
373.183	112.69
373.646	102.09
374.109	98.09
374.572	106.09
375.035	106.89
375.497	102.89
375.96	102.59
376.423	108.29
376.886	116.19
377.349	112.69
377.811	102.79
378.274	104.39
378.737	111.39
379.199	117.09
379.662	117.99
380.125	120.09
380.587	115.49
381.05	122.89
381.512	131.49
381.975	137.39
382.437	129.69
382.9	127.09
383.362	135.79
383.825	141.09
384.287	146.19
384.75	142.29
385.212	139.19
385.674	142.49
386.136	137.19
386.599	126.19
387.061	128.79
387.523	126.69
387.985	135.19
388.447	146.29
388.91	156.39
389.372	163.59
389.834	159.39
390.296	149.69
390.758	161.29
391.22	170.29
391.682	217.19
392.144	311.59
392.606	231.19
393.068	170.09
393.529	168.59
393.991	165.49
394.453	155.09
394.915	166.29
395.377	197.99
395.838	224.19
396.3	165.09
396.762	144.99
397.224	130.19
397.685	130.09
398.147	135.59
398.608	127.29
399.07	126.79
399.531	135.79
399.993	147.79
400.454	149.69
400.916	139.69
401.377	146.09
401.839	150.49
402.3	151.09
402.762	171.39
403.223	185.59
403.684	170.19
404.145	164.49
404.607	164.69
405.068	168.49
405.529	176.89
405.99	186.29
406.451	181.59
406.913	178.19
407.374	167.59
407.835	167.39
408.296	172.29
408.757	176.49
409.218	197.19
409.679	192.09
410.14	179.29
410.601	182.59
411.062	191.59
411.522	196.79
411.983	198.29
412.444	183.49
412.905	182.69
413.366	191.89
413.826	190.59
414.287	222.09
414.748	262.79
415.208	250.09
415.669	219.99
416.13	215.39
416.59	208.19
417.051	217.79
417.511	216.99
417.972	248.09
418.432	256.69
418.893	297.29
419.353	256.89
419.814	208.49
420.274	188.49
420.734	190.19
421.195	204.89
421.655	203.49
422.115	199.69
422.576	206.09
423.036	203.59
423.496	210.39
423.956	227.19
424.416	230.49
424.876	269.19
425.336	270.09
425.797	271.79
426.257	260.39
426.717	252.29
427.177	239.39
427.637	228.49
428.097	250.59
428.556	256.29
429.016	280.89
429.476	274.89
429.936	284.79
430.396	284.39
430.856	298.09
431.315	326.79
431.775	352.89
432.235	392.19
432.694	362.79
433.154	376.39
433.614	397.29
434.073	352.69
434.533	297.39
434.993	278.69
435.452	293.49
435.912	298.49
436.371	299.69
436.83	287.79
437.29	276.29
437.749	259.39
438.209	252.59
438.668	285.59
439.127	303.89
439.587	271.79
440.046	253.19
440.505	263.69
440.964	288.49
441.424	336.09
441.883	322.99
442.342	266.59
442.801	234.69
443.26	227.79
443.719	233.39
444.178	221.79
444.637	218.59
445.096	230.99
445.555	226.89
446.014	235.99
446.473	234.89
446.932	239.29
447.391	234.59
447.849	231.59
448.308	220.49
448.767	224.39
449.226	243.99
449.685	239.29
450.143	260.69
450.602	242.89
451.061	230.59
451.519	237.09
451.978	229.09
452.436	234.49
452.895	243.19
453.353	257.59
453.812	249.39
454.27	246.39
454.729	244.19
455.187	250.69
455.646	243.29
456.104	252.69
456.562	265.99
457.021	274.79
457.479	264.89
457.937	277.39
458.395	272.29
458.854	255.69
459.312	262.49
459.77	278.69
460.228	260.99
460.686	236.39
461.144	252.29
461.602	256.09
462.06	249.49
462.518	259.69
462.976	266.39
463.434	257.69
463.892	271.69
464.35	281.19
464.808	290.19
465.266	270.99
465.724	267.19
466.181	278.49
466.639	277.09
467.097	286.89
467.555	304.09
468.012	308.19
468.47	316.79
468.928	336.89
469.385	350.39
469.843	348.99
470.3	358.89
470.758	376.59
471.215	393.29
471.673	418.29
472.13	415.39
472.588	428.49
473.045	385.59
473.503	385.79
473.96	402.59
474.417	410.39
474.875	445.89
475.332	486.49
475.789	470.49
476.246	469.79
476.704	491.79
477.161	513.59
477.618	532.69
478.075	578.59
478.532	640.69
478.989	701.79
479.446	826.69
479.903	790.79
480.36	825.79
480.817	885.19
481.274	978.49
481.731	1084.49
482.188	1178.29
482.645	1312.29
483.102	1420.69
483.558	1551.69
484.015	1622.99
484.472	1592.59
484.929	1545.69
485.385	1488.49
485.842	1455.69
486.299	1388.39
486.755	1319.49
487.212	1099.69
487.668	942.99
488.125	866.39
488.582	798.79
489.038	762.79
489.494	710.99
489.951	696.99
490.407	674.29
490.864	654.39
491.32	641.49
491.776	653.09
492.233	658.69
492.689	625.29
493.145	618.19
493.602	602.39
494.058	615.59
494.514	626.99
494.97	641.69
495.426	649.39
495.882	636.59
496.338	624.29
496.794	627.99
497.251	628.89
497.707	643.59
498.163	643.19
498.618	644.69
499.074	654.99
499.53	685.49
499.986	676.09
500.442	664.49
500.898	634.09
501.354	633.39
501.809	634.99
502.265	649.89
502.721	673.39
503.177	684.59
503.632	673.99
504.088	679.09
504.543	717.29
504.999	713.49
505.455	659.79
505.91	629.69
506.366	633.99
506.821	632.69
507.277	624.49
507.732	634.49
508.187	631.09
508.643	635.19
509.098	630.99
509.553	655.89
510.009	671.79
510.464	674.89
510.919	699.99
511.375	704.39
511.83	697.39
512.285	735.39
512.74	758.89
513.195	789.39
513.65	776.49
514.105	772.09
514.56	780.89
515.015	804.89
515.47	810.99
515.925	792.99
516.38	790.59
516.835	798.69
517.29	788.69
517.745	777.09
518.2	764.19
518.655	765.29
519.109	751.59
519.564	748.29
520.019	732.09
520.474	737.59
520.928	727.39
521.383	728.79
521.838	714.39
522.292	716.59
522.747	709.59
523.201	705.49
523.656	706.29
524.11	695.69
524.565	706.69
525.019	702.69
525.474	715.99
525.928	712.19
526.382	709.89
526.837	699.99
527.291	707.49
527.745	709.59
528.2	708.89
528.654	692.09
529.108	687.49
529.562	701.59
530.016	698.09
530.47	697.09
530.925	689.79
531.379	701.79
531.833	709.59
532.287	702.89
532.741	698.69
533.195	712.39
533.649	719.89
534.103	717.29
534.556	721.29
535.01	713.89
535.464	707.19
535.918	718.09
536.372	716.39
536.826	718.19
537.279	697.59
537.733	716.59
538.187	725.99
538.64	720.79
539.094	723.49
539.548	729.49
540.001	732.69
540.455	726.19
540.908	739.19
541.362	735.39
541.815	744.99
542.269	770.69
542.722	771.59
543.175	764.49
543.629	774.19
544.082	799.09
544.536	796.29
544.989	791.79
545.442	796.39
545.895	800.09
546.349	795.99
546.802	797.79
547.255	806.89
547.708	822.79
548.161	821.79
548.614	820.99
549.067	829.69
549.52	830.99
549.973	813.19
550.426	805.49
550.879	800.59
551.332	797.79
551.785	810.99
552.238	814.79
552.691	823.89
553.144	840.49
553.596	851.49
554.049	872.49
554.502	889.89
554.955	910.19
555.407	911.39
555.86	902.09
556.313	895.99
556.765	888.19
557.218	883.69
557.67	881.79
558.123	878.99
558.576	876.49
559.028	877.39
559.48	891.69
559.933	877.79
560.385	846.39
560.838	812.09
561.29	796.39
561.742	790.99
562.195	774.99
562.647	772.09
563.099	790.49
563.551	773.09
564.004	795.29
564.456	778.29
564.908	766.89
565.36	751.69
565.812	745.99
566.264	736.99
566.716	726.49
567.168	729.29
567.62	735.29
568.072	712.69
568.524	714.89
568.976	685.49
569.428	682.79
569.88	679.69
570.332	687.29
570.784	697.79
571.235	685.79
571.687	698.89
572.139	707.99
572.59	710.59
573.042	714.69
573.494	717.99
573.945	714.79
574.397	691.19
574.849	696.19
575.3	702.39
575.752	689.99
576.203	678.59
576.655	697.79
577.106	677.19
577.557	673.19
578.009	672.09
578.46	670.79
578.912	663.39
579.363	674.69
579.814	679.19
580.265	668.09
580.717	667.69
581.168	672.79
581.619	677.99
582.07	683.99
582.521	679.39
582.972	672.79
583.423	691.09
583.875	690.39
584.326	722.79
584.777	749.09
585.227	841.79
585.678	928.19
586.129	1012.19
586.58	1099.89
587.031	1161.59
587.482	1319.69
587.933	1511.29
588.384	1312.59
588.834	988.49
589.285	812.39
589.736	785.49
590.186	783.89
590.637	775.39
591.088	745.49
591.538	747.29
591.989	742.19
592.439	734.29
592.89	717.79
593.34	711.39
593.791	713.99
594.241	716.29
594.692	715.29
595.142	712.09
595.593	704.79
596.043	712.99
596.493	722.69
596.943	720.99
597.394	725.49
597.844	725.09
598.294	741.39
598.744	764.09
599.195	778.79
599.645	826.09
600.095	873.09
600.545	927.89
600.995	975.89
601.445	1040.29
601.895	1103.59
602.345	1146.89
602.795	1131.09
603.245	1072.29
603.695	1031.69
604.145	967.69
604.594	927.49
605.044	862.19
605.494	807.79
605.944	759.79
606.393	746.49
606.843	730.79
607.293	749.99
607.743	749.89
608.192	752.59
608.642	763.09
609.091	765.89
609.541	769.89
609.99	782.09
610.44	783.89
610.889	730.89
611.339	709.09
611.788	700.89
612.238	706.49
612.687	731.89
613.136	728.39
613.586	754.69
614.035	759.49
614.484	763.29
614.933	769.59
615.383	752.69
615.832	749.09
616.281	734.69
616.73	696.09
617.179	664.39
617.628	659.19
618.077	638.99
618.526	624.99
618.975	630.49
619.424	622.29
619.873	621.69
620.322	627.19
620.771	604.19
621.22	611.29
621.669	603.69
622.118	597.39
622.567	581.49
623.015	575.39
623.464	579.49
623.913	569.69
624.361	557.59
624.81	563.39
625.259	562.99
625.707	552.99
626.156	569.49
626.604	572.69
627.053	574.29
627.501	569.49
627.95	574.19
628.398	586.19
628.847	579.29
629.295	575.79
629.744	590.79
630.192	573.69
630.64	578.39
631.089	571.59
631.537	592.29
631.985	596.19
632.433	612.29
632.881	618.79
633.33	676.19
633.778	662.79
634.226	586.49
634.674	588.59
635.122	576.19
635.57	605.69
636.018	631.69
636.466	592.59
636.914	575.39
637.362	579.29
637.81	578.89
638.258	586.79
638.705	586.79
639.153	616.39
639.601	621.69
640.049	645.79
640.497	681.59
640.944	703.09
641.392	646.19
641.84	627.39
642.287	586.89
642.735	563.99
643.182	573.79
643.63	568.69
644.078	587.99
644.525	598.29
644.973	613.99
645.42	613.89
645.867	630.59
646.315	645.99
646.762	677.39
647.21	697.89
647.657	719.99
648.104	764.49
648.551	788.79
648.999	857.09
649.446	934.19
649.893	1023.89
650.34	1191.69
650.787	1430.19
651.234	1765.49
651.682	2313.89
652.129	3191.79
652.576	4608.79
653.023	6809.29
653.47	9301.59
653.917	11514.59
654.363	13221.29
654.81	14516.59
655.257	13827.59
655.704	9033.19
656.151	5349.39
656.598	3479.29
657.044	2450.39
657.491	1892.89
657.938	1510.49
658.385	1264.69
658.831	1100.19
659.278	966.39
659.724	869.89
660.171	790.59
660.618	732.79
661.064	694.59
661.511	668.69
661.957	668.79
662.404	647.19
662.85	656.69
663.296	627.39
663.743	569.59
664.189	552.39
664.635	537.59
665.082	532.29
665.528	533.09
665.974	531.59
666.42	511.09
666.867	511.19
667.313	508.19
667.759	480.89
668.205	487.69
668.651	503.19
669.097	494.49
669.543	511.09
669.989	472.69
670.435	460.99
670.881	458.69
671.327	453.79
671.773	470.19
672.219	500.79
672.665	552.29
673.11	594.49
673.556	640.29
674.002	673.39
674.448	664.29
674.893	560.29
675.339	482.49
675.785	444.39
676.23	418.89
676.676	399.39
677.122	393.09
677.567	375.69
678.013	371.99
678.458	355.59
678.904	368.89
679.349	359.09
679.794	361.59
680.24	361.49
680.685	349.59
681.131	353.19
681.576	351.69
682.021	362.29
682.466	354.79
682.912	353.29
683.357	356.69
683.802	390.49
684.247	415.09
684.692	466.19
685.137	499.09
685.583	536.39
686.028	558.89
686.473	518.79
686.918	463.99
687.363	420.59
687.807	402.19
688.252	375.59
688.697	356.19
689.142	342.59
689.587	344.79
690.032	330.99
690.477	352.09
690.921	359.99
691.366	386.19
691.811	409.49
692.255	430.69
692.7	471.99
693.145	512.99
693.589	716.39
694.034	1168.29
694.478	1568.39
694.923	1745.69
695.367	2264.89
695.812	1199.79
696.256	502.19
696.701	373.29
697.145	347.49
697.59	325.39
698.034	325.59
698.478	334.69
698.922	331.59
699.367	329.79
699.811	338.89
700.255	362.19
700.699	385.49
701.143	436.89
701.588	488.69
702.032	513.89
702.476	513.89
702.92	500.79
703.364	503.59
703.808	656.19
704.252	1057.99
704.696	1468.89
705.14	1685.39
705.584	2144.69
706.027	1071.89
706.471	517.29
706.915	398.49
707.359	354.89
707.803	323.89
708.246	305.69
708.69	318.69
709.134	313.29
709.577	311.89
710.021	316.99
710.465	309.09
710.908	303.09
711.352	294.69
711.795	316.69
712.239	357.99
712.682	396.79
713.126	414.59
713.569	465.79
714.012	378.09
714.456	325.09
714.899	303.19
715.342	279.39
715.786	265.99
716.229	255.39
716.672	261.69
717.115	252.49
717.558	245.79
718.002	259.49
718.445	261.49
718.888	289.09
719.331	297.09
719.774	310.59
720.217	312.49
720.66	287.59
721.103	270.39
721.546	256.89
721.989	255.99
722.432	236.39
722.874	241.09
723.317	240.79
723.76	237.79
724.203	260.39
724.645	328.59
725.088	453.69
725.531	586.79
725.974	641.49
726.416	549.99
726.859	313.79
727.301	253.49
727.744	245.59
728.187	232.39
728.629	237.29
729.071	243.79
729.514	261.79
729.956	283.09
730.399	288.49
730.841	296.19
731.283	277.49
731.726	273.89
732.168	260.79
732.61	270.59
733.053	290.09
733.495	326.19
733.937	354.39
734.379	397.99
734.821	445.09
735.263	554.19
735.705	864.49
736.148	1636.19
736.59	2620.49
737.032	3026.49
737.474	2458.39
737.916	808.39
738.357	431.09
738.799	335.29
739.241	305.49
739.683	285.69
740.125	296.89
740.567	294.19
741.008	319.89
741.45	321.59
741.892	322.99
742.334	356.89
742.775	359.69
743.217	338.49
743.658	274.29
744.1	257.09
744.542	271.09
744.983	318.69
745.425	346.49
745.866	345.49
746.307	286.09
746.749	286.89
747.19	334.69
747.632	463.19
748.073	912.29
748.514	1926.59
748.956	2881.29
749.397	3614.69
749.838	3004.79
750.279	2971.79
750.72	1499.09
751.162	554.99
751.603	330.49
752.044	253.59
752.485	223.19
752.926	217.49
753.367	201.69
753.808	197.49
754.249	192.49
754.69	199.59
755.131	182.09
755.572	187.19
756.013	189.99
756.453	185.99
756.894	191.99
757.335	197.19
757.776	195.79
758.216	200.49
758.657	204.39
759.098	210.29
759.538	227.09
759.979	269.59
760.42	384.59
760.86	731.89
761.301	1917.19
761.741	4546.39
762.182	6352.89
762.622	4463.59
763.063	1314.79
763.503	543.99
763.943	350.49
764.384	356.49
764.824	412.79
765.264	440.89
765.705	314.99
766.145	215.99
766.585	192.59
767.025	183.59
767.465	195.09
767.906	248.79
768.346	330.09
768.786	340.59
769.226	275.79
769.666	326.09
770.106	642.29
770.546	1611.99
770.986	2645.49
771.426	2341.59
771.866	790.29
772.306	339.89
772.745	215.39
773.185	175.59
773.625	173.99
774.065	172.79
774.505	202.79
774.944	322.09
775.384	700.69
775.824	1233.39
776.263	1198.69
776.703	514.19
777.142	228.49
777.582	170.89
778.021	148.79
778.461	143.89
778.9	142.29
779.34	134.19
779.779	123.69
780.219	107.89
780.658	103.99
781.097	117.39
781.537	122.59
781.976	117.99
782.415	108.19
782.855	103.89
783.294	106.29
783.733	101.59
784.172	110.19
784.611	102.89
785.05	114.49
785.489	112.09
785.928	119.49
786.367	126.09
786.806	116.79
787.245	133.09
787.684	141.09
788.123	149.89
788.562	136.49
789.001	134.89
789.44	127.59
789.879	121.59
790.317	118.59
790.756	125.49
791.195	123.49
791.634	143.39
792.072	206.19
792.511	379.39
792.95	1048.59
793.388	2154.79
793.827	1920.59
794.265	674.79
794.704	277.79
795.142	178.59
795.581	146.99
796.019	136.79
796.458	131.89
796.896	123.89
797.334	134.69
797.773	155.99
798.211	227.69
798.649	458.49
799.087	1039.19
799.526	1611.59
799.964	2040.09
800.402	2002.19
800.84	760.39
801.278	305.49
801.716	190.79
802.154	159.49
802.592	145.19
803.03	149.89
803.468	128.29
803.906	139.89
804.344	149.39
804.782	135.89
805.22	134.99
805.658	127.29
806.096	144.39
806.533	154.59
806.971	182.09
807.409	219.19
807.847	326.09
808.284	696.49
808.722	1928.19
809.16	3290.59
809.597	3195.69
810.035	5497.99
810.472	5699.29
810.91	2068.69
811.347	809.29
811.785	408.99
812.222	260.59
812.66	191.49
813.097	163.09
813.535	140.99
813.972	132.99
814.409	123.49
814.846	110.79
815.284	109.39
815.721	102.69
816.158	107.39
816.595	126.89
817.032	182.39
817.47	199.69
817.907	162.79
818.344	148.09
818.781	119.59
819.218	104.19
819.655	127.29
820.092	188.69
820.529	212.69
820.966	178.49
821.403	130.29
821.839	106.59
822.276	107.59
822.713	125.39
823.15	134.89
823.587	113.29
824.023	152.89
824.46	316.79
824.897	914.79
825.333	1351.69
825.77	576.49
826.206	236.49
826.643	137.09
827.08	104.29
827.516	87.79
827.953	70.99
828.389	81.79
828.825	73.49
829.262	68.19
829.698	59.69
830.135	64.69
830.571	62.59
831.007	65.79
831.443	63.79
831.88	62.19
832.316	59.49
832.752	73.79
833.188	66.99
833.624	63.89
834.06	67.89
834.497	66.79
834.933	69.79
835.369	74.89
835.805	67.49
836.241	75.99
836.677	80.39
837.112	90.19
837.548	101.79
837.984	137.09
838.42	212.39
838.856	523.59
839.292	1546.39
839.727	2283.59
840.163	1072.09
840.599	950.89
841.034	2069.09
841.47	2105.49
841.906	776.49
842.341	337.29
842.777	230.79
843.212	316.69
843.648	307.19
844.083	154.89
844.519	92.39
844.954	76.59
845.39	60.19
845.825	56.09
846.261	61.99
846.696	56.89
847.131	56.59
847.566	61.59
848.002	55.19
848.437	57.59
848.872	54.29
849.307	59.79
849.742	91.99
850.177	184.79
850.613	558.19
851.048	868.39
851.483	380.99
851.918	154.09
852.353	87.59
852.788	64.59
853.223	60.79
853.657	56.59
854.092	49.79
854.527	40.49
854.962	44.79
855.397	43.69
855.832	53.89
856.266	47.89
856.701	39.49
857.136	37.19
857.57	41.79
858.005	45.99
858.44	59.09
858.874	45.69
859.309	54.49
859.743	41.19
860.178	45.99
860.612	46.29
861.047	56.49
861.481	65.99
861.915	70.79
862.35	45.39
862.784	36.69
863.218	36.79
863.653	30.99
864.087	40.49
864.521	53.09
864.955	67.79
865.39	163.99
865.824	175.99
866.258	113.39
866.692	159.69
867.126	174.89
867.56	101.99
867.994	43.19
868.428	44.09
868.862	49.89
869.296	54.19
869.73	52.69
870.164	54.59
870.598	47.19
871.031	39.19
871.465	28.09
871.899	28.79
872.333	29.79
872.766	22.19
873.2	21.49
873.634	28.79
874.067	30.59
874.501	24.89
874.935	34.89
875.368	27.69
875.802	31.59
876.235	24.29
876.669	26.89
877.102	18.59
877.535	26.49
877.969	21.59
878.402	26.09
878.836	19.99
879.269	27.49
879.702	20.69
880.135	24.89
880.569	19.59
881.002	24.49
881.435	19.59
881.868	16.79
882.301	21.69
882.734	14.09
883.167	20.79
883.601	17.59
884.034	20.89
884.467	7.99
884.899	14.39
885.332	16.79
885.765	16.79
886.198	13.09
886.631	11.09
887.064	12.99
887.497	19.79
887.929	30.69
888.362	14.59
888.795	11.89
889.228	17.69
889.66	17.39
890.093	19.39
890.526	22.29
890.958	19.69
891.391	20.49
891.823	22.29
892.256	17.19
892.688	12.79
893.121	19.19
893.553	16.99
893.985	20.59
894.418	19.19
894.85	12.59
895.282	16.89
895.715	14.49
896.147	18.19
896.579	21.09
897.011	15.19
897.444	20.49
897.876	13.69
898.308	10.19
898.74	15.99
899.172	17.19
899.604	21.89
900.036	24.39
900.468	12.09
900.9	14.09
901.332	19.49
901.764	9.49
902.196	19.19
902.628	16.59
903.06	16.99
903.491	28.89
903.923	21.39
904.355	23.49
904.787	23.09
905.218	30.09
905.65	16.39
906.082	10.49
906.513	20.59
906.945	16.99
907.376	16.09
907.808	19.19
908.239	25.09
908.671	17.89
909.102	19.79
909.534	22.19
909.965	48.09
910.397	98.09
910.828	315.79
911.259	473.69
911.691	219.79
912.122	109.49
912.553	52.69
912.984	31.09
913.415	23.99
913.847	24.89
914.278	16.29
914.709	15.89
915.14	19.09
915.571	12.19
916.002	12.59
916.433	20.79
916.864	18.69
917.295	14.99
917.726	20.39
918.157	20.79
918.587	28.39
919.018	26.59
919.449	19.89
919.88	24.49
920.311	30.09
920.741	47.59
921.172	169.89
921.603	149.49
922.033	69.69
922.464	46.39
922.895	23.79
923.325	21.39
923.756	19.59
924.186	12.29
924.617	23.59
925.047	41.09
925.478	58.79
925.908	46.69
926.338	25.39
926.769	19.09
927.199	25.09
927.629	14.19
928.06	15.39
928.49	15.79
928.92	13.09
929.35	10.69
929.78	11.49
930.21	9.99
930.641	7.99
931.071	9.99
931.501	7.09
931.931	9.49
932.361	11.19
932.791	3.49
933.221	9.89
933.651	4.39
934.08	19.59
934.51	29.29
934.94	9.69
935.37	4.39
935.8	12.39
936.229	13.19
936.659	9.49
937.089	10.49
937.519	11.39
937.948	22.49
938.378	17.89
938.807	5.19
939.237	3.79
939.666	4.19
940.096	1.39
940.525	0.59
940.955	6.09
941.384	5.89
941.814	-3.81
942.243	-2.71
942.672	1.39
943.102	-0.21
943.531	-6.91
943.96	8.79
944.39	5.89
944.819	0.69
945.248	3.19
945.677	5.19
946.106	0.79
946.535	3.09
946.964	0.69
947.393	1.09
947.822	0.59
948.251	-4.91
948.68	3.39
949.109	4.19
949.538	7.89
949.967	0.49
950.396	-0.91
950.825	2.69
951.254	-0.31
951.682	-1.41
952.111	3.79
952.54	6.19
952.969	-0.71
953.397	-1.51
953.826	-2.91
954.254	-5.51
954.683	1.49
955.112	0.99
955.54	1.09
955.969	4.59
956.397	0.19
956.826	-5.21
957.254	3.79
957.682	0.89
958.111	8.29
958.539	-0.91
958.967	3.49
959.396	-1.91
959.824	6.29
960.252	1.99
960.68	-9.01
961.109	-3.21
961.537	-4.11
961.965	0.79
962.393	-5.51
962.821	-11.01
963.249	0.39
963.677	0.49
964.105	6.29
964.533	44.29
964.961	38.99
965.389	20.09
965.817	6.99
966.245	1.39
966.672	0.29
967.1	-8.31
967.528	0.49
967.956	4.39
968.383	4.79
968.811	1.19
969.239	-0.91
969.666	-0.91
970.094	-2.81
970.522	0.59
970.949	-1.21
971.377	-6.71
971.804	-4.51
972.232	-9.71
972.659	-3.31
973.087	-7.21
973.514	5.69
973.941	-5.51
974.369	2.09
974.796	-0.31
975.223	-3.21
975.651	0.79
976.078	3.59
976.505	2.39
976.932	1.29
977.359	18.49
977.786	11.39
978.214	-1.81
978.641	-3.01
979.068	-5.21
979.495	-5.91
979.922	2.49
980.349	-4.61
980.776	0.39
981.202	-3.01
981.629	3.19
982.056	2.89
982.483	-6.01
982.91	1.09
983.337	-4.31
983.763	-0.31
984.19	-4.81
984.617	-2.71
985.043	-6.11
985.47	-0.01
985.897	-4.61
986.323	-6.81
986.75	4.19
987.176	-1.91
987.603	-4.11
988.029	-1.11
988.456	-3.21
988.882	7.19
989.308	-4.71
989.735	-3.61
990.161	4.69
990.587	-4.61
991.014	-2.91
991.44	2.39
991.866	-4.51
992.292	-9.41
992.719	-4.61
993.145	1.59
993.571	-7.91
993.997	-3.01
994.423	-6.51
994.849	-7.31
995.275	-2.61
995.701	4.09
996.127	-0.21
996.553	5.99
996.979	-4.61
997.405	-3.51
997.83	-3.01
998.256	-2.91
998.682	-4.71
999.108	-10.11
999.534	-2.91
999.959	0.39
1000.385	-6.41
1000.811	-1.81
1001.236	-8.01
1001.662	-8.81
1002.087	-2.61
1002.513	-0.51
1002.938	6.09
1003.364	0.99
1003.789	-4.31
1004.215	5.79
1004.64	-2.81
1005.066	1.89
1005.491	-1.11
1005.916	-1.61
1006.342	-3.71
1006.767	-2.41
1007.192	3.89
1007.617	-4.11
1008.042	-2.21
1008.468	-4.11
1008.893	-3.41
1009.318	2.79
1009.743	-8.11
1010.168	1.09
1010.593	0.89
1011.018	-6.01
1011.443	-3.91
1011.868	8.59
1012.293	-4.21
1012.718	-5.21
1013.143	-1.81
1013.567	-2.91
1013.992	-1.41
1014.417	-17.91
1014.842	1.99
1015.267	-6.91
1015.691	-2.61
1016.116	2.89
1016.541	-3.31
1016.965	4.79
1017.39	-0.31
1017.814	5.79
1018.239	-0.61
1018.663	-8.41
1019.088	-12.21
1019.512	-10.81
1019.937	-0.11
1020.361	-7.41
1020.785	-16.31
1021.21	0.79
1021.634	-3.11
1022.058	2.09
1022.483	3.39
1022.907	-6.61
1023.331	-3.91
1023.755	-0.31
1024.179	-2.81
1024.604	-3.51
1025.028	-5.31
1025.452	-0.61
1025.876	-6.21
1026.3	1.89
1026.724	-11.31
1027.148	-3.21
1027.572	-7.11
1027.996	-3.41
1028.42	-4.91
1028.843	-3.21
1029.267	-6.31
1029.691	-5.51
1030.115	-6.41
1030.539	-8.51
1030.962	-8.61
1031.386	-14.41
1031.81	-3.31
1032.233	0.89
1032.657	-8.31
1033.08	-9.31
1033.504	-6.01
1033.927	-4.61
1034.351	1.29
1034.774	-4.81
1035.198	-2.91
1035.621	-8.31
1036.045	-4.81
1036.468	0.89
1036.891	-7.41
1037.315	-13.91
1037.738	-6.41
1038.161	-3.01
1038.584	-3.21
1039.008	-14.91
1039.431	0.39
1039.854	-4.01
1040.277	-8.21
1040.7	-12.11
1041.123	-1.61
1041.546	-11.61
1041.969	-4.01
1042.392	-3.31
1042.815	0.19
1043.238	2.39
1043.661	2.69
1044.084	-11.71
1044.507	-3.91
1044.93	-10.11
1045.352	-6.01
1045.775	-7.21
1046.198	-5.81
1046.621	-0.71
1047.043	4.89
1047.466	6.29
1047.889	-4.51
1048.311	-8.41
1048.734	-3.01
1049.156	-9.01
1049.579	-3.01
1050.001	-4.31
1050.424	0.99
1050.846	-5.71
1051.269	-9.81
1051.691	-7.01
1052.113	-11.21
1052.536	-6.01
1052.958	0.19
1053.38	-7.71
1053.802	-6.51
1054.225	-0.61
1054.647	-12.31
1055.069	-4.31
1055.491	1.39
1055.913	-12.11
1056.335	1.29
1056.757	-4.01
1057.179	-8.41
1057.601	-5.91
1058.023	1.69
1058.445	-3.21
1058.867	-3.61
1059.289	-3.41
1059.711	-10.61
1060.133	-5.41
1060.555	-3.91
1060.976	-8.01
1061.398	-2.21
1061.82	-7.81
1062.241	-2.11
1062.663	-13.01
1063.085	-4.01
1063.506	-2.61
1063.928	-5.31
1064.35	-3.61
1064.771	-16.71
1065.193	-2.61
1065.614	-12.01
1066.035	-2.21
1066.457	-5.61
1066.878	-0.21
1067.3	-5.31
1067.721	-9.31
1068.142	-6.31
1068.564	-2.31
1068.985	-4.21
1069.406	-7.71
1069.827	-9.21
1070.248	-3.21
1070.67	-7.61
1071.091	-5.01
1071.512	-8.11
1071.933	-3.11
1072.354	-9.91
1072.775	-7.01
1073.196	-12.71
1073.617	2.09
1074.038	-7.31
1074.459	-3.11
1074.88	-10.11
1075.3	3.49
1075.721	-10.51
1076.142	1.99
1076.563	3.19
1076.983	-13.11
1077.404	-4.21
1077.825	-7.51
1078.246	0.39
1078.666	-6.91
1079.087	-3.31
1079.507	-7.71
1079.928	1.89
1080.348	-2.41
1080.769	-1.41
1081.189	-2.21
1081.61	-9.41
1082.03	-6.81
1082.451	-7.41
1082.871	-7.11
1083.291	-7.61
1083.711	-7.31
1084.132	-3.51
1084.552	-5.01
1084.972	1.89
1085.392	-9.71
1085.813	-10.71
1086.233	-10.31
1086.653	-7.91
1087.073	-7.01
1087.493	-6.21
1087.913	-6.51
1088.333	-6.01
1088.753	-3.21
1089.173	4.99
1089.593	2.39
1090.013	0.99
1090.433	-2.21
1090.852	-3.01
1091.272	5.39
1091.692	-7.51
1092.112	-5.11
1092.531	-15.21
1092.951	-11.11
1093.371	-3.51
1093.79	-0.81
1094.21	-7.61
1094.63	-5.01
1095.049	-5.31
1095.469	-1.71
1095.888	-1.11
1096.308	2.39
1096.727	4.99
1097.146	-3.21
1097.566	0.99
1097.985	-7.81
1098.405	2.79
1098.824	-2.61
1099.243	-15.01
1099.662	-12.51
1100.082	-6.01
1100.501	-3.61
1100.92	-8.91
1101.339	-4.51
1101.758	-8.01
