Data from 20171114-ORNL-Ar_H_NY_Subt18_08-04-26-084.txt Node
Date: Tue Nov 14 08:04:26 EST 2017
User: Ender
Spectrometer: HR+D1039
Trigger mode: 0
Integration Time (sec): 2.730000E-2
Scans to average: 10
Electric dark correction enabled: true
Nonlinearity correction enabled: false
Boxcar width: 0
XAxis mode: Wavelengths
Number of Pixels in Spectrum: 2048
>>>>>Begin Spectral Data<<<<<
187.836	-2.49
188.309	-2.49
188.782	-2.49
189.255	0.01
189.728	0.41
190.201	6.41
190.674	3.51
191.147	5.21
191.619	-7.19
192.092	1.21
192.565	5.71
193.038	-3.99
193.511	-0.19
193.984	1.61
194.456	-1.29
194.929	0.01
195.402	-8.69
195.874	-0.29
196.347	2.21
196.82	-7.49
197.292	4.31
197.765	-0.59
198.237	-1.39
198.71	2.81
199.182	-1.29
199.655	4.51
200.127	2.01
200.6	-5.89
201.072	-4.29
201.544	-8.19
202.017	0.61
202.489	7.81
202.961	0.71
203.433	-3.49
203.906	-3.29
204.378	-3.69
204.85	-2.09
205.322	-8.59
205.794	-0.39
206.266	-0.89
206.739	-6.39
207.211	10.71
207.683	-5.19
208.155	-6.99
208.627	0.11
209.099	-3.09
209.57	-10.29
210.042	-2.29
210.514	2.31
210.986	-3.89
211.458	-9.59
211.93	-0.09
212.402	1.91
212.873	-2.29
213.345	-11.09
213.817	-9.69
214.288	-4.29
214.76	-9.39
215.232	1.81
215.703	-5.59
216.175	0.71
216.646	-1.99
217.118	-5.09
217.589	-3.79
218.061	-0.49
218.532	-0.29
219.004	1.71
219.475	-4.59
219.946	1.41
220.418	0.01
220.889	-0.69
221.36	-0.49
221.832	-8.09
222.303	-0.79
222.774	-1.19
223.245	-7.29
223.717	-4.79
224.188	-4.99
224.659	-3.09
225.13	-6.09
225.601	1.11
226.072	8.51
226.543	2.01
227.014	0.11
227.485	0.71
227.956	-2.49
228.427	1.51
228.898	0.41
229.369	11.91
229.839	3.31
230.31	-6.39
230.781	6.71
231.252	-2.09
231.722	-0.89
232.193	-1.39
232.664	-1.29
233.135	1.31
233.605	2.91
234.076	-5.19
234.546	4.21
235.017	4.41
235.487	-3.79
235.958	-0.39
236.428	2.11
236.899	7.81
237.369	4.91
237.84	2.61
238.31	8.71
238.78	6.11
239.251	6.21
239.721	4.01
240.191	-3.99
240.662	-0.49
241.132	2.71
241.602	-4.69
242.072	5.91
242.542	8.21
243.013	2.51
243.483	7.41
243.953	2.11
244.423	3.81
244.893	2.21
245.363	5.41
245.833	3.71
246.303	4.91
246.773	4.11
247.243	6.01
247.712	6.31
248.182	7.41
248.652	6.91
249.122	-1.29
249.592	14.81
250.061	27.91
250.531	36.91
251.001	18.91
251.471	27.31
251.94	21.51
252.41	10.51
252.879	0.81
253.349	15.91
253.818	12.91
254.288	6.91
254.757	3.31
255.227	-1.59
255.696	6.31
256.166	7.41
256.635	7.41
257.105	14.01
257.574	8.71
258.043	12.51
258.513	13.91
258.982	16.51
259.451	8.51
259.92	20.31
260.389	14.51
260.859	21.71
261.328	11.31
261.797	17.11
262.266	11.11
262.735	13.71
263.204	7.01
263.673	-0.99
264.142	10.41
264.611	1.61
265.08	2.41
265.549	6.11
266.018	13.21
266.487	1.91
266.955	0.61
267.424	5.91
267.893	5.71
268.362	2.51
268.83	1.91
269.299	7.81
269.768	7.81
270.236	8.81
270.705	9.81
271.174	5.01
271.642	13.01
272.111	10.21
272.579	17.71
273.048	27.31
273.516	30.51
273.985	27.61
274.453	28.71
274.922	21.91
275.39	16.81
275.858	8.61
276.327	11.31
276.795	16.81
277.263	10.31
277.731	30.91
278.2	59.11
278.668	65.51
279.136	48.71
279.604	22.11
280.072	17.11
280.54	12.81
281.008	14.61
281.477	13.01
281.945	14.61
282.413	14.91
282.881	19.01
283.348	11.61
283.816	16.91
284.284	18.01
284.752	22.91
285.22	13.91
285.688	23.01
286.156	22.71
286.623	41.41
287.091	55.21
287.559	35.11
288.026	18.71
288.494	21.11
288.962	7.41
289.429	13.31
289.897	19.21
290.364	12.21
290.832	22.31
291.3	15.71
291.767	18.21
292.234	20.31
292.702	20.81
293.169	19.41
293.637	22.41
294.104	21.21
294.571	8.91
295.039	10.31
295.506	19.41
295.973	16.21
296.44	18.81
296.908	24.71
297.375	25.11
297.842	22.81
298.309	22.01
298.776	15.71
299.243	18.91
299.71	14.81
300.177	18.71
300.644	28.51
301.111	24.81
301.578	23.91
302.045	15.61
302.512	19.41
302.979	26.01
303.446	23.31
303.913	23.31
304.379	22.41
304.846	29.01
305.313	22.41
305.78	27.71
306.246	25.71
306.713	28.31
307.18	28.71
307.646	27.81
308.113	28.01
308.579	23.61
309.046	30.01
309.512	26.81
309.979	24.61
310.445	31.01
310.912	35.61
311.378	34.51
311.845	31.61
312.311	36.31
312.777	31.51
313.244	32.31
313.71	45.91
314.176	33.11
314.642	34.31
315.109	32.01
315.575	41.81
316.041	42.51
316.507	37.61
316.973	31.91
317.439	41.71
317.905	43.51
318.371	37.71
318.837	31.21
319.303	32.11
319.769	40.91
320.235	40.91
320.701	35.01
321.167	34.51
321.633	35.21
322.099	36.61
322.564	47.61
323.03	43.11
323.496	35.81
323.962	50.51
324.427	37.21
324.893	46.91
325.359	38.11
325.824	40.01
326.29	35.01
326.755	39.21
327.221	44.41
327.686	40.41
328.152	44.21
328.617	47.41
329.083	47.01
329.548	46.11
330.014	49.21
330.479	39.71
330.944	48.01
331.41	47.71
331.875	43.01
332.34	43.31
332.805	43.61
333.271	56.81
333.736	46.31
334.201	55.71
334.666	57.11
335.131	52.31
335.596	47.11
336.061	53.71
336.526	43.11
336.991	50.21
337.456	59.31
337.921	53.01
338.386	46.71
338.851	45.51
339.316	46.51
339.781	46.41
340.246	51.21
340.711	45.71
341.175	52.01
341.64	40.91
342.105	50.11
342.569	59.81
343.034	59.61
343.499	52.71
343.963	49.51
344.428	64.81
344.893	56.11
345.357	57.21
345.822	58.11
346.286	65.81
346.751	69.61
347.215	62.71
347.679	82.01
348.144	94.21
348.608	78.31
349.073	64.61
349.537	72.81
350.001	77.61
350.465	84.51
350.93	83.11
351.394	76.31
351.858	78.31
352.322	78.31
352.786	83.71
353.25	91.01
353.715	103.71
354.179	94.51
354.643	111.61
355.107	117.91
355.571	108.41
356.035	103.31
356.498	112.21
356.962	117.21
357.426	126.21
357.89	108.71
358.354	93.81
358.818	80.41
359.281	73.61
359.745	73.51
360.209	67.61
360.673	76.81
361.136	79.61
361.6	80.21
362.064	74.41
362.527	80.51
362.991	93.61
363.454	85.61
363.918	77.41
364.381	75.71
364.845	83.71
365.308	90.51
365.772	78.21
366.235	84.71
366.698	82.61
367.162	81.31
367.625	80.71
368.088	81.81
368.552	77.91
369.015	78.61
369.478	93.51
369.941	102.61
370.404	91.81
370.867	99.01
371.331	99.01
371.794	109.61
372.257	107.21
372.72	111.21
373.183	108.61
373.646	99.71
374.109	95.31
374.572	106.41
375.035	98.61
375.497	100.91
375.96	97.71
376.423	89.81
376.886	106.41
377.349	107.51
377.811	104.81
378.274	101.81
378.737	96.81
379.199	109.01
379.662	108.21
380.125	113.21
380.587	105.41
381.05	111.91
381.512	118.91
381.975	121.71
382.437	117.21
382.9	121.91
383.362	119.91
383.825	128.51
384.287	137.71
384.75	137.01
385.212	135.71
385.674	130.71
386.136	126.61
386.599	116.41
387.061	124.71
387.523	121.41
387.985	128.91
388.447	139.31
388.91	135.71
389.372	138.61
389.834	137.91
390.296	137.51
390.758	143.91
391.22	151.61
391.682	200.91
392.144	262.81
392.606	210.91
393.068	153.71
393.529	157.81
393.991	144.11
394.453	138.01
394.915	141.71
395.377	176.81
395.838	197.11
396.3	145.41
396.762	130.21
397.224	128.21
397.685	126.11
398.147	119.71
398.608	121.31
399.07	115.51
399.531	131.71
399.993	131.21
400.454	145.21
400.916	144.61
401.377	134.11
401.839	146.81
402.3	142.71
402.762	157.51
403.223	167.61
403.684	162.21
404.145	145.21
404.607	148.41
405.068	157.41
405.529	154.31
405.99	169.81
406.451	161.71
406.913	162.41
407.374	150.11
407.835	152.21
408.296	150.31
408.757	159.11
409.218	168.11
409.679	167.21
410.14	162.01
410.601	170.21
411.062	166.51
411.522	176.91
411.983	177.21
412.444	160.11
412.905	169.11
413.366	177.01
413.826	182.11
414.287	205.61
414.748	249.81
415.208	232.31
415.669	197.01
416.13	194.11
416.59	183.01
417.051	194.81
417.511	202.31
417.972	223.81
418.432	237.81
418.893	267.41
419.353	237.51
419.814	188.71
420.274	168.31
420.734	164.41
421.195	178.21
421.655	182.61
422.115	182.31
422.576	177.11
423.036	187.61
423.496	194.21
423.956	198.91
424.416	214.41
424.876	246.71
425.336	244.81
425.797	246.51
426.257	246.91
426.717	223.41
427.177	213.51
427.637	207.51
428.097	220.91
428.556	227.41
429.016	248.61
429.476	242.21
429.936	259.11
430.396	253.51
430.856	269.81
431.315	286.41
431.775	316.41
432.235	354.61
432.694	325.11
433.154	330.11
433.614	347.71
434.073	310.01
434.533	260.91
434.993	251.31
435.452	260.51
435.912	263.41
436.371	263.91
436.83	250.51
437.29	248.91
437.749	229.31
438.209	221.21
438.668	251.51
439.127	258.51
439.587	241.31
440.046	229.11
440.505	238.41
440.964	252.01
441.424	289.31
441.883	277.01
442.342	244.81
442.801	209.71
443.26	200.01
443.719	199.61
444.178	206.61
444.637	194.01
445.096	204.21
445.555	207.91
446.014	197.91
446.473	208.71
446.932	219.51
447.391	210.11
447.849	212.21
448.308	204.01
448.767	203.91
449.226	217.51
449.685	217.91
450.143	230.31
450.602	220.21
451.061	210.41
451.519	221.21
451.978	219.31
452.436	214.11
452.895	226.71
453.353	236.31
453.812	222.51
454.27	216.01
454.729	214.11
455.187	221.81
455.646	226.11
456.104	224.81
456.562	248.31
457.021	246.61
457.479	234.11
457.937	246.41
458.395	240.11
458.854	221.81
459.312	226.41
459.77	247.91
460.228	235.31
460.686	221.61
461.144	226.41
461.602	228.91
462.06	220.01
462.518	225.41
462.976	233.31
463.434	240.11
463.892	240.51
464.35	256.21
464.808	267.71
465.266	239.71
465.724	250.41
466.181	254.91
466.639	256.31
467.097	263.71
467.555	265.21
468.012	280.81
468.47	290.91
468.928	300.61
469.385	310.81
469.843	327.41
470.3	326.81
470.758	336.21
471.215	347.01
471.673	372.01
472.13	365.91
472.588	376.01
473.045	340.11
473.503	348.41
473.96	356.31
474.417	369.51
474.875	396.11
475.332	425.81
475.789	427.41
476.246	430.51
476.704	442.11
477.161	464.31
477.618	479.61
478.075	513.41
478.532	549.31
478.989	621.31
479.446	727.31
479.903	713.31
480.36	746.91
480.817	790.21
481.274	898.11
481.731	990.71
482.188	1069.91
482.645	1201.81
483.102	1290.51
483.558	1413.21
484.015	1477.01
484.472	1461.51
484.929	1399.81
485.385	1349.91
485.842	1326.91
486.299	1261.21
486.755	1188.91
487.212	1004.51
487.668	854.01
488.125	779.71
488.582	718.41
489.038	687.41
489.494	653.61
489.951	636.81
490.407	610.61
490.864	603.11
491.32	603.01
491.776	585.51
492.233	594.81
492.689	562.11
493.145	558.71
493.602	550.61
494.058	565.41
494.514	568.21
494.97	590.11
495.426	590.71
495.882	571.51
496.338	572.71
496.794	576.91
497.251	581.71
497.707	585.21
498.163	580.51
498.618	597.61
499.074	591.41
499.53	623.01
499.986	624.61
500.442	598.41
500.898	584.31
501.354	577.01
501.809	580.01
502.265	583.41
502.721	605.81
503.177	614.51
503.632	611.41
504.088	621.91
504.543	655.91
504.999	657.71
505.455	606.01
505.91	588.41
506.366	585.51
506.821	566.61
507.277	569.71
507.732	573.61
508.187	577.71
508.643	580.71
509.098	574.21
509.553	603.51
510.009	612.91
510.464	615.91
510.919	626.21
511.375	642.01
511.83	652.41
512.285	665.21
512.74	700.61
513.195	721.41
513.65	707.11
514.105	707.21
514.56	713.21
515.015	725.61
515.47	749.21
515.925	728.61
516.38	729.61
516.835	725.41
517.29	721.21
517.745	715.71
518.2	697.21
518.655	691.11
519.109	685.31
519.564	690.51
520.019	675.41
520.474	671.11
520.928	664.01
521.383	660.61
521.838	652.21
522.292	643.41
522.747	650.91
523.201	644.71
523.656	633.81
524.11	635.21
524.565	634.61
525.019	629.61
525.474	636.41
525.928	638.31
526.382	631.71
526.837	641.61
527.291	642.61
527.745	634.31
528.2	629.21
528.654	629.41
529.108	619.51
529.562	621.71
530.016	627.01
530.47	640.41
530.925	630.91
531.379	635.21
531.833	646.41
532.287	645.81
532.741	645.11
533.195	641.91
533.649	656.91
534.103	653.51
534.556	649.21
535.01	649.01
535.464	645.71
535.918	649.31
536.372	652.91
536.826	652.61
537.279	646.11
537.733	650.91
538.187	645.01
538.64	643.21
539.094	656.71
539.548	655.81
540.001	665.21
540.455	653.81
540.908	668.91
541.362	665.11
541.815	673.41
542.269	688.01
542.722	682.81
543.175	690.61
543.629	702.21
544.082	715.41
544.536	713.11
544.989	707.91
545.442	716.61
545.895	717.91
546.349	713.21
546.802	715.71
547.255	713.81
547.708	714.91
548.161	736.81
548.614	729.51
549.067	756.01
549.52	751.51
549.973	724.61
550.426	720.81
550.879	714.31
551.332	714.01
551.785	732.31
552.238	724.31
552.691	738.11
553.144	747.21
553.596	761.61
554.049	771.01
554.502	801.81
554.955	820.91
555.407	818.81
555.86	812.31
556.313	802.71
556.765	799.61
557.218	784.91
557.67	801.61
558.123	783.61
558.576	777.71
559.028	790.11
559.48	791.91
559.933	777.21
560.385	751.41
560.838	729.41
561.29	711.81
561.742	691.91
562.195	682.61
562.647	685.61
563.099	694.11
563.551	695.01
564.004	704.81
564.456	692.81
564.908	685.71
565.36	667.11
565.812	655.81
566.264	651.11
566.716	654.31
567.168	634.51
567.62	646.81
568.072	630.91
568.524	624.01
568.976	609.51
569.428	591.31
569.88	599.21
570.332	600.21
570.784	608.01
571.235	605.01
571.687	606.81
572.139	628.51
572.59	635.81
573.042	642.91
573.494	628.41
573.945	619.01
574.397	610.61
574.849	610.81
575.3	617.91
575.752	601.21
576.203	594.31
576.655	605.61
577.106	589.41
577.557	589.21
578.009	584.21
578.46	586.71
578.912	588.11
579.363	580.21
579.814	584.11
580.265	580.61
580.717	596.91
581.168	590.91
581.619	601.61
582.07	607.81
582.521	600.21
582.972	592.81
583.423	597.91
583.875	596.91
584.326	605.71
584.777	656.21
585.227	717.81
585.678	797.11
586.129	877.41
586.58	944.31
587.031	1021.41
587.482	1156.51
587.933	1325.81
588.384	1145.61
588.834	857.51
589.285	705.71
589.736	681.01
590.186	672.51
590.637	677.91
591.088	648.21
591.538	638.91
591.989	634.91
592.439	641.71
592.89	624.51
593.34	622.21
593.791	615.11
594.241	610.51
594.692	621.31
595.142	616.71
595.593	610.11
596.043	617.51
596.493	623.11
596.943	624.31
597.394	629.21
597.844	623.41
598.294	632.71
598.744	646.61
599.195	667.41
599.645	712.01
600.095	735.31
600.545	799.01
600.995	837.41
601.445	885.41
601.895	943.51
602.345	980.71
602.795	974.71
603.245	927.41
603.695	884.81
604.145	834.21
604.594	791.01
605.044	755.81
605.494	688.41
605.944	641.21
606.393	645.11
606.843	633.31
607.293	630.51
607.743	628.11
608.192	636.11
608.642	653.91
609.091	654.61
609.541	659.71
609.99	652.61
610.44	659.81
610.889	619.41
611.339	601.91
611.788	581.61
612.238	596.91
612.687	621.51
613.136	611.21
613.586	636.71
614.035	624.41
614.484	638.21
614.933	648.61
615.383	638.51
615.832	629.61
616.281	616.51
616.73	596.01
617.179	571.91
617.628	560.01
618.077	543.51
618.526	536.01
618.975	526.61
619.424	532.41
619.873	529.81
620.322	531.41
620.771	522.81
621.22	514.71
621.669	510.71
622.118	503.71
622.567	502.91
623.015	490.81
623.464	484.91
623.913	478.41
624.361	475.61
624.81	461.91
625.259	468.91
625.707	472.91
626.156	477.31
626.604	477.21
627.053	474.41
627.501	478.01
627.95	476.41
628.398	496.21
628.847	488.61
629.295	477.71
629.744	489.01
630.192	485.21
630.64	479.01
631.089	487.51
631.537	490.91
631.985	493.81
632.433	500.71
632.881	510.51
633.33	560.91
633.778	527.61
634.226	467.71
634.674	482.91
635.122	482.51
635.57	502.91
636.018	526.01
636.466	492.71
636.914	472.71
637.362	482.91
637.81	489.11
638.258	491.31
638.705	485.81
639.153	501.81
639.601	522.81
640.049	543.31
640.497	563.61
640.944	582.01
641.392	541.81
641.84	518.91
642.287	490.21
642.735	483.71
643.182	482.01
643.63	487.21
644.078	484.21
644.525	497.41
644.973	496.71
645.42	499.71
645.867	521.01
646.315	533.51
646.762	552.71
647.21	573.51
647.657	594.11
648.104	632.91
648.551	637.51
648.999	694.61
649.446	762.31
649.893	848.31
650.34	957.21
650.787	1147.11
651.234	1418.41
651.682	1848.21
652.129	2522.51
652.576	3628.71
653.023	5361.11
653.47	7410.81
653.917	9357.41
654.363	10943.41
654.81	12371.21
655.257	11738.81
655.704	7605.41
656.151	4489.41
656.598	2893.31
657.044	2034.41
657.491	1575.11
657.938	1260.81
658.385	1052.91
658.831	922.51
659.278	808.81
659.724	716.21
660.171	663.81
660.618	605.81
661.064	568.91
661.511	546.31
661.957	540.11
662.404	522.01
662.85	546.81
663.296	504.91
663.743	460.61
664.189	447.31
664.635	443.31
665.082	443.41
665.528	441.71
665.974	427.11
666.42	431.11
666.867	419.41
667.313	405.21
667.759	402.41
668.205	387.31
668.651	403.21
669.097	402.71
669.543	414.61
669.989	398.11
670.435	368.91
670.881	362.31
671.327	379.71
671.773	387.61
672.219	401.31
672.665	443.51
673.11	472.81
673.556	523.11
674.002	558.61
674.448	546.51
674.893	460.21
675.339	397.91
675.785	369.51
676.23	348.21
676.676	321.01
677.122	315.81
677.567	307.01
678.013	308.31
678.458	296.71
678.904	305.51
679.349	285.31
679.794	294.21
680.24	293.61
680.685	288.91
681.131	284.71
681.576	291.81
682.021	295.71
682.466	286.41
682.912	283.11
683.357	284.61
683.802	302.21
684.247	341.11
684.692	370.71
685.137	406.91
685.583	444.01
686.028	476.01
686.473	433.21
686.918	363.41
687.363	345.41
687.807	326.01
688.252	298.41
688.697	294.61
689.142	279.81
689.587	277.81
690.032	271.01
690.477	282.71
690.921	282.01
691.366	311.31
691.811	339.51
692.255	358.61
692.7	382.51
693.145	407.81
693.589	551.71
694.034	899.91
694.478	1253.51
694.923	1457.41
695.367	1924.91
695.812	996.01
696.256	407.21
696.701	305.91
697.145	288.21
697.59	269.41
698.034	264.61
698.478	268.91
698.922	269.81
699.367	267.91
699.811	277.51
700.255	292.41
700.699	317.71
701.143	350.11
701.588	391.51
702.032	428.61
702.476	420.11
702.92	413.11
703.364	397.11
703.808	506.01
704.252	823.71
704.696	1186.11
705.14	1403.61
705.584	1815.81
706.027	894.61
706.471	436.11
706.915	337.11
707.359	284.01
707.803	261.11
708.246	261.11
708.69	260.51
709.134	255.01
709.577	251.91
710.021	257.11
710.465	255.71
710.908	242.31
711.352	244.81
711.795	257.71
712.239	284.01
712.682	307.61
713.126	347.41
713.569	379.81
714.012	305.01
714.456	265.51
714.899	249.81
715.342	224.51
715.786	213.81
716.229	206.61
716.672	213.51
717.115	206.71
717.558	206.91
718.002	206.41
718.445	216.91
718.888	238.91
719.331	240.11
719.774	248.91
720.217	252.51
720.66	235.11
721.103	220.41
721.546	218.11
721.989	203.51
722.432	191.81
722.874	195.51
723.317	188.51
723.76	200.81
724.203	209.61
724.645	255.01
725.088	354.71
725.531	460.81
725.974	534.11
726.416	459.91
726.859	250.21
727.301	196.61
727.744	203.41
728.187	190.71
728.629	201.21
729.071	197.31
729.514	215.51
729.956	223.81
730.399	234.61
730.841	239.11
731.283	223.31
731.726	212.51
732.168	209.81
732.61	219.81
733.053	234.61
733.495	248.21
733.937	280.91
734.379	320.41
734.821	355.21
735.263	433.01
735.705	659.01
736.148	1247.71
736.59	2093.61
737.032	2597.61
737.474	2107.91
737.916	666.81
738.357	356.81
738.799	265.81
739.241	248.61
739.683	232.61
740.125	232.11
740.567	250.51
741.008	260.91
741.45	259.31
741.892	262.51
742.334	282.31
742.775	294.41
743.217	284.11
743.658	223.21
744.1	211.01
744.542	210.41
744.983	261.21
745.425	280.91
745.866	289.81
746.307	232.41
746.749	234.21
747.19	262.31
747.632	357.91
748.073	686.31
748.514	1482.91
748.956	2330.61
749.397	2939.41
749.838	2426.61
750.279	2519.21
750.72	1256.21
751.162	450.51
751.603	262.51
752.044	207.31
752.485	177.11
752.926	172.21
753.367	166.61
753.808	159.61
754.249	154.41
754.69	149.01
755.131	154.11
755.572	149.61
756.013	142.21
756.453	149.21
756.894	151.01
757.335	154.61
757.776	157.31
758.216	157.91
758.657	158.91
759.098	166.71
759.538	178.71
759.979	210.61
760.42	296.11
760.86	556.41
761.301	1425.81
761.741	3563.31
762.182	5517.41
762.622	3869.21
763.063	1084.01
763.503	444.91
763.943	285.61
764.384	278.61
764.824	335.71
765.264	373.01
765.705	256.81
766.145	177.41
766.585	152.61
767.025	144.51
767.465	144.41
767.906	194.21
768.346	259.71
768.786	278.81
769.226	212.71
769.666	251.01
770.106	478.81
770.546	1238.61
770.986	2220.01
771.426	2032.81
771.866	657.31
772.306	267.51
772.745	177.91
773.185	141.01
773.625	138.01
774.065	133.81
774.505	159.81
774.944	248.21
775.384	530.81
775.824	1002.11
776.263	993.31
776.703	417.51
777.142	178.81
777.582	132.61
778.021	111.21
778.461	112.11
778.9	117.91
779.34	109.91
779.779	97.61
780.219	87.21
780.658	90.21
781.097	95.41
781.537	89.01
781.976	97.51
782.415	89.21
782.855	85.41
783.294	79.51
783.733	88.51
784.172	86.21
784.611	84.41
785.05	86.61
785.489	95.51
785.928	95.21
786.367	102.21
786.806	93.41
787.245	104.01
787.684	113.91
788.123	121.81
788.562	115.81
789.001	105.61
789.44	107.61
789.879	95.41
790.317	90.91
790.756	109.81
791.195	102.61
791.634	123.01
792.072	164.11
792.511	279.91
792.95	793.51
793.388	1778.21
793.827	1661.31
794.265	564.61
794.704	225.01
795.142	151.31
795.581	129.81
796.019	106.11
796.458	105.51
796.896	98.01
797.334	104.01
797.773	118.21
798.211	175.51
798.649	344.91
799.087	819.21
799.526	1307.91
799.964	1652.91
800.402	1721.41
800.84	638.51
801.278	248.41
801.716	149.21
802.154	128.71
802.592	123.81
803.03	114.81
803.468	105.71
803.906	116.91
804.344	124.61
804.782	117.01
805.22	111.21
805.658	106.31
806.096	122.21
806.533	130.11
806.971	140.41
807.409	174.21
807.847	247.11
808.284	523.51
808.722	1491.61
809.16	2754.81
809.597	2543.01
810.035	4483.01
810.472	5027.31
810.91	1785.01
811.347	653.01
811.785	333.71
812.222	210.51
812.66	159.81
813.097	139.51
813.535	119.81
813.972	105.61
814.409	99.31
814.846	86.21
815.284	88.71
815.721	83.81
816.158	84.21
816.595	94.51
817.032	144.81
817.47	165.01
817.907	144.51
818.344	125.61
818.781	95.91
819.218	80.51
819.655	96.71
820.092	161.01
820.529	179.41
820.966	153.61
821.403	121.51
821.839	88.91
822.276	85.11
822.713	102.31
823.15	111.91
823.587	93.41
824.023	116.21
824.46	234.31
824.897	719.11
825.333	1152.21
825.77	489.81
826.206	187.31
826.643	114.21
827.08	87.61
827.516	64.21
827.953	63.71
828.389	65.61
828.825	57.31
829.262	53.11
829.698	50.81
830.135	55.61
830.571	45.91
831.007	53.61
831.443	53.21
831.88	51.01
832.316	51.41
832.752	53.61
833.188	54.81
833.624	53.91
834.06	57.91
834.497	58.81
834.933	60.21
835.369	62.61
835.805	57.51
836.241	63.01
836.677	61.51
837.112	71.11
837.548	82.81
837.984	110.61
838.42	157.01
838.856	387.41
839.292	1234.11
839.727	1984.21
840.163	906.21
840.599	742.41
841.034	1683.11
841.47	1838.71
841.906	655.91
842.341	268.51
842.777	191.81
843.212	258.71
843.648	263.01
844.083	123.11
844.519	79.41
844.954	67.21
845.39	47.81
845.825	48.21
846.261	44.91
846.696	44.01
847.131	47.01
847.566	47.91
848.002	39.21
848.437	44.21
848.872	48.71
849.307	41.01
849.742	63.81
850.177	143.41
850.613	452.11
851.048	738.21
851.483	321.61
851.918	130.41
852.353	71.61
852.788	47.71
853.223	49.31
853.657	40.51
854.092	37.61
854.527	41.21
854.962	30.51
855.397	40.91
855.832	42.01
856.266	33.61
856.701	35.11
857.136	32.11
857.57	37.11
858.005	43.41
858.44	51.01
858.874	34.61
859.309	44.61
859.743	33.91
860.178	42.91
860.612	31.81
861.047	43.61
861.481	55.61
861.915	64.11
862.35	41.81
862.784	29.71
863.218	32.81
863.653	32.91
864.087	40.21
864.521	48.51
864.955	58.91
865.39	126.11
865.824	150.21
866.258	95.51
866.692	134.51
867.126	155.01
867.56	92.61
867.994	38.11
868.428	34.61
868.862	41.01
869.296	46.31
869.73	50.41
870.164	46.81
870.598	41.11
871.031	30.01
871.465	25.21
871.899	26.61
872.333	15.51
872.766	20.41
873.2	16.01
873.634	32.71
874.067	20.81
874.501	28.21
874.935	26.61
875.368	23.31
875.802	27.21
876.235	18.41
876.669	23.91
877.102	20.41
877.535	27.71
877.969	21.41
878.402	26.21
878.836	15.91
879.269	22.51
879.702	23.71
880.135	19.41
880.569	19.21
881.002	25.61
881.435	22.01
881.868	15.91
882.301	22.41
882.734	13.91
883.167	23.61
883.601	17.91
884.034	19.31
884.467	11.61
884.899	12.11
885.332	16.71
885.765	13.81
886.198	18.71
886.631	15.61
887.064	21.21
887.497	16.61
887.929	21.51
888.362	8.01
888.795	7.51
889.228	11.51
889.66	17.21
890.093	13.51
890.526	3.91
890.958	15.21
891.391	15.51
891.823	21.21
892.256	13.51
892.688	9.11
893.121	8.11
893.553	14.71
893.985	22.51
894.418	19.81
894.85	7.61
895.282	22.21
895.715	15.41
896.147	10.11
896.579	15.21
897.011	10.81
897.444	6.01
897.876	11.21
898.308	17.21
898.74	15.11
899.172	11.91
899.604	22.41
900.036	16.41
900.468	12.71
900.9	15.61
901.332	19.41
901.764	8.21
902.196	14.61
902.628	18.91
903.06	16.71
903.491	27.41
903.923	26.21
904.355	19.91
904.787	21.21
905.218	20.21
905.65	12.61
906.082	6.31
906.513	11.81
906.945	17.91
907.376	10.31
907.808	20.81
908.239	19.11
908.671	13.91
909.102	15.81
909.534	23.21
909.965	35.71
910.397	78.41
910.828	265.51
911.259	405.31
911.691	184.21
912.122	86.21
912.553	42.31
912.984	28.11
913.415	28.21
913.847	21.71
914.278	11.71
914.709	6.91
915.14	18.81
915.571	15.91
916.002	20.31
916.433	17.41
916.864	10.91
917.295	15.71
917.726	20.71
918.157	19.71
918.587	24.91
919.018	17.51
919.449	21.71
919.88	24.61
920.311	27.31
920.741	38.61
921.172	139.51
921.603	127.51
922.033	60.01
922.464	34.21
922.895	20.51
923.325	19.11
923.756	17.01
924.186	13.01
924.617	27.91
925.047	31.71
925.478	43.11
925.908	29.91
926.338	26.51
926.769	11.41
927.199	19.91
927.629	5.41
928.06	19.71
928.49	10.41
928.92	16.01
929.35	5.31
929.78	8.31
930.21	4.81
930.641	6.11
931.071	7.31
931.501	-1.09
931.931	9.71
932.361	7.31
932.791	2.31
933.221	3.91
933.651	5.21
934.08	12.61
934.51	28.41
934.94	7.91
935.37	6.51
935.8	11.81
936.229	7.71
936.659	7.91
937.089	-0.09
937.519	11.11
937.948	21.81
938.378	20.11
938.807	4.61
939.237	9.81
939.666	4.31
940.096	-0.79
940.525	7.81
940.955	9.11
941.384	7.51
941.814	-6.09
942.243	-3.39
942.672	2.31
943.102	0.71
943.531	-1.99
943.96	6.41
944.39	6.31
944.819	4.51
945.248	4.41
945.677	1.51
946.106	1.91
946.535	7.21
946.964	6.21
947.393	5.61
947.822	0.91
948.251	-1.49
948.68	6.11
949.109	5.01
949.538	-1.19
949.967	0.51
950.396	1.61
950.825	-1.19
951.254	2.41
951.682	-5.79
952.111	4.71
952.54	5.11
952.969	-6.59
953.397	-7.99
953.826	-2.19
954.254	-7.69
954.683	7.01
955.112	-1.29
955.54	-2.69
955.969	0.61
956.397	7.41
956.826	-1.89
957.254	8.11
957.682	3.71
958.111	1.51
958.539	-1.79
958.967	-1.29
959.396	-0.89
959.824	-1.29
960.252	-1.19
960.68	-1.29
961.109	-0.39
961.537	-4.89
961.965	0.51
962.393	0.51
962.821	-5.39
963.249	1.11
963.677	6.01
964.105	3.51
964.533	39.61
964.961	31.11
965.389	19.01
965.817	5.51
966.245	2.31
966.672	0.51
967.1	-4.99
967.528	3.41
967.956	-3.59
968.383	-0.49
968.811	-2.69
969.239	-1.99
969.666	-6.59
970.094	6.21
970.522	1.81
970.949	-0.79
971.377	-1.99
971.804	-0.59
972.232	-4.09
972.659	-1.69
973.087	-2.59
973.514	-1.39
973.941	-6.29
974.369	0.61
974.796	4.91
975.223	0.91
975.651	0.31
976.078	3.61
976.505	-0.29
976.932	-0.99
977.359	14.31
977.786	15.11
978.214	-1.69
978.641	1.51
979.068	-5.99
979.495	-4.49
979.922	-3.49
980.349	-6.79
980.776	7.81
981.202	-1.89
981.629	1.91
982.056	1.91
982.483	-1.89
982.91	-0.29
983.337	-1.89
983.763	-0.09
984.19	-5.09
984.617	3.91
985.043	-0.39
985.47	2.71
985.897	-2.49
986.323	-9.69
986.75	6.01
987.176	-2.19
987.603	2.71
988.029	3.31
988.456	-0.09
988.882	-1.69
989.308	-4.79
989.735	-7.89
990.161	-0.19
990.587	-1.29
991.014	-1.79
991.44	5.01
991.866	-0.49
992.292	-2.89
992.719	-5.29
993.145	1.41
993.571	-5.99
993.997	-4.69
994.423	-3.49
994.849	-1.49
995.275	4.41
995.701	-0.69
996.127	-3.39
996.553	3.81
996.979	-6.49
997.405	0.81
997.83	-1.49
998.256	-0.39
998.682	-0.99
999.108	-5.49
999.534	1.21
999.959	-0.49
1000.385	-4.09
1000.811	4.31
1001.236	-5.89
1001.662	-8.89
1002.087	-7.49
1002.513	2.01
1002.938	2.21
1003.364	-2.39
1003.789	0.21
1004.215	6.81
1004.64	-2.79
1005.066	4.01
1005.491	2.41
1005.916	1.91
1006.342	-1.39
1006.767	-10.19
1007.192	10.51
1007.617	-3.19
1008.042	-5.19
1008.468	-4.09
1008.893	-8.29
1009.318	-0.39
1009.743	-2.19
1010.168	-0.49
1010.593	-4.29
1011.018	-3.49
1011.443	-2.99
1011.868	-0.99
1012.293	-4.29
1012.718	-5.79
1013.143	0.01
1013.567	-0.49
1013.992	-1.99
1014.417	-12.29
1014.842	1.61
1015.267	-4.59
1015.691	-9.79
1016.116	4.71
1016.541	-0.49
1016.965	-2.09
1017.39	5.61
1017.814	1.31
1018.239	-1.69
1018.663	-8.49
1019.088	-14.69
1019.512	-1.19
1019.937	-3.09
1020.361	-5.09
1020.785	-10.39
1021.21	0.51
1021.634	-5.99
1022.058	1.41
1022.483	8.91
1022.907	-3.19
1023.331	-4.19
1023.755	-3.89
1024.179	2.71
1024.604	-0.89
1025.028	-6.09
1025.452	1.11
1025.876	-4.29
1026.3	0.71
1026.724	-15.49
1027.148	-0.79
1027.572	-9.19
1027.996	-1.39
1028.42	-1.09
1028.843	-2.59
1029.267	-4.49
1029.691	-4.69
1030.115	-0.39
1030.539	-7.19
1030.962	-2.59
1031.386	-7.79
1031.81	2.31
1032.233	-2.99
1032.657	-3.39
1033.08	-0.19
1033.504	-1.69
1033.927	-6.39
1034.351	-5.29
1034.774	1.21
1035.198	0.11
1035.621	-2.89
1036.045	-2.09
1036.468	0.61
1036.891	-5.29
1037.315	-9.39
1037.738	-12.09
1038.161	0.71
1038.584	-0.19
1039.008	-0.19
1039.431	-2.29
1039.854	-2.29
1040.277	-3.29
1040.7	-6.59
1041.123	1.51
1041.546	-4.09
1041.969	-7.09
1042.392	-1.29
1042.815	-3.49
1043.238	2.51
1043.661	2.51
1044.084	-6.49
1044.507	-2.59
1044.93	-6.29
1045.352	-6.59
1045.775	-1.29
1046.198	-1.39
1046.621	-2.99
1047.043	-3.49
1047.466	0.81
1047.889	-1.09
1048.311	-9.49
1048.734	-1.79
1049.156	-0.29
1049.579	-2.59
1050.001	-0.19
1050.424	-2.89
1050.846	2.21
1051.269	-3.39
1051.691	-10.19
1052.113	-3.59
1052.536	2.71
1052.958	2.71
1053.38	-10.09
1053.802	-6.09
1054.225	2.61
1054.647	-5.69
1055.069	1.21
1055.491	4.31
1055.913	-6.79
1056.335	-0.29
1056.757	-8.29
1057.179	-8.09
1057.601	-0.39
1058.023	-2.09
1058.445	0.91
1058.867	-7.49
1059.289	-2.59
1059.711	-8.19
1060.133	-1.79
1060.555	-3.19
1060.976	-8.19
1061.398	-6.69
1061.82	-7.09
1062.241	-7.99
1062.663	-7.79
1063.085	-6.89
1063.506	-3.29
1063.928	3.41
1064.35	0.81
1064.771	-10.59
1065.193	-6.39
1065.614	-9.49
1066.035	-0.29
1066.457	1.21
1066.878	2.11
1067.3	-7.09
1067.721	-1.99
1068.142	1.31
1068.564	0.21
1068.985	-6.09
1069.406	-0.99
1069.827	-2.09
1070.248	-0.99
1070.67	-4.99
1071.091	-0.29
1071.512	-4.19
1071.933	-5.59
1072.354	-8.09
1072.775	-2.19
1073.196	-9.19
1073.617	-2.19
1074.038	-7.29
1074.459	-1.09
1074.88	-4.59
1075.3	-0.49
1075.721	-1.09
1076.142	-2.59
1076.563	-3.09
1076.983	-14.79
1077.404	-2.99
1077.825	-12.59
1078.246	-2.49
1078.666	-11.59
1079.087	0.11
1079.507	-2.89
1079.928	3.01
1080.348	-1.19
1080.769	-1.69
1081.189	2.71
1081.61	-2.19
1082.03	-10.59
1082.451	-6.29
1082.871	-3.99
1083.291	-6.29
1083.711	-4.49
1084.132	-3.59
1084.552	-7.79
1084.972	0.91
1085.392	-10.89
1085.813	-5.89
1086.233	-7.99
1086.653	0.41
1087.073	-3.89
1087.493	-6.19
1087.913	-3.49
1088.333	-5.39
1088.753	-5.09
1089.173	-0.09
1089.593	-0.89
1090.013	0.71
1090.433	-3.19
1090.852	2.61
1091.272	3.71
1091.692	-0.09
1092.112	-2.59
1092.531	-2.79
1092.951	-13.19
1093.371	1.41
1093.79	-0.99
1094.21	1.81
1094.63	-5.89
1095.049	-3.69
1095.469	-4.89
1095.888	-3.39
1096.308	1.71
1096.727	-1.09
1097.146	-9.69
1097.566	-5.39
1097.985	-1.39
1098.405	-5.19
1098.824	-1.89
1099.243	-7.99
1099.662	-6.89
1100.082	-3.89
1100.501	-3.19
1100.92	-8.49
1101.339	-7.49
1101.758	-1.39
