Data from 20171114-ORNL-Ar_H_NY_Subt18_08-08-58-846.txt Node
Date: Tue Nov 14 08:08:58 EST 2017
User: Ender
Spectrometer: HR+D1039
Trigger mode: 0
Integration Time (sec): 2.730000E-2
Scans to average: 10
Electric dark correction enabled: true
Nonlinearity correction enabled: false
Boxcar width: 0
XAxis mode: Wavelengths
Number of Pixels in Spectrum: 2048
>>>>>Begin Spectral Data<<<<<
187.836	-0.29
188.309	-0.29
188.782	-0.29
189.255	2.61
189.728	-2.39
190.201	7.01
190.674	-0.19
191.147	-0.39
191.619	-5.09
192.092	-4.99
192.565	3.31
193.038	-0.39
193.511	1.31
193.984	1.81
194.456	-3.29
194.929	1.11
195.402	0.41
195.874	-0.59
196.347	1.71
196.82	-10.59
197.292	2.81
197.765	-4.29
198.237	-3.79
198.71	1.91
199.182	0.71
199.655	0.91
200.127	4.01
200.6	-3.59
201.072	-4.29
201.544	-3.19
202.017	-1.39
202.489	4.71
202.961	-5.29
203.433	-3.89
203.906	-7.99
204.378	-3.99
204.85	-2.49
205.322	-14.29
205.794	-5.99
206.266	-7.89
206.739	-10.69
207.211	0.21
207.683	-8.39
208.155	-6.39
208.627	-9.19
209.099	-6.79
209.57	-13.89
210.042	-4.09
210.514	-5.99
210.986	-1.79
211.458	-10.89
211.93	-1.19
212.402	2.71
212.873	-9.69
213.345	-7.89
213.817	-11.29
214.288	-10.39
214.76	-9.99
215.232	4.01
215.703	-2.89
216.175	-4.89
216.646	-9.59
217.118	-8.29
217.589	-0.29
218.061	-8.59
218.532	-4.99
219.004	-5.99
219.475	-4.79
219.946	-7.29
220.418	-9.89
220.889	-3.09
221.36	-0.09
221.832	-4.79
222.303	-5.69
222.774	-1.39
223.245	-13.99
223.717	-7.79
224.188	-0.49
224.659	-4.49
225.13	-6.29
225.601	-7.49
226.072	-0.19
226.543	-0.89
227.014	-0.29
227.485	-2.49
227.956	-4.49
228.427	-3.29
228.898	-4.69
229.369	-0.49
229.839	-7.69
230.31	-7.19
230.781	1.01
231.252	-1.59
231.722	-9.39
232.193	-3.99
232.664	-1.29
233.135	-5.69
233.605	-6.19
234.076	-6.09
234.546	-4.19
235.017	0.01
235.487	-1.29
235.958	-3.49
236.428	-6.59
236.899	0.91
237.369	-0.39
237.84	-7.59
238.31	2.11
238.78	-6.89
239.251	-1.59
239.721	-2.79
240.191	-4.19
240.662	0.81
241.132	-2.59
241.602	-6.89
242.072	-6.49
242.542	1.11
243.013	-7.79
243.483	-1.39
243.953	0.41
244.423	-0.49
244.893	-3.89
245.363	1.61
245.833	-4.89
246.303	-2.59
246.773	2.31
247.243	-3.09
247.712	-3.19
248.182	2.51
248.652	0.11
249.122	-11.89
249.592	0.21
250.061	7.11
250.531	5.61
251.001	-8.89
251.471	5.71
251.94	6.41
252.41	-1.09
252.879	-9.09
253.349	10.41
253.818	3.11
254.288	-2.69
254.757	-0.59
255.227	-1.09
255.696	0.01
256.166	-4.69
256.635	7.81
257.105	1.91
257.574	7.21
258.043	-5.79
258.513	-4.59
258.982	-1.59
259.451	-2.39
259.92	2.91
260.389	-3.79
260.859	7.91
261.328	-0.69
261.797	6.61
262.266	-6.39
262.735	-0.59
263.204	4.31
263.673	-6.09
264.142	3.61
264.611	-4.99
265.08	-1.29
265.549	-4.99
266.018	2.41
266.487	-3.99
266.955	-5.39
267.424	-7.49
267.893	4.61
268.362	-3.29
268.83	-2.39
269.299	6.01
269.768	5.21
270.236	-0.79
270.705	-1.99
271.174	-3.89
271.642	0.41
272.111	1.91
272.579	4.61
273.048	1.71
273.516	-3.89
273.985	7.21
274.453	11.61
274.922	7.71
275.39	0.91
275.858	-1.79
276.327	6.51
276.795	13.51
277.263	-0.39
277.731	12.41
278.2	9.41
278.668	7.01
279.136	11.01
279.604	3.01
280.072	-0.69
280.54	13.61
281.008	8.01
281.477	7.21
281.945	10.31
282.413	8.01
282.881	14.51
283.348	1.91
283.816	14.21
284.284	8.51
284.752	9.51
285.22	10.91
285.688	6.21
286.156	5.21
286.623	14.01
287.091	12.31
287.559	9.81
288.026	7.81
288.494	7.21
288.962	0.31
289.429	1.11
289.897	11.61
290.364	11.41
290.832	10.01
291.3	6.51
291.767	13.91
292.234	14.31
292.702	4.11
293.169	13.71
293.637	15.31
294.104	11.71
294.571	3.81
295.039	2.31
295.506	10.41
295.973	11.51
296.44	13.11
296.908	7.81
297.375	8.61
297.842	8.61
298.309	11.71
298.776	4.71
299.243	8.41
299.71	8.61
300.177	19.31
300.644	18.61
301.111	11.51
301.578	18.51
302.045	10.51
302.512	18.41
302.979	20.01
303.446	13.41
303.913	13.71
304.379	12.91
304.846	20.01
305.313	19.91
305.78	13.81
306.246	17.31
306.713	19.61
307.18	14.91
307.646	18.41
308.113	17.11
308.579	13.11
309.046	15.91
309.512	17.51
309.979	8.11
310.445	16.41
310.912	19.81
311.378	26.51
311.845	16.51
312.311	26.01
312.777	23.81
313.244	20.01
313.71	25.11
314.176	26.11
314.642	26.11
315.109	16.71
315.575	22.11
316.041	26.01
316.507	20.71
316.973	30.71
317.439	19.21
317.905	27.71
318.371	22.81
318.837	25.11
319.303	21.11
319.769	26.21
320.235	26.31
320.701	32.51
321.167	28.41
321.633	23.81
322.099	22.11
322.564	37.71
323.03	31.41
323.496	27.81
323.962	32.11
324.427	24.51
324.893	31.31
325.359	25.11
325.824	30.51
326.29	28.71
326.755	30.51
327.221	27.21
327.686	33.01
328.152	39.31
328.617	36.51
329.083	43.61
329.548	41.81
330.014	38.41
330.479	35.51
330.944	34.81
331.41	31.51
331.875	40.61
332.34	41.51
332.805	31.31
333.271	31.61
333.736	25.01
334.201	39.21
334.666	40.11
335.131	42.71
335.596	41.61
336.061	38.71
336.526	30.71
336.991	40.41
337.456	44.91
337.921	38.41
338.386	38.71
338.851	40.31
339.316	37.91
339.781	42.61
340.246	48.91
340.711	37.51
341.175	42.01
341.64	44.01
342.105	42.71
342.569	45.61
343.034	49.11
343.499	42.71
343.963	43.01
344.428	53.21
344.893	54.81
345.357	57.61
345.822	53.51
346.286	54.51
346.751	62.11
347.215	52.81
347.679	59.01
348.144	75.71
348.608	65.21
349.073	55.51
349.537	62.41
350.001	67.21
350.465	71.21
350.93	62.61
351.394	57.71
351.858	62.21
352.322	73.01
352.786	63.31
353.25	76.91
353.715	86.81
354.179	78.71
354.643	93.51
355.107	102.61
355.571	82.51
356.035	91.41
356.498	92.61
356.962	94.91
357.426	105.41
357.89	88.01
358.354	82.71
358.818	69.71
359.281	68.21
359.745	62.71
360.209	62.11
360.673	64.21
361.136	70.41
361.6	68.31
362.064	75.81
362.527	70.01
362.991	78.81
363.454	76.71
363.918	67.51
364.381	69.31
364.845	76.41
365.308	76.61
365.772	74.31
366.235	79.01
366.698	74.91
367.162	75.91
367.625	80.21
368.088	77.11
368.552	79.41
369.015	75.51
369.478	85.31
369.941	81.31
370.404	78.81
370.867	83.71
371.331	87.01
371.794	99.11
372.257	85.21
372.72	100.31
373.183	88.31
373.646	82.41
374.109	82.71
374.572	87.21
375.035	92.21
375.497	91.91
375.96	94.61
376.423	93.71
376.886	104.81
377.349	101.11
377.811	97.71
378.274	90.21
378.737	103.01
379.199	102.81
379.662	93.51
380.125	106.11
380.587	96.61
381.05	103.91
381.512	109.81
381.975	115.01
382.437	112.41
382.9	109.41
383.362	119.51
383.825	122.91
384.287	119.41
384.75	114.71
385.212	116.51
385.674	124.31
386.136	126.81
386.599	116.91
387.061	112.61
387.523	115.31
387.985	119.81
388.447	129.81
388.91	118.71
389.372	123.41
389.834	120.51
390.296	120.31
390.758	125.31
391.22	133.01
391.682	145.91
392.144	158.41
392.606	144.81
393.068	136.81
393.529	144.71
393.991	138.71
394.453	132.51
394.915	128.01
395.377	137.81
395.838	141.21
396.3	128.81
396.762	128.41
397.224	130.11
397.685	117.81
398.147	126.01
398.608	126.61
399.07	133.81
399.531	125.01
399.993	140.31
400.454	149.41
400.916	141.81
401.377	136.61
401.839	143.41
402.3	146.71
402.762	164.61
403.223	171.71
403.684	160.51
404.145	161.41
404.607	150.91
405.068	162.81
405.529	166.71
405.99	178.01
406.451	162.81
406.913	170.01
407.374	156.81
407.835	163.11
408.296	162.91
408.757	165.41
409.218	177.21
409.679	170.01
410.14	169.81
410.601	170.71
411.062	179.21
411.522	173.71
411.983	179.91
412.444	171.21
412.905	180.91
413.366	183.91
413.826	195.01
414.287	215.41
414.748	265.31
415.208	243.31
415.669	211.71
416.13	210.81
416.59	198.51
417.051	224.11
417.511	218.51
417.972	247.81
418.432	248.31
418.893	293.81
419.353	254.61
419.814	193.21
420.274	190.01
420.734	178.41
421.195	205.01
421.655	192.11
422.115	201.51
422.576	198.71
423.036	198.21
423.496	214.01
423.956	219.31
424.416	231.41
424.876	267.11
425.336	261.01
425.797	260.81
426.257	247.81
426.717	245.11
427.177	226.91
427.637	225.71
428.097	229.91
428.556	237.11
429.016	269.11
429.476	266.11
429.936	273.01
430.396	272.81
430.856	288.01
431.315	300.71
431.775	340.41
432.235	368.01
432.694	339.61
433.154	355.61
433.614	373.41
434.073	329.11
434.533	280.31
434.993	267.01
435.452	277.61
435.912	285.81
436.371	285.51
436.83	279.01
437.29	255.11
437.749	246.51
438.209	245.91
438.668	274.81
439.127	290.41
439.587	257.91
440.046	253.91
440.505	258.01
440.964	276.01
441.424	313.61
441.883	305.31
442.342	265.01
442.801	225.81
443.26	227.51
443.719	230.21
444.178	229.31
444.637	221.01
445.096	229.21
445.555	236.71
446.014	234.61
446.473	234.11
446.932	239.21
447.391	239.71
447.849	235.91
448.308	227.11
448.767	228.31
449.226	246.71
449.685	240.41
450.143	258.61
450.602	248.71
451.061	230.41
451.519	238.21
451.978	234.01
452.436	238.51
452.895	246.31
453.353	255.71
453.812	253.91
454.27	247.41
454.729	249.11
455.187	249.21
455.646	254.11
456.104	253.31
456.562	265.41
457.021	278.91
457.479	263.71
457.937	282.11
458.395	272.51
458.854	258.01
459.312	263.31
459.77	274.01
460.228	266.91
460.686	254.71
461.144	265.71
461.602	259.71
462.06	258.01
462.518	269.21
462.976	262.71
463.434	268.41
463.892	263.31
464.35	288.71
464.808	304.51
465.266	281.91
465.724	283.21
466.181	282.81
466.639	282.41
467.097	297.51
467.555	308.51
468.012	314.61
468.47	317.01
468.928	344.01
469.385	349.01
469.843	359.01
470.3	347.71
470.758	374.01
471.215	384.01
471.673	413.21
472.13	416.71
472.588	427.11
473.045	390.71
473.503	396.01
473.96	407.01
474.417	426.81
474.875	448.11
475.332	484.51
475.789	468.61
476.246	483.81
476.704	503.21
477.161	523.21
477.618	528.11
478.075	573.41
478.532	618.91
478.989	692.11
479.446	800.01
479.903	766.81
480.36	794.41
480.817	853.01
481.274	943.41
481.731	1024.41
482.188	1104.91
482.645	1217.61
483.102	1317.71
483.558	1450.21
484.015	1475.51
484.472	1453.01
484.929	1415.21
485.385	1371.11
485.842	1338.81
486.299	1308.01
486.755	1264.71
487.212	1060.11
487.668	916.31
488.125	844.11
488.582	775.51
489.038	735.71
489.494	713.11
489.951	699.41
490.407	679.71
490.864	646.51
491.32	654.41
491.776	658.61
492.233	659.11
492.689	630.71
493.145	621.11
493.602	626.91
494.058	630.01
494.514	623.01
494.97	650.31
495.426	660.21
495.882	635.21
496.338	626.61
496.794	643.01
497.251	637.21
497.707	648.71
498.163	638.61
498.618	660.51
499.074	664.21
499.53	680.51
499.986	675.71
500.442	671.71
500.898	643.61
501.354	630.21
501.809	638.01
502.265	648.81
502.721	651.31
503.177	656.41
503.632	659.01
504.088	671.31
504.543	688.21
504.999	705.81
505.455	674.51
505.91	663.61
506.366	655.81
506.821	651.91
507.277	655.91
507.732	649.41
508.187	656.61
508.643	659.51
509.098	665.91
509.553	673.51
510.009	684.41
510.464	689.71
510.919	718.21
511.375	721.31
511.83	731.51
512.285	748.01
512.74	785.21
513.195	809.91
513.65	795.81
514.105	784.61
514.56	795.51
515.015	815.31
515.47	827.21
515.925	807.21
516.38	811.81
516.835	822.21
517.29	795.11
517.745	803.51
518.2	795.41
518.655	774.51
519.109	763.31
519.564	766.81
520.019	755.91
520.474	759.61
520.928	744.01
521.383	735.61
521.838	733.21
522.292	745.91
522.747	739.61
523.201	732.21
523.656	728.91
524.11	727.51
524.565	727.91
525.019	716.91
525.474	724.81
525.928	719.61
526.382	720.51
526.837	723.41
527.291	733.31
527.745	714.41
528.2	722.41
528.654	723.81
529.108	719.31
529.562	721.21
530.016	712.51
530.47	725.41
530.925	715.41
531.379	722.91
531.833	721.51
532.287	722.01
532.741	722.51
533.195	730.91
533.649	740.01
534.103	743.01
534.556	732.01
535.01	731.81
535.464	726.51
535.918	736.81
536.372	741.21
536.826	739.81
537.279	734.11
537.733	737.71
538.187	748.31
538.64	735.31
539.094	751.81
539.548	763.21
540.001	750.21
540.455	747.71
540.908	759.91
541.362	770.81
541.815	779.71
542.269	785.21
542.722	785.31
543.175	804.91
543.629	803.51
544.082	836.81
544.536	828.21
544.989	812.41
545.442	832.31
545.895	829.91
546.349	826.81
546.802	829.71
547.255	838.61
547.708	833.91
548.161	853.51
548.614	862.81
549.067	871.51
549.52	871.01
549.973	838.31
550.426	845.61
550.879	833.21
551.332	832.11
551.785	847.41
552.238	848.21
552.691	860.31
553.144	872.81
553.596	879.41
554.049	902.51
554.502	932.41
554.955	958.81
555.407	952.41
555.86	931.11
556.313	929.91
556.765	919.21
557.218	927.11
557.67	928.21
558.123	922.21
558.576	903.51
559.028	909.81
559.48	916.51
559.933	913.41
560.385	894.21
560.838	855.11
561.29	821.21
561.742	827.51
562.195	807.01
562.647	799.01
563.099	818.51
563.551	812.01
564.004	816.01
564.456	801.01
564.908	795.71
565.36	776.91
565.812	756.91
566.264	763.51
566.716	755.81
567.168	736.91
567.62	748.21
568.072	727.21
568.524	724.51
568.976	721.81
569.428	716.11
569.88	707.51
570.332	717.21
570.784	722.71
571.235	730.21
571.687	727.11
572.139	742.21
572.59	748.51
573.042	756.21
573.494	741.31
573.945	729.11
574.397	717.11
574.849	725.81
575.3	727.71
575.752	713.71
576.203	710.71
576.655	721.01
577.106	700.11
577.557	710.01
578.009	711.91
578.46	708.01
578.912	696.61
579.363	700.01
579.814	705.91
580.265	691.51
580.717	695.41
581.168	701.11
581.619	706.61
582.07	712.01
582.521	713.31
582.972	704.61
583.423	714.81
583.875	711.51
584.326	716.91
584.777	740.31
585.227	754.81
585.678	787.71
586.129	822.71
586.58	827.51
587.031	874.31
587.482	905.91
587.933	965.51
588.384	923.11
588.834	842.31
589.285	811.51
589.736	807.31
590.186	813.31
590.637	793.91
591.088	779.01
591.538	767.61
591.989	768.31
592.439	764.51
592.89	760.61
593.34	740.11
593.791	739.51
594.241	739.21
594.692	734.41
595.142	727.61
595.593	738.11
596.043	737.81
596.493	739.11
596.943	746.11
597.394	760.81
597.844	755.91
598.294	782.01
598.744	810.81
599.195	832.71
599.645	870.91
600.095	911.11
600.545	966.31
600.995	1017.51
601.445	1063.71
601.895	1150.11
602.345	1190.11
602.795	1172.61
603.245	1131.41
603.695	1069.61
604.145	1011.81
604.594	956.61
605.044	901.61
605.494	837.91
605.944	796.01
606.393	780.11
606.843	767.81
607.293	780.71
607.743	767.71
608.192	775.81
608.642	791.91
609.091	804.01
609.541	803.61
609.99	817.81
610.44	787.91
610.889	748.21
611.339	734.41
611.788	723.61
612.238	718.01
612.687	733.01
613.136	727.91
613.586	742.81
614.035	728.61
614.484	743.51
614.933	751.51
615.383	752.61
615.832	739.71
616.281	730.51
616.73	710.11
617.179	687.81
617.628	679.41
618.077	656.51
618.526	657.11
618.975	642.91
619.424	646.21
619.873	639.51
620.322	648.81
620.771	637.61
621.22	639.11
621.669	622.31
622.118	615.61
622.567	614.61
623.015	600.51
623.464	604.11
623.913	586.11
624.361	573.01
624.81	581.41
625.259	579.41
625.707	579.31
626.156	590.21
626.604	601.41
627.053	596.91
627.501	601.61
627.95	597.21
628.398	614.71
628.847	608.11
629.295	595.91
629.744	606.51
630.192	605.71
630.64	591.21
631.089	572.21
631.537	568.61
631.985	564.01
632.433	573.61
632.881	556.61
633.33	573.61
633.778	568.01
634.226	550.91
634.674	574.31
635.122	568.31
635.57	586.71
636.018	588.71
636.466	591.01
636.914	595.31
637.362	599.21
637.81	614.71
638.258	607.61
638.705	611.51
639.153	648.71
639.601	653.71
640.049	679.41
640.497	712.61
640.944	723.41
641.392	683.21
641.84	653.81
642.287	613.31
642.735	596.61
643.182	597.11
643.63	591.51
644.078	600.51
644.525	603.01
644.973	615.71
645.42	621.11
645.867	652.71
646.315	658.11
646.762	696.71
647.21	721.01
647.657	729.21
648.104	770.31
648.551	796.81
648.999	854.11
649.446	931.51
649.893	1011.41
650.34	1174.81
650.787	1395.11
651.234	1720.21
651.682	2225.21
652.129	3016.51
652.576	4301.31
653.023	6258.71
653.47	8452.91
653.917	10416.11
654.363	11872.61
654.81	13019.01
655.257	12363.91
655.704	8188.21
656.151	4929.41
656.598	3235.21
657.044	2326.61
657.491	1811.81
657.938	1454.71
658.385	1220.31
658.831	1073.21
659.278	966.11
659.724	869.71
660.171	803.01
660.618	745.51
661.064	712.81
661.511	687.51
661.957	680.01
662.404	671.71
662.85	678.51
663.296	643.31
663.743	592.21
664.189	565.11
664.635	561.21
665.082	554.91
665.528	556.21
665.974	542.21
666.42	544.31
666.867	538.11
667.313	514.41
667.759	496.41
668.205	473.71
668.651	482.41
669.097	481.01
669.543	465.61
669.989	470.41
670.435	473.81
670.881	479.01
671.327	485.31
671.773	496.41
672.219	520.51
672.665	583.41
673.11	623.41
673.556	676.61
674.002	707.51
674.448	693.91
674.893	584.21
675.339	507.61
675.785	469.31
676.23	451.41
676.676	417.21
677.122	412.91
677.567	396.61
678.013	385.21
678.458	383.31
678.904	380.31
679.349	366.11
679.794	379.01
680.24	371.51
680.685	379.21
681.131	375.51
681.576	372.91
682.021	383.51
682.466	375.71
682.912	371.21
683.357	375.71
683.802	410.31
684.247	446.21
684.692	487.91
685.137	520.71
685.583	580.21
686.028	593.11
686.473	563.51
686.918	481.31
687.363	447.61
687.807	416.71
688.252	396.21
688.697	378.41
689.142	366.11
689.587	360.11
690.032	347.71
690.477	367.91
690.921	377.61
691.366	408.91
691.811	428.11
692.255	462.41
692.7	499.31
693.145	537.61
693.589	764.31
694.034	1254.71
694.478	1683.11
694.923	1861.41
695.367	2413.51
695.812	1295.01
696.256	539.61
696.701	401.61
697.145	362.61
697.59	346.91
698.034	340.01
698.478	352.71
698.922	346.81
699.367	352.01
699.811	360.61
700.255	381.41
700.699	407.71
701.143	459.21
701.588	511.81
702.032	551.21
702.476	544.41
702.92	527.21
703.364	541.91
703.808	707.31
704.252	1149.61
704.696	1595.71
705.14	1775.51
705.584	2268.21
706.027	1143.61
706.471	559.91
706.915	429.71
707.359	373.31
707.803	343.51
708.246	330.71
708.69	334.41
709.134	329.31
709.577	329.41
710.021	331.91
710.465	329.81
710.908	321.01
711.352	322.31
711.795	340.91
712.239	377.21
712.682	410.41
713.126	445.61
713.569	487.21
714.012	381.81
714.456	325.61
714.899	303.71
715.342	293.91
715.786	283.21
716.229	271.81
716.672	277.61
717.115	263.91
717.558	267.51
718.002	262.51
718.445	283.01
718.888	298.41
719.331	319.31
719.774	329.11
720.217	329.11
720.66	306.51
721.103	281.31
721.546	270.41
721.989	267.61
722.432	248.01
722.874	259.41
723.317	251.41
723.76	255.01
724.203	271.71
724.645	354.61
725.088	486.61
725.531	614.61
725.974	685.81
726.416	587.91
726.859	325.21
727.301	266.01
727.744	253.31
728.187	247.41
728.629	257.81
729.071	262.61
729.514	279.31
729.956	291.81
730.399	306.01
730.841	308.71
731.283	295.71
731.726	283.01
732.168	281.61
732.61	290.41
733.053	307.31
733.495	340.11
733.937	385.71
734.379	431.21
734.821	487.21
735.263	596.51
735.705	949.71
736.148	1788.11
736.59	2842.01
737.032	3240.31
737.474	2674.01
737.916	885.41
738.357	465.21
738.799	354.31
739.241	319.91
739.683	302.31
740.125	315.01
740.567	320.71
741.008	343.61
741.45	345.41
741.892	348.71
742.334	380.61
742.775	378.31
743.217	370.51
743.658	298.11
744.1	275.81
744.542	286.11
744.983	338.21
745.425	374.01
745.866	370.31
746.307	303.11
746.749	308.41
747.19	353.91
747.632	509.81
748.073	1004.91
748.514	2084.01
748.956	3095.51
749.397	3891.11
749.838	3240.91
750.279	3152.11
750.72	1610.21
751.162	595.91
751.603	351.31
752.044	278.51
752.485	233.71
752.926	219.81
753.367	215.61
753.808	212.41
754.249	211.51
754.69	201.01
755.131	195.91
755.572	197.51
756.013	191.91
756.453	199.01
756.894	208.91
757.335	211.91
757.776	209.61
758.216	208.21
758.657	212.41
759.098	219.21
759.538	247.81
759.979	299.81
760.42	423.51
760.86	819.81
761.301	2110.01
761.741	4957.41
762.182	6820.61
762.622	4841.11
763.063	1427.31
763.503	588.41
763.943	359.31
764.384	301.11
764.824	290.71
765.264	272.91
765.705	235.31
766.145	196.11
766.585	194.91
767.025	187.51
767.465	185.61
767.906	198.91
768.346	221.91
768.786	235.31
769.226	243.71
769.666	342.31
770.106	701.61
770.546	1755.71
770.986	2849.21
771.426	2525.31
771.866	855.81
772.306	357.81
772.745	224.01
773.185	181.01
773.625	176.71
774.065	159.21
774.505	178.91
774.944	231.51
775.384	408.01
775.824	657.21
776.263	628.11
776.703	307.91
777.142	176.81
777.582	138.71
778.021	138.41
778.461	130.21
778.9	137.31
779.34	131.91
779.779	129.31
780.219	112.11
780.658	122.61
781.097	119.81
781.537	119.31
781.976	118.01
782.415	115.81
782.855	115.71
783.294	108.61
783.733	111.21
784.172	111.41
784.611	114.41
785.05	119.41
785.489	117.61
785.928	126.51
786.367	129.71
786.806	127.01
787.245	137.31
787.684	147.31
788.123	154.81
788.562	143.51
789.001	135.51
789.44	129.41
789.879	126.71
790.317	131.51
790.756	140.91
791.195	138.91
791.634	154.21
792.072	225.41
792.511	407.01
792.95	1146.41
793.388	2298.21
793.827	2015.51
794.265	727.01
794.704	302.51
795.142	199.81
795.581	167.21
796.019	145.01
796.458	137.41
796.896	135.41
797.334	138.21
797.773	173.61
798.211	244.31
798.649	499.71
799.087	1143.01
799.526	1755.11
799.964	2216.61
800.402	2135.71
800.84	811.01
801.278	336.21
801.716	201.51
802.154	163.61
802.592	153.01
803.03	152.31
803.468	149.71
803.906	155.51
804.344	152.31
804.782	151.21
805.22	145.11
805.658	142.31
806.096	154.11
806.533	177.21
806.971	189.81
807.409	244.61
807.847	359.51
808.284	763.11
808.722	2106.91
809.16	3566.11
809.597	3508.31
810.035	5982.81
810.472	6084.91
810.91	2250.81
811.347	863.41
811.785	438.11
812.222	278.71
812.66	207.91
813.097	174.81
813.535	149.41
813.972	143.91
814.409	126.91
814.846	123.81
815.284	118.71
815.721	111.01
816.158	111.31
816.595	121.11
817.032	169.61
817.47	191.41
817.907	142.61
818.344	111.51
818.781	107.51
819.218	104.51
819.655	136.61
820.092	204.51
820.529	225.31
820.966	188.51
821.403	130.31
821.839	109.31
822.276	96.51
822.713	128.31
823.15	143.31
823.587	128.41
824.023	156.61
824.46	344.51
824.897	1008.21
825.333	1437.41
825.77	631.81
826.206	250.51
826.643	147.91
827.08	116.71
827.516	93.41
827.953	85.11
828.389	83.11
828.825	74.61
829.262	75.21
829.698	65.11
830.135	73.31
830.571	68.61
831.007	72.61
831.443	68.91
831.88	65.41
832.316	65.91
832.752	67.01
833.188	67.21
833.624	65.41
834.06	68.91
834.497	72.61
834.933	75.41
835.369	80.91
835.805	77.11
836.241	87.31
836.677	82.51
837.112	97.11
837.548	114.71
837.984	143.71
838.42	225.31
838.856	573.81
839.292	1696.11
839.727	2468.91
840.163	1169.31
840.599	1055.41
841.034	2245.11
841.47	2237.51
841.906	836.61
842.341	353.61
842.777	222.51
843.212	222.91
843.648	205.81
844.083	120.81
844.519	86.41
844.954	74.41
845.39	60.81
845.825	57.31
846.261	60.21
846.696	56.81
847.131	61.61
847.566	57.81
848.002	52.31
848.437	55.61
848.872	63.61
849.307	62.01
849.742	95.21
850.177	204.01
850.613	620.51
851.048	938.31
851.483	410.11
851.918	169.91
852.353	87.31
852.788	55.81
853.223	53.61
853.657	54.31
854.092	50.31
854.527	44.01
854.962	46.51
855.397	44.51
855.832	51.91
856.266	44.41
856.701	43.31
857.136	42.71
857.57	43.71
858.005	47.21
858.44	60.71
858.874	49.61
859.309	53.91
859.743	47.51
860.178	47.51
860.612	39.81
861.047	58.21
861.481	72.01
861.915	77.41
862.35	53.11
862.784	38.31
863.218	32.71
863.653	37.51
864.087	48.11
864.521	60.21
864.955	78.31
865.39	173.81
865.824	194.61
866.258	124.91
866.692	181.41
867.126	196.51
867.56	112.91
867.994	55.91
868.428	40.21
868.862	51.61
869.296	62.21
869.73	60.01
870.164	59.21
870.598	56.01
871.031	40.61
871.465	36.71
871.899	34.91
872.333	23.21
872.766	29.41
873.2	22.11
873.634	33.61
874.067	31.01
874.501	30.01
874.935	41.71
875.368	31.51
875.802	25.71
876.235	26.81
876.669	24.31
877.102	21.61
877.535	22.01
877.969	20.51
878.402	31.31
878.836	22.31
879.269	22.11
879.702	27.61
880.135	22.71
880.569	24.11
881.002	29.21
881.435	28.61
881.868	21.01
882.301	23.11
882.734	19.41
883.167	27.11
883.601	23.91
884.034	27.01
884.467	15.51
884.899	26.91
885.332	21.11
885.765	17.91
886.198	16.31
886.631	19.91
887.064	21.11
887.497	18.31
887.929	29.11
888.362	16.51
888.795	16.11
889.228	16.61
889.66	15.41
890.093	11.41
890.526	12.41
890.958	16.21
891.391	19.21
891.823	18.11
892.256	16.51
892.688	8.51
893.121	13.01
893.553	14.71
893.985	26.31
894.418	23.21
894.85	14.21
895.282	14.01
895.715	13.21
896.147	13.51
896.579	20.51
897.011	9.11
897.444	11.31
897.876	10.51
898.308	20.01
898.74	15.21
899.172	14.71
899.604	18.31
900.036	15.31
900.468	18.81
900.9	17.31
901.332	21.81
901.764	13.61
902.196	23.31
902.628	17.91
903.06	19.71
903.491	30.61
903.923	23.21
904.355	22.31
904.787	17.31
905.218	23.61
905.65	20.81
906.082	13.61
906.513	13.31
906.945	15.61
907.376	14.81
907.808	20.11
908.239	22.91
908.671	22.11
909.102	18.11
909.534	25.21
909.965	49.61
910.397	100.81
910.828	347.61
911.259	508.81
911.691	228.91
912.122	117.81
912.553	51.41
912.984	37.01
913.415	28.51
913.847	25.31
914.278	21.21
914.709	16.11
915.14	19.31
915.571	18.71
916.002	10.01
916.433	20.91
916.864	20.81
917.295	16.81
917.726	22.61
918.157	22.31
918.587	31.61
919.018	17.01
919.449	23.41
919.88	24.41
920.311	33.31
920.741	52.11
921.172	184.51
921.603	158.91
922.033	82.81
922.464	44.11
922.895	18.11
923.325	21.71
923.756	17.51
924.186	14.61
924.617	15.91
925.047	29.11
925.478	23.11
925.908	28.31
926.338	6.51
926.769	14.11
927.199	14.81
927.629	6.21
928.06	17.81
928.49	9.81
928.92	11.31
929.35	9.21
929.78	13.11
930.21	4.31
930.641	8.41
931.071	9.81
931.501	4.81
931.931	12.31
932.361	8.11
932.791	0.21
933.221	8.71
933.651	5.01
934.08	22.51
934.51	32.91
934.94	7.51
935.37	9.31
935.8	7.01
936.229	13.31
936.659	12.61
937.089	4.51
937.519	13.31
937.948	28.31
938.378	15.21
938.807	4.51
939.237	1.11
939.666	10.11
940.096	-4.69
940.525	2.81
940.955	2.81
941.384	-0.39
941.814	1.61
942.243	-1.09
942.672	2.21
943.102	-2.99
943.531	-1.29
943.96	10.21
944.39	7.41
944.819	4.81
945.248	0.91
945.677	1.91
946.106	3.21
946.535	5.41
946.964	1.61
947.393	-1.39
947.822	1.41
948.251	-11.59
948.68	0.51
949.109	6.51
949.538	5.51
949.967	2.31
950.396	-1.39
950.825	-2.19
951.254	-0.79
951.682	-0.89
952.111	1.01
952.54	5.81
952.969	-2.99
953.397	-3.59
953.826	1.91
954.254	-8.09
954.683	2.01
955.112	1.11
955.54	-2.79
955.969	0.61
956.397	5.11
956.826	-6.49
957.254	0.31
957.682	-0.89
958.111	-1.69
958.539	-2.29
958.967	2.21
959.396	0.61
959.824	0.61
960.252	-0.19
960.68	-2.59
961.109	0.51
961.537	-4.79
961.965	-3.59
962.393	-0.59
962.821	-11.09
963.249	3.21
963.677	2.31
964.105	7.91
964.533	52.41
964.961	43.41
965.389	24.21
965.817	8.11
966.245	7.31
966.672	-0.29
967.1	-4.09
967.528	-0.49
967.956	-2.09
968.383	-3.79
968.811	1.01
969.239	-4.99
969.666	-4.59
970.094	-0.79
970.522	6.01
970.949	-2.49
971.377	-4.99
971.804	-1.29
972.232	-0.39
972.659	-3.89
973.087	-6.29
973.514	-7.59
973.941	-5.59
974.369	4.71
974.796	0.91
975.223	2.81
975.651	0.31
976.078	0.61
976.505	-2.69
976.932	1.11
977.359	17.01
977.786	13.11
978.214	5.61
978.641	-3.99
979.068	-7.69
979.495	0.21
979.922	-2.19
980.349	-8.39
980.776	5.41
981.202	-2.89
981.629	0.21
982.056	6.81
982.483	-0.69
982.91	6.01
983.337	-7.69
983.763	0.11
984.19	-3.89
984.617	-3.69
985.043	-1.49
985.47	-5.39
985.897	-4.69
986.323	-8.09
986.75	2.01
987.176	2.61
987.603	-1.29
988.029	3.41
988.456	-9.69
988.882	3.81
989.308	-5.09
989.735	-0.09
990.161	4.21
990.587	-1.19
991.014	-2.59
991.44	4.91
991.866	-4.49
992.292	-7.89
992.719	-3.19
993.145	3.31
993.571	-10.99
993.997	-2.19
994.423	-6.49
994.849	-7.59
995.275	-4.49
995.701	-0.79
996.127	-6.79
996.553	0.31
996.979	-0.69
997.405	-1.09
997.83	-5.99
998.256	-6.49
998.682	0.21
999.108	-10.09
999.534	1.31
999.959	0.61
1000.385	-5.39
1000.811	3.41
1001.236	-8.09
1001.662	-4.69
1002.087	-10.49
1002.513	0.01
1002.938	-3.09
1003.364	3.11
1003.789	-2.89
1004.215	-0.29
1004.64	-4.19
1005.066	-1.69
1005.491	-4.89
1005.916	2.11
1006.342	3.51
1006.767	-7.19
1007.192	1.71
1007.617	-6.69
1008.042	-8.29
1008.468	-9.39
1008.893	-1.29
1009.318	-7.09
1009.743	1.61
1010.168	3.51
1010.593	5.41
1011.018	-5.69
1011.443	-0.69
1011.868	0.81
1012.293	-5.49
1012.718	-6.49
1013.143	-1.29
1013.567	-4.39
1013.992	-1.29
1014.417	-14.89
1014.842	4.01
1015.267	-3.99
1015.691	-2.49
1016.116	3.41
1016.541	2.21
1016.965	4.01
1017.39	1.11
1017.814	-5.09
1018.239	-0.39
1018.663	-6.99
1019.088	-7.59
1019.512	-4.29
1019.937	-2.89
1020.361	-9.29
1020.785	-8.79
1021.21	-2.99
1021.634	-3.49
1022.058	-0.99
1022.483	-1.59
1022.907	-4.09
1023.331	-4.39
1023.755	-1.79
1024.179	0.21
1024.604	-7.59
1025.028	-6.19
1025.452	-7.29
1025.876	0.31
1026.3	-1.09
1026.724	-18.09
1027.148	-4.09
1027.572	-7.79
1027.996	-7.09
1028.42	-3.59
1028.843	-4.79
1029.267	-10.89
1029.691	-8.99
1030.115	-6.39
1030.539	-10.39
1030.962	-5.29
1031.386	-10.29
1031.81	-1.99
1032.233	-2.89
1032.657	-2.49
1033.08	-1.59
1033.504	-5.29
1033.927	-0.29
1034.351	1.31
1034.774	-5.19
1035.198	0.11
1035.621	-4.59
1036.045	-10.59
1036.468	1.61
1036.891	-12.39
1037.315	-11.49
1037.738	-6.49
1038.161	-4.29
1038.584	-6.19
1039.008	-5.39
1039.431	-3.69
1039.854	-6.49
1040.277	-7.99
1040.7	-10.59
1041.123	1.81
1041.546	-5.49
1041.969	-4.79
1042.392	-2.19
1042.815	-6.79
1043.238	-4.09
1043.661	1.21
1044.084	-8.69
1044.507	-6.59
1044.93	-9.99
1045.352	-8.19
1045.775	1.71
1046.198	-2.59
1046.621	0.81
1047.043	-3.19
1047.466	5.21
1047.889	-4.69
1048.311	-4.99
1048.734	-4.19
1049.156	-2.89
1049.579	-9.19
1050.001	-4.49
1050.424	-1.19
1050.846	-2.09
1051.269	-2.49
1051.691	-4.49
1052.113	-1.79
1052.536	-6.99
1052.958	-2.59
1053.38	-11.19
1053.802	-6.09
1054.225	0.91
1054.647	-11.09
1055.069	-7.99
1055.491	-2.79
1055.913	-1.19
1056.335	5.71
1056.757	-2.69
1057.179	-10.19
1057.601	-2.39
1058.023	1.21
1058.445	-7.89
1058.867	-4.79
1059.289	-1.89
1059.711	-6.79
1060.133	-4.49
1060.555	-7.09
1060.976	-7.79
1061.398	-5.59
1061.82	-9.69
1062.241	-10.09
1062.663	-6.39
1063.085	-9.29
1063.506	1.91
1063.928	-5.39
1064.35	2.31
1064.771	-15.29
1065.193	-2.09
1065.614	-7.59
1066.035	-5.69
1066.457	-3.09
1066.878	3.51
1067.3	-6.59
1067.721	-3.89
1068.142	-1.69
1068.564	-8.59
1068.985	-3.79
1069.406	-10.89
1069.827	-5.59
1070.248	0.21
1070.67	-2.59
1071.091	-1.09
1071.512	-3.49
1071.933	-6.69
1072.354	-6.89
1072.775	-3.69
1073.196	-6.69
1073.617	-2.09
1074.038	-3.69
1074.459	-1.09
1074.88	-10.59
1075.3	0.61
1075.721	-5.69
1076.142	0.61
1076.563	-3.89
1076.983	-9.89
1077.404	-5.09
1077.825	-15.39
1078.246	-9.79
1078.666	-8.59
1079.087	-8.89
1079.507	-8.59
1079.928	-4.39
1080.348	-1.19
1080.769	-2.89
1081.189	0.61
1081.61	-1.29
1082.03	-6.39
1082.451	-6.79
1082.871	-0.49
1083.291	-9.39
1083.711	-11.59
1084.132	-11.19
1084.552	-4.69
1084.972	-3.09
1085.392	-12.89
1085.813	-9.79
1086.233	-6.69
1086.653	-8.89
1087.073	-6.29
1087.493	-8.79
1087.913	-9.39
1088.333	-2.99
1088.753	-1.09
1089.173	-1.79
1089.593	-2.39
1090.013	-1.49
1090.433	0.41
1090.852	-0.89
1091.272	1.71
1091.692	-1.69
1092.112	-8.49
1092.531	-12.69
1092.951	-12.69
1093.371	-6.89
1093.79	2.51
1094.21	-9.59
1094.63	-5.59
1095.049	-7.09
1095.469	-2.49
1095.888	-0.39
1096.308	3.31
1096.727	5.61
1097.146	-8.19
1097.566	-4.19
1097.985	-9.79
1098.405	-2.19
1098.824	-10.89
1099.243	-9.99
1099.662	-11.09
1100.082	-4.39
1100.501	1.61
1100.92	-7.89
1101.339	-7.39
1101.758	-8.09
