Data from 20171114-ORNL-Ar_H_NY_Subt18_08-04-39-460.txt Node
Date: Tue Nov 14 08:04:39 EST 2017
User: Ender
Spectrometer: HR+D1039
Trigger mode: 0
Integration Time (sec): 2.730000E-2
Scans to average: 10
Electric dark correction enabled: true
Nonlinearity correction enabled: false
Boxcar width: 0
XAxis mode: Wavelengths
Number of Pixels in Spectrum: 2048
>>>>>Begin Spectral Data<<<<<
187.836	-4.82
188.309	-4.82
188.782	-4.82
189.255	1.48
189.728	-2.22
190.201	4.18
190.674	-0.32
191.147	4.48
191.619	-2.02
192.092	-3.62
192.565	2.68
193.038	0.28
193.511	3.88
193.984	-3.62
194.456	-0.62
194.929	4.68
195.402	-1.72
195.874	-2.72
196.347	-0.12
196.82	-4.22
197.292	1.78
197.765	-1.22
198.237	-8.52
198.71	-3.52
199.182	-1.82
199.655	2.78
200.127	-1.62
200.6	-0.82
201.072	0.88
201.544	-4.92
202.017	-1.62
202.489	2.58
202.961	-0.02
203.433	-3.42
203.906	-5.42
204.378	-6.32
204.85	-9.52
205.322	-3.72
205.794	-0.82
206.266	-5.02
206.739	-9.92
207.211	-1.52
207.683	-8.42
208.155	-7.32
208.627	-2.62
209.099	-6.32
209.57	-10.62
210.042	-1.62
210.514	-3.02
210.986	0.28
211.458	-3.12
211.93	-0.32
212.402	1.88
212.873	-12.02
213.345	-0.32
213.817	-4.92
214.288	-5.22
214.76	-9.32
215.232	-0.62
215.703	-4.22
216.175	-7.62
216.646	-3.82
217.118	-8.42
217.589	-2.22
218.061	-6.42
218.532	-3.82
219.004	-2.02
219.475	-0.32
219.946	-2.02
220.418	-3.02
220.889	4.98
221.36	0.98
221.832	-5.42
222.303	-9.52
222.774	-0.12
223.245	-9.62
223.717	-6.62
224.188	-1.72
224.659	-6.82
225.13	-2.32
225.601	0.88
226.072	-0.22
226.543	-2.42
227.014	-1.32
227.485	-0.12
227.956	-9.22
228.427	-3.52
228.898	1.78
229.369	-1.32
229.839	-3.72
230.31	-5.12
230.781	-0.52
231.252	-1.32
231.722	-7.32
232.193	-7.92
232.664	-1.52
233.135	-0.62
233.605	-3.72
234.076	-4.42
234.546	0.58
235.017	2.78
235.487	0.28
235.958	-1.12
236.428	-1.32
236.899	2.58
237.369	0.08
237.84	-4.22
238.31	8.58
238.78	6.88
239.251	2.08
239.721	0.28
240.191	-0.52
240.662	2.68
241.132	-1.12
241.602	-2.22
242.072	2.58
242.542	5.98
243.013	4.38
243.483	5.48
243.953	3.58
244.423	3.78
244.893	-0.22
245.363	8.08
245.833	2.08
246.303	6.48
246.773	5.48
247.243	5.08
247.712	2.88
248.182	6.38
248.652	6.58
249.122	-2.22
249.592	15.18
250.061	25.58
250.531	35.08
251.001	24.08
251.471	22.58
251.94	16.28
252.41	7.68
252.879	-2.02
253.349	10.88
253.818	10.78
254.288	0.68
254.757	7.48
255.227	5.98
255.696	0.38
256.166	4.48
256.635	6.78
257.105	9.18
257.574	5.78
258.043	12.98
258.513	12.68
258.982	17.68
259.451	7.08
259.92	16.18
260.389	13.28
260.859	20.28
261.328	18.88
261.797	16.58
262.266	9.38
262.735	10.08
263.204	9.88
263.673	2.28
264.142	16.18
264.611	-3.62
265.08	0.58
265.549	-0.72
266.018	8.98
266.487	-2.72
266.955	-1.52
267.424	4.48
267.893	8.88
268.362	3.88
268.83	5.38
269.299	13.08
269.768	9.28
270.236	3.28
270.705	4.28
271.174	5.68
271.642	12.28
272.111	11.38
272.579	17.08
273.048	20.18
273.516	27.88
273.985	28.08
274.453	26.78
274.922	19.18
275.39	11.88
275.858	2.78
276.327	8.58
276.795	11.08
277.263	7.98
277.731	29.48
278.2	59.78
278.668	64.08
279.136	53.18
279.604	21.38
280.072	22.78
280.54	13.28
281.008	7.98
281.477	10.38
281.945	15.78
282.413	16.68
282.881	12.18
283.348	10.88
283.816	17.68
284.284	18.18
284.752	20.98
285.22	19.68
285.688	20.08
286.156	16.88
286.623	47.18
287.091	55.98
287.559	32.48
288.026	19.48
288.494	18.28
288.962	6.98
289.429	13.28
289.897	22.28
290.364	21.08
290.832	21.38
291.3	17.88
291.767	19.08
292.234	17.48
292.702	16.88
293.169	16.58
293.637	24.58
294.104	24.78
294.571	9.58
295.039	12.08
295.506	15.78
295.973	13.68
296.44	18.98
296.908	15.58
297.375	20.28
297.842	20.08
298.309	17.98
298.776	18.28
299.243	25.78
299.71	16.88
300.177	27.18
300.644	26.28
301.111	24.08
301.578	24.38
302.045	12.88
302.512	22.78
302.979	19.48
303.446	26.78
303.913	22.78
304.379	22.38
304.846	29.98
305.313	26.58
305.78	17.58
306.246	24.38
306.713	27.88
307.18	23.48
307.646	31.18
308.113	29.48
308.579	24.08
309.046	26.48
309.512	29.18
309.979	13.58
310.445	27.18
310.912	30.08
311.378	27.28
311.845	23.88
312.311	28.58
312.777	36.38
313.244	36.88
313.71	37.48
314.176	27.38
314.642	28.98
315.109	33.98
315.575	35.18
316.041	38.08
316.507	32.08
316.973	36.38
317.439	32.28
317.905	28.78
318.371	39.88
318.837	34.68
319.303	29.58
319.769	33.68
320.235	33.98
320.701	30.08
321.167	30.38
321.633	34.68
322.099	34.88
322.564	46.28
323.03	38.28
323.496	37.88
323.962	41.08
324.427	35.18
324.893	39.88
325.359	33.98
325.824	36.48
326.29	33.88
326.755	37.08
327.221	38.48
327.686	38.88
328.152	47.88
328.617	41.28
329.083	47.18
329.548	48.88
330.014	49.28
330.479	38.28
330.944	40.98
331.41	43.18
331.875	45.38
332.34	40.18
332.805	47.48
333.271	52.18
333.736	41.88
334.201	43.88
334.666	53.18
335.131	50.78
335.596	51.88
336.061	49.28
336.526	36.68
336.991	45.68
337.456	59.78
337.921	49.88
338.386	45.58
338.851	47.18
339.316	50.58
339.781	37.68
340.246	56.78
340.711	49.98
341.175	53.68
341.64	42.88
342.105	47.08
342.569	54.18
343.034	56.78
343.499	57.88
343.963	48.48
344.428	62.68
344.893	60.08
345.357	55.18
345.822	65.18
346.286	66.88
346.751	64.68
347.215	67.48
347.679	75.88
348.144	95.48
348.608	84.78
349.073	69.98
349.537	72.38
350.001	75.38
350.465	83.68
350.93	83.28
351.394	82.18
351.858	72.98
352.322	87.18
352.786	82.68
353.25	92.88
353.715	106.58
354.179	98.88
354.643	113.68
355.107	122.58
355.571	108.68
356.035	104.58
356.498	111.08
356.962	123.68
357.426	125.78
357.89	114.38
358.354	92.68
358.818	89.08
359.281	78.88
359.745	76.18
360.209	75.68
360.673	69.28
361.136	77.48
361.6	79.78
362.064	86.28
362.527	79.18
362.991	85.48
363.454	77.38
363.918	76.38
364.381	75.38
364.845	79.88
365.308	79.98
365.772	79.88
366.235	81.58
366.698	79.78
367.162	82.68
367.625	82.48
368.088	87.58
368.552	90.38
369.015	90.98
369.478	95.38
369.941	100.18
370.404	88.78
370.867	95.28
371.331	107.38
371.794	117.08
372.257	110.18
372.72	111.28
373.183	102.48
373.646	91.88
374.109	102.08
374.572	100.48
375.035	99.58
375.497	101.18
375.96	97.38
376.423	106.68
376.886	113.28
377.349	108.58
377.811	101.78
378.274	106.98
378.737	101.38
379.199	112.18
379.662	110.88
380.125	112.98
380.587	109.88
381.05	114.38
381.512	121.08
381.975	131.98
382.437	127.88
382.9	112.68
383.362	123.98
383.825	130.28
384.287	140.18
384.75	135.08
385.212	127.68
385.674	136.68
386.136	124.58
386.599	115.48
387.061	120.98
387.523	122.68
387.985	122.88
388.447	136.68
388.91	138.78
389.372	143.98
389.834	148.98
390.296	139.38
390.758	138.58
391.22	159.38
391.682	197.08
392.144	279.68
392.606	220.28
393.068	161.88
393.529	161.18
393.991	146.88
394.453	142.48
394.915	147.68
395.377	183.28
395.838	195.88
396.3	151.18
396.762	134.28
397.224	122.68
397.685	122.58
398.147	121.98
398.608	122.28
399.07	125.58
399.531	124.78
399.993	133.78
400.454	143.98
400.916	137.88
401.377	132.18
401.839	144.38
402.3	145.48
402.762	156.38
403.223	165.28
403.684	159.08
404.145	144.68
404.607	151.58
405.068	158.58
405.529	158.88
405.99	182.88
406.451	164.38
406.913	161.68
407.374	155.08
407.835	150.78
408.296	157.88
408.757	167.78
409.218	180.58
409.679	165.48
410.14	166.68
410.601	165.28
411.062	171.18
411.522	184.38
411.983	177.88
412.444	170.48
412.905	170.38
413.366	168.38
413.826	176.88
414.287	204.48
414.748	247.48
415.208	230.98
415.669	194.58
416.13	188.08
416.59	189.38
417.051	205.88
417.511	203.88
417.972	225.98
418.432	231.98
418.893	272.58
419.353	241.58
419.814	187.08
420.274	167.88
420.734	166.48
421.195	183.58
421.655	186.88
422.115	182.88
422.576	180.88
423.036	184.68
423.496	188.98
423.956	197.88
424.416	210.68
424.876	248.68
425.336	242.88
425.797	246.48
426.257	246.08
426.717	219.58
427.177	216.38
427.637	208.98
428.097	217.88
428.556	226.18
429.016	247.48
429.476	240.28
429.936	257.18
430.396	256.68
430.856	279.18
431.315	299.48
431.775	326.78
432.235	360.78
432.694	326.48
433.154	336.78
433.614	360.28
434.073	309.48
434.533	265.38
434.993	251.08
435.452	258.68
435.912	278.78
436.371	267.88
436.83	265.78
437.29	253.88
437.749	233.78
438.209	231.18
438.668	250.58
439.127	266.78
439.587	245.18
440.046	232.08
440.505	241.58
440.964	262.28
441.424	299.88
441.883	286.48
442.342	237.78
442.801	212.98
443.26	206.98
443.719	207.88
444.178	197.78
444.637	194.78
445.096	210.58
445.555	208.98
446.014	207.98
446.473	207.98
446.932	217.58
447.391	209.98
447.849	212.88
448.308	203.68
448.767	207.88
449.226	219.68
449.685	218.78
450.143	232.48
450.602	225.58
451.061	217.98
451.519	218.58
451.978	217.68
452.436	214.58
452.895	214.88
453.353	233.88
453.812	228.38
454.27	224.28
454.729	221.98
455.187	224.18
455.646	230.28
456.104	231.48
456.562	238.48
457.021	247.08
457.479	243.28
457.937	248.98
458.395	245.28
458.854	230.08
459.312	239.78
459.77	254.58
460.228	239.08
460.686	230.48
461.144	227.38
461.602	232.88
462.06	224.38
462.518	238.78
462.976	242.98
463.434	244.08
463.892	244.38
464.35	263.28
464.808	267.78
465.266	250.68
465.724	248.68
466.181	254.88
466.639	257.68
467.097	273.08
467.555	289.88
468.012	286.48
468.47	296.78
468.928	312.48
469.385	317.88
469.843	318.98
470.3	325.48
470.758	339.08
471.215	359.48
471.673	381.38
472.13	372.08
472.588	386.68
473.045	343.88
473.503	345.38
473.96	367.38
474.417	380.78
474.875	401.08
475.332	437.38
475.789	431.18
476.246	436.78
476.704	450.08
477.161	469.68
477.618	486.68
478.075	523.88
478.532	584.68
478.989	643.78
479.446	750.08
479.903	718.68
480.36	758.98
480.817	808.98
481.274	909.48
481.731	1005.78
482.188	1100.78
482.645	1228.98
483.102	1333.68
483.558	1459.08
484.015	1496.98
484.472	1481.78
484.929	1437.38
485.385	1396.88
485.842	1361.78
486.299	1283.38
486.755	1220.78
487.212	1030.48
487.668	865.98
488.125	792.28
488.582	730.18
489.038	699.28
489.494	667.88
489.951	648.38
490.407	638.38
490.864	610.28
491.32	606.38
491.776	597.38
492.233	597.08
492.689	571.88
493.145	559.38
493.602	557.78
494.058	570.68
494.514	567.48
494.97	593.18
495.426	603.88
495.882	587.78
496.338	577.28
496.794	592.08
497.251	585.38
497.707	594.18
498.163	596.58
498.618	602.38
499.074	611.88
499.53	627.38
499.986	630.88
500.442	616.38
500.898	591.98
501.354	587.28
501.809	596.58
502.265	606.18
502.721	612.78
503.177	629.28
503.632	620.38
504.088	637.28
504.543	669.48
504.999	661.28
505.455	617.68
505.91	590.58
506.366	592.38
506.821	584.48
507.277	590.28
507.732	582.88
508.187	581.08
508.643	594.88
509.098	588.58
509.553	607.68
510.009	619.98
510.464	634.38
510.919	656.78
511.375	652.28
511.83	657.38
512.285	684.18
512.74	715.78
513.195	735.88
513.65	724.88
514.105	720.48
514.56	718.58
515.015	748.68
515.47	763.78
515.925	745.08
516.38	734.68
516.835	745.48
517.29	740.28
517.745	737.88
518.2	731.88
518.655	693.88
519.109	706.18
519.564	699.98
520.019	691.68
520.474	682.28
520.928	678.38
521.383	675.98
521.838	674.08
522.292	682.78
522.747	657.38
523.201	653.18
523.656	648.48
524.11	644.08
524.565	647.68
525.019	648.68
525.474	645.98
525.928	650.58
526.382	652.58
526.837	641.48
527.291	657.38
527.745	652.18
528.2	645.68
528.654	643.28
529.108	644.38
529.562	640.28
530.016	642.68
530.47	646.28
530.925	646.48
531.379	648.58
531.833	656.58
532.287	654.08
532.741	657.88
533.195	661.98
533.649	671.98
534.103	670.98
534.556	659.38
535.01	668.08
535.464	669.88
535.918	677.18
536.372	667.98
536.826	667.48
537.279	657.68
537.733	662.08
538.187	670.58
538.64	668.08
539.094	671.88
539.548	679.38
540.001	673.08
540.455	664.88
540.908	681.38
541.362	688.18
541.815	703.28
542.269	703.58
542.722	694.38
543.175	714.98
543.629	709.68
544.082	724.48
544.536	728.58
544.989	730.88
545.442	726.38
545.895	724.78
546.349	729.98
546.802	731.48
547.255	734.38
547.708	745.28
548.161	751.88
548.614	759.88
549.067	762.28
549.52	751.58
549.973	747.38
550.426	740.88
550.879	739.08
551.332	734.18
551.785	748.38
552.238	747.88
552.691	745.18
553.144	769.08
553.596	780.98
554.049	785.08
554.502	820.28
554.955	842.88
555.407	846.68
555.86	831.78
556.313	831.88
556.765	814.88
557.218	818.28
557.67	807.98
558.123	808.58
558.576	802.68
559.028	815.58
559.48	825.98
559.933	806.68
560.385	767.18
560.838	739.88
561.29	717.78
561.742	712.58
562.195	703.08
562.647	702.08
563.099	705.58
563.551	696.78
564.004	710.58
564.456	711.78
564.908	688.48
565.36	680.48
565.812	673.68
566.264	669.08
566.716	664.48
567.168	648.88
567.62	657.78
568.072	643.88
568.524	630.58
568.976	625.08
569.428	610.68
569.88	620.28
570.332	619.68
570.784	619.88
571.235	618.88
571.687	637.88
572.139	635.38
572.59	643.38
573.042	648.58
573.494	650.68
573.945	642.98
574.397	621.38
574.849	632.28
575.3	627.48
575.752	616.88
576.203	614.28
576.655	614.18
577.106	614.58
577.557	612.18
578.009	619.08
578.46	596.58
578.912	607.48
579.363	607.48
579.814	607.88
580.265	609.18
580.717	604.78
581.168	600.98
581.619	616.58
582.07	620.48
582.521	609.08
582.972	610.78
583.423	617.78
583.875	615.28
584.326	635.48
584.777	679.68
585.227	742.78
585.678	819.68
586.129	892.18
586.58	977.68
587.031	1050.68
587.482	1193.38
587.933	1371.08
588.384	1193.28
588.834	879.08
589.285	726.48
589.736	704.78
590.186	703.48
590.637	686.98
591.088	664.78
591.538	662.98
591.989	654.08
592.439	654.98
592.89	642.88
593.34	648.08
593.791	637.38
594.241	637.28
594.692	646.48
595.142	631.48
595.593	628.78
596.043	631.18
596.493	639.48
596.943	640.28
597.394	631.68
597.844	637.58
598.294	657.88
598.744	676.28
599.195	694.18
599.645	725.58
600.095	765.68
600.545	815.58
600.995	857.28
601.445	919.18
601.895	981.28
602.345	1017.28
602.795	1006.98
603.245	959.88
603.695	909.78
604.145	858.98
604.594	816.08
605.044	771.28
605.494	714.08
605.944	666.18
606.393	668.98
606.843	652.38
607.293	655.68
607.743	653.78
608.192	664.58
608.642	668.18
609.091	681.38
609.541	689.88
609.99	681.88
610.44	679.48
610.889	639.38
611.339	619.18
611.788	600.18
612.238	618.18
612.687	636.58
613.136	629.28
613.586	656.68
614.035	648.78
614.484	677.88
614.933	663.78
615.383	659.38
615.832	654.68
616.281	640.28
616.73	601.38
617.179	587.58
617.628	563.08
618.077	566.18
618.526	547.18
618.975	551.08
619.424	544.88
619.873	541.98
620.322	542.58
620.771	540.18
621.22	530.18
621.669	520.98
622.118	516.18
622.567	509.78
623.015	512.98
623.464	498.88
623.913	494.88
624.361	478.98
624.81	475.58
625.259	490.28
625.707	487.38
626.156	493.88
626.604	498.68
627.053	492.88
627.501	493.48
627.95	503.38
628.398	517.68
628.847	501.28
629.295	496.38
629.744	510.18
630.192	500.98
630.64	486.58
631.089	496.28
631.537	504.18
631.985	511.88
632.433	530.28
632.881	531.08
633.33	579.98
633.778	556.88
634.226	494.38
634.674	492.98
635.122	503.28
635.57	516.48
636.018	549.58
636.466	506.18
636.914	478.48
637.362	495.48
637.81	507.38
638.258	507.88
638.705	507.98
639.153	532.58
639.601	541.68
640.049	561.08
640.497	584.58
640.944	597.18
641.392	562.98
641.84	538.08
642.287	508.58
642.735	494.58
643.182	497.68
643.63	502.48
644.078	496.18
644.525	511.48
644.973	513.08
645.42	523.78
645.867	537.38
646.315	558.18
646.762	563.08
647.21	591.18
647.657	618.38
648.104	656.48
648.551	666.18
648.999	725.68
649.446	792.58
649.893	872.68
650.34	996.38
650.787	1193.38
651.234	1471.28
651.682	1911.38
652.129	2625.08
652.576	3761.58
653.023	5598.28
653.47	7689.28
653.917	9743.98
654.363	11357.68
654.81	12756.78
655.257	12142.18
655.704	7866.68
656.151	4612.88
656.598	2987.98
657.044	2116.98
657.491	1624.88
657.938	1294.18
658.385	1090.98
658.831	943.08
659.278	823.78
659.724	738.88
660.171	691.28
660.618	620.68
661.064	593.28
661.511	570.58
661.957	559.78
662.404	547.98
662.85	552.48
663.296	528.58
663.743	484.58
664.189	468.78
664.635	459.28
665.082	453.28
665.528	460.78
665.974	447.68
666.42	438.58
666.867	433.58
667.313	423.58
667.759	408.78
668.205	409.68
668.651	415.98
669.097	411.68
669.543	435.08
669.989	402.58
670.435	378.98
670.881	385.08
671.327	387.58
671.773	408.68
672.219	416.38
672.665	465.48
673.11	502.78
673.556	543.48
674.002	570.58
674.448	569.68
674.893	471.98
675.339	408.58
675.785	370.68
676.23	355.98
676.676	331.68
677.122	323.58
677.567	318.08
678.013	310.98
678.458	305.38
678.904	303.58
679.349	299.58
679.794	303.78
680.24	302.88
680.685	292.98
681.131	294.38
681.576	296.98
682.021	302.78
682.466	294.98
682.912	295.48
683.357	303.28
683.802	316.98
684.247	345.78
684.692	392.88
685.137	429.48
685.583	459.08
686.028	486.28
686.473	443.58
686.918	377.38
687.363	355.28
687.807	342.18
688.252	308.48
688.697	302.08
689.142	284.08
689.587	289.18
690.032	280.08
690.477	291.58
690.921	293.48
691.366	323.28
691.811	340.08
692.255	371.28
692.7	391.48
693.145	428.98
693.589	570.38
694.034	936.58
694.478	1302.08
694.923	1510.58
695.367	1987.18
695.812	1028.88
696.256	425.98
696.701	312.08
697.145	292.68
697.59	282.28
698.034	272.78
698.478	282.88
698.922	276.28
699.367	279.38
699.811	284.78
700.255	296.78
700.699	333.38
701.143	351.48
701.588	409.18
702.032	444.78
702.476	432.48
702.92	416.58
703.364	415.08
703.808	532.28
704.252	851.58
704.696	1229.48
705.14	1458.38
705.584	1866.58
706.027	921.08
706.471	443.18
706.915	334.28
707.359	296.78
707.803	267.68
708.246	260.78
708.69	266.18
709.134	263.78
709.577	263.98
710.021	270.78
710.465	260.38
710.908	252.08
711.352	249.08
711.795	257.18
712.239	287.08
712.682	322.68
713.126	358.38
713.569	398.78
714.012	310.98
714.456	272.68
714.899	249.08
715.342	227.18
715.786	221.88
716.229	218.98
716.672	210.38
717.115	212.18
717.558	209.48
718.002	212.28
718.445	222.38
718.888	242.18
719.331	250.68
719.774	263.58
720.217	250.68
720.66	240.18
721.103	229.68
721.546	212.68
721.989	208.38
722.432	196.78
722.874	201.98
723.317	196.18
723.76	197.88
724.203	217.88
724.645	268.28
725.088	369.18
725.531	483.78
725.974	552.08
726.416	469.68
726.859	261.58
727.301	209.38
727.744	200.48
728.187	196.58
728.629	202.98
729.071	206.78
729.514	217.78
729.956	226.78
730.399	238.18
730.841	239.48
731.283	239.08
731.726	228.58
732.168	217.98
732.61	223.28
733.053	234.18
733.495	256.28
733.937	290.58
734.379	337.78
734.821	365.28
735.263	450.28
735.705	690.58
736.148	1284.28
736.59	2166.78
737.032	2672.68
737.474	2158.58
737.916	695.08
738.357	359.88
738.799	280.28
739.241	254.48
739.683	236.88
740.125	247.28
740.567	247.48
741.008	265.18
741.45	261.28
741.892	263.98
742.334	286.88
742.775	304.98
743.217	297.18
743.658	231.28
744.1	214.28
744.542	222.48
744.983	264.98
745.425	298.58
745.866	299.78
746.307	242.98
746.749	233.38
747.19	274.48
747.632	374.28
748.073	709.98
748.514	1532.68
748.956	2413.18
749.397	3022.98
749.838	2514.08
750.279	2567.98
750.72	1294.48
751.162	466.88
751.603	270.38
752.044	214.48
752.485	182.48
752.926	177.68
753.367	175.28
753.808	165.08
754.249	156.28
754.69	154.78
755.131	156.78
755.572	154.98
756.013	150.28
756.453	153.48
756.894	158.68
757.335	160.98
757.776	161.98
758.216	170.38
758.657	162.58
759.098	168.18
759.538	189.28
759.979	221.38
760.42	305.98
760.86	569.98
761.301	1468.08
761.741	3679.88
762.182	5647.08
762.622	3990.98
763.063	1117.88
763.503	457.28
763.943	291.08
764.384	281.78
764.824	338.28
765.264	381.58
765.705	260.78
766.145	177.48
766.585	164.38
767.025	157.18
767.465	155.38
767.906	201.78
768.346	267.88
768.786	293.98
769.226	219.08
769.666	256.68
770.106	494.78
770.546	1269.98
770.986	2278.38
771.426	2072.38
771.866	685.98
772.306	279.48
772.745	181.08
773.185	143.68
773.625	145.58
774.065	136.48
774.505	156.68
774.944	246.78
775.384	554.18
775.824	1037.48
776.263	1024.78
776.703	435.98
777.142	186.88
777.582	133.78
778.021	117.08
778.461	113.48
778.9	124.18
779.34	118.88
779.779	91.18
780.219	94.98
780.658	93.68
781.097	94.38
781.537	98.08
781.976	96.08
782.415	89.38
782.855	89.48
783.294	88.78
783.733	86.98
784.172	87.08
784.611	81.18
785.05	89.08
785.489	91.28
785.928	97.78
786.367	101.38
786.806	98.18
787.245	112.48
787.684	108.18
788.123	124.78
788.562	108.18
789.001	106.68
789.44	99.58
789.879	92.88
790.317	99.68
790.756	102.68
791.195	103.08
791.634	120.78
792.072	168.28
792.511	295.28
792.95	809.38
793.388	1830.98
793.827	1707.38
794.265	587.08
794.704	235.88
795.142	158.38
795.581	123.78
796.019	115.88
796.458	105.88
796.896	100.28
797.334	110.08
797.773	122.48
798.211	175.18
798.649	360.58
799.087	845.48
799.526	1345.58
799.964	1708.58
800.402	1763.88
800.84	649.48
801.278	253.38
801.716	155.58
802.154	126.58
802.592	122.48
803.03	118.98
803.468	115.08
803.906	122.28
804.344	124.58
804.782	113.88
805.22	116.98
805.658	111.48
806.096	126.28
806.533	132.58
806.971	142.28
807.409	177.38
807.847	256.88
808.284	539.28
808.722	1546.68
809.16	2842.78
809.597	2623.48
810.035	4644.58
810.472	5126.18
810.91	1833.48
811.347	683.98
811.785	337.98
812.222	220.88
812.66	164.38
813.097	139.78
813.535	118.28
813.972	103.48
814.409	98.28
814.846	93.58
815.284	97.88
815.721	83.78
816.158	95.28
816.595	95.78
817.032	143.08
817.47	173.18
817.907	153.18
818.344	129.48
818.781	96.28
819.218	78.78
819.655	102.08
820.092	155.48
820.529	182.28
820.966	147.68
821.403	113.88
821.839	93.88
822.276	86.38
822.713	107.98
823.15	116.48
823.587	99.58
824.023	122.08
824.46	240.18
824.897	740.08
825.333	1181.78
825.77	498.28
826.206	196.38
826.643	115.78
827.08	88.08
827.516	67.98
827.953	65.48
828.389	66.08
828.825	58.28
829.262	57.58
829.698	49.68
830.135	52.68
830.571	52.48
831.007	49.38
831.443	51.88
831.88	48.38
832.316	53.78
832.752	55.58
833.188	51.38
833.624	56.48
834.06	54.68
834.497	52.28
834.933	56.98
835.369	65.88
835.805	52.78
836.241	66.88
836.677	65.58
837.112	79.98
837.548	86.18
837.984	107.88
838.42	172.58
838.856	406.78
839.292	1263.68
839.727	2012.88
840.163	925.08
840.599	760.58
841.034	1723.08
841.47	1887.78
841.906	676.58
842.341	280.28
842.777	193.18
843.212	270.48
843.648	270.18
844.083	130.98
844.519	77.08
844.954	68.48
845.39	47.28
845.825	53.08
846.261	52.88
846.696	47.78
847.131	44.28
847.566	43.78
848.002	43.08
848.437	49.18
848.872	52.58
849.307	48.98
849.742	70.68
850.177	143.48
850.613	459.18
851.048	759.88
851.483	325.08
851.918	126.18
852.353	70.08
852.788	51.88
853.223	41.18
853.657	45.88
854.092	35.98
854.527	36.98
854.962	41.58
855.397	36.48
855.832	41.08
856.266	32.08
856.701	32.38
857.136	33.38
857.57	38.28
858.005	46.98
858.44	49.38
858.874	36.88
859.309	50.98
859.743	33.18
860.178	42.08
860.612	34.08
861.047	41.48
861.481	55.88
861.915	61.88
862.35	44.28
862.784	34.48
863.218	33.68
863.653	20.58
864.087	39.88
864.521	46.28
864.955	56.68
865.39	128.28
865.824	149.38
866.258	99.78
866.692	136.28
867.126	157.28
867.56	91.78
867.994	49.08
868.428	28.68
868.862	39.68
869.296	41.18
869.73	46.98
870.164	47.08
870.598	41.28
871.031	28.48
871.465	24.58
871.899	21.48
872.333	19.68
872.766	17.38
873.2	19.48
873.634	23.48
874.067	20.88
874.501	16.78
874.935	23.78
875.368	18.68
875.802	16.98
876.235	21.88
876.669	19.38
877.102	15.18
877.535	22.68
877.969	17.48
878.402	17.08
878.836	14.98
879.269	21.78
879.702	21.08
880.135	13.88
880.569	16.58
881.002	23.78
881.435	19.78
881.868	11.18
882.301	20.88
882.734	14.08
883.167	18.98
883.601	12.08
884.034	15.58
884.467	11.28
884.899	16.38
885.332	12.98
885.765	5.78
886.198	15.38
886.631	12.58
887.064	15.88
887.497	21.68
887.929	19.78
888.362	16.08
888.795	5.48
889.228	11.78
889.66	12.98
890.093	12.28
890.526	8.38
890.958	15.88
891.391	18.38
891.823	21.28
892.256	12.08
892.688	2.08
893.121	18.18
893.553	19.98
893.985	22.08
894.418	19.58
894.85	6.98
895.282	7.98
895.715	13.68
896.147	10.58
896.579	11.08
897.011	11.98
897.444	15.48
897.876	7.88
898.308	15.18
898.74	10.08
899.172	12.18
899.604	15.58
900.036	18.88
900.468	11.98
900.9	8.58
901.332	15.98
901.764	5.58
902.196	12.98
902.628	12.58
903.06	18.68
903.491	22.98
903.923	17.48
904.355	15.38
904.787	16.58
905.218	20.78
905.65	19.38
906.082	5.58
906.513	10.08
906.945	12.78
907.376	8.58
907.808	19.08
908.239	21.28
908.671	16.48
909.102	13.48
909.534	16.08
909.965	37.38
910.397	76.48
910.828	270.08
911.259	417.48
911.691	189.28
912.122	85.08
912.553	48.58
912.984	28.88
913.415	18.18
913.847	24.18
914.278	10.78
914.709	9.08
915.14	15.08
915.571	18.68
916.002	4.38
916.433	10.58
916.864	12.68
917.295	6.48
917.726	19.28
918.157	18.88
918.587	28.78
919.018	17.58
919.449	15.88
919.88	16.98
920.311	29.18
920.741	39.68
921.172	140.68
921.603	122.58
922.033	57.48
922.464	35.78
922.895	19.48
923.325	19.68
923.756	15.78
924.186	13.98
924.617	22.58
925.047	30.88
925.478	48.68
925.908	40.68
926.338	22.18
926.769	10.48
927.199	18.08
927.629	4.68
928.06	11.48
928.49	14.68
928.92	15.58
929.35	11.48
929.78	0.98
930.21	3.58
930.641	9.08
931.071	7.08
931.501	1.68
931.931	9.38
932.361	3.78
932.791	0.58
933.221	4.98
933.651	0.38
934.08	15.98
934.51	23.38
934.94	3.08
935.37	5.78
935.8	8.08
936.229	6.58
936.659	7.88
937.089	1.38
937.519	8.78
937.948	22.48
938.378	9.58
938.807	-0.32
939.237	4.98
939.666	5.18
940.096	-11.02
940.525	-1.62
940.955	-1.32
941.384	5.58
941.814	-3.12
942.243	-3.22
942.672	-5.92
943.102	3.68
943.531	0.48
943.96	1.88
944.39	3.28
944.819	-2.22
945.248	0.08
945.677	3.58
946.106	4.88
946.535	3.08
946.964	-1.92
947.393	2.78
947.822	1.88
948.251	-4.02
948.68	2.18
949.109	5.38
949.538	2.48
949.967	0.78
950.396	0.48
950.825	0.58
951.254	1.58
951.682	-9.22
952.111	4.78
952.54	-2.22
952.969	-6.72
953.397	-9.92
953.826	5.08
954.254	-7.32
954.683	5.68
955.112	-1.62
955.54	4.28
955.969	-1.22
956.397	2.58
956.826	-1.42
957.254	4.58
957.682	1.68
958.111	9.48
958.539	-3.02
958.967	-1.62
959.396	0.28
959.824	0.88
960.252	-2.22
960.68	-5.42
961.109	-0.22
961.537	-7.92
961.965	0.88
962.393	1.08
962.821	-5.62
963.249	-3.82
963.677	2.18
964.105	0.98
964.533	34.58
964.961	32.98
965.389	22.58
965.817	5.88
966.245	-4.42
966.672	-1.52
967.1	-12.32
967.528	-2.82
967.956	-2.12
968.383	1.18
968.811	-0.82
969.239	-8.52
969.666	-5.32
970.094	0.38
970.522	-1.52
970.949	-6.12
971.377	-5.92
971.804	-7.82
972.232	-3.82
972.659	-2.32
973.087	-2.92
973.514	-6.12
973.941	-7.02
974.369	-1.72
974.796	2.28
975.223	-2.72
975.651	-4.72
976.078	0.08
976.505	-0.72
976.932	-5.72
977.359	15.08
977.786	15.18
978.214	5.18
978.641	-6.02
979.068	-4.32
979.495	-5.42
979.922	-2.42
980.349	-0.32
980.776	1.88
981.202	-1.32
981.629	4.68
982.056	4.28
982.483	-2.92
982.91	2.28
983.337	-13.72
983.763	2.68
984.19	-1.22
984.617	0.68
985.043	-6.72
985.47	-6.62
985.897	-8.52
986.323	-9.82
986.75	-1.22
987.176	-4.52
987.603	-3.12
988.029	-1.12
988.456	-8.12
988.882	1.88
989.308	-6.22
989.735	-3.42
990.161	-2.42
990.587	-1.62
991.014	-0.52
991.44	2.58
991.866	-1.92
992.292	-5.82
992.719	-3.02
993.145	-0.12
993.571	-6.52
993.997	-6.62
994.423	0.98
994.849	-11.42
995.275	-3.52
995.701	-4.12
996.127	-2.42
996.553	-0.82
996.979	-2.72
997.405	-2.22
997.83	-5.02
998.256	-12.62
998.682	-7.12
999.108	-7.02
999.534	1.28
999.959	-3.02
1000.385	-3.82
1000.811	1.38
1001.236	-7.32
1001.662	-15.42
1002.087	-9.32
1002.513	-2.52
1002.938	-2.02
1003.364	-1.72
1003.789	2.28
1004.215	3.48
1004.64	-5.72
1005.066	3.48
1005.491	-0.12
1005.916	-4.42
1006.342	-2.52
1006.767	-7.32
1007.192	2.48
1007.617	-3.42
1008.042	-4.32
1008.468	-5.12
1008.893	-1.72
1009.318	1.08
1009.743	-0.62
1010.168	4.18
1010.593	4.08
1011.018	-10.82
1011.443	-0.32
1011.868	2.28
1012.293	-0.72
1012.718	-16.42
1013.143	-3.42
1013.567	3.08
1013.992	-4.02
1014.417	-13.12
1014.842	3.98
1015.267	-3.12
1015.691	-3.62
1016.116	7.58
1016.541	-1.42
1016.965	4.28
1017.39	3.88
1017.814	-1.42
1018.239	-1.32
1018.663	-6.02
1019.088	-11.02
1019.512	-3.72
1019.937	-11.72
1020.361	-8.62
1020.785	-12.12
1021.21	-2.42
1021.634	-4.72
1022.058	0.48
1022.483	0.58
1022.907	-7.22
1023.331	-4.22
1023.755	-3.92
1024.179	-7.62
1024.604	-11.32
1025.028	-11.72
1025.452	-1.52
1025.876	-3.12
1026.3	0.58
1026.724	-6.22
1027.148	-7.22
1027.572	-7.02
1027.996	-8.52
1028.42	-3.22
1028.843	-10.02
1029.267	-3.42
1029.691	-4.62
1030.115	-9.72
1030.539	-11.42
1030.962	-10.92
1031.386	-11.72
1031.81	-1.22
1032.233	-1.22
1032.657	-2.12
1033.08	-2.32
1033.504	-5.02
1033.927	-5.32
1034.351	-1.32
1034.774	-0.92
1035.198	-0.92
1035.621	-2.12
1036.045	-9.52
1036.468	-3.52
1036.891	-10.82
1037.315	-4.22
1037.738	-6.72
1038.161	2.58
1038.584	-5.62
1039.008	-3.22
1039.431	3.18
1039.854	-2.02
1040.277	-6.62
1040.7	-11.02
1041.123	-3.52
1041.546	-6.62
1041.969	-3.22
1042.392	-10.22
1042.815	-5.42
1043.238	2.48
1043.661	-4.02
1044.084	-8.12
1044.507	-3.62
1044.93	-8.92
1045.352	-1.92
1045.775	-0.32
1046.198	-0.22
1046.621	-7.82
1047.043	-3.42
1047.466	6.68
1047.889	-5.02
1048.311	-4.42
1048.734	-1.82
1049.156	-4.22
1049.579	-3.12
1050.001	-3.42
1050.424	1.58
1050.846	-7.42
1051.269	-2.62
1051.691	-6.02
1052.113	-1.32
1052.536	1.48
1052.958	-4.42
1053.38	-6.82
1053.802	-12.22
1054.225	0.18
1054.647	-8.12
1055.069	-8.52
1055.491	2.68
1055.913	-6.92
1056.335	1.48
1056.757	-3.02
1057.179	-10.32
1057.601	-5.02
1058.023	-4.82
1058.445	-3.52
1058.867	0.38
1059.289	-8.42
1059.711	-6.32
1060.133	-3.12
1060.555	-8.02
1060.976	-5.82
1061.398	-5.22
1061.82	-4.82
1062.241	-6.62
1062.663	-8.92
1063.085	-4.62
1063.506	-4.52
1063.928	-5.82
1064.35	1.08
1064.771	-7.92
1065.193	1.18
1065.614	-9.32
1066.035	-1.02
1066.457	-5.32
1066.878	-3.42
1067.3	-7.32
1067.721	-9.82
1068.142	-6.22
1068.564	-3.92
1068.985	-5.32
1069.406	-6.92
1069.827	-6.62
1070.248	-2.82
1070.67	-7.92
1071.091	-4.82
1071.512	-3.72
1071.933	-10.32
1072.354	-4.22
1072.775	-3.72
1073.196	-6.82
1073.617	-6.92
1074.038	-4.82
1074.459	1.58
1074.88	-7.42
1075.3	-1.62
1075.721	-7.02
1076.142	0.48
1076.563	-1.42
1076.983	-8.22
1077.404	-4.62
1077.825	-7.72
1078.246	-4.82
1078.666	-9.82
1079.087	-10.22
1079.507	-5.72
1079.928	-4.12
1080.348	-6.02
1080.769	-6.92
1081.189	-0.02
1081.61	-0.32
1082.03	-6.82
1082.451	-9.32
1082.871	-3.62
1083.291	-8.02
1083.711	-13.72
1084.132	-4.42
1084.552	-8.22
1084.972	-6.32
1085.392	-11.62
1085.813	-12.02
1086.233	-10.32
1086.653	-7.72
1087.073	0.38
1087.493	-10.12
1087.913	-11.42
1088.333	-7.92
1088.753	-8.12
1089.173	-0.52
1089.593	-5.02
1090.013	0.88
1090.433	-2.52
1090.852	-5.02
1091.272	-0.92
1091.692	-4.42
1092.112	-7.12
1092.531	-11.32
1092.951	-14.42
1093.371	-7.32
1093.79	-5.22
1094.21	-4.32
1094.63	-6.62
1095.049	-5.32
1095.469	-3.62
1095.888	-10.72
1096.308	-0.62
1096.727	2.68
1097.146	-7.82
1097.566	2.18
1097.985	-9.32
1098.405	-3.12
1098.824	-7.32
1099.243	-8.02
1099.662	-3.72
1100.082	-3.92
1100.501	3.98
1100.92	-7.32
1101.339	1.48
1101.758	-6.62
