Data from 20171114-ORNL-Ar_H_NY_Subt18_08-05-31-598.txt Node
Date: Tue Nov 14 08:05:31 EST 2017
User: Ender
Spectrometer: HR+D1039
Trigger mode: 0
Integration Time (sec): 2.730000E-2
Scans to average: 10
Electric dark correction enabled: true
Nonlinearity correction enabled: false
Boxcar width: 0
XAxis mode: Wavelengths
Number of Pixels in Spectrum: 2048
>>>>>Begin Spectral Data<<<<<
187.836	-5.09
188.309	-5.09
188.782	-5.09
189.255	2.71
189.728	-3.79
190.201	5.81
190.674	-0.29
191.147	3.11
191.619	-7.39
192.092	3.11
192.565	7.91
193.038	0.91
193.511	-2.09
193.984	-1.19
194.456	-5.19
194.929	1.71
195.402	0.81
195.874	-1.09
196.347	1.61
196.82	-3.79
197.292	5.91
197.765	-5.09
198.237	-5.89
198.71	0.11
199.182	-4.49
199.655	1.11
200.127	-0.39
200.6	-2.49
201.072	-7.79
201.544	-6.59
202.017	-3.89
202.489	3.81
202.961	-0.79
203.433	-4.39
203.906	-4.09
204.378	-7.49
204.85	-2.09
205.322	-5.29
205.794	1.11
206.266	0.71
206.739	-9.89
207.211	4.21
207.683	-5.39
208.155	-1.99
208.627	-7.39
209.099	5.01
209.57	-7.09
210.042	-8.89
210.514	-6.99
210.986	-2.79
211.458	-5.59
211.93	-4.59
212.402	2.71
212.873	-2.69
213.345	-7.69
213.817	-13.69
214.288	-1.99
214.76	-8.09
215.232	-1.79
215.703	-3.49
216.175	-7.39
216.646	-5.89
217.118	-6.39
217.589	-2.79
218.061	-5.39
218.532	-3.09
219.004	3.51
219.475	-1.19
219.946	-1.19
220.418	-6.69
220.889	3.21
221.36	-3.39
221.832	1.01
222.303	-9.09
222.774	1.11
223.245	-12.29
223.717	-3.79
224.188	-8.59
224.659	-2.69
225.13	-1.49
225.601	-3.29
226.072	0.41
226.543	0.51
227.014	4.91
227.485	-3.19
227.956	-0.69
228.427	-5.49
228.898	3.21
229.369	4.91
229.839	-4.19
230.31	-5.09
230.781	4.11
231.252	0.21
231.722	-4.49
232.193	2.71
232.664	0.11
233.135	3.91
233.605	-0.69
234.076	-9.79
234.546	3.21
235.017	4.91
235.487	-1.89
235.958	2.91
236.428	-1.09
236.899	6.91
237.369	3.61
237.84	-0.49
238.31	13.41
238.78	8.51
239.251	0.71
239.721	2.71
240.191	1.71
240.662	4.21
241.132	0.31
241.602	1.41
242.072	2.31
242.542	9.51
243.013	1.01
243.483	5.91
243.953	8.51
244.423	5.41
244.893	-4.39
245.363	2.91
245.833	5.91
246.303	3.01
246.773	6.91
247.243	9.61
247.712	9.21
248.182	5.51
248.652	7.71
249.122	-0.59
249.592	12.21
250.061	25.41
250.531	37.11
251.001	17.81
251.471	20.31
251.94	24.11
252.41	9.71
252.879	2.21
253.349	17.31
253.818	12.11
254.288	11.21
254.757	6.51
255.227	3.71
255.696	6.11
256.166	6.91
256.635	10.31
257.105	11.31
257.574	5.21
258.043	10.31
258.513	17.51
258.982	16.21
259.451	3.31
259.92	11.61
260.389	6.61
260.859	17.91
261.328	6.11
261.797	19.61
262.266	12.41
262.735	17.21
263.204	1.01
263.673	-0.59
264.142	9.21
264.611	2.01
265.08	0.81
265.549	2.31
266.018	9.31
266.487	6.31
266.955	3.51
267.424	-2.69
267.893	0.11
268.362	1.31
268.83	2.31
269.299	7.51
269.768	4.21
270.236	6.81
270.705	-1.09
271.174	6.51
271.642	6.21
272.111	12.01
272.579	17.51
273.048	25.71
273.516	33.91
273.985	34.81
274.453	32.61
274.922	21.81
275.39	14.61
275.858	10.01
276.327	12.71
276.795	20.91
277.263	12.41
277.731	32.01
278.2	54.51
278.668	66.21
279.136	56.11
279.604	21.21
280.072	19.31
280.54	12.61
281.008	13.91
281.477	13.91
281.945	16.21
282.413	18.81
282.881	22.41
283.348	10.21
283.816	16.91
284.284	18.31
284.752	26.01
285.22	17.21
285.688	19.41
286.156	23.41
286.623	40.81
287.091	54.61
287.559	31.31
288.026	16.51
288.494	19.61
288.962	12.71
289.429	14.61
289.897	21.41
290.364	17.51
290.832	26.11
291.3	20.81
291.767	25.91
292.234	21.71
292.702	13.71
293.169	25.71
293.637	25.61
294.104	24.31
294.571	14.01
295.039	12.11
295.506	22.41
295.973	20.51
296.44	20.41
296.908	21.61
297.375	25.01
297.842	23.51
298.309	21.01
298.776	18.11
299.243	19.71
299.71	12.51
300.177	22.81
300.644	21.21
301.111	22.41
301.578	26.71
302.045	21.71
302.512	28.01
302.979	30.41
303.446	22.91
303.913	21.61
304.379	21.61
304.846	33.51
305.313	26.71
305.78	25.01
306.246	27.11
306.713	27.31
307.18	30.51
307.646	33.61
308.113	32.51
308.579	33.51
309.046	26.11
309.512	23.81
309.979	21.91
310.445	34.61
310.912	30.51
311.378	34.11
311.845	33.61
312.311	33.51
312.777	34.31
313.244	34.21
313.71	36.61
314.176	36.11
314.642	28.41
315.109	32.41
315.575	36.41
316.041	39.01
316.507	41.51
316.973	40.71
317.439	37.21
317.905	37.81
318.371	38.21
318.837	33.91
319.303	42.21
319.769	41.41
320.235	37.31
320.701	41.61
321.167	36.81
321.633	31.41
322.099	42.51
322.564	49.71
323.03	35.91
323.496	43.11
323.962	47.71
324.427	36.91
324.893	48.51
325.359	42.91
325.824	44.41
326.29	39.81
326.755	44.01
327.221	33.61
327.686	47.91
328.152	51.61
328.617	50.31
329.083	49.61
329.548	56.91
330.014	52.71
330.479	45.21
330.944	47.51
331.41	50.01
331.875	50.61
332.34	46.61
332.805	47.51
333.271	53.91
333.736	55.81
334.201	61.01
334.666	54.91
335.131	62.81
335.596	53.01
336.061	54.01
336.526	48.11
336.991	54.81
337.456	54.51
337.921	50.71
338.386	49.31
338.851	45.11
339.316	49.81
339.781	47.41
340.246	56.31
340.711	54.01
341.175	58.11
341.64	52.61
342.105	54.81
342.569	60.31
343.034	60.51
343.499	54.41
343.963	53.71
344.428	70.51
344.893	58.61
345.357	61.81
345.822	69.61
346.286	71.81
346.751	73.21
347.215	77.41
347.679	81.01
348.144	98.01
348.608	89.51
349.073	79.01
349.537	77.21
350.001	85.21
350.465	95.01
350.93	86.01
351.394	86.61
351.858	81.41
352.322	90.21
352.786	89.11
353.25	107.31
353.715	116.51
354.179	108.21
354.643	119.61
355.107	137.61
355.571	112.81
356.035	112.91
356.498	124.61
356.962	127.51
357.426	139.91
357.89	121.71
358.354	95.21
358.818	86.01
359.281	77.91
359.745	77.71
360.209	76.51
360.673	80.71
361.136	78.81
361.6	90.31
362.064	89.11
362.527	92.61
362.991	95.21
363.454	81.11
363.918	74.51
364.381	86.81
364.845	80.61
365.308	87.81
365.772	90.91
366.235	88.91
366.698	90.61
367.162	97.41
367.625	90.91
368.088	89.21
368.552	88.41
369.015	89.11
369.478	101.51
369.941	102.11
370.404	95.91
370.867	106.51
371.331	116.11
371.794	113.61
372.257	117.01
372.72	122.91
373.183	113.41
373.646	104.91
374.109	104.81
374.572	111.51
375.035	114.61
375.497	113.21
375.96	116.01
376.423	113.71
376.886	113.71
377.349	115.61
377.811	112.61
378.274	113.51
378.737	111.31
379.199	112.41
379.662	112.31
380.125	116.51
380.587	120.01
381.05	121.41
381.512	126.31
381.975	140.11
382.437	131.41
382.9	129.71
383.362	137.21
383.825	144.71
384.287	152.01
384.75	146.61
385.212	145.21
385.674	142.41
386.136	138.11
386.599	128.61
387.061	135.41
387.523	131.71
387.985	142.01
388.447	144.61
388.91	146.31
389.372	161.41
389.834	153.01
390.296	142.91
390.758	155.21
391.22	169.41
391.682	214.51
392.144	291.31
392.606	233.61
393.068	174.31
393.529	174.21
393.991	164.01
394.453	148.01
394.915	159.61
395.377	193.31
395.838	216.11
396.3	163.01
396.762	150.81
397.224	143.81
397.685	134.71
398.147	136.11
398.608	133.31
399.07	130.61
399.531	141.71
399.993	148.31
400.454	163.51
400.916	156.01
401.377	151.21
401.839	161.81
402.3	159.11
402.762	175.21
403.223	187.21
403.684	176.71
404.145	167.41
404.607	165.21
405.068	169.51
405.529	175.01
405.99	191.91
406.451	178.21
406.913	183.01
407.374	175.71
407.835	170.51
408.296	172.51
408.757	177.11
409.218	190.81
409.679	183.81
410.14	185.81
410.601	180.01
411.062	186.71
411.522	197.31
411.983	192.71
412.444	184.61
412.905	186.81
413.366	191.91
413.826	201.81
414.287	216.81
414.748	264.41
415.208	251.61
415.669	216.71
416.13	209.41
416.59	206.01
417.051	214.81
417.511	224.01
417.972	240.51
418.432	250.61
418.893	296.11
419.353	247.01
419.814	199.61
420.274	186.61
420.734	193.61
421.195	202.21
421.655	201.31
422.115	200.11
422.576	192.51
423.036	206.41
423.496	210.81
423.956	225.81
424.416	238.51
424.876	267.61
425.336	267.31
425.797	265.01
426.257	262.01
426.717	251.11
427.177	240.11
427.637	229.31
428.097	243.71
428.556	249.01
429.016	276.01
429.476	276.01
429.936	279.21
430.396	286.71
430.856	295.11
431.315	323.71
431.775	361.11
432.235	392.21
432.694	361.61
433.154	363.71
433.614	402.41
434.073	350.81
434.533	291.31
434.993	275.01
435.452	287.01
435.912	295.31
436.371	299.21
436.83	294.01
437.29	277.41
437.749	259.01
438.209	251.61
438.668	280.81
439.127	295.21
439.587	273.81
440.046	256.81
440.505	268.51
440.964	284.71
441.424	336.71
441.883	319.71
442.342	268.31
442.801	221.81
443.26	225.81
443.719	223.91
444.178	213.61
444.637	215.21
445.096	222.41
445.555	229.31
446.014	221.51
446.473	232.11
446.932	235.51
447.391	230.51
447.849	233.71
448.308	221.81
448.767	228.71
449.226	241.91
449.685	243.91
450.143	249.61
450.602	246.81
451.061	230.61
451.519	232.91
451.978	238.41
452.436	242.11
452.895	246.01
453.353	254.81
453.812	245.91
454.27	249.71
454.729	242.51
455.187	243.01
455.646	252.81
456.104	250.81
456.562	266.31
457.021	273.81
457.479	267.71
457.937	274.41
458.395	271.41
458.854	250.11
459.312	267.81
459.77	285.51
460.228	262.31
460.686	248.31
461.144	255.71
461.602	250.21
462.06	253.61
462.518	257.41
462.976	261.81
463.434	267.51
463.892	270.51
464.35	287.11
464.808	299.31
465.266	273.31
465.724	274.01
466.181	281.71
466.639	274.81
467.097	293.91
467.555	306.51
468.012	306.31
468.47	320.71
468.928	336.21
469.385	350.61
469.843	358.91
470.3	350.11
470.758	373.61
471.215	392.81
471.673	415.61
472.13	417.11
472.588	421.81
473.045	384.31
473.503	381.51
473.96	402.11
474.417	418.01
474.875	436.01
475.332	485.21
475.789	471.61
476.246	475.51
476.704	490.51
477.161	518.51
477.618	536.61
478.075	575.01
478.532	623.41
478.989	703.31
479.446	815.81
479.903	788.91
480.36	821.91
480.817	878.31
481.274	986.21
481.731	1092.21
482.188	1197.21
482.645	1320.01
483.102	1430.61
483.558	1580.41
484.015	1618.51
484.472	1590.91
484.929	1542.01
485.385	1509.91
485.842	1461.01
486.299	1399.01
486.755	1325.11
487.212	1124.41
487.668	940.71
488.125	868.21
488.582	792.31
489.038	753.91
489.494	731.91
489.951	708.21
490.407	679.91
490.864	651.31
491.32	649.11
491.776	655.41
492.233	660.11
492.689	620.61
493.145	617.91
493.602	609.11
494.058	620.81
494.514	629.71
494.97	646.31
495.426	653.91
495.882	626.41
496.338	630.11
496.794	641.81
497.251	639.61
497.707	648.51
498.163	648.81
498.618	666.81
499.074	662.91
499.53	685.91
499.986	694.51
500.442	672.41
500.898	642.11
501.354	635.11
501.809	646.01
502.265	661.61
502.721	674.71
503.177	678.71
503.632	685.21
504.088	683.01
504.543	726.41
504.999	721.21
505.455	672.91
505.91	649.01
506.366	658.51
506.821	635.11
507.277	643.11
507.732	641.31
508.187	643.41
508.643	649.61
509.098	643.21
509.553	658.21
510.009	680.01
510.464	688.11
510.919	704.81
511.375	707.81
511.83	725.71
512.285	736.41
512.74	774.41
513.195	802.31
513.65	784.31
514.105	775.51
514.56	779.41
515.015	797.11
515.47	827.81
515.925	806.61
516.38	799.41
516.835	805.81
517.29	786.21
517.745	807.01
518.2	777.91
518.655	759.11
519.109	758.81
519.564	747.41
520.019	736.21
520.474	729.71
520.928	735.01
521.383	737.41
521.838	720.71
522.292	720.81
522.747	714.21
523.201	710.51
523.656	699.71
524.11	698.71
524.565	705.41
525.019	703.81
525.474	716.01
525.928	706.81
526.382	711.11
526.837	705.11
527.291	712.61
527.745	704.41
528.2	704.61
528.654	698.81
529.108	702.31
529.562	701.61
530.016	690.01
530.47	702.61
530.925	703.81
531.379	709.41
531.833	719.31
532.287	714.91
532.741	721.61
533.195	724.61
533.649	725.11
534.103	725.61
534.556	712.61
535.01	720.91
535.464	719.51
535.918	725.31
536.372	733.41
536.826	734.61
537.279	714.81
537.733	721.51
538.187	727.41
538.64	736.11
539.094	733.61
539.548	743.41
540.001	728.91
540.455	732.91
540.908	746.11
541.362	747.41
541.815	756.91
542.269	770.41
542.722	769.91
543.175	778.41
543.629	772.01
544.082	787.71
544.536	792.41
544.989	785.91
545.442	803.01
545.895	789.31
546.349	788.61
546.802	787.71
547.255	805.11
547.708	823.11
548.161	822.71
548.614	834.81
549.067	834.41
549.52	826.21
549.973	816.11
550.426	816.61
550.879	802.41
551.332	804.21
551.785	808.71
552.238	810.41
552.691	822.41
553.144	836.91
553.596	851.71
554.049	869.01
554.502	896.01
554.955	911.81
555.407	910.21
555.86	907.71
556.313	905.51
556.765	899.71
557.218	888.71
557.67	884.11
558.123	889.01
558.576	870.51
559.028	881.21
559.48	895.91
559.933	877.81
560.385	833.11
560.838	817.31
561.29	784.21
561.742	788.41
562.195	764.61
562.647	772.91
563.099	771.81
563.551	787.11
564.004	784.31
564.456	778.01
564.908	778.41
565.36	752.71
565.812	741.01
566.264	731.81
566.716	729.81
567.168	728.61
567.62	734.81
568.072	707.91
568.524	694.71
568.976	693.21
569.428	669.81
569.88	675.41
570.332	673.51
570.784	682.21
571.235	693.21
571.687	700.01
572.139	706.61
572.59	720.11
573.042	704.31
573.494	720.31
573.945	701.31
574.397	692.61
574.849	689.11
575.3	692.91
575.752	686.41
576.203	686.61
576.655	690.81
577.106	665.41
577.557	661.11
578.009	673.51
578.46	674.61
578.912	662.91
579.363	675.11
579.814	665.21
580.265	663.11
580.717	672.61
581.168	679.81
581.619	674.11
582.07	678.11
582.521	669.61
582.972	673.71
583.423	669.31
583.875	677.41
584.326	700.01
584.777	750.61
585.227	811.71
585.678	889.01
586.129	980.81
586.58	1053.31
587.031	1129.01
587.482	1279.41
587.933	1445.51
588.384	1267.51
588.834	955.61
589.285	790.31
589.736	778.51
590.186	769.41
590.637	758.91
591.088	742.11
591.538	741.21
591.989	722.51
592.439	717.51
592.89	716.91
593.34	714.01
593.791	701.61
594.241	693.71
594.692	699.01
595.142	696.21
595.593	704.81
596.043	695.41
596.493	708.21
596.943	715.91
597.394	713.01
597.844	700.11
598.294	718.11
598.744	740.41
599.195	768.51
599.645	800.51
600.095	841.01
600.545	907.11
600.995	948.71
601.445	1013.91
601.895	1070.11
602.345	1122.11
602.795	1098.91
603.245	1055.11
603.695	1010.21
604.145	943.81
604.594	904.21
605.044	848.01
605.494	794.91
605.944	739.91
606.393	734.11
606.843	718.01
607.293	725.61
607.743	712.51
608.192	736.51
608.642	745.61
609.091	764.11
609.541	757.31
609.99	754.31
610.44	751.41
610.889	710.71
611.339	690.11
611.788	678.21
612.238	691.01
612.687	704.91
613.136	707.21
613.586	726.31
614.035	714.01
614.484	752.51
614.933	739.31
615.383	742.61
615.832	728.31
616.281	714.81
616.73	674.11
617.179	655.21
617.628	636.91
618.077	621.11
618.526	616.91
618.975	603.51
619.424	599.21
619.873	593.11
620.322	604.21
620.771	609.91
621.22	592.81
621.669	588.81
622.118	579.71
622.567	560.51
623.015	558.21
623.464	556.51
623.913	553.51
624.361	539.61
624.81	539.01
625.259	547.11
625.707	554.91
626.156	552.81
626.604	552.21
627.053	552.01
627.501	559.61
627.95	556.51
628.398	574.51
628.847	560.21
629.295	560.21
629.744	561.51
630.192	552.21
630.64	552.21
631.089	549.71
631.537	556.91
631.985	565.61
632.433	583.11
632.881	585.51
633.33	633.01
633.778	621.61
634.226	557.51
634.674	560.01
635.122	563.31
635.57	576.21
636.018	614.31
636.466	566.01
636.914	551.21
637.362	551.71
637.81	557.91
638.258	570.41
638.705	565.21
639.153	600.51
639.601	605.41
640.049	622.21
640.497	650.41
640.944	672.61
641.392	631.31
641.84	604.41
642.287	570.81
642.735	561.51
643.182	557.01
643.63	568.71
644.078	562.11
644.525	568.31
644.973	579.91
645.42	585.91
645.867	603.11
646.315	621.31
646.762	647.81
647.21	667.91
647.657	687.01
648.104	727.11
648.551	751.51
648.999	812.71
649.446	890.21
649.893	973.21
650.34	1124.01
650.787	1347.91
651.234	1664.41
651.682	2160.31
652.129	2956.01
652.576	4249.71
653.023	6247.41
653.47	8639.91
653.917	10862.51
654.363	12581.71
654.81	13988.71
655.257	13303.21
655.704	8661.01
656.151	5148.01
656.598	3337.91
657.044	2354.81
657.491	1825.11
657.938	1439.31
658.385	1212.01
658.831	1047.01
659.278	940.61
659.724	827.91
660.171	773.11
660.618	693.81
661.064	670.71
661.511	645.21
661.957	635.61
662.404	626.91
662.85	639.31
663.296	606.31
663.743	547.61
664.189	533.91
664.635	518.71
665.082	513.81
665.528	511.61
665.974	497.31
666.42	489.31
666.867	497.11
667.313	481.31
667.759	466.91
668.205	456.81
668.651	469.31
669.097	470.71
669.543	485.61
669.989	445.01
670.435	440.81
670.881	434.91
671.327	426.31
671.773	450.51
672.219	468.71
672.665	526.11
673.11	567.21
673.556	610.51
674.002	645.71
674.448	638.91
674.893	526.51
675.339	465.31
675.785	422.61
676.23	405.01
676.676	380.11
677.122	371.61
677.567	358.11
678.013	353.11
678.458	344.81
678.904	354.91
679.349	339.01
679.794	342.61
680.24	341.31
680.685	330.11
681.131	328.41
681.576	334.31
682.021	349.31
682.466	331.11
682.912	336.31
683.357	332.71
683.802	363.11
684.247	397.51
684.692	428.91
685.137	474.11
685.583	519.21
686.028	535.61
686.473	497.01
686.918	429.61
687.363	403.41
687.807	375.61
688.252	344.61
688.697	336.81
689.142	324.91
689.587	312.81
690.032	320.71
690.477	329.61
690.921	333.61
691.366	360.41
691.811	388.71
692.255	417.41
692.7	441.21
693.145	480.41
693.589	647.61
694.034	1062.41
694.478	1462.41
694.923	1665.61
695.367	2191.71
695.812	1148.51
696.256	476.31
696.701	360.51
697.145	335.31
697.59	323.31
698.034	305.71
698.478	313.21
698.922	311.71
699.367	307.61
699.811	325.61
700.255	347.31
700.699	367.11
701.143	401.41
701.588	458.91
702.032	486.41
702.476	502.91
702.92	470.11
703.364	470.11
703.808	607.91
704.252	973.71
704.696	1379.01
705.14	1612.71
705.584	2057.51
706.027	1024.61
706.471	495.51
706.915	381.01
707.359	335.91
707.803	310.11
708.246	297.11
708.69	296.01
709.134	307.81
709.577	296.61
710.021	306.41
710.465	287.01
710.908	285.71
711.352	286.61
711.795	298.81
712.239	342.31
712.682	364.91
713.126	392.51
713.569	435.31
714.012	353.11
714.456	304.21
714.899	279.11
715.342	263.51
715.786	247.01
716.229	250.91
716.672	249.01
717.115	238.61
717.558	242.11
718.002	235.11
718.445	250.31
718.888	264.91
719.331	282.41
719.774	298.11
720.217	291.61
720.66	269.61
721.103	257.11
721.546	243.81
721.989	240.51
722.432	225.41
722.874	228.21
723.317	221.81
723.76	230.61
724.203	243.11
724.645	302.61
725.088	425.51
725.531	544.11
725.974	626.91
726.416	521.31
726.859	298.31
727.301	233.71
727.744	230.11
728.187	221.81
728.629	236.81
729.071	229.01
729.514	242.21
729.956	260.71
730.399	274.11
730.841	265.11
731.283	262.51
731.726	255.31
732.168	248.81
732.61	249.31
733.053	274.01
733.495	300.41
733.937	340.61
734.379	378.91
734.821	414.31
735.263	508.71
735.705	780.21
736.148	1464.81
736.59	2433.21
737.032	2931.51
737.474	2382.01
737.916	768.71
738.357	405.11
738.799	310.81
739.241	299.31
739.683	272.61
740.125	279.71
740.567	282.11
741.008	306.01
741.45	300.91
741.892	300.11
742.334	330.41
742.775	342.71
743.217	326.91
743.658	259.61
744.1	241.31
744.542	249.31
744.983	293.61
745.425	332.41
745.866	319.61
746.307	272.21
746.749	270.11
747.19	303.61
747.632	429.61
748.073	820.91
748.514	1731.81
748.956	2708.81
749.397	3371.31
749.838	2809.71
750.279	2826.11
750.72	1435.01
751.162	526.11
751.603	303.11
752.044	240.61
752.485	202.21
752.926	196.71
753.367	193.41
753.808	179.51
754.249	183.11
754.69	178.91
755.131	178.71
755.572	183.51
756.013	167.81
756.453	170.81
756.894	177.51
757.335	184.51
757.776	185.41
758.216	182.91
758.657	189.11
759.098	192.01
759.538	210.81
759.979	254.61
760.42	350.11
760.86	643.11
761.301	1685.81
761.741	4136.31
762.182	6208.91
762.622	4372.51
763.063	1247.21
763.503	505.11
763.943	327.11
764.384	323.41
764.824	379.81
765.264	408.61
765.705	284.71
766.145	197.31
766.585	179.61
767.025	166.91
767.465	183.51
767.906	222.21
768.346	289.91
768.786	316.81
769.226	245.21
769.666	297.81
770.106	570.31
770.546	1434.31
770.986	2533.01
771.426	2296.91
771.866	758.01
772.306	321.71
772.745	200.91
773.185	167.71
773.625	159.61
774.065	158.31
774.505	181.21
774.944	279.71
775.384	609.21
775.824	1128.31
776.263	1119.21
776.703	467.91
777.142	205.71
777.582	141.41
778.021	129.21
778.461	131.31
778.9	131.81
779.34	123.31
779.779	114.21
780.219	110.21
780.658	109.41
781.097	105.51
781.537	105.71
781.976	105.71
782.415	99.51
782.855	94.71
783.294	101.71
783.733	101.01
784.172	101.51
784.611	95.81
785.05	109.21
785.489	106.81
785.928	110.41
786.367	113.71
786.806	118.21
787.245	123.01
787.684	129.61
788.123	138.61
788.562	129.51
789.001	119.61
789.44	115.01
789.879	117.11
790.317	118.01
790.756	113.91
791.195	124.71
791.634	136.31
792.072	188.01
792.511	336.51
792.95	929.61
793.388	2023.11
793.827	1869.71
794.265	654.31
794.704	269.81
795.142	176.31
795.581	143.71
796.019	134.01
796.458	119.91
796.896	115.01
797.334	123.81
797.773	148.11
798.211	202.31
798.649	404.31
799.087	946.11
799.526	1503.51
799.964	1914.41
800.402	1930.41
800.84	726.71
801.278	288.01
801.716	178.61
802.154	140.71
802.592	137.61
803.03	135.11
803.468	132.31
803.906	138.11
804.344	142.91
804.782	131.31
805.22	134.01
805.658	121.31
806.096	144.41
806.533	152.61
806.971	163.01
807.409	204.81
807.847	288.91
808.284	611.01
808.722	1731.21
809.16	3132.71
809.597	2940.81
810.035	5124.01
810.472	5578.11
810.91	2008.31
811.347	765.01
811.785	391.41
812.222	244.41
812.66	184.11
813.097	160.21
813.535	135.11
813.972	128.21
814.409	112.91
814.846	100.11
815.284	101.51
815.721	95.31
816.158	104.41
816.595	114.51
817.032	169.91
817.47	193.91
817.907	162.71
818.344	138.11
818.781	108.21
819.218	93.61
819.655	120.41
820.092	182.81
820.529	210.41
820.966	176.21
821.403	132.41
821.839	101.91
822.276	97.01
822.713	120.61
823.15	128.81
823.587	111.51
824.023	138.01
824.46	270.91
824.897	844.21
825.333	1308.11
825.77	558.61
826.206	215.71
826.643	127.91
827.08	94.81
827.516	77.21
827.953	80.91
828.389	81.31
828.825	67.31
829.262	65.11
829.698	66.71
830.135	63.61
830.571	64.71
831.007	66.21
831.443	61.61
831.88	61.71
832.316	58.71
832.752	66.01
833.188	61.21
833.624	62.21
834.06	62.71
834.497	63.61
834.933	62.11
835.369	69.21
835.805	65.31
836.241	68.51
836.677	77.41
837.112	90.01
837.548	99.61
837.984	132.31
838.42	185.21
838.856	458.71
839.292	1419.51
839.727	2212.41
840.163	1030.81
840.599	863.21
841.034	1914.81
841.47	2056.51
841.906	735.71
842.341	319.21
842.777	221.91
843.212	293.71
843.648	296.41
844.083	146.11
844.519	90.31
844.954	69.51
845.39	54.41
845.825	58.01
846.261	55.41
846.696	55.61
847.131	50.11
847.566	54.61
848.002	45.61
848.437	47.61
848.872	62.21
849.307	60.61
849.742	84.41
850.177	163.21
850.613	522.21
851.048	849.11
851.483	358.01
851.918	144.11
852.353	80.61
852.788	64.01
853.223	55.41
853.657	57.41
854.092	43.81
854.527	43.41
854.962	44.31
855.397	42.51
855.832	44.91
856.266	35.11
856.701	35.11
857.136	37.71
857.57	39.21
858.005	54.41
858.44	52.91
858.874	40.11
859.309	44.71
859.743	38.21
860.178	43.11
860.612	46.21
861.047	50.81
861.481	68.01
861.915	71.11
862.35	47.41
862.784	30.01
863.218	40.51
863.653	34.91
864.087	45.91
864.521	50.01
864.955	64.81
865.39	147.21
865.824	172.21
866.258	111.61
866.692	159.21
867.126	162.01
867.56	102.81
867.994	51.61
868.428	35.21
868.862	46.01
869.296	50.41
869.73	56.11
870.164	48.71
870.598	48.11
871.031	33.81
871.465	29.41
871.899	34.71
872.333	22.41
872.766	26.41
873.2	19.31
873.634	27.31
874.067	25.01
874.501	26.41
874.935	41.61
875.368	29.71
875.802	25.11
876.235	27.01
876.669	20.01
877.102	21.71
877.535	26.01
877.969	16.71
878.402	24.91
878.836	14.11
879.269	24.11
879.702	24.21
880.135	18.61
880.569	25.21
881.002	24.31
881.435	21.41
881.868	15.11
882.301	27.81
882.734	13.81
883.167	27.11
883.601	22.11
884.034	18.11
884.467	11.01
884.899	26.51
885.332	16.61
885.765	13.01
886.198	17.21
886.631	15.81
887.064	20.81
887.497	16.71
887.929	29.61
888.362	9.11
888.795	14.21
889.228	15.01
889.66	21.31
890.093	20.11
890.526	24.01
890.958	24.11
891.391	21.81
891.823	21.31
892.256	14.01
892.688	15.11
893.121	14.91
893.553	18.11
893.985	23.41
894.418	19.51
894.85	8.41
895.282	14.21
895.715	15.61
896.147	18.81
896.579	21.41
897.011	16.61
897.444	20.51
897.876	12.31
898.308	18.21
898.74	16.41
899.172	11.11
899.604	16.81
900.036	19.21
900.468	14.11
900.9	18.31
901.332	17.51
901.764	13.31
902.196	15.11
902.628	21.41
903.06	12.41
903.491	28.61
903.923	25.41
904.355	19.31
904.787	19.71
905.218	24.71
905.65	21.41
906.082	16.21
906.513	9.41
906.945	13.91
907.376	10.31
907.808	23.31
908.239	19.41
908.671	16.31
909.102	23.11
909.534	24.71
909.965	41.41
910.397	87.41
910.828	299.21
911.259	453.11
911.691	212.71
912.122	99.71
912.553	47.61
912.984	32.11
913.415	29.81
913.847	22.81
914.278	15.81
914.709	14.31
915.14	21.71
915.571	16.11
916.002	11.51
916.433	18.01
916.864	17.51
917.295	13.41
917.726	24.31
918.157	15.41
918.587	28.51
919.018	22.81
919.449	21.51
919.88	21.11
920.311	27.91
920.741	47.01
921.172	164.71
921.603	144.51
922.033	70.61
922.464	43.71
922.895	18.11
923.325	23.91
923.756	16.41
924.186	13.31
924.617	29.01
925.047	38.51
925.478	55.91
925.908	40.21
926.338	26.51
926.769	16.61
927.199	19.51
927.629	7.71
928.06	18.11
928.49	11.41
928.92	13.31
929.35	11.11
929.78	8.41
930.21	8.91
930.641	9.01
931.071	11.61
931.501	7.61
931.931	13.31
932.361	0.11
932.791	7.41
933.221	3.91
933.651	7.31
934.08	18.01
934.51	28.01
934.94	10.51
935.37	6.01
935.8	5.71
936.229	9.31
936.659	9.21
937.089	1.41
937.519	11.21
937.948	24.11
938.378	11.31
938.807	7.71
939.237	6.31
939.666	7.91
940.096	-2.59
940.525	2.41
940.955	-0.09
941.384	3.51
941.814	-6.79
942.243	-3.19
942.672	6.51
943.102	0.11
943.531	4.11
943.96	6.51
944.39	0.51
944.819	0.01
945.248	3.61
945.677	1.31
946.106	11.01
946.535	5.31
946.964	0.21
947.393	8.01
947.822	1.21
948.251	-3.29
948.68	0.61
949.109	0.31
949.538	2.51
949.967	3.11
950.396	1.41
950.825	-1.89
951.254	0.61
951.682	-0.19
952.111	4.81
952.54	5.31
952.969	0.91
953.397	-3.19
953.826	1.91
954.254	-6.09
954.683	5.31
955.112	0.21
955.54	1.51
955.969	3.31
956.397	3.31
956.826	-7.19
957.254	1.71
957.682	0.41
958.111	5.41
958.539	-1.09
958.967	1.81
959.396	0.41
959.824	0.91
960.252	3.21
960.68	-6.99
961.109	-2.79
961.537	-6.49
961.965	2.11
962.393	4.91
962.821	3.61
963.249	5.41
963.677	6.61
964.105	6.11
964.533	44.01
964.961	36.61
965.389	17.51
965.817	6.21
966.245	3.31
966.672	4.51
967.1	-3.89
967.528	1.61
967.956	-2.59
968.383	-2.49
968.811	-1.59
969.239	0.71
969.666	-4.69
970.094	4.61
970.522	6.91
970.949	1.31
971.377	-2.29
971.804	-3.49
972.232	-2.89
972.659	0.31
973.087	-3.09
973.514	2.61
973.941	-5.49
974.369	8.71
974.796	-0.59
975.223	0.61
975.651	0.11
976.078	1.21
976.505	0.91
976.932	1.91
977.359	11.01
977.786	11.71
978.214	3.71
978.641	-0.29
979.068	-5.79
979.495	-5.29
979.922	3.61
980.349	-4.99
980.776	6.31
981.202	3.31
981.629	5.71
982.056	4.41
982.483	0.31
982.91	8.91
983.337	-0.89
983.763	5.11
984.19	-11.59
984.617	-6.59
985.043	-1.39
985.47	-0.29
985.897	-2.69
986.323	-2.99
986.75	10.11
987.176	-0.89
987.603	3.51
988.029	2.41
988.456	-3.39
988.882	0.81
989.308	-8.49
989.735	-7.19
990.161	0.01
990.587	-1.39
991.014	-6.59
991.44	11.31
991.866	1.01
992.292	-2.59
992.719	1.51
993.145	3.41
993.571	-7.69
993.997	-4.09
994.423	1.21
994.849	-3.99
995.275	-2.59
995.701	1.01
996.127	-2.99
996.553	1.91
996.979	3.31
997.405	-4.79
997.83	-2.69
998.256	-5.49
998.682	-1.79
999.108	-7.89
999.534	5.91
999.959	-0.09
1000.385	-0.69
1000.811	-0.29
1001.236	-1.39
1001.662	-5.59
1002.087	-6.89
1002.513	2.11
1002.938	0.61
1003.364	1.91
1003.789	-1.59
1004.215	8.61
1004.64	-2.89
1005.066	1.11
1005.491	3.71
1005.916	0.61
1006.342	1.21
1006.767	-0.89
1007.192	5.61
1007.617	-6.39
1008.042	-8.39
1008.468	0.01
1008.893	-2.29
1009.318	-0.49
1009.743	-0.89
1010.168	6.81
1010.593	-2.29
1011.018	-6.99
1011.443	-7.99
1011.868	1.41
1012.293	1.51
1012.718	-6.59
1013.143	-2.99
1013.567	1.31
1013.992	4.01
1014.417	-15.79
1014.842	0.51
1015.267	-4.79
1015.691	-2.29
1016.116	0.41
1016.541	2.81
1016.965	1.11
1017.39	3.81
1017.814	3.91
1018.239	8.21
1018.663	-1.89
1019.088	-8.39
1019.512	-4.49
1019.937	-7.79
1020.361	0.11
1020.785	-9.29
1021.21	-7.89
1021.634	-1.69
1022.058	-3.09
1022.483	5.81
1022.907	-9.89
1023.331	-4.69
1023.755	0.71
1024.179	-2.79
1024.604	-1.69
1025.028	-2.49
1025.452	4.21
1025.876	3.51
1026.3	2.31
1026.724	-7.69
1027.148	-3.19
1027.572	-6.99
1027.996	-8.39
1028.42	-2.59
1028.843	3.21
1029.267	-2.59
1029.691	-1.99
1030.115	-6.19
1030.539	-9.39
1030.962	-3.29
1031.386	-8.49
1031.81	-1.99
1032.233	0.71
1032.657	-2.29
1033.08	-2.39
1033.504	-0.19
1033.927	4.61
1034.351	-5.39
1034.774	-5.89
1035.198	0.51
1035.621	-0.89
1036.045	-10.49
1036.468	2.41
1036.891	-7.29
1037.315	-5.89
1037.738	-12.59
1038.161	0.21
1038.584	-6.89
1039.008	-1.29
1039.431	-3.79
1039.854	-3.89
1040.277	-9.39
1040.7	-9.09
1041.123	-0.59
1041.546	-0.89
1041.969	-3.19
1042.392	-5.69
1042.815	-0.69
1043.238	1.81
1043.661	5.41
1044.084	-3.09
1044.507	-0.89
1044.93	-8.69
1045.352	-5.69
1045.775	-0.49
1046.198	-0.79
1046.621	-5.79
1047.043	1.91
1047.466	4.01
1047.889	-2.69
1048.311	-4.59
1048.734	1.31
1049.156	-0.69
1049.579	-2.09
1050.001	3.71
1050.424	1.31
1050.846	1.01
1051.269	-2.09
1051.691	-4.09
1052.113	1.61
1052.536	3.51
1052.958	-9.49
1053.38	-2.29
1053.802	-9.09
1054.225	0.71
1054.647	-0.89
1055.069	-9.39
1055.491	4.11
1055.913	-4.29
1056.335	1.31
1056.757	-4.49
1057.179	-2.09
1057.601	-2.69
1058.023	-7.79
1058.445	-8.69
1058.867	0.81
1059.289	-4.39
1059.711	-6.49
1060.133	-3.59
1060.555	-0.19
1060.976	-4.89
1061.398	-4.39
1061.82	-5.89
1062.241	-3.09
1062.663	-6.89
1063.085	-5.29
1063.506	3.21
1063.928	2.21
1064.35	-5.89
1064.771	-10.29
1065.193	-3.39
1065.614	-6.29
1066.035	-1.79
1066.457	-5.39
1066.878	5.01
1067.3	1.21
1067.721	0.91
1068.142	-5.59
1068.564	-7.69
1068.985	-6.19
1069.406	-5.79
1069.827	-8.29
1070.248	5.61
1070.67	-4.39
1071.091	-3.49
1071.512	-5.39
1071.933	-6.39
1072.354	-9.09
1072.775	3.61
1073.196	-4.89
1073.617	-7.09
1074.038	-10.59
1074.459	0.61
1074.88	-2.59
1075.3	-3.29
1075.721	-4.89
1076.142	1.01
1076.563	-3.09
1076.983	-12.49
1077.404	-6.49
1077.825	-11.09
1078.246	-3.39
1078.666	-8.09
1079.087	-9.29
1079.507	-5.09
1079.928	-0.09
1080.348	-2.39
1080.769	-3.79
1081.189	3.21
1081.61	-2.39
1082.03	-10.59
1082.451	-8.09
1082.871	-4.39
1083.291	-6.79
1083.711	-6.99
1084.132	-2.39
1084.552	-4.69
1084.972	-0.29
1085.392	-7.69
1085.813	-10.79
1086.233	-4.79
1086.653	-6.39
1087.073	1.71
1087.493	-5.89
1087.913	-8.59
1088.333	-9.49
1088.753	-7.99
1089.173	-1.19
1089.593	-1.09
1090.013	3.61
1090.433	0.81
1090.852	-4.99
1091.272	0.61
1091.692	-1.99
1092.112	-3.49
1092.531	-8.29
1092.951	-8.69
1093.371	1.81
1093.79	1.91
1094.21	-8.19
1094.63	-9.09
1095.049	-8.49
1095.469	3.41
1095.888	-4.79
1096.308	6.41
1096.727	1.81
1097.146	-5.29
1097.566	1.41
1097.985	-4.19
1098.405	-2.29
1098.824	-8.09
1099.243	-7.89
1099.662	-4.19
1100.082	-1.79
1100.501	-2.19
1100.92	-5.59
1101.339	-7.39
1101.758	-8.49
