Data from 20171114-ORNL-Ar_H_NY_Subt18_08-05-24-501.txt Node
Date: Tue Nov 14 08:05:24 EST 2017
User: Ender
Spectrometer: HR+D1039
Trigger mode: 0
Integration Time (sec): 2.730000E-2
Scans to average: 10
Electric dark correction enabled: true
Nonlinearity correction enabled: false
Boxcar width: 0
XAxis mode: Wavelengths
Number of Pixels in Spectrum: 2048
>>>>>Begin Spectral Data<<<<<
187.836	-2.59
188.309	-2.59
188.782	-2.59
189.255	-2.39
189.728	-4.29
190.201	8.01
190.674	4.31
191.147	3.91
191.619	-9.39
192.092	0.51
192.565	7.11
193.038	4.61
193.511	0.11
193.984	-1.59
194.456	-1.89
194.929	0.81
195.402	-3.19
195.874	-3.99
196.347	0.31
196.82	-1.19
197.292	1.81
197.765	-0.19
198.237	-12.09
198.71	1.71
199.182	-3.09
199.655	0.31
200.127	-0.29
200.6	3.91
201.072	-0.29
201.544	-5.29
202.017	-3.09
202.489	1.41
202.961	-2.59
203.433	-3.49
203.906	-5.39
204.378	-5.59
204.85	-3.89
205.322	-7.59
205.794	3.01
206.266	3.61
206.739	-9.39
207.211	8.71
207.683	-7.59
208.155	-4.39
208.627	-6.39
209.099	-7.49
209.57	-4.19
210.042	0.21
210.514	-1.59
210.986	1.51
211.458	-6.39
211.93	-8.39
212.402	-0.79
212.873	-3.49
213.345	-7.29
213.817	-12.49
214.288	-4.09
214.76	-13.89
215.232	-9.79
215.703	-2.19
216.175	-2.99
216.646	-5.49
217.118	-5.69
217.589	-2.89
218.061	-1.29
218.532	-0.99
219.004	-4.39
219.475	-5.29
219.946	2.51
220.418	-7.49
220.889	8.71
221.36	-3.89
221.832	-4.09
222.303	-10.59
222.774	-3.59
223.245	-8.39
223.717	-3.09
224.188	0.31
224.659	-2.49
225.13	-7.89
225.601	-0.79
226.072	0.91
226.543	-4.29
227.014	-3.09
227.485	-1.09
227.956	0.01
228.427	1.01
228.898	2.11
229.369	5.81
229.839	3.31
230.31	-6.79
230.781	1.81
231.252	-0.99
231.722	-6.89
232.193	-2.19
232.664	3.21
233.135	-0.49
233.605	8.21
234.076	0.41
234.546	3.91
235.017	4.21
235.487	4.21
235.958	2.81
236.428	0.91
236.899	7.11
237.369	3.01
237.84	-1.99
238.31	9.11
238.78	3.41
239.251	3.71
239.721	6.01
240.191	4.31
240.662	1.01
241.132	2.91
241.602	3.01
242.072	-0.69
242.542	2.91
243.013	1.11
243.483	3.41
243.953	7.91
244.423	1.41
244.893	2.51
245.363	6.81
245.833	5.31
246.303	-1.29
246.773	12.11
247.243	8.81
247.712	7.21
248.182	10.41
248.652	10.31
249.122	-0.49
249.592	15.91
250.061	23.41
250.531	36.61
251.001	21.71
251.471	26.01
251.94	16.71
252.41	3.71
252.879	3.01
253.349	11.71
253.818	11.81
254.288	10.21
254.757	4.61
255.227	-4.09
255.696	2.91
256.166	5.71
256.635	11.91
257.105	7.61
257.574	5.61
258.043	8.91
258.513	14.71
258.982	25.41
259.451	13.11
259.92	10.31
260.389	5.01
260.859	23.91
261.328	12.81
261.797	15.61
262.266	11.11
262.735	11.11
263.204	2.91
263.673	0.51
264.142	8.41
264.611	0.21
265.08	4.71
265.549	6.51
266.018	13.41
266.487	4.21
266.955	1.01
267.424	1.21
267.893	7.81
268.362	6.11
268.83	4.31
269.299	17.51
269.768	9.71
270.236	14.01
270.705	3.91
271.174	5.91
271.642	9.81
272.111	11.01
272.579	19.11
273.048	21.41
273.516	32.51
273.985	31.81
274.453	31.11
274.922	18.81
275.39	16.91
275.858	5.71
276.327	10.01
276.795	20.81
277.263	11.81
277.731	36.51
278.2	62.31
278.668	60.31
279.136	48.81
279.604	21.01
280.072	18.61
280.54	18.31
281.008	13.81
281.477	19.51
281.945	16.41
282.413	13.91
282.881	21.01
283.348	7.61
283.816	17.41
284.284	15.21
284.752	16.11
285.22	9.71
285.688	15.21
286.156	21.81
286.623	45.01
287.091	58.81
287.559	31.91
288.026	17.11
288.494	19.81
288.962	12.11
289.429	13.71
289.897	27.21
290.364	14.31
290.832	19.41
291.3	17.41
291.767	23.81
292.234	22.61
292.702	21.41
293.169	25.91
293.637	25.31
294.104	26.01
294.571	4.81
295.039	11.31
295.506	13.31
295.973	14.71
296.44	15.01
296.908	21.91
297.375	17.81
297.842	20.81
298.309	21.81
298.776	21.61
299.243	29.21
299.71	20.71
300.177	27.71
300.644	34.41
301.111	27.31
301.578	27.31
302.045	18.91
302.512	22.61
302.979	27.01
303.446	25.71
303.913	23.61
304.379	25.91
304.846	34.71
305.313	28.01
305.78	25.21
306.246	30.51
306.713	28.91
307.18	25.91
307.646	31.71
308.113	27.71
308.579	24.41
309.046	25.01
309.512	27.41
309.979	19.91
310.445	30.61
310.912	36.21
311.378	29.71
311.845	33.01
312.311	38.91
312.777	36.81
313.244	36.21
313.71	37.31
314.176	33.11
314.642	39.41
315.109	32.71
315.575	43.51
316.041	45.51
316.507	39.51
316.973	39.61
317.439	38.01
317.905	39.01
318.371	42.81
318.837	35.21
319.303	37.31
319.769	40.71
320.235	33.41
320.701	40.71
321.167	46.81
321.633	41.71
322.099	42.91
322.564	48.51
323.03	46.61
323.496	40.51
323.962	46.91
324.427	39.31
324.893	46.81
325.359	39.11
325.824	34.31
326.29	35.61
326.755	39.31
327.221	46.31
327.686	46.51
328.152	46.11
328.617	43.51
329.083	51.91
329.548	52.31
330.014	55.11
330.479	46.81
330.944	43.71
331.41	46.41
331.875	49.51
332.34	47.11
332.805	48.41
333.271	51.11
333.736	51.31
334.201	57.81
334.666	57.51
335.131	54.61
335.596	57.21
336.061	54.81
336.526	46.41
336.991	53.41
337.456	58.81
337.921	51.31
338.386	49.31
338.851	51.11
339.316	51.61
339.781	45.91
340.246	59.41
340.711	52.41
341.175	54.61
341.64	52.11
342.105	57.41
342.569	60.21
343.034	56.31
343.499	60.61
343.963	55.31
344.428	67.31
344.893	68.31
345.357	60.01
345.822	69.41
346.286	71.31
346.751	81.71
347.215	70.71
347.679	78.41
348.144	95.61
348.608	83.81
349.073	73.91
349.537	78.71
350.001	81.81
350.465	93.61
350.93	84.41
351.394	85.01
351.858	77.31
352.322	90.01
352.786	87.21
353.25	99.81
353.715	111.61
354.179	105.21
354.643	127.31
355.107	136.61
355.571	109.31
356.035	109.71
356.498	127.21
356.962	124.91
357.426	131.01
357.89	116.41
358.354	93.61
358.818	88.41
359.281	88.21
359.745	85.51
360.209	73.31
360.673	78.21
361.136	77.91
361.6	83.71
362.064	85.11
362.527	91.71
362.991	96.91
363.454	86.61
363.918	77.71
364.381	80.11
364.845	82.61
365.308	88.71
365.772	84.01
366.235	91.21
366.698	84.21
367.162	95.81
367.625	85.41
368.088	90.31
368.552	87.91
369.015	92.11
369.478	94.11
369.941	107.01
370.404	96.91
370.867	103.61
371.331	103.91
371.794	115.71
372.257	113.81
372.72	122.01
373.183	105.91
373.646	108.71
374.109	108.91
374.572	118.21
375.035	112.71
375.497	112.31
375.96	108.01
376.423	107.11
376.886	112.41
377.349	107.81
377.811	105.31
378.274	102.71
378.737	108.71
379.199	116.41
379.662	110.81
380.125	115.41
380.587	117.21
381.05	125.91
381.512	130.31
381.975	140.31
382.437	129.91
382.9	124.71
383.362	125.71
383.825	139.51
384.287	148.01
384.75	139.51
385.212	136.81
385.674	143.81
386.136	141.31
386.599	128.21
387.061	125.31
387.523	131.21
387.985	138.31
388.447	149.41
388.91	140.51
389.372	158.61
389.834	156.11
390.296	150.91
390.758	156.41
391.22	167.41
391.682	206.21
392.144	294.41
392.606	226.91
393.068	165.31
393.529	167.01
393.991	158.71
394.453	151.61
394.915	151.71
395.377	187.81
395.838	210.51
396.3	149.41
396.762	144.61
397.224	131.81
397.685	131.21
398.147	134.11
398.608	126.91
399.07	131.71
399.531	137.81
399.993	148.51
400.454	155.71
400.916	144.21
401.377	144.21
401.839	149.41
402.3	151.41
402.762	171.61
403.223	183.91
403.684	170.41
404.145	158.41
404.607	160.51
405.068	161.61
405.529	175.21
405.99	192.01
406.451	180.61
406.913	171.31
407.374	170.81
407.835	167.41
408.296	169.81
408.757	174.91
409.218	184.51
409.679	177.71
410.14	172.81
410.601	174.21
411.062	178.21
411.522	186.01
411.983	191.51
412.444	178.61
412.905	180.51
413.366	184.11
413.826	193.31
414.287	218.41
414.748	257.31
415.208	245.51
415.669	208.91
416.13	203.11
416.59	201.11
417.051	210.41
417.511	214.91
417.972	235.41
418.432	244.61
418.893	294.61
419.353	251.11
419.814	196.81
420.274	191.01
420.734	178.01
421.195	200.31
421.655	200.11
422.115	191.51
422.576	194.81
423.036	203.61
423.496	210.51
423.956	215.21
424.416	222.51
424.876	261.71
425.336	261.11
425.797	263.91
426.257	259.11
426.717	242.61
427.177	238.21
427.637	230.91
428.097	238.81
428.556	249.61
429.016	269.21
429.476	265.11
429.936	273.21
430.396	280.71
430.856	299.71
431.315	319.41
431.775	343.21
432.235	382.91
432.694	354.51
433.154	361.11
433.614	391.41
434.073	346.01
434.533	286.91
434.993	265.41
435.452	284.21
435.912	299.81
436.371	301.61
436.83	284.31
437.29	267.71
437.749	249.61
438.209	249.41
438.668	273.61
439.127	286.21
439.587	264.71
440.046	254.11
440.505	263.71
440.964	274.11
441.424	326.41
441.883	308.41
442.342	260.31
442.801	230.21
443.26	219.91
443.719	226.71
444.178	220.01
444.637	208.01
445.096	219.41
445.555	224.41
446.014	228.01
446.473	226.11
446.932	234.61
447.391	229.61
447.849	231.91
448.308	219.11
448.767	222.11
449.226	236.31
449.685	233.11
450.143	252.21
450.602	235.81
451.061	229.21
451.519	247.11
451.978	227.51
452.436	241.81
452.895	238.31
453.353	249.11
453.812	235.31
454.27	246.61
454.729	241.61
455.187	238.01
455.646	243.01
456.104	254.91
456.562	261.21
457.021	267.81
457.479	260.01
457.937	274.51
458.395	266.91
458.854	245.41
459.312	260.41
459.77	263.81
460.228	259.11
460.686	246.01
461.144	248.11
461.602	250.81
462.06	240.11
462.518	261.71
462.976	253.71
463.434	252.01
463.892	263.31
464.35	276.81
464.808	297.41
465.266	269.61
465.724	271.51
466.181	271.71
466.639	267.41
467.097	291.01
467.555	297.21
468.012	302.81
468.47	313.91
468.928	330.91
469.385	339.21
469.843	344.11
470.3	351.51
470.758	362.01
471.215	386.41
471.673	411.21
472.13	403.11
472.588	420.41
473.045	366.81
473.503	377.71
473.96	395.21
474.417	405.31
474.875	439.91
475.332	473.81
475.789	472.21
476.246	470.51
476.704	492.31
477.161	502.71
477.618	523.41
478.075	568.41
478.532	620.51
478.989	696.31
479.446	807.21
479.903	776.61
480.36	813.31
480.817	869.21
481.274	976.91
481.731	1075.11
482.188	1172.71
482.645	1323.41
483.102	1412.31
483.558	1556.71
484.015	1605.81
484.472	1588.21
484.929	1530.11
485.385	1493.01
485.842	1441.21
486.299	1364.81
486.755	1306.71
487.212	1091.31
487.668	929.01
488.125	853.41
488.582	792.21
489.038	755.91
489.494	717.01
489.951	687.11
490.407	672.61
490.864	658.31
491.32	650.61
491.776	649.41
492.233	647.91
492.689	613.41
493.145	607.71
493.602	595.71
494.058	612.01
494.514	615.41
494.97	638.91
495.426	657.81
495.882	628.71
496.338	618.61
496.794	633.11
497.251	624.41
497.707	640.81
498.163	644.51
498.618	644.51
499.074	657.21
499.53	681.41
499.986	684.21
500.442	658.91
500.898	636.51
501.354	631.31
501.809	633.41
502.265	644.61
502.721	662.81
503.177	676.71
503.632	663.51
504.088	675.31
504.543	712.71
504.999	709.21
505.455	662.11
505.91	627.31
506.366	634.11
506.821	628.21
507.277	630.11
507.732	621.11
508.187	631.41
508.643	632.11
509.098	631.81
509.553	660.41
510.009	667.61
510.464	667.41
510.919	688.61
511.375	690.11
511.83	710.01
512.285	724.01
512.74	759.91
513.195	784.41
513.65	770.91
514.105	767.61
514.56	781.41
515.015	793.61
515.47	814.21
515.925	791.11
516.38	783.01
516.835	799.61
517.29	784.11
517.745	767.21
518.2	765.31
518.655	751.81
519.109	742.51
519.564	741.01
520.019	729.91
520.474	724.81
520.928	730.51
521.383	714.81
521.838	705.41
522.292	707.01
522.747	706.61
523.201	699.11
523.656	698.81
524.11	696.41
524.565	689.31
525.019	690.21
525.474	692.91
525.928	701.41
526.382	703.31
526.837	695.71
527.291	698.21
527.745	699.61
528.2	697.81
528.654	694.61
529.108	696.71
529.562	684.91
530.016	692.91
530.47	683.61
530.925	697.11
531.379	689.51
531.833	703.61
532.287	696.71
532.741	705.31
533.195	700.51
533.649	715.21
534.103	717.81
534.556	722.01
535.01	708.51
535.464	708.11
535.918	720.71
536.372	728.71
536.826	720.71
537.279	704.31
537.733	716.21
538.187	720.91
538.64	707.51
539.094	724.01
539.548	722.81
540.001	719.61
540.455	717.81
540.908	735.51
541.362	736.91
541.815	750.21
542.269	756.61
542.722	755.91
543.175	764.01
543.629	773.01
544.082	784.51
544.536	779.51
544.989	779.21
545.442	785.41
545.895	785.11
546.349	780.71
546.802	790.61
547.255	799.81
547.708	791.01
548.161	804.91
548.614	814.11
549.067	831.81
549.52	815.81
549.973	811.11
550.426	808.51
550.879	786.11
551.332	799.21
551.785	799.41
552.238	807.41
552.691	809.71
553.144	831.31
553.596	841.81
554.049	857.01
554.502	890.61
554.955	902.41
555.407	892.91
555.86	900.41
556.313	888.31
556.765	873.71
557.218	886.01
557.67	880.61
558.123	869.91
558.576	858.21
559.028	876.31
559.48	887.21
559.933	863.21
560.385	839.61
560.838	798.31
561.29	780.91
561.742	774.61
562.195	758.31
562.647	755.61
563.099	762.21
563.551	770.91
564.004	780.41
564.456	768.21
564.908	753.51
565.36	734.41
565.812	727.61
566.264	721.01
566.716	707.11
567.168	711.71
567.62	705.51
568.072	683.51
568.524	682.71
568.976	673.21
569.428	667.81
569.88	661.31
570.332	665.11
570.784	667.41
571.235	678.31
571.687	690.61
572.139	697.61
572.59	697.91
573.042	704.11
573.494	711.81
573.945	694.11
574.397	679.91
574.849	685.21
575.3	676.51
575.752	675.81
576.203	681.51
576.655	678.01
577.106	660.71
577.557	650.51
578.009	654.21
578.46	657.31
578.912	656.71
579.363	660.91
579.814	658.71
580.265	657.21
580.717	665.21
581.168	659.51
581.619	670.01
582.07	677.71
582.521	668.01
582.972	649.31
583.423	663.01
583.875	668.51
584.326	683.11
584.777	737.51
585.227	806.11
585.678	904.51
586.129	983.01
586.58	1058.91
587.031	1135.91
587.482	1293.71
587.933	1473.31
588.384	1280.51
588.834	958.91
589.285	790.21
589.736	783.01
590.186	756.41
590.637	747.01
591.088	737.11
591.538	723.21
591.989	714.11
592.439	711.91
592.89	704.91
593.34	683.81
593.791	698.41
594.241	693.31
594.692	689.61
595.142	686.41
595.593	675.81
596.043	685.51
596.493	696.11
596.943	696.11
597.394	698.71
597.844	694.31
598.294	706.01
598.744	735.81
599.195	757.21
599.645	788.01
600.095	840.71
600.545	889.91
600.995	944.61
601.445	1000.61
601.895	1050.91
602.345	1114.21
602.795	1092.11
603.245	1031.91
603.695	992.61
604.145	934.21
604.594	893.21
605.044	840.81
605.494	789.21
605.944	740.61
606.393	718.91
606.843	707.41
607.293	714.91
607.743	708.21
608.192	725.01
608.642	738.51
609.091	748.21
609.541	748.61
609.99	746.91
610.44	744.01
610.889	706.31
611.339	675.11
611.788	663.71
612.238	674.91
612.687	695.11
613.136	695.71
613.586	723.11
614.035	721.51
614.484	735.61
614.933	735.11
615.383	739.61
615.832	717.21
616.281	699.11
616.73	661.01
617.179	633.91
617.628	635.11
618.077	621.21
618.526	611.71
618.975	594.61
619.424	596.21
619.873	593.61
620.322	601.51
620.771	580.81
621.22	589.51
621.669	581.71
622.118	571.81
622.567	565.11
623.015	545.11
623.464	553.31
623.913	533.71
624.361	537.01
624.81	537.21
625.259	530.61
625.707	536.01
626.156	531.91
626.604	543.51
627.053	549.11
627.501	549.51
627.95	551.21
628.398	559.51
628.847	551.31
629.295	549.01
629.744	553.11
630.192	559.31
630.64	545.81
631.089	550.81
631.537	559.71
631.985	562.81
632.433	575.21
632.881	586.21
633.33	634.41
633.778	611.91
634.226	544.91
634.674	552.91
635.122	557.71
635.57	580.71
636.018	610.71
636.466	553.11
636.914	531.71
637.362	548.21
637.81	560.11
638.258	554.71
638.705	557.51
639.153	582.41
639.601	588.41
640.049	618.51
640.497	639.31
640.944	657.41
641.392	610.61
641.84	595.51
642.287	566.51
642.735	549.91
643.182	555.71
643.63	553.61
644.078	559.91
644.525	567.31
644.973	579.31
645.42	580.01
645.867	590.31
646.315	609.81
646.762	638.11
647.21	662.11
647.657	680.71
648.104	726.11
648.551	738.91
648.999	802.21
649.446	867.01
649.893	972.31
650.34	1112.01
650.787	1324.21
651.234	1649.41
651.682	2155.81
652.129	2945.51
652.576	4240.61
653.023	6286.81
653.47	8621.31
653.917	10842.11
654.363	12585.41
654.81	14016.81
655.257	13321.61
655.704	8716.71
656.151	5113.91
656.598	3301.41
657.044	2341.71
657.491	1791.81
657.938	1439.51
658.385	1201.81
658.831	1047.21
659.278	928.11
659.724	821.61
660.171	764.71
660.618	689.71
661.064	660.51
661.511	631.31
661.957	616.91
662.404	616.41
662.85	617.91
663.296	599.01
663.743	528.51
664.189	515.81
664.635	507.01
665.082	498.01
665.528	504.11
665.974	491.41
666.42	482.11
666.867	484.91
667.313	466.71
667.759	460.91
668.205	466.21
668.651	469.01
669.097	472.11
669.543	474.51
669.989	451.41
670.435	424.21
670.881	424.11
671.327	427.71
671.773	454.01
672.219	473.91
672.665	514.71
673.11	544.91
673.556	595.91
674.002	639.01
674.448	628.11
674.893	524.81
675.339	461.91
675.785	415.21
676.23	397.31
676.676	368.61
677.122	362.41
677.567	355.21
678.013	346.41
678.458	337.41
678.904	343.11
679.349	337.01
679.794	345.21
680.24	337.41
680.685	331.81
681.131	327.51
681.576	330.41
682.021	332.61
682.466	333.51
682.912	328.91
683.357	329.21
683.802	360.71
684.247	386.61
684.692	435.21
685.137	469.11
685.583	500.31
686.028	534.71
686.473	487.01
686.918	421.21
687.363	391.41
687.807	371.21
688.252	346.91
688.697	328.51
689.142	309.31
689.587	316.81
690.032	309.31
690.477	325.41
690.921	326.31
691.366	363.21
691.811	381.31
692.255	410.01
692.7	439.01
693.145	468.51
693.589	636.11
694.034	1047.71
694.478	1436.31
694.923	1643.51
695.367	2149.01
695.812	1137.31
696.256	475.61
696.701	351.31
697.145	322.71
697.59	311.41
698.034	302.41
698.478	303.81
698.922	311.21
699.367	308.11
699.811	322.81
700.255	335.51
700.699	366.71
701.143	405.41
701.588	456.11
702.032	493.31
702.476	486.91
702.92	460.81
703.364	462.41
703.808	583.21
704.252	953.71
704.696	1353.81
705.14	1585.31
705.584	2028.51
706.027	998.21
706.471	490.41
706.915	377.21
707.359	330.91
707.803	302.41
708.246	284.91
708.69	287.61
709.134	291.91
709.577	294.11
710.021	299.41
710.465	284.91
710.908	285.01
711.352	281.91
711.795	293.61
712.239	324.01
712.682	360.01
713.126	397.01
713.569	439.31
714.012	351.31
714.456	302.01
714.899	282.31
715.342	259.71
715.786	255.21
716.229	242.01
716.672	242.81
717.115	231.71
717.558	230.71
718.002	237.81
718.445	245.81
718.888	271.31
719.331	278.01
719.774	290.01
720.217	290.51
720.66	267.41
721.103	251.71
721.546	239.21
721.989	237.11
722.432	217.81
722.874	227.61
723.317	211.61
723.76	227.61
724.203	247.01
724.645	296.71
725.088	409.51
725.531	522.21
725.974	616.31
726.416	514.31
726.859	287.91
727.301	237.81
727.744	231.81
728.187	221.71
728.629	225.21
729.071	231.61
729.514	246.31
729.956	262.61
730.399	266.71
730.841	276.61
731.283	254.61
731.726	253.01
732.168	240.51
732.61	248.41
733.053	264.51
733.495	297.61
733.937	321.51
734.379	377.51
734.821	404.11
735.263	504.71
735.705	778.31
736.148	1450.61
736.59	2394.81
737.032	2909.21
737.474	2357.51
737.916	752.11
738.357	402.81
738.799	300.01
739.241	287.01
739.683	269.51
740.125	270.01
740.567	289.11
741.008	291.91
741.45	299.41
741.892	297.41
742.334	321.31
742.775	341.21
743.217	321.61
743.658	253.21
744.1	243.81
744.542	248.11
744.983	289.41
745.425	326.41
745.866	329.51
746.307	263.81
746.749	264.71
747.19	302.01
747.632	412.71
748.073	791.71
748.514	1693.31
748.956	2657.21
749.397	3338.81
749.838	2760.21
750.279	2804.91
750.72	1413.51
751.162	516.51
751.603	298.41
752.044	235.31
752.485	209.61
752.926	194.11
753.367	189.51
753.808	181.91
754.249	177.11
754.69	163.61
755.131	167.91
755.572	166.91
756.013	165.81
756.453	175.71
756.894	175.51
757.335	173.31
757.776	180.11
758.216	189.61
758.657	176.11
759.098	184.91
759.538	210.21
759.979	243.61
760.42	348.01
760.86	638.21
761.301	1647.91
761.741	4095.81
762.182	6132.31
762.622	4292.71
763.063	1227.41
763.503	500.21
763.943	324.61
764.384	318.61
764.824	383.71
765.264	419.01
765.705	283.61
766.145	197.71
766.585	180.51
767.025	169.51
767.465	174.61
767.906	226.71
768.346	300.61
768.786	330.61
769.226	247.01
769.666	301.11
770.106	563.61
770.546	1415.21
770.986	2485.71
771.426	2260.01
771.866	751.51
772.306	307.91
772.745	204.31
773.185	168.71
773.625	158.61
774.065	155.91
774.505	188.61
774.944	283.01
775.384	622.71
775.824	1158.61
776.263	1139.91
776.703	481.61
777.142	214.31
777.582	153.11
778.021	135.41
778.461	128.51
778.9	134.41
779.34	123.91
779.779	111.51
780.219	108.11
780.658	107.01
781.097	104.21
781.537	112.41
781.976	108.91
782.415	100.01
782.855	99.41
783.294	99.11
783.733	105.41
784.172	100.31
784.611	101.81
785.05	102.11
785.489	108.11
785.928	116.91
786.367	117.01
786.806	112.91
787.245	125.31
787.684	125.21
788.123	140.91
788.562	120.01
789.001	120.41
789.44	111.01
789.879	106.91
790.317	112.41
790.756	121.91
791.195	117.11
791.634	138.21
792.072	187.91
792.511	332.31
792.95	916.21
793.388	1990.91
793.827	1841.71
794.265	642.41
794.704	259.21
795.142	170.71
795.581	135.21
796.019	133.21
796.458	116.51
796.896	111.21
797.334	124.51
797.773	152.91
798.211	202.71
798.649	403.71
799.087	939.91
799.526	1484.01
799.964	1861.71
800.402	1914.31
800.84	712.41
801.278	281.11
801.716	178.21
802.154	140.41
802.592	135.21
803.03	125.21
803.468	126.71
803.906	134.51
804.344	138.71
804.782	137.31
805.22	125.41
805.658	120.91
806.096	133.31
806.533	141.61
806.971	162.01
807.409	201.11
807.847	286.91
808.284	593.61
808.722	1699.11
809.16	3084.71
809.597	2882.31
810.035	5033.41
810.472	5512.21
810.91	1975.41
811.347	736.71
811.785	374.31
812.222	233.11
812.66	175.81
813.097	146.81
813.535	133.21
813.972	118.31
814.409	113.81
814.846	102.91
815.284	103.31
815.721	96.31
816.158	102.11
816.595	119.21
817.032	169.61
817.47	187.01
817.907	160.01
818.344	144.91
818.781	107.51
819.218	91.21
819.655	114.81
820.092	172.31
820.529	200.51
820.966	166.11
821.403	130.81
821.839	110.51
822.276	98.81
822.713	110.61
823.15	125.61
823.587	107.41
824.023	134.51
824.46	262.81
824.897	822.91
825.333	1283.81
825.77	545.11
826.206	216.01
826.643	123.41
827.08	97.41
827.516	76.61
827.953	68.51
828.389	73.31
828.825	66.11
829.262	65.21
829.698	58.81
830.135	63.81
830.571	54.21
831.007	61.51
831.443	67.71
831.88	63.71
832.316	60.31
832.752	59.41
833.188	59.51
833.624	62.11
834.06	60.91
834.497	61.91
834.933	72.31
835.369	66.81
835.805	64.71
836.241	70.11
836.677	76.51
837.112	81.81
837.548	97.31
837.984	123.31
838.42	184.91
838.856	453.41
839.292	1390.21
839.727	2189.91
840.163	1012.21
840.599	837.71
841.034	1884.71
841.47	2023.91
841.906	739.21
842.341	307.71
842.777	215.01
843.212	297.61
843.648	301.61
844.083	142.31
844.519	88.91
844.954	77.31
845.39	54.61
845.825	61.21
846.261	58.01
846.696	52.91
847.131	54.21
847.566	56.61
848.002	54.11
848.437	52.71
848.872	51.81
849.307	55.41
849.742	76.11
850.177	166.21
850.613	508.31
851.048	826.01
851.483	358.51
851.918	142.81
852.353	74.61
852.788	57.31
853.223	49.51
853.657	55.01
854.092	42.31
854.527	41.41
854.962	41.41
855.397	37.31
855.832	48.61
856.266	36.31
856.701	40.21
857.136	31.01
857.57	36.21
858.005	43.51
858.44	53.41
858.874	38.91
859.309	48.81
859.743	38.31
860.178	44.61
860.612	42.91
861.047	45.51
861.481	67.51
861.915	63.71
862.35	50.01
862.784	32.91
863.218	40.81
863.653	32.31
864.087	45.41
864.521	52.91
864.955	64.71
865.39	145.01
865.824	163.01
866.258	108.71
866.692	145.71
867.126	160.21
867.56	95.81
867.994	47.91
868.428	34.41
868.862	43.11
869.296	52.41
869.73	54.51
870.164	49.91
870.598	47.41
871.031	39.11
871.465	28.81
871.899	30.11
872.333	22.81
872.766	24.31
873.2	20.71
873.634	33.61
874.067	25.01
874.501	24.21
874.935	34.51
875.368	30.41
875.802	26.11
876.235	27.71
876.669	22.21
877.102	18.51
877.535	23.21
877.969	28.51
878.402	23.31
878.836	16.21
879.269	21.51
879.702	27.61
880.135	19.21
880.569	23.81
881.002	28.51
881.435	20.11
881.868	13.21
882.301	19.11
882.734	18.01
883.167	18.51
883.601	20.51
884.034	16.71
884.467	12.91
884.899	19.81
885.332	19.91
885.765	14.21
886.198	15.31
886.631	19.71
887.064	16.41
887.497	16.31
887.929	24.51
888.362	10.41
888.795	13.61
889.228	14.51
889.66	17.51
890.093	17.31
890.526	17.21
890.958	21.01
891.391	17.41
891.823	19.91
892.256	15.31
892.688	11.61
893.121	5.11
893.553	13.71
893.985	23.21
894.418	20.81
894.85	12.81
895.282	19.51
895.715	15.01
896.147	18.21
896.579	16.01
897.011	14.91
897.444	16.91
897.876	12.41
898.308	13.11
898.74	16.81
899.172	13.41
899.604	23.01
900.036	20.21
900.468	13.61
900.9	13.91
901.332	22.61
901.764	17.31
902.196	22.11
902.628	12.21
903.06	14.41
903.491	28.71
903.923	19.41
904.355	19.51
904.787	28.41
905.218	20.51
905.65	19.01
906.082	9.91
906.513	9.41
906.945	16.61
907.376	9.51
907.808	18.91
908.239	15.41
908.671	19.91
909.102	21.91
909.534	20.91
909.965	45.41
910.397	85.01
910.828	296.21
911.259	450.71
911.691	209.81
912.122	105.21
912.553	48.91
912.984	38.01
913.415	20.41
913.847	20.91
914.278	10.91
914.709	12.91
915.14	15.11
915.571	19.11
916.002	12.21
916.433	15.81
916.864	17.41
917.295	19.61
917.726	19.71
918.157	19.81
918.587	31.11
919.018	24.01
919.449	19.21
919.88	22.71
920.311	30.41
920.741	39.41
921.172	153.81
921.603	139.91
922.033	67.61
922.464	44.71
922.895	24.31
923.325	17.81
923.756	17.91
924.186	21.81
924.617	28.81
925.047	38.31
925.478	50.21
925.908	39.81
926.338	25.91
926.769	20.41
927.199	23.91
927.629	3.81
928.06	6.51
928.49	13.71
928.92	8.31
929.35	11.01
929.78	15.31
930.21	10.01
930.641	13.31
931.071	12.31
931.501	-0.39
931.931	11.01
932.361	10.61
932.791	0.81
933.221	6.41
933.651	5.31
934.08	21.61
934.51	33.31
934.94	13.61
935.37	9.01
935.8	15.91
936.229	6.81
936.659	8.11
937.089	0.11
937.519	12.61
937.948	26.41
938.378	14.41
938.807	8.11
939.237	1.61
939.666	7.41
940.096	-12.29
940.525	4.31
940.955	1.61
941.384	1.71
941.814	-4.59
942.243	-1.69
942.672	11.71
943.102	-0.29
943.531	-1.59
943.96	2.81
944.39	2.41
944.819	1.21
945.248	3.81
945.677	2.51
946.106	4.31
946.535	2.41
946.964	-2.99
947.393	6.31
947.822	1.81
948.251	0.21
948.68	7.91
949.109	6.91
949.538	5.21
949.967	0.71
950.396	-4.29
950.825	-5.59
951.254	2.61
951.682	-4.69
952.111	3.21
952.54	4.21
952.969	-7.59
953.397	-6.49
953.826	4.71
954.254	-1.39
954.683	-3.09
955.112	1.31
955.54	2.81
955.969	2.11
956.397	-6.79
956.826	-0.59
957.254	-0.29
957.682	-1.09
958.111	7.51
958.539	0.41
958.967	4.41
959.396	0.81
959.824	5.91
960.252	4.51
960.68	-1.99
961.109	-1.59
961.537	-5.59
961.965	-0.99
962.393	-1.79
962.821	-2.19
963.249	2.81
963.677	6.31
964.105	6.91
964.533	40.91
964.961	39.51
965.389	17.81
965.817	6.11
966.245	-1.89
966.672	-3.39
967.1	-0.19
967.528	3.01
967.956	-0.19
968.383	3.51
968.811	-0.79
969.239	-1.79
969.666	-0.49
970.094	-0.99
970.522	5.11
970.949	0.21
971.377	2.31
971.804	-5.69
972.232	-1.59
972.659	1.91
973.087	-3.69
973.514	-5.59
973.941	-10.49
974.369	8.11
974.796	-1.49
975.223	-0.99
975.651	-1.79
976.078	5.01
976.505	1.21
976.932	1.31
977.359	17.51
977.786	11.71
978.214	3.71
978.641	-4.69
979.068	1.01
979.495	-5.89
979.922	4.41
980.349	1.71
980.776	8.41
981.202	-1.19
981.629	6.31
982.056	5.61
982.483	-5.69
982.91	4.41
983.337	-8.79
983.763	-2.59
984.19	-1.59
984.617	0.11
985.043	-2.69
985.47	-0.69
985.897	-1.79
986.323	-6.89
986.75	4.11
987.176	-3.89
987.603	-0.09
988.029	-1.19
988.456	-1.09
988.882	1.71
989.308	-7.49
989.735	-0.49
990.161	2.81
990.587	-3.59
991.014	4.21
991.44	10.61
991.866	3.21
992.292	-0.59
992.719	-0.59
993.145	1.11
993.571	-10.89
993.997	-4.89
994.423	-2.69
994.849	0.11
995.275	-1.59
995.701	1.01
996.127	-4.19
996.553	3.21
996.979	-1.79
997.405	-1.39
997.83	0.31
998.256	-6.19
998.682	-4.39
999.108	-7.29
999.534	-1.69
999.959	0.11
1000.385	-6.09
1000.811	3.21
1001.236	-5.19
1001.662	-2.59
1002.087	-2.49
1002.513	4.11
1002.938	2.01
1003.364	-2.09
1003.789	-2.09
1004.215	3.41
1004.64	-1.29
1005.066	5.81
1005.491	-3.89
1005.916	-1.49
1006.342	-6.49
1006.767	-8.09
1007.192	5.41
1007.617	-3.49
1008.042	-1.19
1008.468	-4.59
1008.893	-3.79
1009.318	-2.19
1009.743	0.91
1010.168	5.21
1010.593	6.11
1011.018	-9.59
1011.443	-1.89
1011.868	2.31
1012.293	3.41
1012.718	-1.09
1013.143	-0.59
1013.567	1.71
1013.992	-2.49
1014.417	-8.79
1014.842	5.21
1015.267	-2.19
1015.691	-4.59
1016.116	7.31
1016.541	-0.29
1016.965	4.21
1017.39	2.91
1017.814	1.21
1018.239	0.41
1018.663	-8.29
1019.088	-11.09
1019.512	-0.59
1019.937	0.91
1020.361	-2.79
1020.785	-9.29
1021.21	-2.49
1021.634	-4.39
1022.058	-0.39
1022.483	3.81
1022.907	0.91
1023.331	-6.19
1023.755	-1.79
1024.179	-1.09
1024.604	-8.59
1025.028	-0.49
1025.452	-2.09
1025.876	1.61
1026.3	3.51
1026.724	-9.99
1027.148	-5.09
1027.572	-8.99
1027.996	-5.09
1028.42	-0.39
1028.843	-3.29
1029.267	-4.29
1029.691	-2.99
1030.115	-2.29
1030.539	-4.09
1030.962	-4.79
1031.386	-11.89
1031.81	-1.59
1032.233	-0.59
1032.657	0.31
1033.08	3.31
1033.504	-1.89
1033.927	-6.09
1034.351	1.41
1034.774	-5.49
1035.198	1.71
1035.621	-6.49
1036.045	-4.79
1036.468	0.81
1036.891	-5.19
1037.315	1.71
1037.738	-9.09
1038.161	1.11
1038.584	-0.49
1039.008	-3.89
1039.431	-0.99
1039.854	-0.09
1040.277	-7.69
1040.7	-8.59
1041.123	1.41
1041.546	-8.39
1041.969	0.01
1042.392	-2.89
1042.815	-3.69
1043.238	0.21
1043.661	1.81
1044.084	-4.99
1044.507	-9.19
1044.93	-1.99
1045.352	-0.79
1045.775	2.41
1046.198	-2.89
1046.621	6.21
1047.043	2.61
1047.466	3.71
1047.889	-0.69
1048.311	-4.09
1048.734	3.01
1049.156	-4.19
1049.579	-5.99
1050.001	0.11
1050.424	0.41
1050.846	-4.29
1051.269	-2.79
1051.691	-2.89
1052.113	-1.69
1052.536	1.71
1052.958	-7.99
1053.38	-1.79
1053.802	-7.69
1054.225	-0.79
1054.647	-5.09
1055.069	-4.09
1055.491	1.11
1055.913	-6.69
1056.335	3.21
1056.757	0.31
1057.179	-5.49
1057.601	-6.69
1058.023	0.51
1058.445	-3.49
1058.867	-4.69
1059.289	-2.99
1059.711	-5.79
1060.133	-12.49
1060.555	-2.69
1060.976	-6.49
1061.398	-5.09
1061.82	-6.69
1062.241	-10.29
1062.663	-7.09
1063.085	-2.69
1063.506	1.51
1063.928	-0.89
1064.35	-3.69
1064.771	-8.89
1065.193	-5.89
1065.614	-9.99
1066.035	-4.29
1066.457	0.91
1066.878	0.21
1067.3	-2.39
1067.721	-1.59
1068.142	-2.99
1068.564	-1.29
1068.985	-10.89
1069.406	-7.29
1069.827	-1.19
1070.248	8.21
1070.67	-5.59
1071.091	-5.79
1071.512	-1.99
1071.933	-12.19
1072.354	-1.99
1072.775	-1.29
1073.196	-7.09
1073.617	-5.79
1074.038	-8.99
1074.459	-4.29
1074.88	-9.49
1075.3	4.91
1075.721	-8.79
1076.142	3.51
1076.563	0.31
1076.983	-8.39
1077.404	-6.99
1077.825	-12.39
1078.246	-2.99
1078.666	-9.69
1079.087	-0.29
1079.507	-4.59
1079.928	-3.09
1080.348	6.21
1080.769	-7.19
1081.189	-4.19
1081.61	-3.59
1082.03	-4.49
1082.451	-5.39
1082.871	-4.19
1083.291	-5.09
1083.711	-3.09
1084.132	-3.59
1084.552	0.61
1084.972	2.91
1085.392	-7.39
1085.813	-14.49
1086.233	-1.59
1086.653	1.01
1087.073	2.31
1087.493	-6.99
1087.913	-7.39
1088.333	-6.69
1088.753	-3.19
1089.173	2.91
1089.593	-2.09
1090.013	5.61
1090.433	2.01
1090.852	-2.09
1091.272	4.61
1091.692	1.31
1092.112	-5.79
1092.531	-10.69
1092.951	-12.89
1093.371	-0.29
1093.79	5.21
1094.21	-3.29
1094.63	-4.59
1095.049	0.91
1095.469	1.71
1095.888	1.81
1096.308	2.61
1096.727	8.81
1097.146	-10.79
1097.566	-6.29
1097.985	1.41
1098.405	0.41
1098.824	-6.99
1099.243	-4.89
1099.662	-9.79
1100.082	-7.69
1100.501	-1.19
1100.92	-3.29
1101.339	-2.89
1101.758	0.51
