Data from 20171114-ORNL-Ar_H_NY_Subt18_08-05-41-425.txt Node
Date: Tue Nov 14 08:05:41 EST 2017
User: Ender
Spectrometer: HR+D1039
Trigger mode: 0
Integration Time (sec): 2.730000E-2
Scans to average: 10
Electric dark correction enabled: true
Nonlinearity correction enabled: false
Boxcar width: 0
XAxis mode: Wavelengths
Number of Pixels in Spectrum: 2048
>>>>>Begin Spectral Data<<<<<
187.836	-2.98
188.309	-2.98
188.782	-2.98
189.255	-0.28
189.728	-4.28
190.201	6.92
190.674	0.72
191.147	5.32
191.619	-8.58
192.092	0.42
192.565	3.12
193.038	-0.28
193.511	-1.68
193.984	1.22
194.456	-7.68
194.929	5.22
195.402	3.62
195.874	-0.78
196.347	-4.58
196.82	-7.18
197.292	3.62
197.765	-1.48
198.237	-7.18
198.71	3.92
199.182	-0.18
199.655	8.02
200.127	0.32
200.6	-5.48
201.072	-0.58
201.544	-5.98
202.017	-3.98
202.489	6.72
202.961	-1.88
203.433	-6.58
203.906	-2.68
204.378	-8.38
204.85	-1.18
205.322	-8.18
205.794	-1.28
206.266	-1.78
206.739	-6.48
207.211	-4.78
207.683	-5.38
208.155	-3.28
208.627	-9.88
209.099	0.82
209.57	-14.98
210.042	-4.68
210.514	-2.98
210.986	-0.48
211.458	-9.28
211.93	-3.78
212.402	3.22
212.873	-5.48
213.345	-11.18
213.817	-11.58
214.288	0.42
214.76	-11.58
215.232	-2.88
215.703	-8.78
216.175	-2.88
216.646	-1.78
217.118	-7.48
217.589	-4.08
218.061	2.12
218.532	-2.78
219.004	-2.68
219.475	-3.08
219.946	-9.58
220.418	-9.78
220.889	4.82
221.36	-2.48
221.832	-0.48
222.303	-7.48
222.774	7.42
223.245	-13.78
223.717	-8.48
224.188	-4.08
224.659	-8.28
225.13	-3.48
225.601	-1.28
226.072	1.92
226.543	-2.48
227.014	-4.68
227.485	-4.78
227.956	-4.18
228.427	-7.88
228.898	7.52
229.369	3.52
229.839	-7.38
230.31	-4.88
230.781	0.32
231.252	-3.48
231.722	-4.88
232.193	1.12
232.664	-0.28
233.135	1.72
233.605	4.12
234.076	-5.38
234.546	-1.28
235.017	4.32
235.487	-1.38
235.958	1.02
236.428	4.92
236.899	6.12
237.369	1.52
237.84	0.72
238.31	6.52
238.78	2.22
239.251	-1.48
239.721	4.32
240.191	3.92
240.662	-6.48
241.132	2.52
241.602	-0.48
242.072	3.52
242.542	6.72
243.013	-0.88
243.483	3.32
243.953	5.22
244.423	-1.48
244.893	7.32
245.363	3.12
245.833	-2.18
246.303	0.62
246.773	10.92
247.243	4.92
247.712	-0.18
248.182	13.92
248.652	2.02
249.122	0.22
249.592	9.82
250.061	28.32
250.531	34.22
251.001	17.52
251.471	21.52
251.94	15.22
252.41	6.42
252.879	3.62
253.349	14.92
253.818	15.32
254.288	5.82
254.757	10.32
255.227	2.62
255.696	3.82
256.166	5.72
256.635	11.52
257.105	7.12
257.574	6.52
258.043	11.52
258.513	12.92
258.982	17.42
259.451	5.12
259.92	16.32
260.389	17.72
260.859	18.42
261.328	13.22
261.797	21.32
262.266	8.62
262.735	14.72
263.204	7.32
263.673	3.22
264.142	8.82
264.611	-2.68
265.08	6.52
265.549	4.42
266.018	12.72
266.487	-2.58
266.955	2.42
267.424	0.92
267.893	8.92
268.362	2.32
268.83	5.42
269.299	13.02
269.768	5.52
270.236	8.72
270.705	2.02
271.174	6.32
271.642	9.32
272.111	8.92
272.579	22.22
273.048	20.32
273.516	24.72
273.985	28.42
274.453	27.22
274.922	20.52
275.39	13.52
275.858	10.02
276.327	13.92
276.795	16.22
277.263	12.52
277.731	34.82
278.2	49.12
278.668	66.82
279.136	53.12
279.604	25.62
280.072	18.62
280.54	13.42
281.008	12.22
281.477	13.72
281.945	10.22
282.413	14.72
282.881	16.52
283.348	12.92
283.816	15.22
284.284	15.42
284.752	22.92
285.22	16.52
285.688	17.12
286.156	16.12
286.623	42.92
287.091	54.92
287.559	26.72
288.026	20.92
288.494	17.02
288.962	5.52
289.429	14.92
289.897	21.82
290.364	19.32
290.832	20.82
291.3	15.62
291.767	21.02
292.234	22.42
292.702	12.22
293.169	21.62
293.637	24.72
294.104	18.52
294.571	14.12
295.039	21.92
295.506	18.82
295.973	23.92
296.44	17.22
296.908	19.22
297.375	18.72
297.842	22.42
298.309	19.12
298.776	16.72
299.243	21.22
299.71	14.82
300.177	23.52
300.644	27.52
301.111	23.22
301.578	18.52
302.045	21.72
302.512	27.72
302.979	27.02
303.446	23.22
303.913	23.92
304.379	17.82
304.846	27.82
305.313	26.12
305.78	27.52
306.246	28.52
306.713	27.82
307.18	22.82
307.646	26.62
308.113	29.92
308.579	22.72
309.046	29.92
309.512	21.12
309.979	25.52
310.445	30.42
310.912	30.32
311.378	31.42
311.845	37.42
312.311	37.02
312.777	31.22
313.244	32.32
313.71	38.02
314.176	34.32
314.642	34.22
315.109	30.32
315.575	32.32
316.041	42.62
316.507	34.02
316.973	40.62
317.439	37.62
317.905	37.72
318.371	40.32
318.837	41.22
319.303	38.82
319.769	38.42
320.235	34.02
320.701	39.12
321.167	38.92
321.633	40.42
322.099	43.52
322.564	47.22
323.03	38.62
323.496	36.82
323.962	42.62
324.427	39.82
324.893	47.32
325.359	42.72
325.824	39.42
326.29	38.92
326.755	46.02
327.221	49.62
327.686	38.32
328.152	47.22
328.617	43.82
329.083	49.92
329.548	57.22
330.014	51.42
330.479	42.52
330.944	47.92
331.41	47.62
331.875	51.72
332.34	43.62
332.805	41.12
333.271	43.92
333.736	44.52
334.201	51.62
334.666	51.32
335.131	56.02
335.596	53.32
336.061	44.82
336.526	44.02
336.991	47.52
337.456	56.72
337.921	51.12
338.386	48.12
338.851	47.42
339.316	50.52
339.781	59.82
340.246	61.32
340.711	43.32
341.175	48.22
341.64	47.52
342.105	52.42
342.569	62.32
343.034	56.32
343.499	57.92
343.963	54.92
344.428	63.52
344.893	70.22
345.357	68.12
345.822	60.52
346.286	73.82
346.751	77.52
347.215	69.12
347.679	77.82
348.144	101.12
348.608	89.72
349.073	72.12
349.537	75.52
350.001	84.42
350.465	93.72
350.93	84.92
351.394	86.02
351.858	79.32
352.322	88.52
352.786	83.72
353.25	101.42
353.715	118.22
354.179	106.32
354.643	129.12
355.107	131.22
355.571	114.62
356.035	103.92
356.498	127.12
356.962	126.62
357.426	126.82
357.89	123.62
358.354	85.72
358.818	86.32
359.281	80.62
359.745	83.72
360.209	75.12
360.673	76.52
361.136	79.12
361.6	86.42
362.064	88.02
362.527	85.52
362.991	95.62
363.454	82.12
363.918	76.72
364.381	79.62
364.845	89.52
365.308	85.92
365.772	82.52
366.235	94.92
366.698	86.12
367.162	87.52
367.625	80.72
368.088	94.32
368.552	90.72
369.015	86.12
369.478	90.12
369.941	95.62
370.404	95.82
370.867	109.22
371.331	107.12
371.794	113.32
372.257	114.72
372.72	119.52
373.183	109.22
373.646	108.32
374.109	109.42
374.572	108.92
375.035	108.72
375.497	119.12
375.96	102.62
376.423	113.12
376.886	110.92
377.349	117.32
377.811	102.62
378.274	103.02
378.737	110.42
379.199	109.22
379.662	118.02
380.125	125.32
380.587	117.62
381.05	128.12
381.512	131.12
381.975	133.32
382.437	125.62
382.9	133.02
383.362	133.52
383.825	146.62
384.287	147.82
384.75	140.42
385.212	144.92
385.674	141.72
386.136	137.52
386.599	127.82
387.061	132.12
387.523	130.82
387.985	143.12
388.447	148.72
388.91	143.32
389.372	152.22
389.834	154.32
390.296	143.92
390.758	152.02
391.22	169.12
391.682	208.62
392.144	298.62
392.606	229.02
393.068	161.52
393.529	165.52
393.991	155.52
394.453	146.42
394.915	155.72
395.377	188.22
395.838	209.52
396.3	162.42
396.762	144.42
397.224	134.02
397.685	128.22
398.147	130.92
398.608	127.82
399.07	131.12
399.531	141.92
399.993	141.12
400.454	159.32
400.916	151.62
401.377	149.92
401.839	154.72
402.3	146.62
402.762	168.62
403.223	181.52
403.684	177.52
404.145	165.22
404.607	166.12
405.068	165.32
405.529	174.32
405.99	190.92
406.451	185.12
406.913	174.92
407.374	166.42
407.835	162.62
408.296	169.72
408.757	176.02
409.218	187.52
409.679	181.82
410.14	182.32
410.601	178.32
411.062	185.92
411.522	194.22
411.983	187.62
412.444	178.52
412.905	179.92
413.366	187.32
413.826	199.72
414.287	218.72
414.748	264.82
415.208	246.12
415.669	213.02
416.13	209.72
416.59	198.92
417.051	221.62
417.511	219.52
417.972	237.22
418.432	250.42
418.893	295.62
419.353	246.12
419.814	199.02
420.274	188.52
420.734	183.72
421.195	202.82
421.655	195.82
422.115	193.92
422.576	196.62
423.036	197.62
423.496	213.92
423.956	219.02
424.416	234.12
424.876	265.32
425.336	267.42
425.797	268.72
426.257	261.62
426.717	239.42
427.177	234.52
427.637	227.02
428.097	237.02
428.556	245.32
429.016	271.42
429.476	267.42
429.936	274.72
430.396	281.02
430.856	297.32
431.315	320.82
431.775	351.82
432.235	385.72
432.694	356.12
433.154	367.12
433.614	392.02
434.073	336.02
434.533	284.32
434.993	276.42
435.452	284.62
435.912	296.62
436.371	292.72
436.83	287.32
437.29	277.02
437.749	253.72
438.209	246.42
438.668	270.82
439.127	286.82
439.587	269.62
440.046	245.22
440.505	265.82
440.964	281.42
441.424	327.92
441.883	314.62
442.342	269.32
442.801	225.92
443.26	225.42
443.719	232.32
444.178	220.72
444.637	214.92
445.096	221.52
445.555	228.22
446.014	231.12
446.473	231.52
446.932	232.42
447.391	230.02
447.849	233.32
448.308	214.32
448.767	227.12
449.226	235.32
449.685	237.52
450.143	256.12
450.602	240.22
451.061	228.62
451.519	235.52
451.978	241.32
452.436	241.22
452.895	246.92
453.353	252.52
453.812	242.72
454.27	241.92
454.729	238.82
455.187	246.82
455.646	249.82
456.104	257.62
456.562	264.92
457.021	275.12
457.479	267.52
457.937	275.42
458.395	269.32
458.854	248.32
459.312	259.02
459.77	283.92
460.228	261.32
460.686	238.72
461.144	248.32
461.602	245.42
462.06	241.72
462.518	256.02
462.976	260.12
463.434	259.72
463.892	269.32
464.35	285.52
464.808	291.22
465.266	276.92
465.724	272.02
466.181	274.52
466.639	268.72
467.097	296.92
467.555	304.72
468.012	306.02
468.47	312.62
468.928	323.32
469.385	349.62
469.843	362.22
470.3	362.02
470.758	363.42
471.215	394.12
471.673	420.12
472.13	414.02
472.588	420.62
473.045	378.42
473.503	387.92
473.96	398.42
474.417	416.12
474.875	439.42
475.332	489.02
475.789	474.42
476.246	473.42
476.704	490.02
477.161	518.42
477.618	534.32
478.075	573.62
478.532	634.32
478.989	700.92
479.446	827.82
479.903	795.92
480.36	826.72
480.817	887.42
481.274	983.22
481.731	1087.02
482.188	1178.62
482.645	1329.72
483.102	1434.22
483.558	1574.12
484.015	1623.72
484.472	1587.42
484.929	1558.52
485.385	1486.62
485.842	1451.92
486.299	1384.62
486.755	1328.02
487.212	1116.52
487.668	950.22
488.125	861.02
488.582	793.82
489.038	749.22
489.494	726.22
489.951	698.32
490.407	685.72
490.864	659.12
491.32	654.02
491.776	655.02
492.233	663.72
492.689	622.82
493.145	619.42
493.602	604.02
494.058	629.62
494.514	626.82
494.97	650.52
495.426	667.32
495.882	635.02
496.338	625.32
496.794	637.42
497.251	635.42
497.707	656.82
498.163	642.82
498.618	657.62
499.074	655.12
499.53	685.52
499.986	692.72
500.442	663.52
500.898	641.92
501.354	632.92
501.809	649.12
502.265	647.32
502.721	668.82
503.177	669.62
503.632	676.22
504.088	694.42
504.543	723.52
504.999	724.22
505.455	670.62
505.91	649.72
506.366	642.62
506.821	640.82
507.277	639.82
507.732	641.02
508.187	643.02
508.643	636.72
509.098	642.02
509.553	666.62
510.009	670.82
510.464	676.12
510.919	694.12
511.375	716.52
511.83	716.62
512.285	737.52
512.74	779.32
513.195	793.92
513.65	794.62
514.105	770.92
514.56	791.52
515.015	798.22
515.47	821.02
515.925	800.52
516.38	798.92
516.835	807.32
517.29	802.82
517.745	788.02
518.2	770.92
518.655	762.52
519.109	757.92
519.564	759.32
520.019	745.92
520.474	742.02
520.928	744.82
521.383	730.32
521.838	726.52
522.292	728.72
522.747	717.32
523.201	712.52
523.656	707.92
524.11	695.32
524.565	706.82
525.019	688.92
525.474	708.52
525.928	705.72
526.382	707.12
526.837	709.32
527.291	715.82
527.745	713.92
528.2	710.42
528.654	709.32
529.108	702.72
529.562	708.82
530.016	701.92
530.47	698.42
530.925	711.72
531.379	706.62
531.833	713.42
532.287	713.52
532.741	723.22
533.195	707.32
533.649	721.92
534.103	734.92
534.556	724.92
535.01	721.32
535.464	720.42
535.918	732.52
536.372	729.92
536.826	719.92
537.279	718.92
537.733	727.62
538.187	719.82
538.64	719.82
539.094	731.02
539.548	735.72
540.001	740.92
540.455	736.22
540.908	743.42
541.362	751.02
541.815	754.92
542.269	757.02
542.722	763.92
543.175	776.42
543.629	780.02
544.082	796.42
544.536	793.02
544.989	794.92
545.442	801.12
545.895	806.02
546.349	792.42
546.802	798.92
547.255	802.12
547.708	815.42
548.161	821.22
548.614	822.02
549.067	839.82
549.52	841.32
549.973	824.52
550.426	827.32
550.879	803.82
551.332	809.42
551.785	821.62
552.238	816.42
552.691	822.92
553.144	829.42
553.596	847.02
554.049	873.22
554.502	903.62
554.955	924.62
555.407	918.72
555.86	905.82
556.313	909.02
556.765	873.72
557.218	891.12
557.67	896.22
558.123	885.82
558.576	876.92
559.028	886.92
559.48	886.42
559.933	890.32
560.385	854.02
560.838	817.22
561.29	795.12
561.742	784.72
562.195	777.52
562.647	762.82
563.099	782.42
563.551	780.32
564.004	783.42
564.456	788.92
564.908	767.02
565.36	735.22
565.812	738.92
566.264	739.42
566.716	731.42
567.168	712.52
567.62	726.12
568.072	708.62
568.524	704.82
568.976	695.42
569.428	675.22
569.88	680.42
570.332	688.12
570.784	684.12
571.235	682.22
571.687	697.62
572.139	710.62
572.59	718.32
573.042	727.42
573.494	725.72
573.945	704.72
574.397	691.22
574.849	694.82
575.3	695.42
575.752	691.42
576.203	680.02
576.655	686.42
577.106	678.12
577.557	672.02
578.009	664.62
578.46	674.72
578.912	677.12
579.363	666.42
579.814	666.32
580.265	668.62
580.717	665.82
581.168	675.62
581.619	678.72
582.07	686.72
582.521	680.52
582.972	683.02
583.423	675.22
583.875	678.32
584.326	700.02
584.777	742.32
585.227	817.42
585.678	899.82
586.129	990.92
586.58	1057.42
587.031	1136.32
587.482	1303.82
587.933	1486.42
588.384	1295.22
588.834	964.02
589.285	806.12
589.736	786.02
590.186	783.42
590.637	767.42
591.088	747.12
591.538	742.42
591.989	730.72
592.439	730.52
592.89	719.42
593.34	706.92
593.791	708.02
594.241	702.12
594.692	709.72
595.142	706.02
595.593	691.82
596.043	698.02
596.493	713.62
596.943	709.02
597.394	730.72
597.844	718.62
598.294	727.92
598.744	753.92
599.195	772.22
599.645	804.02
600.095	849.02
600.545	920.42
600.995	959.72
601.445	1014.52
601.895	1076.82
602.345	1135.92
602.795	1107.82
603.245	1066.02
603.695	1013.52
604.145	948.62
604.594	912.02
605.044	852.72
605.494	799.42
605.944	742.52
606.393	738.62
606.843	721.42
607.293	725.52
607.743	737.82
608.192	731.82
608.642	759.62
609.091	760.32
609.541	764.72
609.99	761.02
610.44	761.22
610.889	717.22
611.339	696.42
611.788	685.92
612.238	705.72
612.687	709.92
613.136	711.42
613.586	733.42
614.035	732.52
614.484	749.12
614.933	755.82
615.383	751.52
615.832	735.52
616.281	719.32
616.73	684.32
617.179	659.12
617.628	643.72
618.077	634.62
618.526	618.02
618.975	611.42
619.424	609.32
619.873	612.32
620.322	615.52
620.771	597.42
621.22	596.42
621.669	592.62
622.118	586.42
622.567	567.72
623.015	565.32
623.464	570.52
623.913	559.62
624.361	542.22
624.81	543.82
625.259	554.82
625.707	554.22
626.156	540.32
626.604	567.82
627.053	554.12
627.501	555.82
627.95	566.22
628.398	574.82
628.847	560.22
629.295	560.52
629.744	566.62
630.192	557.92
630.64	558.42
631.089	561.42
631.537	574.92
631.985	583.02
632.433	586.92
632.881	592.12
633.33	636.32
633.778	630.22
634.226	562.42
634.674	559.82
635.122	557.92
635.57	591.52
636.018	614.02
636.466	574.92
636.914	554.62
637.362	564.32
637.81	574.72
638.258	573.32
638.705	575.62
639.153	594.02
639.601	598.92
640.049	628.62
640.497	660.32
640.944	676.12
641.392	631.72
641.84	605.02
642.287	564.82
642.735	556.42
643.182	572.12
643.63	560.62
644.078	561.52
644.525	590.62
644.973	587.52
645.42	593.42
645.867	616.42
646.315	628.52
646.762	646.62
647.21	676.62
647.657	701.02
648.104	750.32
648.551	759.32
648.999	829.32
649.446	897.02
649.893	981.72
650.34	1140.72
650.787	1358.92
651.234	1682.22
651.682	2196.42
652.129	3024.62
652.576	4317.52
653.023	6389.42
653.47	8749.52
653.917	11032.32
654.363	12726.22
654.81	14150.02
655.257	13494.62
655.704	8811.72
656.151	5182.72
656.598	3383.22
657.044	2388.92
657.491	1835.42
657.938	1458.02
658.385	1223.52
658.831	1067.72
659.278	947.32
659.724	847.12
660.171	774.32
660.618	715.32
661.064	686.32
661.511	651.42
661.957	649.92
662.404	629.32
662.85	638.52
663.296	618.12
663.743	548.22
664.189	519.42
664.635	528.02
665.082	518.22
665.528	523.22
665.974	511.02
666.42	498.32
666.867	499.62
667.313	482.02
667.759	470.52
668.205	463.62
668.651	471.62
669.097	468.42
669.543	482.42
669.989	464.02
670.435	444.02
670.881	426.82
671.327	443.32
671.773	453.02
672.219	486.52
672.665	528.82
673.11	573.92
673.556	618.22
674.002	653.52
674.448	637.02
674.893	536.32
675.339	470.62
675.785	432.32
676.23	402.92
676.676	388.72
677.122	375.92
677.567	363.02
678.013	363.42
678.458	342.02
678.904	350.32
679.349	345.92
679.794	349.12
680.24	341.12
680.685	343.42
681.131	333.52
681.576	333.72
682.021	349.82
682.466	339.22
682.912	337.92
683.357	347.82
683.802	367.82
684.247	387.32
684.692	435.92
685.137	482.82
685.583	513.82
686.028	551.42
686.473	506.72
686.918	433.62
687.363	411.92
687.807	384.22
688.252	364.32
688.697	340.02
689.142	331.82
689.587	326.02
690.032	314.02
690.477	328.72
690.921	344.32
691.366	359.02
691.811	392.82
692.255	406.62
692.7	448.72
693.145	487.92
693.589	662.12
694.034	1084.32
694.478	1481.92
694.923	1687.62
695.367	2211.72
695.812	1170.22
696.256	492.12
696.701	368.32
697.145	327.02
697.59	321.92
698.034	312.32
698.478	320.02
698.922	311.72
699.367	318.62
699.811	324.42
700.255	344.42
700.699	374.82
701.143	420.22
701.588	461.42
702.032	500.72
702.476	503.72
702.92	473.82
703.364	470.52
703.808	609.42
704.252	980.62
704.696	1391.52
705.14	1620.62
705.584	2078.32
706.027	1040.42
706.471	507.02
706.915	383.52
707.359	334.42
707.803	307.92
708.246	302.02
708.69	300.62
709.134	291.12
709.577	308.42
710.021	309.02
710.465	294.42
710.908	286.82
711.352	293.02
711.795	299.32
712.239	327.12
712.682	366.62
713.126	396.82
713.569	454.82
714.012	357.92
714.456	318.42
714.899	278.82
715.342	263.02
715.786	258.12
716.229	248.22
716.672	247.32
717.115	240.02
717.558	249.22
718.002	241.92
718.445	262.62
718.888	279.32
719.331	277.52
719.774	302.12
720.217	290.42
720.66	274.12
721.103	254.02
721.546	253.12
721.989	239.72
722.432	228.42
722.874	225.32
723.317	221.52
723.76	224.62
724.203	249.92
724.645	307.02
725.088	423.92
725.531	545.42
725.974	623.92
726.416	536.42
726.859	298.92
727.301	231.82
727.744	230.42
728.187	217.12
728.629	227.12
729.071	226.82
729.514	253.32
729.956	263.52
730.399	280.72
730.841	282.62
731.283	266.12
731.726	254.82
732.168	249.52
732.61	257.22
733.053	273.62
733.495	305.82
733.937	337.42
734.379	386.52
734.821	417.12
735.263	517.72
735.705	788.72
736.148	1499.62
736.59	2456.02
737.032	2967.12
737.474	2418.82
737.916	775.72
738.357	418.92
738.799	318.32
739.241	287.42
739.683	269.22
740.125	286.62
740.567	283.72
741.008	302.72
741.45	301.62
741.892	292.62
742.334	335.52
742.775	355.02
743.217	327.52
743.658	260.62
744.1	245.32
744.542	248.42
744.983	295.22
745.425	333.32
745.866	329.42
746.307	276.82
746.749	262.92
747.19	312.12
747.632	425.42
748.073	817.62
748.514	1764.32
748.956	2737.32
749.397	3429.92
749.838	2844.72
750.279	2884.42
750.72	1449.02
751.162	535.72
751.603	311.42
752.044	247.62
752.485	204.92
752.926	203.22
753.367	197.12
753.808	178.92
754.249	183.42
754.69	181.72
755.131	176.32
755.572	171.92
756.013	177.12
756.453	179.82
756.894	174.92
757.335	187.22
757.776	190.72
758.216	185.22
758.657	186.92
759.098	195.82
759.538	217.52
759.979	254.52
760.42	350.82
760.86	661.92
761.301	1709.52
761.741	4194.42
762.182	6264.62
762.622	4423.22
763.063	1260.22
763.503	519.52
763.943	326.82
764.384	320.12
764.824	385.02
765.264	423.32
765.705	298.92
766.145	202.32
766.585	175.42
767.025	180.22
767.465	169.22
767.906	230.12
768.346	303.72
768.786	333.52
769.226	252.32
769.666	297.82
770.106	577.42
770.546	1458.62
770.986	2567.12
771.426	2300.72
771.866	761.22
772.306	312.62
772.745	199.62
773.185	169.52
773.625	161.32
774.065	156.82
774.505	188.42
774.944	289.82
775.384	632.72
775.824	1154.82
776.263	1132.22
776.703	483.52
777.142	216.42
777.582	149.72
778.021	131.42
778.461	136.82
778.9	130.22
779.34	123.82
779.779	117.02
780.219	110.22
780.658	103.52
781.097	108.42
781.537	112.52
781.976	108.62
782.415	105.22
782.855	102.52
783.294	99.92
783.733	98.92
784.172	107.42
784.611	95.92
785.05	101.92
785.489	109.72
785.928	110.62
786.367	110.22
786.806	118.12
787.245	123.92
787.684	132.82
788.123	141.52
788.562	121.12
789.001	123.42
789.44	114.72
789.879	118.52
790.317	110.42
790.756	121.32
791.195	117.72
791.634	141.72
792.072	197.82
792.511	343.02
792.95	951.02
793.388	2053.62
793.827	1887.82
794.265	654.82
794.704	264.62
795.142	181.52
795.581	149.92
796.019	130.32
796.458	126.52
796.896	120.82
797.334	131.32
797.773	153.62
798.211	207.52
798.649	409.62
799.087	970.62
799.526	1515.32
799.964	1910.92
800.402	1962.42
800.84	728.02
801.278	292.62
801.716	180.12
802.154	145.42
802.592	141.72
803.03	131.32
803.468	130.92
803.906	134.82
804.344	144.22
804.782	131.92
805.22	131.52
805.658	124.02
806.096	141.12
806.533	146.32
806.971	165.52
807.409	205.22
807.847	294.22
808.284	615.32
808.722	1741.02
809.16	3166.42
809.597	2937.12
810.035	5182.22
810.472	5643.62
810.91	2021.52
811.347	768.12
811.785	384.72
812.222	239.22
812.66	187.92
813.097	154.92
813.535	136.82
813.972	120.52
814.409	115.62
814.846	103.82
815.284	106.12
815.721	97.12
816.158	109.32
816.595	115.32
817.032	170.72
817.47	186.52
817.907	168.62
818.344	146.62
818.781	112.32
819.218	96.62
819.655	115.52
820.092	184.32
820.529	204.82
820.966	167.42
821.403	130.22
821.839	102.72
822.276	92.72
822.713	115.22
823.15	131.02
823.587	109.72
824.023	137.32
824.46	283.42
824.897	839.32
825.333	1316.12
825.77	558.32
826.206	219.42
826.643	127.02
827.08	92.82
827.516	78.02
827.953	74.02
828.389	81.62
828.825	70.62
829.262	69.72
829.698	58.82
830.135	62.32
830.571	60.62
831.007	56.92
831.443	65.82
831.88	70.02
832.316	62.02
832.752	67.72
833.188	67.22
833.624	66.52
834.06	65.22
834.497	71.62
834.933	69.52
835.369	71.12
835.805	65.62
836.241	78.12
836.677	71.32
837.112	84.42
837.548	96.72
837.984	125.02
838.42	198.82
838.856	459.02
839.292	1437.62
839.727	2239.92
840.163	1029.62
840.599	872.02
841.034	1925.52
841.47	2057.12
841.906	745.62
842.341	319.92
842.777	218.42
843.212	299.32
843.648	298.62
844.083	138.92
844.519	90.32
844.954	70.12
845.39	61.22
845.825	58.12
846.261	54.12
846.696	50.22
847.131	50.32
847.566	57.52
848.002	43.92
848.437	57.62
848.872	57.92
849.307	62.22
849.742	84.02
850.177	172.42
850.613	529.22
851.048	848.42
851.483	372.72
851.918	150.32
852.353	81.52
852.788	59.42
853.223	52.72
853.657	53.32
854.092	45.02
854.527	46.02
854.962	42.52
855.397	43.52
855.832	54.22
856.266	49.52
856.701	39.62
857.136	30.22
857.57	39.02
858.005	40.02
858.44	52.82
858.874	46.52
859.309	53.82
859.743	41.42
860.178	49.62
860.612	41.42
861.047	47.12
861.481	65.72
861.915	67.12
862.35	46.52
862.784	34.02
863.218	36.02
863.653	27.02
864.087	39.42
864.521	54.12
864.955	67.22
865.39	147.22
865.824	165.62
866.258	107.32
866.692	160.92
867.126	162.42
867.56	96.92
867.994	53.82
868.428	36.12
868.862	39.62
869.296	48.72
869.73	51.92
870.164	51.22
870.598	40.02
871.031	43.52
871.465	36.42
871.899	29.22
872.333	19.32
872.766	26.22
873.2	22.02
873.634	32.12
874.067	26.22
874.501	25.52
874.935	31.42
875.368	28.92
875.802	25.32
876.235	23.32
876.669	20.12
877.102	20.62
877.535	24.02
877.969	29.92
878.402	29.12
878.836	13.32
879.269	23.42
879.702	25.02
880.135	21.32
880.569	22.62
881.002	24.72
881.435	20.92
881.868	17.02
882.301	15.92
882.734	18.32
883.167	27.32
883.601	19.72
884.034	19.82
884.467	11.42
884.899	17.82
885.332	21.22
885.765	18.22
886.198	16.42
886.631	17.32
887.064	21.72
887.497	21.12
887.929	24.62
888.362	17.42
888.795	9.42
889.228	20.62
889.66	18.82
890.093	18.52
890.526	17.22
890.958	11.32
891.391	17.32
891.823	20.92
892.256	12.72
892.688	10.52
893.121	16.62
893.553	17.72
893.985	25.42
894.418	18.82
894.85	7.62
895.282	17.62
895.715	23.22
896.147	11.02
896.579	15.62
897.011	13.42
897.444	15.82
897.876	8.92
898.308	13.12
898.74	15.52
899.172	5.82
899.604	23.92
900.036	22.92
900.468	17.32
900.9	14.02
901.332	15.22
901.764	15.22
902.196	25.22
902.628	20.92
903.06	18.42
903.491	26.22
903.923	21.72
904.355	17.62
904.787	26.82
905.218	23.62
905.65	16.52
906.082	11.02
906.513	13.92
906.945	20.42
907.376	12.52
907.808	19.22
908.239	19.42
908.671	16.92
909.102	20.92
909.534	23.52
909.965	39.32
910.397	90.62
910.828	303.12
911.259	461.92
911.691	211.32
912.122	104.72
912.553	52.92
912.984	32.72
913.415	21.32
913.847	17.82
914.278	15.52
914.709	13.42
915.14	20.92
915.571	22.12
916.002	18.42
916.433	18.22
916.864	16.52
917.295	11.62
917.726	14.52
918.157	11.92
918.587	30.02
919.018	21.92
919.449	20.92
919.88	22.02
920.311	26.32
920.741	43.42
921.172	157.02
921.603	142.42
922.033	72.32
922.464	46.02
922.895	23.62
923.325	20.22
923.756	16.12
924.186	11.22
924.617	23.62
925.047	41.92
925.478	49.02
925.908	43.32
926.338	25.62
926.769	12.02
927.199	24.62
927.629	8.22
928.06	15.22
928.49	14.52
928.92	11.02
929.35	13.32
929.78	4.62
930.21	6.62
930.641	7.62
931.071	12.82
931.501	2.52
931.931	9.02
932.361	6.12
932.791	7.42
933.221	10.32
933.651	2.32
934.08	20.22
934.51	35.52
934.94	6.82
935.37	8.62
935.8	12.52
936.229	3.02
936.659	12.62
937.089	7.62
937.519	13.32
937.948	26.22
938.378	10.32
938.807	7.82
939.237	4.62
939.666	11.92
940.096	0.52
940.525	4.12
940.955	-0.58
941.384	6.02
941.814	-2.08
942.243	1.42
942.672	5.42
943.102	-4.08
943.531	2.72
943.96	5.12
944.39	4.92
944.819	-0.88
945.248	-0.48
945.677	-3.48
946.106	6.92
946.535	4.82
946.964	-4.28
947.393	-0.28
947.822	2.32
948.251	-8.58
948.68	0.02
949.109	3.92
949.538	6.62
949.967	1.42
950.396	4.22
950.825	2.52
951.254	1.52
951.682	-3.98
952.111	4.22
952.54	1.52
952.969	-0.28
953.397	-3.48
953.826	4.52
954.254	-2.48
954.683	0.52
955.112	-6.68
955.54	3.22
955.969	-0.98
956.397	-0.18
956.826	-0.18
957.254	-2.38
957.682	8.12
958.111	4.62
958.539	4.92
958.967	0.02
959.396	-1.08
959.824	-1.28
960.252	-0.38
960.68	-11.58
961.109	-1.98
961.537	-3.28
961.965	-3.28
962.393	-1.18
962.821	-1.98
963.249	5.82
963.677	2.62
964.105	2.72
964.533	41.32
964.961	44.42
965.389	22.32
965.817	7.12
966.245	2.62
966.672	-2.08
967.1	-10.08
967.528	-1.78
967.956	-2.28
968.383	3.22
968.811	-5.88
969.239	-0.08
969.666	-5.08
970.094	3.82
970.522	2.42
970.949	2.72
971.377	0.02
971.804	-6.28
972.232	-2.38
972.659	-3.18
973.087	-3.38
973.514	-4.68
973.941	-6.68
974.369	2.32
974.796	0.42
975.223	-3.38
975.651	1.42
976.078	6.12
976.505	-1.28
976.932	6.82
977.359	18.92
977.786	15.92
978.214	3.92
978.641	-2.68
979.068	-1.78
979.495	-13.58
979.922	2.42
980.349	-5.28
980.776	3.42
981.202	-4.48
981.629	4.92
982.056	-1.98
982.483	-4.38
982.91	5.22
983.337	-5.78
983.763	3.72
984.19	-2.08
984.617	-6.18
985.043	-4.58
985.47	-1.98
985.897	-3.38
986.323	-4.88
986.75	8.92
987.176	1.32
987.603	-2.08
988.029	1.42
988.456	-0.28
988.882	0.22
989.308	-2.48
989.735	-5.18
990.161	0.02
990.587	-4.78
991.014	-0.48
991.44	5.62
991.866	-1.38
992.292	-1.68
992.719	-6.78
993.145	6.62
993.571	-3.28
993.997	-9.98
994.423	-1.58
994.849	-0.38
995.275	0.82
995.701	-0.08
996.127	-4.18
996.553	-0.38
996.979	0.82
997.405	-3.48
997.83	-7.08
998.256	-9.28
998.682	-6.08
999.108	-6.78
999.534	2.62
999.959	1.52
1000.385	-5.88
1000.811	5.62
1001.236	-9.38
1001.662	-8.18
1002.087	-11.78
1002.513	0.82
1002.938	3.42
1003.364	-2.58
1003.789	-2.08
1004.215	1.92
1004.64	-0.08
1005.066	1.62
1005.491	-0.68
1005.916	-6.48
1006.342	-5.18
1006.767	-3.98
1007.192	8.62
1007.617	-0.58
1008.042	-6.38
1008.468	-12.38
1008.893	-5.18
1009.318	-6.38
1009.743	2.12
1010.168	8.42
1010.593	-2.28
1011.018	-8.28
1011.443	-1.88
1011.868	-1.48
1012.293	-2.08
1012.718	-7.28
1013.143	-1.88
1013.567	-2.98
1013.992	-6.38
1014.417	-14.38
1014.842	3.92
1015.267	-5.28
1015.691	-3.88
1016.116	8.32
1016.541	-2.98
1016.965	3.32
1017.39	2.02
1017.814	2.42
1018.239	0.12
1018.663	-1.98
1019.088	-12.68
1019.512	-7.48
1019.937	-0.58
1020.361	-7.58
1020.785	-8.88
1021.21	-1.38
1021.634	1.42
1022.058	-2.78
1022.483	7.62
1022.907	-7.08
1023.331	-6.48
1023.755	0.52
1024.179	-3.28
1024.604	-4.28
1025.028	-2.28
1025.452	-1.68
1025.876	-5.28
1026.3	2.62
1026.724	-14.58
1027.148	-9.88
1027.572	-10.08
1027.996	-2.78
1028.42	-1.08
1028.843	-8.98
1029.267	-2.68
1029.691	-3.08
1030.115	-11.98
1030.539	-3.08
1030.962	-6.78
1031.386	-13.38
1031.81	1.42
1032.233	2.82
1032.657	-5.98
1033.08	-6.68
1033.504	2.02
1033.927	-2.18
1034.351	2.02
1034.774	1.02
1035.198	1.92
1035.621	-10.48
1036.045	-6.68
1036.468	-1.08
1036.891	-11.98
1037.315	-8.28
1037.738	-2.18
1038.161	0.72
1038.584	-7.68
1039.008	-4.98
1039.431	1.42
1039.854	-2.18
1040.277	-8.58
1040.7	-14.28
1041.123	1.32
1041.546	-10.98
1041.969	-9.28
1042.392	-6.88
1042.815	-3.78
1043.238	0.22
1043.661	2.62
1044.084	-7.58
1044.507	-4.08
1044.93	-7.08
1045.352	-1.08
1045.775	-0.68
1046.198	-2.18
1046.621	-4.18
1047.043	0.32
1047.466	7.72
1047.889	1.72
1048.311	-0.18
1048.734	1.72
1049.156	-0.38
1049.579	2.52
1050.001	-2.18
1050.424	-1.38
1050.846	-4.28
1051.269	3.92
1051.691	-8.58
1052.113	1.02
1052.536	-5.38
1052.958	-1.78
1053.38	-5.88
1053.802	-10.18
1054.225	1.12
1054.647	-8.28
1055.069	-2.38
1055.491	-0.38
1055.913	-7.68
1056.335	-5.18
1056.757	-1.98
1057.179	-3.78
1057.601	-2.88
1058.023	-1.38
1058.445	-3.98
1058.867	-2.78
1059.289	-5.68
1059.711	-9.98
1060.133	-1.38
1060.555	-8.58
1060.976	-11.68
1061.398	-8.68
1061.82	-8.38
1062.241	-11.78
1062.663	-10.48
1063.085	-4.88
1063.506	-0.48
1063.928	-2.98
1064.35	1.22
1064.771	-7.58
1065.193	-4.68
1065.614	-6.98
1066.035	-7.58
1066.457	-4.18
1066.878	-0.98
1067.3	-6.28
1067.721	-9.38
1068.142	-7.48
1068.564	-5.68
1068.985	-2.68
1069.406	-3.78
1069.827	-6.08
1070.248	0.92
1070.67	-5.38
1071.091	-3.38
1071.512	-6.08
1071.933	-2.58
1072.354	-8.58
1072.775	-10.68
1073.196	-7.48
1073.617	-1.98
1074.038	-5.48
1074.459	-5.28
1074.88	-7.08
1075.3	-0.38
1075.721	-1.68
1076.142	-2.38
1076.563	-0.58
1076.983	-10.48
1077.404	-10.78
1077.825	-9.88
1078.246	1.42
1078.666	-9.78
1079.087	-9.08
1079.507	-8.58
1079.928	0.12
1080.348	-6.08
1080.769	-7.08
1081.189	3.52
1081.61	1.72
1082.03	-8.08
1082.451	-4.58
1082.871	-1.38
1083.291	0.82
1083.711	-10.78
1084.132	-9.18
1084.552	-4.08
1084.972	-0.58
1085.392	-12.38
1085.813	-11.88
1086.233	-4.38
1086.653	-3.78
1087.073	1.12
1087.493	-14.48
1087.913	-8.38
1088.333	-6.28
1088.753	-7.38
1089.173	1.62
1089.593	-8.28
1090.013	-0.88
1090.433	1.52
1090.852	-8.28
1091.272	1.22
1091.692	-7.58
1092.112	-5.28
1092.531	-6.28
1092.951	-8.58
1093.371	0.62
1093.79	4.52
1094.21	-5.08
1094.63	-0.58
1095.049	-6.18
1095.469	0.72
1095.888	-7.18
1096.308	0.92
1096.727	1.52
1097.146	-6.58
1097.566	-3.98
1097.985	0.92
1098.405	-5.98
1098.824	-3.48
1099.243	-3.68
1099.662	-6.98
1100.082	-6.18
1100.501	-2.98
1100.92	-7.08
1101.339	-5.48
1101.758	-4.48
