Data from 20171114-ORNL-Ar_H_NY_Subt18_08-04-34-287.txt Node
Date: Tue Nov 14 08:04:34 EST 2017
User: Ender
Spectrometer: HR+D1039
Trigger mode: 0
Integration Time (sec): 2.730000E-2
Scans to average: 10
Electric dark correction enabled: true
Nonlinearity correction enabled: false
Boxcar width: 0
XAxis mode: Wavelengths
Number of Pixels in Spectrum: 2048
>>>>>Begin Spectral Data<<<<<
187.836	-3.32
188.309	-3.32
188.782	-3.32
189.255	-2.32
189.728	3.58
190.201	2.28
190.674	2.68
191.147	-0.82
191.619	-9.12
192.092	1.98
192.565	5.68
193.038	-3.12
193.511	-0.02
193.984	1.38
194.456	1.98
194.929	2.48
195.402	-3.42
195.874	0.08
196.347	-9.02
196.82	-8.92
197.292	2.48
197.765	-0.52
198.237	-7.62
198.71	-2.82
199.182	-2.32
199.655	-1.62
200.127	4.08
200.6	-0.12
201.072	-2.82
201.544	-8.92
202.017	-5.42
202.489	6.58
202.961	-4.82
203.433	-2.62
203.906	-5.72
204.378	-2.22
204.85	-7.72
205.322	-7.12
205.794	1.68
206.266	-0.22
206.739	-5.02
207.211	2.78
207.683	-9.62
208.155	-6.72
208.627	-4.62
209.099	-3.12
209.57	-9.22
210.042	-8.02
210.514	-8.52
210.986	-3.62
211.458	-13.02
211.93	-7.62
212.402	1.88
212.873	-4.12
213.345	-8.02
213.817	-10.82
214.288	-11.42
214.76	-17.12
215.232	-1.32
215.703	-1.42
216.175	2.48
216.646	-2.52
217.118	-3.22
217.589	-8.92
218.061	-2.02
218.532	-4.32
219.004	-3.02
219.475	-0.72
219.946	-5.82
220.418	-0.92
220.889	-3.32
221.36	-0.32
221.832	-3.62
222.303	-6.52
222.774	-2.72
223.245	-11.72
223.717	-3.82
224.188	-2.62
224.659	-3.22
225.13	-3.02
225.601	-1.22
226.072	-6.32
226.543	-2.22
227.014	-2.22
227.485	-7.52
227.956	-5.52
228.427	-2.52
228.898	-1.82
229.369	2.68
229.839	-1.42
230.31	-9.32
230.781	-2.12
231.252	-4.42
231.722	-1.92
232.193	0.58
232.664	-0.82
233.135	2.98
233.605	5.58
234.076	-2.72
234.546	4.98
235.017	2.78
235.487	-1.42
235.958	2.08
236.428	0.88
236.899	0.08
237.369	1.38
237.84	-0.72
238.31	-0.22
238.78	1.48
239.251	-0.82
239.721	4.28
240.191	5.38
240.662	2.58
241.132	0.68
241.602	0.88
242.072	-4.42
242.542	7.08
243.013	-0.82
243.483	4.08
243.953	-2.22
244.423	-2.92
244.893	-6.42
245.363	8.28
245.833	-1.22
246.303	0.88
246.773	7.28
247.243	6.18
247.712	5.58
248.182	4.98
248.652	12.78
249.122	-2.52
249.592	8.18
250.061	18.18
250.531	34.48
251.001	17.98
251.471	19.18
251.94	22.68
252.41	9.88
252.879	0.58
253.349	10.48
253.818	11.48
254.288	7.68
254.757	3.98
255.227	-4.72
255.696	1.88
256.166	8.28
256.635	2.48
257.105	9.08
257.574	11.08
258.043	13.28
258.513	16.08
258.982	18.08
259.451	8.58
259.92	17.38
260.389	8.18
260.859	18.28
261.328	14.58
261.797	24.88
262.266	14.68
262.735	11.58
263.204	4.98
263.673	5.48
264.142	6.08
264.611	-1.42
265.08	1.48
265.549	-1.22
266.018	5.58
266.487	1.58
266.955	-7.62
267.424	-3.72
267.893	8.58
268.362	1.78
268.83	7.28
269.299	15.58
269.768	10.98
270.236	5.98
270.705	6.08
271.174	8.58
271.642	7.28
272.111	15.38
272.579	17.38
273.048	22.38
273.516	30.48
273.985	30.68
274.453	20.98
274.922	22.28
275.39	8.78
275.858	1.38
276.327	10.68
276.795	15.58
277.263	15.08
277.731	25.48
278.2	57.98
278.668	61.58
279.136	50.48
279.604	25.88
280.072	18.38
280.54	15.98
281.008	10.38
281.477	16.88
281.945	10.88
282.413	11.78
282.881	14.28
283.348	9.38
283.816	14.18
284.284	16.68
284.752	22.08
285.22	12.38
285.688	21.68
286.156	15.58
286.623	37.78
287.091	52.38
287.559	29.88
288.026	17.28
288.494	18.28
288.962	6.88
289.429	7.68
289.897	22.58
290.364	17.18
290.832	15.38
291.3	15.58
291.767	20.18
292.234	17.18
292.702	17.68
293.169	21.18
293.637	19.28
294.104	20.58
294.571	10.38
295.039	13.68
295.506	13.88
295.973	20.08
296.44	14.88
296.908	20.58
297.375	17.98
297.842	21.18
298.309	22.68
298.776	12.38
299.243	18.08
299.71	9.78
300.177	28.98
300.644	21.68
301.111	20.28
301.578	26.18
302.045	22.68
302.512	24.48
302.979	23.58
303.446	21.28
303.913	21.58
304.379	22.18
304.846	26.08
305.313	24.78
305.78	22.28
306.246	27.68
306.713	30.08
307.18	24.58
307.646	31.48
308.113	30.08
308.579	24.98
309.046	29.28
309.512	29.28
309.979	24.18
310.445	27.98
310.912	29.98
311.378	28.68
311.845	34.48
312.311	32.08
312.777	36.38
313.244	34.98
313.71	44.58
314.176	32.28
314.642	32.18
315.109	30.78
315.575	34.38
316.041	42.88
316.507	31.28
316.973	40.58
317.439	31.98
317.905	45.38
318.371	34.18
318.837	31.48
319.303	35.08
319.769	33.68
320.235	37.08
320.701	36.68
321.167	34.28
321.633	30.78
322.099	46.78
322.564	41.78
323.03	46.48
323.496	40.78
323.962	48.18
324.427	38.18
324.893	43.08
325.359	37.78
325.824	35.88
326.29	38.78
326.755	41.48
327.221	43.48
327.686	45.48
328.152	48.88
328.617	42.78
329.083	48.58
329.548	50.88
330.014	43.68
330.479	45.28
330.944	41.88
331.41	43.88
331.875	44.58
332.34	48.38
332.805	38.78
333.271	46.58
333.736	44.18
334.201	48.08
334.666	55.38
335.131	52.28
335.596	44.88
336.061	45.78
336.526	40.98
336.991	47.58
337.456	52.88
337.921	44.28
338.386	43.38
338.851	44.98
339.316	45.18
339.781	45.08
340.246	45.28
340.711	48.98
341.175	49.48
341.64	48.18
342.105	50.28
342.569	52.28
343.034	56.48
343.499	54.38
343.963	51.98
344.428	68.48
344.893	60.68
345.357	58.68
345.822	62.18
346.286	66.78
346.751	67.68
347.215	73.18
347.679	68.98
348.144	98.38
348.608	87.28
349.073	65.28
349.537	75.18
350.001	76.48
350.465	85.78
350.93	74.28
351.394	81.28
351.858	72.58
352.322	88.38
352.786	76.18
353.25	95.98
353.715	110.18
354.179	93.08
354.643	124.48
355.107	119.38
355.571	103.88
356.035	96.68
356.498	114.78
356.962	116.98
357.426	125.48
357.89	113.48
358.354	84.88
358.818	82.88
359.281	73.38
359.745	77.08
360.209	70.08
360.673	72.88
361.136	80.98
361.6	82.18
362.064	75.68
362.527	79.88
362.991	83.38
363.454	70.78
363.918	68.58
364.381	73.38
364.845	80.88
365.308	86.38
365.772	83.48
366.235	87.78
366.698	80.48
367.162	83.68
367.625	81.38
368.088	84.08
368.552	83.98
369.015	86.68
369.478	93.58
369.941	99.48
370.404	91.28
370.867	97.18
371.331	97.88
371.794	108.68
372.257	111.78
372.72	106.38
373.183	110.18
373.646	102.68
374.109	94.48
374.572	98.48
375.035	97.18
375.497	99.58
375.96	101.98
376.423	99.88
376.886	103.38
377.349	102.28
377.811	93.38
378.274	101.98
378.737	103.38
379.199	113.38
379.662	104.48
380.125	113.48
380.587	104.28
381.05	107.28
381.512	116.78
381.975	123.28
382.437	123.38
382.9	113.78
383.362	124.68
383.825	128.38
384.287	139.98
384.75	130.48
385.212	130.98
385.674	131.08
386.136	130.08
386.599	123.48
387.061	120.18
387.523	124.18
387.985	119.48
388.447	139.18
388.91	139.18
389.372	150.28
389.834	138.28
390.296	138.98
390.758	141.78
391.22	150.18
391.682	194.18
392.144	273.68
392.606	207.98
393.068	152.38
393.529	157.08
393.991	143.18
394.453	140.48
394.915	142.08
395.377	176.28
395.838	199.28
396.3	143.08
396.762	135.78
397.224	123.38
397.685	124.48
398.147	123.88
398.608	123.48
399.07	120.28
399.531	123.38
399.993	141.58
400.454	134.38
400.916	133.58
401.377	129.68
401.839	142.08
402.3	139.88
402.762	152.78
403.223	171.08
403.684	155.78
404.145	157.28
404.607	148.78
405.068	152.68
405.529	158.68
405.99	174.78
406.451	170.28
406.913	161.88
407.374	146.78
407.835	150.98
408.296	153.78
408.757	156.28
409.218	174.38
409.679	160.18
410.14	156.48
410.601	162.18
411.062	176.18
411.522	177.58
411.983	179.68
412.444	165.68
412.905	171.28
413.366	172.88
413.826	181.68
414.287	208.98
414.748	243.28
415.208	228.08
415.669	198.48
416.13	200.08
416.59	186.78
417.051	202.28
417.511	196.58
417.972	216.08
418.432	225.58
418.893	269.28
419.353	237.08
419.814	185.68
420.274	173.28
420.734	169.58
421.195	185.18
421.655	179.08
422.115	182.78
422.576	182.28
423.036	188.78
423.496	188.48
423.956	202.18
424.416	214.58
424.876	258.48
425.336	246.28
425.797	245.68
426.257	230.88
426.717	220.48
427.177	218.88
427.637	206.38
428.097	218.28
428.556	227.88
429.016	252.78
429.476	244.78
429.936	253.08
430.396	252.58
430.856	261.48
431.315	292.58
431.775	319.58
432.235	349.18
432.694	332.98
433.154	345.08
433.614	360.18
434.073	306.48
434.533	258.68
434.993	246.18
435.452	260.48
435.912	274.78
436.371	267.88
436.83	263.28
437.29	248.98
437.749	231.18
438.209	231.28
438.668	253.28
439.127	265.28
439.587	243.58
440.046	225.18
440.505	228.68
440.964	246.08
441.424	296.88
441.883	284.28
442.342	247.58
442.801	210.08
443.26	203.88
443.719	204.28
444.178	210.18
444.637	195.08
445.096	206.18
445.555	204.78
446.014	203.48
446.473	209.38
446.932	206.68
447.391	209.68
447.849	209.68
448.308	202.68
448.767	199.68
449.226	217.08
449.685	219.08
450.143	229.88
450.602	232.28
451.061	208.58
451.519	220.68
451.978	210.28
452.436	223.08
452.895	218.98
453.353	234.18
453.812	220.18
454.27	223.78
454.729	226.08
455.187	222.48
455.646	228.68
456.104	231.18
456.562	239.08
457.021	240.18
457.479	243.38
457.937	252.98
458.395	238.68
458.854	225.58
459.312	232.28
459.77	251.68
460.228	229.78
460.686	223.08
461.144	231.48
461.602	229.38
462.06	227.78
462.518	226.98
462.976	236.08
463.434	238.38
463.892	250.28
464.35	258.78
464.808	270.58
465.266	248.78
465.724	251.98
466.181	256.48
466.639	256.98
467.097	269.68
467.555	283.38
468.012	278.98
468.47	280.98
468.928	295.18
469.385	311.98
469.843	323.48
470.3	315.78
470.758	333.88
471.215	354.98
471.673	374.68
472.13	377.78
472.588	388.28
473.045	347.88
473.503	343.98
473.96	365.28
474.417	368.58
474.875	401.48
475.332	443.18
475.789	429.08
476.246	444.58
476.704	449.48
477.161	476.08
477.618	474.18
478.075	514.08
478.532	570.98
478.989	632.48
479.446	737.28
479.903	718.08
480.36	752.68
480.817	808.38
481.274	905.48
481.731	994.48
482.188	1082.38
482.645	1219.38
483.102	1322.88
483.558	1443.78
484.015	1491.58
484.472	1483.68
484.929	1423.38
485.385	1385.48
485.842	1350.18
486.299	1270.38
486.755	1213.08
487.212	1017.68
487.668	866.88
488.125	795.48
488.582	726.38
489.038	701.98
489.494	668.38
489.951	646.48
490.407	623.98
490.864	614.38
491.32	604.08
491.776	590.78
492.233	595.88
492.689	559.08
493.145	558.88
493.602	564.18
494.058	566.68
494.514	580.78
494.97	583.88
495.426	600.98
495.882	577.18
496.338	561.38
496.794	586.98
497.251	578.18
497.707	602.08
498.163	594.58
498.618	599.28
499.074	600.88
499.53	631.38
499.986	635.18
500.442	607.18
500.898	593.88
501.354	574.98
501.809	593.08
502.265	597.88
502.721	619.78
503.177	617.88
503.632	607.98
504.088	616.88
504.543	664.78
504.999	654.18
505.455	614.88
505.91	586.58
506.366	594.38
506.821	587.08
507.277	576.88
507.732	579.38
508.187	579.18
508.643	588.48
509.098	588.68
509.553	609.78
510.009	623.08
510.464	613.38
510.919	647.18
511.375	641.68
511.83	668.88
512.285	672.48
512.74	704.78
513.195	732.78
513.65	719.98
514.105	721.08
514.56	718.18
515.015	740.68
515.47	754.68
515.925	742.88
516.38	734.98
516.835	743.98
517.29	723.98
517.745	724.98
518.2	712.98
518.655	698.78
519.109	700.48
519.564	700.88
520.019	678.58
520.474	674.88
520.928	678.18
521.383	670.28
521.838	661.38
522.292	665.08
522.747	654.58
523.201	653.88
523.656	643.78
524.11	637.68
524.565	642.98
525.019	641.08
525.474	646.38
525.928	645.28
526.382	643.18
526.837	646.18
527.291	652.58
527.745	650.78
528.2	645.28
528.654	641.78
529.108	640.18
529.562	641.48
530.016	632.48
530.47	639.98
530.925	644.08
531.379	648.48
531.833	654.38
532.287	657.78
532.741	664.68
533.195	649.78
533.649	666.28
534.103	670.18
534.556	662.48
535.01	657.78
535.464	660.08
535.918	673.08
536.372	671.88
536.826	667.88
537.279	652.38
537.733	653.08
538.187	665.38
538.64	662.78
539.094	668.48
539.548	673.18
540.001	670.58
540.455	664.98
540.908	662.78
541.362	687.98
541.815	682.28
542.269	689.28
542.722	699.48
543.175	703.58
543.629	720.78
544.082	723.98
544.536	731.08
544.989	716.88
545.442	730.78
545.895	738.88
546.349	723.68
546.802	722.98
547.255	739.28
547.708	741.48
548.161	740.58
548.614	748.08
549.067	757.58
549.52	752.68
549.973	743.68
550.426	750.48
550.879	731.68
551.332	734.18
551.785	730.18
552.238	736.88
552.691	752.58
553.144	762.38
553.596	782.18
554.049	782.78
554.502	823.98
554.955	845.28
555.407	835.98
555.86	834.38
556.313	828.68
556.765	799.58
557.218	799.08
557.67	824.08
558.123	804.68
558.576	808.18
559.028	798.58
559.48	806.08
559.933	793.18
560.385	770.48
560.838	731.28
561.29	715.28
561.742	720.08
562.195	696.08
562.647	693.48
563.099	698.48
563.551	696.98
564.004	716.48
564.456	694.88
564.908	693.98
565.36	674.18
565.812	667.68
566.264	653.78
566.716	656.48
567.168	642.58
567.62	655.58
568.072	634.58
568.524	633.58
568.976	625.68
569.428	606.78
569.88	606.78
570.332	612.98
570.784	619.78
571.235	615.78
571.687	632.68
572.139	629.78
572.59	647.98
573.042	649.68
573.494	642.48
573.945	636.68
574.397	617.08
574.849	629.88
575.3	619.98
575.752	618.28
576.203	606.88
576.655	617.88
577.106	611.78
577.557	605.18
578.009	598.88
578.46	596.78
578.912	594.98
579.363	600.08
579.814	600.58
580.265	599.38
580.717	604.28
581.168	603.28
581.619	609.48
582.07	611.78
582.521	603.88
582.972	595.58
583.423	604.38
583.875	617.88
584.326	630.58
584.777	667.78
585.227	736.58
585.678	819.38
586.129	899.18
586.58	963.78
587.031	1042.18
587.482	1179.18
587.933	1352.48
588.384	1177.78
588.834	870.48
589.285	714.58
589.736	703.48
590.186	695.78
590.637	679.18
591.088	660.58
591.538	661.08
591.989	649.18
592.439	649.78
592.89	641.98
593.34	639.38
593.791	636.18
594.241	636.88
594.692	634.58
595.142	621.58
595.593	619.28
596.043	627.18
596.493	630.88
596.943	647.38
597.394	634.98
597.844	636.78
598.294	638.98
598.744	661.08
599.195	693.08
599.645	719.98
600.095	751.28
600.545	802.28
600.995	862.38
601.445	901.28
601.895	961.78
602.345	1003.58
602.795	999.38
603.245	947.68
603.695	904.08
604.145	852.38
604.594	814.88
605.044	762.58
605.494	704.78
605.944	666.78
606.393	649.78
606.843	631.68
607.293	650.58
607.743	649.68
608.192	658.98
608.642	661.88
609.091	682.38
609.541	683.88
609.99	678.88
610.44	664.48
610.889	623.38
611.339	612.68
611.788	594.08
612.238	621.58
612.687	631.18
613.136	632.98
613.586	648.38
614.035	650.58
614.484	656.98
614.933	663.18
615.383	653.78
615.832	657.38
616.281	639.88
616.73	592.48
617.179	576.38
617.628	561.68
618.077	556.58
618.526	538.38
618.975	540.08
619.424	535.68
619.873	531.28
620.322	540.88
620.771	531.48
621.22	531.58
621.669	518.18
622.118	513.98
622.567	509.98
623.015	503.58
623.464	502.58
623.913	490.68
624.361	478.48
624.81	477.28
625.259	478.38
625.707	480.58
626.156	487.68
626.604	492.88
627.053	487.98
627.501	489.68
627.95	490.48
628.398	495.58
628.847	492.08
629.295	504.98
629.744	503.18
630.192	493.98
630.64	499.28
631.089	499.18
631.537	503.88
631.985	509.58
632.433	520.48
632.881	517.18
633.33	563.68
633.778	549.58
634.226	496.58
634.674	495.38
635.122	508.18
635.57	512.58
636.018	529.98
636.466	506.68
636.914	485.08
637.362	499.08
637.81	503.38
638.258	496.18
638.705	488.38
639.153	522.48
639.601	527.68
640.049	556.08
640.497	580.08
640.944	599.18
641.392	552.78
641.84	525.68
642.287	504.88
642.735	478.78
643.182	482.58
643.63	494.68
644.078	497.28
644.525	505.78
644.973	505.78
645.42	519.78
645.867	534.68
646.315	548.88
646.762	561.88
647.21	593.38
647.657	607.38
648.104	649.38
648.551	659.18
648.999	716.68
649.446	780.58
649.893	855.78
650.34	993.18
650.787	1166.98
651.234	1469.58
651.682	1903.88
652.129	2599.08
652.576	3712.68
653.023	5528.38
653.47	7607.38
653.917	9645.88
654.363	11294.38
654.81	12713.18
655.257	12061.78
655.704	7814.18
656.151	4579.68
656.598	2979.08
657.044	2101.78
657.491	1621.78
657.938	1284.68
658.385	1083.98
658.831	936.88
659.278	835.18
659.724	735.98
660.171	681.28
660.618	630.08
661.064	584.38
661.511	561.58
661.957	553.88
662.404	550.18
662.85	553.58
663.296	539.58
663.743	480.78
664.189	465.98
664.635	456.28
665.082	456.88
665.528	459.58
665.974	441.28
666.42	429.98
666.867	421.58
667.313	414.68
667.759	408.98
668.205	397.58
668.651	408.48
669.097	414.48
669.543	421.78
669.989	403.38
670.435	382.48
670.881	376.38
671.327	382.28
671.773	393.38
672.219	422.58
672.665	451.48
673.11	494.68
673.556	527.58
674.002	564.18
674.448	560.18
674.893	461.78
675.339	395.78
675.785	380.78
676.23	357.18
676.676	333.98
677.122	332.78
677.567	317.08
678.013	309.88
678.458	305.58
678.904	303.98
679.349	293.68
679.794	299.28
680.24	292.08
680.685	293.58
681.131	292.68
681.576	291.68
682.021	304.18
682.466	289.98
682.912	292.78
683.357	296.38
683.802	314.98
684.247	345.78
684.692	381.68
685.137	417.48
685.583	456.78
686.028	482.98
686.473	441.98
686.918	381.38
687.363	358.98
687.807	330.68
688.252	305.28
688.697	302.48
689.142	280.78
689.587	282.08
690.032	276.38
690.477	287.98
690.921	286.18
691.366	322.98
691.811	332.98
692.255	352.28
692.7	384.08
693.145	426.58
693.589	582.58
694.034	933.78
694.478	1294.68
694.923	1490.78
695.367	1961.08
695.812	1022.38
696.256	427.68
696.701	310.48
697.145	289.48
697.59	277.88
698.034	271.88
698.478	276.88
698.922	277.08
699.367	276.88
699.811	283.88
700.255	299.08
700.699	317.28
701.143	354.58
701.588	397.18
702.032	441.28
702.476	430.88
702.92	416.88
703.364	412.28
703.808	519.38
704.252	854.78
704.696	1203.78
705.14	1424.58
705.584	1839.58
706.027	911.88
706.471	447.08
706.915	332.88
707.359	295.98
707.803	263.58
708.246	263.58
708.69	263.88
709.134	259.18
709.577	260.88
710.021	270.18
710.465	261.88
710.908	254.08
711.352	244.48
711.795	260.58
712.239	286.98
712.682	313.28
713.126	345.98
713.569	396.98
714.012	313.38
714.456	277.78
714.899	255.88
715.342	232.68
715.786	221.28
716.229	221.38
716.672	215.88
717.115	206.28
717.558	211.28
718.002	211.88
718.445	219.38
718.888	246.18
719.331	244.28
719.774	263.58
720.217	253.68
720.66	244.18
721.103	224.98
721.546	206.28
721.989	208.18
722.432	195.48
722.874	196.88
723.317	195.98
723.76	200.38
724.203	212.98
724.645	268.48
725.088	362.48
725.531	473.88
725.974	555.08
726.416	460.58
726.859	256.78
727.301	204.88
727.744	200.38
728.187	196.28
728.629	197.88
729.071	202.28
729.514	212.88
729.956	229.68
730.399	235.78
730.841	238.98
731.283	230.08
731.726	225.88
732.168	214.48
732.61	214.88
733.053	240.48
733.495	258.28
733.937	292.78
734.379	325.98
734.821	357.98
735.263	448.78
735.705	673.78
736.148	1281.98
736.59	2140.58
737.032	2621.88
737.474	2145.58
737.916	682.78
738.357	353.58
738.799	276.48
739.241	245.68
739.683	240.68
740.125	248.18
740.567	249.18
741.008	271.28
741.45	265.68
741.892	258.28
742.334	291.78
742.775	297.08
743.217	293.38
743.658	228.68
744.1	212.38
744.542	218.78
744.983	260.78
745.425	288.58
745.866	291.48
746.307	241.58
746.749	235.08
747.19	268.48
747.632	364.98
748.073	705.28
748.514	1515.18
748.956	2403.78
749.397	3002.68
749.838	2499.28
750.279	2562.68
750.72	1288.78
751.162	456.68
751.603	270.98
752.044	214.88
752.485	181.18
752.926	172.38
753.367	160.68
753.808	157.48
754.249	157.58
754.69	152.28
755.131	148.98
755.572	148.78
756.013	153.98
756.453	153.48
756.894	160.68
757.335	159.08
757.776	162.18
758.216	163.68
758.657	164.68
759.098	161.48
759.538	190.98
759.979	217.68
760.42	304.78
760.86	568.98
761.301	1472.88
761.741	3653.88
762.182	5603.78
762.622	3946.98
763.063	1121.48
763.503	446.98
763.943	290.18
764.384	284.38
764.824	340.68
765.264	376.18
765.705	255.88
766.145	168.28
766.585	157.48
767.025	150.48
767.465	153.48
767.906	198.08
768.346	262.28
768.786	284.68
769.226	216.48
769.666	264.78
770.106	504.08
770.546	1262.78
770.986	2238.58
771.426	2066.48
771.866	673.08
772.306	276.38
772.745	170.78
773.185	138.48
773.625	138.48
774.065	131.88
774.505	161.88
774.944	243.08
775.384	545.38
775.824	1041.68
776.263	1022.38
776.703	429.58
777.142	183.28
777.582	131.78
778.021	118.68
778.461	115.58
778.9	117.78
779.34	105.08
779.779	97.28
780.219	85.78
780.658	87.28
781.097	90.58
781.537	95.18
781.976	92.88
782.415	86.58
782.855	87.08
783.294	81.78
783.733	87.48
784.172	95.28
784.611	80.28
785.05	93.58
785.489	91.18
785.928	102.48
786.367	97.68
786.806	101.68
787.245	110.48
787.684	111.08
788.123	119.98
788.562	108.18
789.001	110.38
789.44	104.78
789.879	94.68
790.317	100.78
790.756	103.88
791.195	104.68
791.634	116.08
792.072	171.78
792.511	290.98
792.95	811.08
793.388	1815.58
793.827	1688.08
794.265	564.68
794.704	235.18
795.142	151.88
795.581	119.88
796.019	107.28
796.458	104.88
796.896	97.78
797.334	111.58
797.773	129.18
798.211	183.08
798.649	354.88
799.087	836.38
799.526	1326.58
799.964	1680.88
800.402	1752.08
800.84	652.98
801.278	253.48
801.716	160.08
802.154	126.28
802.592	117.08
803.03	115.18
803.468	108.48
803.906	126.08
804.344	122.18
804.782	112.98
805.22	107.18
805.658	106.88
806.096	119.08
806.533	133.88
806.971	146.78
807.409	179.58
807.847	255.08
808.284	524.98
808.722	1524.68
809.16	2804.48
809.597	2587.98
810.035	4557.58
810.472	5111.38
810.91	1811.28
811.347	668.88
811.785	339.58
812.222	216.88
812.66	164.08
813.097	139.08
813.535	119.88
813.972	108.88
814.409	96.48
814.846	90.68
815.284	88.48
815.721	82.48
816.158	83.28
816.595	93.88
817.032	152.38
817.47	164.18
817.907	146.48
818.344	129.38
818.781	94.68
819.218	84.08
819.655	107.08
820.092	162.78
820.529	178.78
820.966	156.58
821.403	117.48
821.839	85.18
822.276	82.98
822.713	104.68
823.15	112.08
823.587	90.88
824.023	120.48
824.46	242.98
824.897	741.28
825.333	1169.08
825.77	492.38
826.206	195.48
826.643	115.08
827.08	84.58
827.516	69.48
827.953	64.08
828.389	70.48
828.825	57.48
829.262	60.28
829.698	53.78
830.135	55.78
830.571	49.48
831.007	49.88
831.443	56.78
831.88	50.18
832.316	53.98
832.752	43.78
833.188	58.98
833.624	53.98
834.06	55.18
834.497	56.38
834.933	60.18
835.369	62.88
835.805	57.78
836.241	72.48
836.677	64.48
837.112	76.08
837.548	80.38
837.984	110.58
838.42	161.48
838.856	399.98
839.292	1253.68
839.727	2009.58
840.163	907.18
840.599	747.58
841.034	1717.08
841.47	1865.68
841.906	664.98
842.341	279.08
842.777	191.88
843.212	260.98
843.648	266.88
844.083	137.58
844.519	80.78
844.954	64.28
845.39	48.28
845.825	49.88
846.261	48.48
846.696	45.58
847.131	40.78
847.566	48.38
848.002	42.68
848.437	41.98
848.872	54.78
849.307	50.88
849.742	64.68
850.177	141.98
850.613	457.68
851.048	753.78
851.483	320.58
851.918	128.48
852.353	68.78
852.788	51.68
853.223	48.38
853.657	53.28
854.092	45.08
854.527	31.28
854.962	34.58
855.397	37.98
855.832	39.48
856.266	34.68
856.701	35.48
857.136	29.78
857.57	34.68
858.005	36.78
858.44	56.08
858.874	41.38
859.309	45.88
859.743	25.28
860.178	34.28
860.612	31.98
861.047	41.78
861.481	58.58
861.915	59.68
862.35	47.08
862.784	30.58
863.218	38.28
863.653	25.58
864.087	35.38
864.521	47.58
864.955	61.28
865.39	133.88
865.824	144.38
866.258	94.88
866.692	136.18
867.126	155.38
867.56	91.08
867.994	49.28
868.428	25.58
868.862	35.48
869.296	53.18
869.73	47.68
870.164	48.98
870.598	38.58
871.031	31.78
871.465	20.58
871.899	26.18
872.333	15.18
872.766	15.98
873.2	17.68
873.634	21.88
874.067	21.68
874.501	20.08
874.935	27.38
875.368	24.98
875.802	24.68
876.235	22.98
876.669	18.68
877.102	20.28
877.535	21.28
877.969	16.28
878.402	16.58
878.836	19.18
879.269	18.48
879.702	20.28
880.135	19.28
880.569	19.78
881.002	23.98
881.435	20.18
881.868	17.78
882.301	19.88
882.734	12.68
883.167	19.18
883.601	19.88
884.034	18.68
884.467	10.08
884.899	15.48
885.332	15.48
885.765	11.08
886.198	12.28
886.631	14.68
887.064	16.18
887.497	21.28
887.929	27.68
888.362	8.08
888.795	5.68
889.228	13.08
889.66	21.38
890.093	14.48
890.526	15.58
890.958	8.88
891.391	17.98
891.823	19.28
892.256	9.28
892.688	11.58
893.121	9.28
893.553	17.18
893.985	19.98
894.418	21.98
894.85	11.78
895.282	13.08
895.715	12.18
896.147	21.68
896.579	12.68
897.011	4.98
897.444	11.38
897.876	8.98
898.308	15.18
898.74	9.98
899.172	7.78
899.604	18.98
900.036	15.48
900.468	17.68
900.9	7.78
901.332	12.38
901.764	5.48
902.196	11.08
902.628	16.18
903.06	13.38
903.491	24.48
903.923	10.68
904.355	11.78
904.787	15.98
905.218	21.18
905.65	14.18
906.082	5.48
906.513	12.68
906.945	14.78
907.376	9.58
907.808	15.98
908.239	18.28
908.671	15.78
909.102	19.68
909.534	17.98
909.965	35.88
910.397	72.38
910.828	267.88
911.259	412.68
911.691	186.48
912.122	86.78
912.553	46.78
912.984	28.58
913.415	16.58
913.847	19.38
914.278	9.98
914.709	9.48
915.14	17.18
915.571	13.08
916.002	10.38
916.433	18.78
916.864	16.38
917.295	11.98
917.726	17.88
918.157	14.78
918.587	23.58
919.018	11.18
919.449	20.08
919.88	16.28
920.311	24.28
920.741	40.58
921.172	136.28
921.603	130.18
922.033	57.08
922.464	37.28
922.895	13.78
923.325	21.08
923.756	10.28
924.186	14.88
924.617	22.48
925.047	26.68
925.478	39.38
925.908	36.28
926.338	21.58
926.769	12.78
927.199	18.08
927.629	7.38
928.06	18.18
928.49	10.38
928.92	9.48
929.35	7.38
929.78	10.68
930.21	4.98
930.641	6.58
931.071	8.78
931.501	0.68
931.931	5.68
932.361	6.08
932.791	1.78
933.221	5.58
933.651	0.38
934.08	17.68
934.51	27.48
934.94	8.88
935.37	8.38
935.8	5.08
936.229	6.78
936.659	4.98
937.089	-2.82
937.519	13.38
937.948	20.58
938.378	11.88
938.807	8.08
939.237	-3.82
939.666	5.48
940.096	-1.62
940.525	5.48
940.955	-0.22
941.384	-0.02
941.814	-3.72
942.243	-1.92
942.672	0.08
943.102	-5.32
943.531	-0.32
943.96	0.88
944.39	2.68
944.819	-2.02
945.248	-0.42
945.677	5.28
946.106	5.78
946.535	2.78
946.964	5.18
947.393	6.78
947.822	-4.12
948.251	-0.02
948.68	0.58
949.109	3.38
949.538	6.08
949.967	0.68
950.396	-3.72
950.825	-3.62
951.254	-1.62
951.682	-3.62
952.111	3.58
952.54	5.58
952.969	-0.72
953.397	-8.62
953.826	-2.22
954.254	-4.82
954.683	1.08
955.112	-2.22
955.54	-1.42
955.969	2.18
956.397	-2.92
956.826	0.48
957.254	6.88
957.682	-2.02
958.111	0.78
958.539	-1.12
958.967	0.78
959.396	-5.42
959.824	-1.72
960.252	-1.82
960.68	-5.82
961.109	-5.52
961.537	-3.72
961.965	-3.72
962.393	4.58
962.821	-1.82
963.249	0.28
963.677	10.88
964.105	4.48
964.533	41.58
964.961	36.18
965.389	18.18
965.817	3.78
966.245	5.78
966.672	-3.22
967.1	-7.72
967.528	-0.92
967.956	-3.42
968.383	-1.72
968.811	-4.12
969.239	-5.72
969.666	-3.32
970.094	-2.02
970.522	-0.62
970.949	-1.32
971.377	-2.02
971.804	-5.32
972.232	-2.12
972.659	-6.92
973.087	-5.62
973.514	-4.42
973.941	-3.32
974.369	2.08
974.796	-7.62
975.223	3.78
975.651	-1.72
976.078	0.08
976.505	-5.02
976.932	-4.02
977.359	9.98
977.786	18.18
978.214	5.78
978.641	-1.42
979.068	-5.52
979.495	-6.92
979.922	0.58
980.349	-3.32
980.776	-1.12
981.202	1.28
981.629	2.98
982.056	5.68
982.483	-2.92
982.91	0.78
983.337	-6.02
983.763	1.88
984.19	-4.52
984.617	-3.32
985.043	-1.92
985.47	-0.42
985.897	-3.72
986.323	-8.32
986.75	5.78
987.176	-1.82
987.603	-1.12
988.029	0.18
988.456	-4.72
988.882	-0.02
989.308	-9.72
989.735	-6.42
990.161	0.78
990.587	-3.52
991.014	-5.22
991.44	12.38
991.866	-0.92
992.292	-4.52
992.719	-2.32
993.145	-0.22
993.571	-3.42
993.997	-7.02
994.423	-1.42
994.849	-6.32
995.275	6.48
995.701	2.68
996.127	-4.92
996.553	0.38
996.979	-2.92
997.405	-4.92
997.83	-6.92
998.256	-1.42
998.682	-9.12
999.108	-6.62
999.534	-6.32
999.959	-0.92
1000.385	-5.02
1000.811	4.48
1001.236	-5.32
1001.662	-9.42
1002.087	-9.22
1002.513	-2.62
1002.938	2.98
1003.364	-1.92
1003.789	-5.82
1004.215	5.38
1004.64	1.08
1005.066	4.18
1005.491	-2.72
1005.916	-7.12
1006.342	-5.92
1006.767	-7.62
1007.192	2.58
1007.617	-8.42
1008.042	-5.82
1008.468	-7.42
1008.893	-6.52
1009.318	-13.42
1009.743	-0.32
1010.168	-2.82
1010.593	-1.32
1011.018	-12.42
1011.443	-2.32
1011.868	-0.92
1012.293	-1.92
1012.718	-9.22
1013.143	-6.02
1013.567	-2.42
1013.992	-1.02
1014.417	-9.82
1014.842	-1.52
1015.267	-1.82
1015.691	-8.32
1016.116	2.98
1016.541	-3.92
1016.965	1.48
1017.39	0.68
1017.814	-1.92
1018.239	-1.92
1018.663	-11.42
1019.088	-4.82
1019.512	-8.52
1019.937	-6.42
1020.361	-8.62
1020.785	-15.42
1021.21	-5.62
1021.634	-3.42
1022.058	3.18
1022.483	3.98
1022.907	0.88
1023.331	-4.82
1023.755	-1.82
1024.179	-6.82
1024.604	-7.42
1025.028	-5.72
1025.452	-6.62
1025.876	-3.32
1026.3	0.18
1026.724	-16.92
1027.148	-5.82
1027.572	-5.22
1027.996	-3.62
1028.42	2.48
1028.843	-0.72
1029.267	-8.02
1029.691	-5.92
1030.115	-12.42
1030.539	-7.02
1030.962	-0.72
1031.386	-7.52
1031.81	-6.22
1032.233	-4.72
1032.657	-3.82
1033.08	0.48
1033.504	-4.72
1033.927	-3.72
1034.351	-0.82
1034.774	-9.02
1035.198	2.78
1035.621	-5.62
1036.045	-4.42
1036.468	2.98
1036.891	-4.82
1037.315	-6.52
1037.738	-10.02
1038.161	0.08
1038.584	-7.22
1039.008	-2.62
1039.431	-8.52
1039.854	-3.32
1040.277	-6.42
1040.7	-11.82
1041.123	-3.52
1041.546	-4.72
1041.969	-4.72
1042.392	-9.22
1042.815	-1.32
1043.238	2.68
1043.661	-1.42
1044.084	-10.22
1044.507	-6.52
1044.93	-9.42
1045.352	-13.22
1045.775	-3.12
1046.198	-4.12
1046.621	-1.42
1047.043	1.28
1047.466	6.38
1047.889	-8.12
1048.311	-2.02
1048.734	-3.72
1049.156	-3.72
1049.579	-1.52
1050.001	-5.92
1050.424	-4.52
1050.846	-3.62
1051.269	-4.02
1051.691	-5.02
1052.113	-9.12
1052.536	-0.82
1052.958	-5.02
1053.38	-1.32
1053.802	-10.22
1054.225	4.78
1054.647	-14.62
1055.069	-5.22
1055.491	-1.62
1055.913	-10.02
1056.335	-2.62
1056.757	-6.92
1057.179	-3.82
1057.601	-9.02
1058.023	-6.82
1058.445	-6.72
1058.867	-10.02
1059.289	-10.32
1059.711	-8.52
1060.133	-3.52
1060.555	-9.42
1060.976	-5.12
1061.398	-7.52
1061.82	-6.12
1062.241	-4.22
1062.663	-8.12
1063.085	-7.02
1063.506	-4.82
1063.928	-3.02
1064.35	-1.82
1064.771	-7.42
1065.193	-2.72
1065.614	-11.42
1066.035	-3.62
1066.457	-3.42
1066.878	-0.02
1067.3	-3.92
1067.721	-2.72
1068.142	-6.92
1068.564	0.58
1068.985	-7.42
1069.406	-8.12
1069.827	-7.12
1070.248	-3.82
1070.67	-12.62
1071.091	-11.02
1071.512	-4.12
1071.933	-8.62
1072.354	-6.82
1072.775	-8.82
1073.196	-4.22
1073.617	0.28
1074.038	-6.42
1074.459	-5.82
1074.88	-10.02
1075.3	-4.02
1075.721	-5.32
1076.142	-0.12
1076.563	-2.32
1076.983	-10.02
1077.404	-6.72
1077.825	-15.02
1078.246	-7.42
1078.666	-9.72
1079.087	-7.42
1079.507	-4.32
1079.928	-2.22
1080.348	-5.12
1080.769	-4.92
1081.189	-1.22
1081.61	-3.12
1082.03	-14.72
1082.451	-8.22
1082.871	-6.92
1083.291	-14.32
1083.711	-6.92
1084.132	-1.52
1084.552	-8.42
1084.972	-0.02
1085.392	-8.12
1085.813	-10.02
1086.233	-6.62
1086.653	-8.62
1087.073	0.18
1087.493	-2.82
1087.913	-4.12
1088.333	-9.02
1088.753	-11.12
1089.173	-2.22
1089.593	-9.22
1090.013	3.58
1090.433	2.48
1090.852	-4.32
1091.272	6.28
1091.692	-3.92
1092.112	-3.22
1092.531	-14.42
1092.951	-9.82
1093.371	-3.72
1093.79	-0.22
1094.21	-8.02
1094.63	-2.82
1095.049	-9.92
1095.469	-0.82
1095.888	-3.02
1096.308	4.28
1096.727	5.88
1097.146	-8.72
1097.566	-0.42
1097.985	-8.52
1098.405	-2.82
1098.824	-5.02
1099.243	-7.92
1099.662	-7.32
1100.082	0.68
1100.501	-1.62
1100.92	-8.82
1101.339	-3.12
1101.758	-7.62
