Data from 20171114-ORNL-Ar_H_NY_Subt18_08-05-52-617.txt Node
Date: Tue Nov 14 08:05:52 EST 2017
User: Ender
Spectrometer: HR+D1039
Trigger mode: 0
Integration Time (sec): 2.730000E-2
Scans to average: 10
Electric dark correction enabled: true
Nonlinearity correction enabled: false
Boxcar width: 0
XAxis mode: Wavelengths
Number of Pixels in Spectrum: 2048
>>>>>Begin Spectral Data<<<<<
187.836	-5.61
188.309	-5.61
188.782	-5.61
189.255	-2.71
189.728	-4.11
190.201	7.79
190.674	-0.71
191.147	0.69
191.619	-7.21
192.092	4.19
192.565	6.99
193.038	2.29
193.511	-1.31
193.984	0.99
194.456	0.69
194.929	0.49
195.402	-0.91
195.874	-1.51
196.347	3.69
196.82	-3.11
197.292	5.89
197.765	-2.91
198.237	-5.51
198.71	2.19
199.182	-3.71
199.655	8.59
200.127	-0.81
200.6	-4.91
201.072	-6.41
201.544	-4.31
202.017	2.79
202.489	3.19
202.961	-3.91
203.433	-5.71
203.906	-8.11
204.378	-5.01
204.85	-5.01
205.322	-10.01
205.794	-1.11
206.266	-9.01
206.739	-6.21
207.211	1.09
207.683	-7.61
208.155	-6.61
208.627	-0.61
209.099	-3.71
209.57	-10.81
210.042	-2.71
210.514	-4.31
210.986	1.69
211.458	-3.41
211.93	-0.91
212.402	-2.01
212.873	-7.11
213.345	-3.61
213.817	-9.11
214.288	1.89
214.76	-11.51
215.232	-0.41
215.703	-2.21
216.175	-4.71
216.646	-10.21
217.118	-6.11
217.589	-6.91
218.061	0.59
218.532	-2.71
219.004	-0.51
219.475	-3.51
219.946	2.89
220.418	-4.01
220.889	1.89
221.36	2.39
221.832	0.99
222.303	-10.61
222.774	3.09
223.245	-11.01
223.717	-0.21
224.188	-2.51
224.659	-5.51
225.13	0.09
225.601	-4.01
226.072	2.09
226.543	-3.51
227.014	4.89
227.485	0.59
227.956	-4.11
228.427	-6.51
228.898	7.39
229.369	1.99
229.839	-3.71
230.31	-1.11
230.781	1.49
231.252	0.09
231.722	-1.81
232.193	-3.81
232.664	1.39
233.135	-1.31
233.605	1.69
234.076	-1.91
234.546	1.69
235.017	-1.01
235.487	-0.61
235.958	-6.11
236.428	-3.51
236.899	7.59
237.369	5.19
237.84	3.39
238.31	2.79
238.78	5.29
239.251	2.39
239.721	3.79
240.191	-1.51
240.662	0.29
241.132	1.29
241.602	1.99
242.072	6.99
242.542	5.19
243.013	-0.11
243.483	2.19
243.953	8.59
244.423	-12.01
244.893	5.39
245.363	-1.21
245.833	0.99
246.303	0.09
246.773	7.19
247.243	3.49
247.712	5.29
248.182	3.09
248.652	10.79
249.122	1.09
249.592	4.49
250.061	14.79
250.531	23.69
251.001	12.29
251.471	17.79
251.94	16.09
252.41	12.99
252.879	1.99
253.349	16.79
253.818	11.39
254.288	9.09
254.757	4.89
255.227	5.99
255.696	2.49
256.166	4.39
256.635	9.69
257.105	7.09
257.574	7.29
258.043	5.39
258.513	11.59
258.982	13.19
259.451	13.99
259.92	15.19
260.389	6.99
260.859	19.49
261.328	9.09
261.797	22.99
262.266	11.49
262.735	12.19
263.204	4.49
263.673	3.29
264.142	0.19
264.611	3.49
265.08	4.79
265.549	-0.51
266.018	2.49
266.487	-2.21
266.955	6.69
267.424	3.29
267.893	3.89
268.362	-0.41
268.83	5.39
269.299	10.59
269.768	5.09
270.236	11.49
270.705	3.89
271.174	4.29
271.642	9.59
272.111	13.49
272.579	23.39
273.048	26.19
273.516	31.79
273.985	26.29
274.453	24.29
274.922	18.89
275.39	19.59
275.858	1.29
276.327	15.69
276.795	24.49
277.263	9.79
277.731	27.39
278.2	57.49
278.668	66.59
279.136	48.89
279.604	24.29
280.072	10.69
280.54	12.19
281.008	9.39
281.477	9.79
281.945	13.79
282.413	12.79
282.881	16.79
283.348	9.09
283.816	17.79
284.284	14.99
284.752	20.59
285.22	16.89
285.688	14.69
286.156	20.09
286.623	50.69
287.091	57.59
287.559	29.69
288.026	20.59
288.494	16.99
288.962	8.29
289.429	14.69
289.897	24.69
290.364	16.09
290.832	19.69
291.3	15.39
291.767	15.79
292.234	17.59
292.702	20.39
293.169	19.29
293.637	20.79
294.104	16.29
294.571	15.69
295.039	15.19
295.506	13.99
295.973	13.09
296.44	23.09
296.908	20.39
297.375	20.49
297.842	19.59
298.309	22.39
298.776	13.69
299.243	20.29
299.71	17.79
300.177	26.39
300.644	27.69
301.111	21.29
301.578	23.49
302.045	20.79
302.512	25.39
302.979	21.09
303.446	23.39
303.913	18.99
304.379	17.29
304.846	28.19
305.313	24.59
305.78	29.99
306.246	27.09
306.713	26.29
307.18	25.59
307.646	32.09
308.113	34.89
308.579	27.99
309.046	26.29
309.512	29.69
309.979	18.69
310.445	31.59
310.912	33.89
311.378	31.49
311.845	31.89
312.311	36.09
312.777	30.09
313.244	27.49
313.71	35.49
314.176	33.89
314.642	32.99
315.109	35.09
315.575	38.79
316.041	43.99
316.507	39.89
316.973	40.39
317.439	34.99
317.905	34.69
318.371	41.59
318.837	34.29
319.303	33.19
319.769	34.69
320.235	38.99
320.701	34.79
321.167	40.39
321.633	32.79
322.099	37.99
322.564	47.09
323.03	44.19
323.496	41.99
323.962	42.79
324.427	36.59
324.893	43.29
325.359	41.39
325.824	35.69
326.29	32.79
326.755	35.69
327.221	36.89
327.686	43.29
328.152	46.79
328.617	39.89
329.083	51.09
329.548	55.29
330.014	47.09
330.479	34.29
330.944	46.99
331.41	43.09
331.875	50.49
332.34	45.89
332.805	46.19
333.271	46.79
333.736	45.89
334.201	55.79
334.666	52.19
335.131	52.09
335.596	47.59
336.061	55.19
336.526	44.29
336.991	52.19
337.456	61.49
337.921	51.39
338.386	45.19
338.851	47.79
339.316	45.79
339.781	42.89
340.246	50.49
340.711	53.79
341.175	55.19
341.64	45.69
342.105	59.49
342.569	53.39
343.034	63.89
343.499	60.39
343.963	51.59
344.428	67.39
344.893	60.59
345.357	62.69
345.822	62.89
346.286	60.59
346.751	75.39
347.215	68.49
347.679	75.09
348.144	99.39
348.608	79.69
349.073	71.09
349.537	72.99
350.001	80.89
350.465	86.09
350.93	82.19
351.394	79.49
351.858	71.29
352.322	87.09
352.786	80.49
353.25	103.99
353.715	112.39
354.179	98.79
354.643	124.79
355.107	132.89
355.571	111.79
356.035	107.29
356.498	127.79
356.962	129.59
357.426	133.79
357.89	124.39
358.354	85.59
358.818	83.19
359.281	81.49
359.745	76.19
360.209	82.19
360.673	75.59
361.136	80.69
361.6	80.19
362.064	85.69
362.527	86.79
362.991	95.89
363.454	79.09
363.918	81.99
364.381	78.79
364.845	82.49
365.308	86.09
365.772	86.99
366.235	88.59
366.698	83.69
367.162	89.29
367.625	87.79
368.088	96.49
368.552	87.79
369.015	89.19
369.478	99.49
369.941	100.69
370.404	95.69
370.867	108.29
371.331	112.89
371.794	113.79
372.257	101.99
372.72	120.69
373.183	115.69
373.646	104.69
374.109	110.19
374.572	108.99
375.035	108.79
375.497	115.79
375.96	112.29
376.423	102.39
376.886	115.59
377.349	111.59
377.811	101.59
378.274	102.49
378.737	106.29
379.199	111.99
379.662	112.29
380.125	113.39
380.587	120.49
381.05	122.29
381.512	130.99
381.975	138.89
382.437	130.09
382.9	126.09
383.362	135.99
383.825	142.99
384.287	147.49
384.75	142.09
385.212	134.39
385.674	139.39
386.136	133.29
386.599	125.49
387.061	125.69
387.523	128.89
387.985	139.39
388.447	141.19
388.91	139.79
389.372	155.69
389.834	159.79
390.296	140.99
390.758	152.79
391.22	167.99
391.682	209.59
392.144	304.99
392.606	232.59
393.068	168.49
393.529	166.19
393.991	153.99
394.453	150.49
394.915	159.09
395.377	194.69
395.838	209.99
396.3	158.99
396.762	146.99
397.224	139.59
397.685	128.79
398.147	134.29
398.608	127.89
399.07	131.79
399.531	134.19
399.993	140.39
400.454	150.79
400.916	145.19
401.377	147.39
401.839	148.39
402.3	153.49
402.762	160.79
403.223	178.09
403.684	170.49
404.145	154.49
404.607	162.49
405.068	165.19
405.529	168.79
405.99	187.39
406.451	185.29
406.913	167.09
407.374	163.09
407.835	158.89
408.296	162.89
408.757	178.69
409.218	184.89
409.679	182.09
410.14	175.49
410.601	172.69
411.062	182.39
411.522	193.29
411.983	188.09
412.444	172.59
412.905	186.39
413.366	186.99
413.826	193.59
414.287	215.59
414.748	261.49
415.208	249.79
415.669	214.89
416.13	205.89
416.59	200.29
417.051	206.89
417.511	212.49
417.972	231.39
418.432	232.49
418.893	280.79
419.353	239.99
419.814	203.09
420.274	187.89
420.734	175.19
421.195	199.29
421.655	201.69
422.115	185.99
422.576	189.89
423.036	198.19
423.496	195.79
423.956	210.59
424.416	225.49
424.876	269.99
425.336	259.49
425.797	256.19
426.257	259.99
426.717	244.49
427.177	234.19
427.637	225.89
428.097	233.69
428.556	246.69
429.016	269.89
429.476	261.29
429.936	272.99
430.396	279.89
430.856	294.09
431.315	319.89
431.775	351.39
432.235	383.59
432.694	349.69
433.154	358.79
433.614	394.19
434.073	339.59
434.533	282.89
434.993	276.29
435.452	285.29
435.912	288.99
436.371	289.19
436.83	285.29
437.29	265.59
437.749	248.59
438.209	248.19
438.668	273.09
439.127	285.99
439.587	263.49
440.046	253.39
440.505	258.29
440.964	278.29
441.424	321.99
441.883	311.99
442.342	254.59
442.801	224.99
443.26	222.69
443.719	227.99
444.178	216.29
444.637	214.69
445.096	216.19
445.555	220.59
446.014	215.49
446.473	221.49
446.932	241.69
447.391	224.99
447.849	227.49
448.308	213.89
448.767	219.69
449.226	236.79
449.685	237.29
450.143	253.59
450.602	236.99
451.061	220.39
451.519	226.59
451.978	231.49
452.436	243.79
452.895	236.59
453.353	253.59
453.812	242.89
454.27	237.49
454.729	238.29
455.187	242.09
455.646	248.59
456.104	241.79
456.562	257.79
457.021	269.09
457.479	257.49
457.937	267.99
458.395	273.39
458.854	246.59
459.312	260.69
459.77	274.59
460.228	254.29
460.686	240.29
461.144	250.59
461.602	243.99
462.06	242.69
462.518	248.49
462.976	251.69
463.434	254.89
463.892	260.79
464.35	282.89
464.808	285.79
465.266	265.69
465.724	268.19
466.181	264.69
466.639	269.09
467.097	281.29
467.555	304.69
468.012	302.49
468.47	313.69
468.928	330.39
469.385	341.09
469.843	346.79
470.3	348.79
470.758	358.39
471.215	392.19
471.673	407.89
472.13	401.19
472.588	419.09
473.045	366.39
473.503	378.69
473.96	396.59
474.417	403.29
474.875	432.79
475.332	469.59
475.789	457.49
476.246	462.59
476.704	485.39
477.161	504.59
477.618	525.89
478.075	564.09
478.532	614.69
478.989	701.19
479.446	807.99
479.903	776.29
480.36	808.29
480.817	864.29
481.274	968.79
481.731	1081.89
482.188	1166.89
482.645	1306.39
483.102	1418.19
483.558	1558.09
484.015	1603.69
484.472	1580.29
484.929	1530.09
485.385	1483.39
485.842	1440.89
486.299	1377.29
486.755	1299.99
487.212	1098.49
487.668	936.49
488.125	847.59
488.582	784.59
489.038	749.69
489.494	724.19
489.951	692.89
490.407	668.39
490.864	643.79
491.32	639.09
491.776	642.69
492.233	641.79
492.689	612.99
493.145	605.59
493.602	600.39
494.058	607.69
494.514	616.69
494.97	647.79
495.426	647.19
495.882	629.89
496.338	611.29
496.794	622.39
497.251	625.19
497.707	643.49
498.163	643.49
498.618	642.19
499.074	652.79
499.53	687.89
499.986	683.29
500.442	656.79
500.898	633.29
501.354	627.59
501.809	632.09
502.265	648.69
502.721	663.79
503.177	677.69
503.632	672.29
504.088	677.69
504.543	706.79
504.999	707.09
505.455	649.69
505.91	630.39
506.366	639.19
506.821	619.19
507.277	625.79
507.732	621.59
508.187	616.59
508.643	635.09
509.098	638.19
509.553	647.49
510.009	656.79
510.464	671.49
510.919	680.29
511.375	691.79
511.83	702.59
512.285	721.39
512.74	758.29
513.195	785.29
513.65	775.09
514.105	767.09
514.56	773.99
515.015	791.79
515.47	802.89
515.925	784.59
516.38	790.49
516.835	795.69
517.29	780.39
517.745	770.99
518.2	751.19
518.655	741.69
519.109	734.19
519.564	742.29
520.019	727.89
520.474	734.99
520.928	724.09
521.383	723.69
521.838	703.59
522.292	715.99
522.747	701.39
523.201	695.89
523.656	697.59
524.11	687.39
524.565	684.79
525.019	683.09
525.474	700.39
525.928	696.69
526.382	692.39
526.837	692.59
527.291	702.49
527.745	690.29
528.2	686.59
528.654	693.29
529.108	690.09
529.562	681.29
530.016	684.09
530.47	686.09
530.925	694.29
531.379	704.09
531.833	700.79
532.287	702.19
532.741	703.79
533.195	708.39
533.649	725.19
534.103	721.19
534.556	708.69
535.01	702.59
535.464	709.29
535.918	720.49
536.372	721.19
536.826	718.99
537.279	705.89
537.733	706.19
538.187	712.09
538.64	709.09
539.094	718.69
539.548	726.79
540.001	723.19
540.455	721.09
540.908	731.39
541.362	724.79
541.815	732.99
542.269	756.79
542.722	756.49
543.175	766.59
543.629	757.69
544.082	788.99
544.536	784.79
544.989	783.49
545.442	784.89
545.895	787.99
546.349	784.39
546.802	796.69
547.255	798.29
547.708	798.79
548.161	805.69
548.614	819.29
549.067	828.29
549.52	817.59
549.973	804.19
550.426	794.89
550.879	783.29
551.332	800.79
551.785	794.09
552.238	799.59
552.691	821.09
553.144	828.89
553.596	833.99
554.049	855.49
554.502	896.89
554.955	911.39
555.407	901.29
555.86	896.99
556.313	885.79
556.765	882.79
557.218	875.29
557.67	876.59
558.123	869.39
558.576	872.69
559.028	875.69
559.48	881.59
559.933	854.79
560.385	833.39
560.838	796.89
561.29	781.99
561.742	765.29
562.195	761.89
562.647	763.59
563.099	765.19
563.551	765.39
564.004	783.89
564.456	765.79
564.908	761.19
565.36	743.19
565.812	725.29
566.264	726.99
566.716	724.09
567.168	718.19
567.62	714.59
568.072	702.19
568.524	690.79
568.976	685.09
569.428	665.79
569.88	660.89
570.332	671.19
570.784	672.69
571.235	677.69
571.687	698.09
572.139	691.09
572.59	702.99
573.042	707.69
573.494	713.79
573.945	699.19
574.397	681.79
574.849	690.89
575.3	685.69
575.752	680.79
576.203	672.99
576.655	681.89
577.106	666.69
577.557	660.29
578.009	660.39
578.46	660.69
578.912	655.49
579.363	668.49
579.814	663.09
580.265	657.89
580.717	661.29
581.168	657.19
581.619	673.19
582.07	678.09
582.521	669.29
582.972	658.89
583.423	670.39
583.875	677.09
584.326	698.89
584.777	737.09
585.227	817.39
585.678	905.29
586.129	992.79
586.58	1073.09
587.031	1154.99
587.482	1329.59
587.933	1517.59
588.384	1311.19
588.834	971.39
589.285	797.99
589.736	777.29
590.186	759.79
590.637	747.59
591.088	732.89
591.538	733.89
591.989	720.99
592.439	715.79
592.89	713.19
593.34	699.19
593.791	695.79
594.241	692.99
594.692	700.09
595.142	697.89
595.593	688.49
596.043	700.89
596.493	708.89
596.943	698.69
597.394	716.49
597.844	697.09
598.294	713.69
598.744	746.59
599.195	768.89
599.645	805.79
600.095	842.09
600.545	908.59
600.995	955.79
601.445	1012.19
601.895	1065.49
602.345	1114.39
602.795	1087.89
603.245	1054.79
603.695	997.39
604.145	940.79
604.594	902.89
605.044	837.89
605.494	780.59
605.944	730.99
606.393	722.89
606.843	715.69
607.293	724.49
607.743	726.79
608.192	729.59
608.642	755.49
609.091	748.49
609.541	750.89
609.99	755.09
610.44	760.49
610.889	710.99
611.339	679.79
611.788	673.69
612.238	692.09
612.687	708.59
613.136	712.39
613.586	724.29
614.035	724.19
614.484	752.39
614.933	749.19
615.383	745.69
615.832	731.49
616.281	712.99
616.73	675.69
617.179	646.99
617.628	648.19
618.077	617.39
618.526	611.69
618.975	599.89
619.424	596.79
619.873	603.39
620.322	601.39
620.771	597.79
621.22	594.29
621.669	583.49
622.118	579.99
622.567	565.09
623.015	554.99
623.464	558.69
623.913	549.89
624.361	542.89
624.81	548.39
625.259	540.89
625.707	555.59
626.156	537.19
626.604	551.99
627.053	551.49
627.501	547.79
627.95	558.09
628.398	563.89
628.847	564.99
629.295	549.59
629.744	568.29
630.192	545.49
630.64	557.59
631.089	549.99
631.537	560.29
631.985	573.29
632.433	583.39
632.881	596.99
633.33	646.19
633.778	629.99
634.226	559.09
634.674	560.29
635.122	561.49
635.57	589.09
636.018	615.59
636.466	570.39
636.914	543.29
637.362	561.09
637.81	567.49
638.258	560.19
638.705	566.39
639.153	585.29
639.601	599.29
640.049	623.39
640.497	658.09
640.944	678.39
641.392	631.39
641.84	602.69
642.287	575.29
642.735	553.99
643.182	564.69
643.63	556.39
644.078	567.59
644.525	570.19
644.973	581.39
645.42	589.09
645.867	611.59
646.315	625.59
646.762	651.59
647.21	673.99
647.657	703.19
648.104	736.29
648.551	762.89
648.999	819.09
649.446	897.29
649.893	985.69
650.34	1130.39
650.787	1373.39
651.234	1698.19
651.682	2199.39
652.129	3046.09
652.576	4392.19
653.023	6449.49
653.47	8868.09
653.917	11132.09
654.363	12912.29
654.81	14276.29
655.257	13598.69
655.704	8893.09
656.151	5224.29
656.598	3388.59
657.044	2397.89
657.491	1840.89
657.938	1463.19
658.385	1226.99
658.831	1065.19
659.278	944.89
659.724	831.19
660.171	761.59
660.618	705.89
661.064	670.39
661.511	648.29
661.957	637.19
662.404	625.49
662.85	625.09
663.296	613.29
663.743	540.59
664.189	520.59
664.635	519.69
665.082	510.79
665.528	513.79
665.974	510.29
666.42	507.29
666.867	496.59
667.313	478.69
667.759	471.09
668.205	457.29
668.651	474.99
669.097	471.39
669.543	488.59
669.989	457.89
670.435	439.49
670.881	441.89
671.327	437.39
671.773	455.49
672.219	469.09
672.665	526.79
673.11	569.19
673.556	608.29
674.002	648.49
674.448	631.09
674.893	521.29
675.339	454.39
675.785	418.29
676.23	404.79
676.676	376.99
677.122	371.49
677.567	360.69
678.013	356.59
678.458	345.19
678.904	343.89
679.349	331.79
679.794	348.19
680.24	333.09
680.685	334.99
681.131	336.59
681.576	337.29
682.021	341.89
682.466	327.79
682.912	330.79
683.357	345.99
683.802	372.59
684.247	396.49
684.692	439.39
685.137	474.19
685.583	519.89
686.028	543.29
686.473	503.69
686.918	433.79
687.363	399.49
687.807	384.69
688.252	348.89
688.697	351.89
689.142	326.79
689.587	321.39
690.032	310.29
690.477	325.89
690.921	340.39
691.366	368.19
691.811	393.19
692.255	421.19
692.7	447.79
693.145	479.59
693.589	668.69
694.034	1074.59
694.478	1466.79
694.923	1683.49
695.367	2186.39
695.812	1161.29
696.256	478.59
696.701	356.59
697.145	328.49
697.59	314.59
698.034	304.69
698.478	318.49
698.922	315.19
699.367	315.09
699.811	328.79
700.255	337.49
700.699	370.19
701.143	403.09
701.588	461.19
702.032	491.59
702.476	486.09
702.92	470.39
703.364	465.39
703.808	605.89
704.252	985.49
704.696	1375.29
705.14	1598.19
705.584	2065.29
706.027	1032.19
706.471	503.39
706.915	385.89
707.359	339.39
707.803	305.49
708.246	294.19
708.69	299.59
709.134	304.69
709.577	297.19
710.021	308.99
710.465	294.29
710.908	289.49
711.352	280.49
711.795	303.89
712.239	329.49
712.682	376.19
713.126	401.39
713.569	446.09
714.012	354.19
714.456	312.89
714.899	292.99
715.342	264.89
715.786	249.09
716.229	242.49
716.672	253.59
717.115	231.19
717.558	239.79
718.002	247.69
718.445	249.79
718.888	269.89
719.331	280.29
719.774	304.09
720.217	292.19
720.66	273.79
721.103	255.79
721.546	240.09
721.989	244.69
722.432	231.69
722.874	226.89
723.317	223.99
723.76	221.99
724.203	243.09
724.645	304.69
725.088	410.89
725.531	546.39
725.974	621.19
726.416	528.89
726.859	293.69
727.301	237.99
727.744	227.69
728.187	221.49
728.629	232.19
729.071	234.09
729.514	254.39
729.956	254.69
730.399	274.09
730.841	275.89
731.283	255.69
731.726	255.39
732.168	244.69
732.61	252.29
733.053	271.19
733.495	302.69
733.937	340.29
734.379	385.29
734.821	414.59
735.263	515.49
735.705	789.69
736.148	1470.19
736.59	2444.49
737.032	2937.39
737.474	2392.59
737.916	770.59
738.357	410.39
738.799	310.99
739.241	287.89
739.683	271.59
740.125	276.49
740.567	286.69
741.008	302.29
741.45	302.39
741.892	303.29
742.334	330.29
742.775	343.39
743.217	327.89
743.658	261.69
744.1	241.69
744.542	247.59
744.983	290.49
745.425	326.69
745.866	329.29
746.307	269.39
746.749	265.19
747.19	300.39
747.632	421.19
748.073	822.29
748.514	1751.69
748.956	2691.89
749.397	3420.49
749.838	2823.09
750.279	2866.19
750.72	1443.59
751.162	523.99
751.603	308.19
752.044	241.49
752.485	203.99
752.926	198.99
753.367	197.69
753.808	185.49
754.249	188.59
754.69	177.29
755.131	170.69
755.572	176.09
756.013	168.19
756.453	178.29
756.894	176.19
757.335	185.49
757.776	186.19
758.216	192.69
758.657	185.39
759.098	193.39
759.538	211.49
759.979	249.39
760.42	346.29
760.86	654.49
761.301	1699.59
761.741	4149.39
762.182	6198.59
762.622	4370.29
763.063	1251.19
763.503	509.99
763.943	322.49
764.384	326.69
764.824	387.69
765.264	428.99
765.705	298.69
766.145	205.99
766.585	180.09
767.025	169.69
767.465	176.39
767.906	229.59
768.346	318.79
768.786	329.99
769.226	249.39
769.666	298.49
770.106	582.19
770.546	1458.49
770.986	2520.89
771.426	2290.39
771.866	754.79
772.306	312.89
772.745	199.79
773.185	167.29
773.625	166.49
774.065	161.39
774.505	190.59
774.944	297.19
775.384	661.49
775.824	1220.69
776.263	1195.19
776.703	498.29
777.142	216.69
777.582	153.09
778.021	134.29
778.461	133.79
778.9	139.89
779.34	128.79
779.779	116.39
780.219	102.99
780.658	108.39
781.097	109.19
781.537	109.39
781.976	103.29
782.415	101.89
782.855	106.19
783.294	97.99
783.733	108.69
784.172	103.79
784.611	95.19
785.05	99.59
785.489	107.69
785.928	117.49
786.367	117.19
786.806	111.99
787.245	129.89
787.684	129.09
788.123	138.19
788.562	131.59
789.001	116.49
789.44	111.89
789.879	117.09
790.317	112.79
790.756	123.19
791.195	117.79
791.634	140.59
792.072	190.39
792.511	336.19
792.95	935.79
793.388	2040.29
793.827	1869.89
794.265	643.49
794.704	270.29
795.142	175.39
795.581	144.39
796.019	130.29
796.458	120.09
796.896	117.99
797.334	118.89
797.773	150.79
798.211	202.49
798.649	406.09
799.087	950.19
799.526	1511.39
799.964	1899.19
800.402	1935.59
800.84	718.49
801.278	288.09
801.716	179.69
802.154	145.79
802.592	140.99
803.03	131.89
803.468	131.49
803.906	136.49
804.344	148.59
804.782	132.79
805.22	127.79
805.658	119.29
806.096	134.89
806.533	148.89
806.971	161.79
807.409	206.49
807.847	292.19
808.284	617.89
808.722	1739.79
809.16	3138.49
809.597	2930.49
810.035	5148.69
810.472	5590.99
810.91	1989.49
811.347	745.69
811.785	385.09
812.222	242.99
812.66	185.09
813.097	154.29
813.535	131.39
813.972	118.99
814.409	115.49
814.846	99.39
815.284	106.29
815.721	100.19
816.158	103.99
816.595	116.39
817.032	171.89
817.47	194.19
817.907	164.29
818.344	147.69
818.781	116.19
819.218	95.29
819.655	114.99
820.092	174.39
820.529	204.29
820.966	171.89
821.403	130.29
821.839	105.49
822.276	96.99
822.713	110.09
823.15	122.79
823.587	107.19
824.023	140.39
824.46	281.39
824.897	848.39
825.333	1306.79
825.77	563.89
826.206	221.29
826.643	129.09
827.08	98.19
827.516	79.89
827.953	72.59
828.389	75.29
828.825	61.59
829.262	67.59
829.698	58.89
830.135	60.19
830.571	58.19
831.007	60.49
831.443	60.69
831.88	69.79
832.316	61.49
832.752	65.19
833.188	64.59
833.624	61.69
834.06	62.89
834.497	65.99
834.933	69.09
835.369	75.29
835.805	62.99
836.241	73.99
836.677	76.09
837.112	84.69
837.548	92.09
837.984	127.59
838.42	188.99
838.856	466.29
839.292	1431.09
839.727	2206.89
840.163	1026.79
840.599	864.89
841.034	1916.89
841.47	2029.99
841.906	747.19
842.341	319.69
842.777	225.59
843.212	304.89
843.648	316.89
844.083	144.19
844.519	94.99
844.954	72.19
845.39	50.49
845.825	52.99
846.261	55.29
846.696	57.19
847.131	51.09
847.566	57.79
848.002	48.79
848.437	50.69
848.872	59.79
849.307	60.69
849.742	75.29
850.177	169.69
850.613	526.49
851.048	847.19
851.483	364.79
851.918	146.69
852.353	83.19
852.788	60.99
853.223	59.49
853.657	60.39
854.092	44.19
854.527	43.49
854.962	38.79
855.397	40.19
855.832	45.99
856.266	47.89
856.701	39.29
857.136	36.79
857.57	41.19
858.005	47.09
858.44	57.19
858.874	44.09
859.309	49.39
859.743	39.19
860.178	44.89
860.612	38.59
861.047	55.89
861.481	60.39
861.915	63.09
862.35	43.09
862.784	31.99
863.218	40.49
863.653	34.39
864.087	47.79
864.521	58.09
864.955	75.49
865.39	145.39
865.824	162.79
866.258	110.49
866.692	157.79
867.126	169.59
867.56	96.19
867.994	50.19
868.428	41.09
868.862	46.19
869.296	47.99
869.73	54.99
870.164	53.69
870.598	44.09
871.031	36.59
871.465	31.19
871.899	27.59
872.333	19.49
872.766	23.89
873.2	17.09
873.634	30.49
874.067	27.89
874.501	25.19
874.935	33.99
875.368	31.49
875.802	26.79
876.235	22.49
876.669	22.99
877.102	20.59
877.535	22.49
877.969	22.69
878.402	29.39
878.836	15.89
879.269	17.39
879.702	23.89
880.135	21.79
880.569	25.69
881.002	30.59
881.435	15.49
881.868	12.49
882.301	19.59
882.734	17.69
883.167	16.79
883.601	20.89
884.034	16.09
884.467	12.39
884.899	21.69
885.332	20.39
885.765	16.99
886.198	15.69
886.631	18.19
887.064	19.49
887.497	26.49
887.929	21.29
888.362	17.79
888.795	10.49
889.228	14.19
889.66	18.69
890.093	13.19
890.526	12.99
890.958	18.19
891.391	17.99
891.823	22.29
892.256	15.79
892.688	12.79
893.121	13.89
893.553	13.49
893.985	22.89
894.418	19.69
894.85	12.19
895.282	11.19
895.715	12.29
896.147	16.99
896.579	16.49
897.011	15.39
897.444	19.59
897.876	18.29
898.308	22.49
898.74	19.79
899.172	15.79
899.604	22.19
900.036	19.99
900.468	16.09
900.9	14.69
901.332	17.09
901.764	14.19
902.196	21.09
902.628	12.19
903.06	11.29
903.491	28.29
903.923	16.89
904.355	22.39
904.787	23.39
905.218	22.39
905.65	24.59
906.082	11.49
906.513	16.69
906.945	18.29
907.376	11.89
907.808	25.69
908.239	13.89
908.671	19.99
909.102	16.49
909.534	22.59
909.965	46.49
910.397	86.49
910.828	296.39
911.259	446.99
911.691	210.09
912.122	101.69
912.553	50.09
912.984	35.39
913.415	25.89
913.847	23.69
914.278	13.89
914.709	15.59
915.14	14.29
915.571	19.29
916.002	15.59
916.433	16.19
916.864	16.79
917.295	16.89
917.726	14.69
918.157	16.59
918.587	28.29
919.018	21.09
919.449	18.49
919.88	23.89
920.311	26.79
920.741	47.99
921.172	160.59
921.603	141.19
922.033	70.39
922.464	43.99
922.895	22.49
923.325	22.09
923.756	17.19
924.186	15.89
924.617	22.39
925.047	43.49
925.478	57.29
925.908	48.09
926.338	27.69
926.769	14.59
927.199	24.09
927.629	9.99
928.06	17.19
928.49	10.19
928.92	13.69
929.35	14.59
929.78	10.89
930.21	7.99
930.641	6.59
931.071	12.19
931.501	-0.51
931.931	15.09
932.361	1.59
932.791	5.69
933.221	6.79
933.651	9.89
934.08	13.99
934.51	30.09
934.94	7.99
935.37	12.39
935.8	11.29
936.229	7.69
936.659	11.79
937.089	6.49
937.519	13.19
937.948	24.89
938.378	18.79
938.807	1.59
939.237	0.79
939.666	10.59
940.096	-3.31
940.525	5.49
940.955	0.69
941.384	4.19
941.814	-7.11
942.243	1.19
942.672	-1.31
943.102	-3.61
943.531	1.19
943.96	4.09
944.39	7.09
944.819	2.89
945.248	1.19
945.677	4.59
946.106	8.59
946.535	8.29
946.964	2.59
947.393	4.19
947.822	2.49
948.251	-3.11
948.68	0.29
949.109	9.39
949.538	5.99
949.967	-3.31
950.396	8.39
950.825	0.99
951.254	2.59
951.682	-7.11
952.111	6.09
952.54	3.69
952.969	-3.41
953.397	-3.11
953.826	0.99
954.254	-6.41
954.683	-2.01
955.112	-2.01
955.54	0.59
955.969	2.49
956.397	0.79
956.826	-0.81
957.254	3.49
957.682	1.19
958.111	5.49
958.539	-4.21
958.967	4.49
959.396	-1.41
959.824	3.59
960.252	0.29
960.68	-0.31
961.109	-1.31
961.537	-1.61
961.965	-1.91
962.393	-0.41
962.821	2.19
963.249	2.49
963.677	2.89
964.105	6.49
964.533	44.89
964.961	40.49
965.389	18.79
965.817	9.69
966.245	-1.01
966.672	8.49
967.1	-3.31
967.528	0.19
967.956	-8.81
968.383	1.79
968.811	-1.11
969.239	-1.81
969.666	-0.71
970.094	-0.71
970.522	4.49
970.949	-5.21
971.377	-1.31
971.804	-6.81
972.232	-2.11
972.659	-2.21
973.087	-0.11
973.514	-5.21
973.941	-5.41
974.369	6.89
974.796	2.39
975.223	2.39
975.651	-4.11
976.078	3.19
976.505	3.79
976.932	1.89
977.359	17.19
977.786	12.09
978.214	-1.41
978.641	-1.71
979.068	-7.61
979.495	-3.81
979.922	-9.51
980.349	-2.41
980.776	4.49
981.202	-1.41
981.629	3.49
982.056	7.29
982.483	-0.51
982.91	2.99
983.337	-8.61
983.763	6.29
984.19	-7.11
984.617	-8.01
985.043	-2.61
985.47	-2.81
985.897	-3.11
986.323	-1.91
986.75	10.09
987.176	0.19
987.603	8.59
988.029	2.09
988.456	0.79
988.882	3.49
989.308	-9.51
989.735	-5.31
990.161	3.49
990.587	-5.71
991.014	-6.01
991.44	12.79
991.866	-1.71
992.292	-3.81
992.719	-5.01
993.145	3.59
993.571	-3.71
993.997	-7.71
994.423	-3.71
994.849	-7.01
995.275	-0.71
995.701	0.59
996.127	1.99
996.553	0.69
996.979	-8.41
997.405	-2.91
997.83	-4.61
998.256	-1.71
998.682	-5.11
999.108	-4.81
999.534	-1.91
999.959	0.89
1000.385	-1.91
1000.811	5.69
1001.236	-5.31
1001.662	-9.31
1002.087	-3.41
1002.513	-2.31
1002.938	-0.41
1003.364	-2.51
1003.789	1.69
1004.215	2.89
1004.64	4.19
1005.066	1.89
1005.491	-1.61
1005.916	-7.11
1006.342	-1.51
1006.767	-6.11
1007.192	1.49
1007.617	-4.51
1008.042	-6.21
1008.468	-7.21
1008.893	-3.31
1009.318	2.59
1009.743	-0.91
1010.168	3.09
1010.593	3.49
1011.018	-10.71
1011.443	2.39
1011.868	-0.71
1012.293	-1.41
1012.718	-10.91
1013.143	1.29
1013.567	1.29
1013.992	-7.01
1014.417	-15.11
1014.842	-1.31
1015.267	-8.51
1015.691	-3.21
1016.116	5.39
1016.541	-4.11
1016.965	3.99
1017.39	1.09
1017.814	-2.91
1018.239	-0.51
1018.663	-14.21
1019.088	-6.71
1019.512	-5.61
1019.937	2.59
1020.361	-1.31
1020.785	-10.31
1021.21	-7.41
1021.634	-5.51
1022.058	-1.21
1022.483	0.59
1022.907	-0.51
1023.331	-4.81
1023.755	-3.41
1024.179	-4.01
1024.604	-7.21
1025.028	-0.01
1025.452	-4.61
1025.876	1.19
1026.3	-4.11
1026.724	-11.21
1027.148	-7.51
1027.572	-7.61
1027.996	-8.11
1028.42	2.09
1028.843	-3.01
1029.267	-6.91
1029.691	-2.41
1030.115	-1.71
1030.539	-9.91
1030.962	-8.91
1031.386	-3.01
1031.81	-0.91
1032.233	-5.91
1032.657	-1.61
1033.08	-1.01
1033.504	-2.41
1033.927	-6.21
1034.351	-2.31
1034.774	-0.51
1035.198	-2.81
1035.621	-5.21
1036.045	-6.71
1036.468	6.39
1036.891	-9.01
1037.315	-6.41
1037.738	-2.51
1038.161	2.69
1038.584	-11.51
1039.008	-3.51
1039.431	-5.31
1039.854	1.19
1040.277	-9.21
1040.7	-8.71
1041.123	0.09
1041.546	-9.01
1041.969	0.59
1042.392	-8.91
1042.815	-2.31
1043.238	-4.61
1043.661	-2.11
1044.084	-10.21
1044.507	-8.11
1044.93	-15.71
1045.352	-4.81
1045.775	-0.41
1046.198	0.19
1046.621	4.29
1047.043	0.69
1047.466	6.89
1047.889	-5.31
1048.311	-6.81
1048.734	-4.01
1049.156	-4.31
1049.579	3.19
1050.001	-4.71
1050.424	-2.11
1050.846	-7.61
1051.269	-0.51
1051.691	-7.51
1052.113	-6.51
1052.536	-0.61
1052.958	-6.31
1053.38	-3.31
1053.802	-9.71
1054.225	0.19
1054.647	-7.31
1055.069	-1.61
1055.491	2.49
1055.913	-10.11
1056.335	-3.31
1056.757	0.29
1057.179	-6.61
1057.601	-1.31
1058.023	1.49
1058.445	1.59
1058.867	1.89
1059.289	-4.41
1059.711	-5.61
1060.133	-0.91
1060.555	-5.71
1060.976	-3.11
1061.398	-9.41
1061.82	-8.11
1062.241	-5.71
1062.663	-7.61
1063.085	-9.41
1063.506	5.19
1063.928	-7.51
1064.35	-7.31
1064.771	-10.01
1065.193	-1.21
1065.614	-7.41
1066.035	-3.81
1066.457	3.99
1066.878	-0.41
1067.3	-1.61
1067.721	-2.71
1068.142	-3.61
1068.564	-2.71
1068.985	-1.31
1069.406	-3.31
1069.827	-7.41
1070.248	1.69
1070.67	-13.61
1071.091	-8.21
1071.512	1.39
1071.933	-7.41
1072.354	-5.21
1072.775	-8.91
1073.196	-4.81
1073.617	-0.21
1074.038	-5.21
1074.459	-8.71
1074.88	-6.51
1075.3	-1.11
1075.721	-7.31
1076.142	-2.21
1076.563	-0.21
1076.983	-11.11
1077.404	0.69
1077.825	-7.11
1078.246	-4.21
1078.666	-5.01
1079.087	-8.11
1079.507	-9.01
1079.928	-0.11
1080.348	-2.61
1080.769	-3.41
1081.189	1.49
1081.61	1.09
1082.03	-7.21
1082.451	-6.81
1082.871	-7.91
1083.291	-5.11
1083.711	-11.41
1084.132	-4.91
1084.552	-7.11
1084.972	-0.11
1085.392	-10.01
1085.813	-10.01
1086.233	-6.41
1086.653	-9.21
1087.073	-1.81
1087.493	-6.11
1087.913	-3.71
1088.333	-6.91
1088.753	-4.71
1089.173	3.19
1089.593	-8.51
1090.013	-1.51
1090.433	-6.71
1090.852	-1.31
1091.272	-2.21
1091.692	-5.81
1092.112	-8.11
1092.531	-10.01
1092.951	-8.31
1093.371	-2.81
1093.79	-0.61
1094.21	-12.11
1094.63	-4.21
1095.049	-4.81
1095.469	-4.61
1095.888	-2.61
1096.308	-0.21
1096.727	2.89
1097.146	-7.71
1097.566	-0.81
1097.985	-5.71
1098.405	-0.71
1098.824	-6.71
1099.243	-4.81
1099.662	-9.41
1100.082	-5.81
1100.501	-0.51
1100.92	-7.21
1101.339	-8.61
1101.758	-7.41
