Data from 20171114-ORNL-Ar_H_NY_Subt18_08-06-42-026.txt Node
Date: Tue Nov 14 08:06:42 EST 2017
User: Ender
Spectrometer: HR+D1039
Trigger mode: 0
Integration Time (sec): 2.730000E-2
Scans to average: 10
Electric dark correction enabled: true
Nonlinearity correction enabled: false
Boxcar width: 0
XAxis mode: Wavelengths
Number of Pixels in Spectrum: 2048
>>>>>Begin Spectral Data<<<<<
187.836	-2.83
188.309	-2.83
188.782	-2.83
189.255	3.67
189.728	0.87
190.201	6.77
190.674	0.27
191.147	-1.63
191.619	-4.63
192.092	3.77
192.565	2.67
193.038	-2.33
193.511	3.37
193.984	-3.13
194.456	-1.33
194.929	-0.63
195.402	-2.73
195.874	-2.13
196.347	2.07
196.82	-4.03
197.292	9.57
197.765	-2.43
198.237	-5.23
198.71	-3.53
199.182	-2.83
199.655	1.07
200.127	4.27
200.6	-5.43
201.072	-3.13
201.544	-1.93
202.017	-6.43
202.489	3.47
202.961	0.37
203.433	-2.53
203.906	-7.33
204.378	-5.83
204.85	-3.03
205.322	-7.83
205.794	-1.63
206.266	1.57
206.739	-10.13
207.211	3.77
207.683	-4.93
208.155	-7.73
208.627	-2.23
209.099	-6.83
209.57	-4.83
210.042	-6.53
210.514	-6.23
210.986	-6.13
211.458	-9.23
211.93	-1.93
212.402	0.67
212.873	-7.93
213.345	-11.33
213.817	-11.63
214.288	3.87
214.76	-8.03
215.232	-3.03
215.703	-7.53
216.175	-3.93
216.646	-5.53
217.118	-6.63
217.589	1.57
218.061	4.57
218.532	-3.93
219.004	2.17
219.475	-7.83
219.946	-4.33
220.418	-5.53
220.889	-1.13
221.36	-1.03
221.832	-3.43
222.303	-8.63
222.774	3.37
223.245	-6.73
223.717	-2.83
224.188	-1.03
224.659	-10.73
225.13	-7.23
225.601	-3.03
226.072	1.17
226.543	-0.93
227.014	0.77
227.485	0.97
227.956	-6.23
228.427	-5.73
228.898	1.87
229.369	3.07
229.839	-5.33
230.31	-9.03
230.781	4.47
231.252	0.57
231.722	-3.73
232.193	-4.43
232.664	-3.63
233.135	-6.63
233.605	3.17
234.076	-6.43
234.546	1.07
235.017	1.47
235.487	1.07
235.958	-4.83
236.428	-5.33
236.899	3.57
237.369	1.07
237.84	-3.63
238.31	4.27
238.78	-0.53
239.251	-7.63
239.721	2.37
240.191	-1.23
240.662	0.77
241.132	-0.43
241.602	-6.23
242.072	-2.43
242.542	0.57
243.013	0.57
243.483	-2.63
243.953	-2.13
244.423	-2.83
244.893	-4.73
245.363	0.77
245.833	-6.43
246.303	0.27
246.773	6.37
247.243	-1.03
247.712	-4.43
248.182	1.97
248.652	9.77
249.122	-7.63
249.592	0.57
250.061	1.07
250.531	11.57
251.001	3.57
251.471	5.97
251.94	4.57
252.41	-1.93
252.879	-9.53
253.349	4.97
253.818	3.57
254.288	-0.03
254.757	6.77
255.227	-7.43
255.696	-2.73
256.166	2.87
256.635	6.47
257.105	7.27
257.574	1.27
258.043	2.97
258.513	-3.63
258.982	5.47
259.451	-5.63
259.92	3.17
260.389	2.37
260.859	9.87
261.328	3.17
261.797	6.87
262.266	5.37
262.735	12.27
263.204	-1.73
263.673	4.57
264.142	11.67
264.611	1.37
265.08	1.27
265.549	-1.13
266.018	8.77
266.487	-0.33
266.955	-0.03
267.424	0.07
267.893	5.27
268.362	-7.83
268.83	1.37
269.299	9.57
269.768	5.37
270.236	4.47
270.705	1.17
271.174	2.37
271.642	2.67
272.111	1.77
272.579	10.27
273.048	8.87
273.516	3.97
273.985	10.17
274.453	9.07
274.922	12.27
275.39	11.17
275.858	6.47
276.327	9.07
276.795	15.37
277.263	0.77
277.731	19.97
278.2	16.47
278.668	15.47
279.136	14.97
279.604	2.47
280.072	7.67
280.54	9.47
281.008	11.17
281.477	14.77
281.945	10.47
282.413	14.57
282.881	17.77
283.348	3.47
283.816	13.17
284.284	12.87
284.752	20.27
285.22	11.07
285.688	17.07
286.156	13.67
286.623	19.67
287.091	11.47
287.559	11.67
288.026	14.37
288.494	11.17
288.962	6.87
289.429	16.77
289.897	14.77
290.364	10.27
290.832	12.07
291.3	11.57
291.767	18.17
292.234	19.17
292.702	13.77
293.169	20.97
293.637	18.37
294.104	14.37
294.571	5.87
295.039	9.57
295.506	15.17
295.973	21.57
296.44	15.87
296.908	19.07
297.375	17.07
297.842	14.47
298.309	14.97
298.776	14.07
299.243	17.97
299.71	15.77
300.177	18.37
300.644	25.77
301.111	18.47
301.578	24.07
302.045	20.07
302.512	25.27
302.979	21.57
303.446	24.37
303.913	15.67
304.379	22.87
304.846	26.77
305.313	22.17
305.78	26.67
306.246	25.67
306.713	21.57
307.18	23.67
307.646	24.57
308.113	27.37
308.579	26.57
309.046	22.87
309.512	23.67
309.979	18.27
310.445	27.17
310.912	23.47
311.378	30.17
311.845	30.97
312.311	31.87
312.777	29.27
313.244	30.87
313.71	38.77
314.176	27.17
314.642	28.37
315.109	32.17
315.575	33.47
316.041	41.97
316.507	33.87
316.973	38.57
317.439	32.37
317.905	35.57
318.371	34.07
318.837	27.77
319.303	32.27
319.769	35.47
320.235	32.57
320.701	30.17
321.167	34.07
321.633	33.97
322.099	30.47
322.564	44.07
323.03	39.57
323.496	38.47
323.962	36.17
324.427	36.37
324.893	40.17
325.359	37.77
325.824	36.07
326.29	38.27
326.755	32.77
327.221	41.77
327.686	43.27
328.152	48.97
328.617	38.47
329.083	43.37
329.548	51.37
330.014	47.27
330.479	37.37
330.944	48.07
331.41	45.07
331.875	49.37
332.34	45.77
332.805	45.57
333.271	48.97
333.736	37.67
334.201	45.47
334.666	50.87
335.131	53.77
335.596	53.17
336.061	48.87
336.526	43.97
336.991	46.97
337.456	59.27
337.921	55.67
338.386	53.47
338.851	47.97
339.316	52.47
339.781	54.57
340.246	54.57
340.711	47.97
341.175	54.37
341.64	49.47
342.105	52.67
342.569	50.47
343.034	60.97
343.499	55.07
343.963	51.77
344.428	64.97
344.893	61.77
345.357	57.67
345.822	59.07
346.286	66.27
346.751	69.27
347.215	70.57
347.679	72.57
348.144	89.77
348.608	89.67
349.073	70.47
349.537	75.77
350.001	82.07
350.465	96.07
350.93	83.07
351.394	87.37
351.858	72.37
352.322	85.07
352.786	86.27
353.25	101.37
353.715	110.77
354.179	99.57
354.643	122.37
355.107	127.07
355.571	104.37
356.035	98.77
356.498	116.67
356.962	114.17
357.426	130.27
357.89	116.37
358.354	99.77
358.818	84.77
359.281	81.87
359.745	81.37
360.209	77.97
360.673	82.37
361.136	84.47
361.6	83.47
362.064	82.27
362.527	76.07
362.991	87.57
363.454	79.37
363.918	80.07
364.381	80.67
364.845	85.97
365.308	91.67
365.772	85.47
366.235	89.57
366.698	91.77
367.162	83.37
367.625	83.87
368.088	90.77
368.552	93.57
369.015	97.67
369.478	97.47
369.941	99.07
370.404	103.27
370.867	102.27
371.331	104.07
371.794	108.07
372.257	102.17
372.72	105.77
373.183	103.07
373.646	96.47
374.109	105.67
374.572	105.17
375.035	108.87
375.497	109.07
375.96	108.87
376.423	109.57
376.886	117.77
377.349	111.57
377.811	105.37
378.274	105.67
378.737	107.07
379.199	110.67
379.662	111.47
380.125	115.17
380.587	107.37
381.05	114.67
381.512	121.37
381.975	127.27
382.437	130.17
382.9	122.27
383.362	130.27
383.825	141.27
384.287	131.27
384.75	124.17
385.212	137.07
385.674	141.57
386.136	135.97
386.599	129.27
387.061	126.37
387.523	133.77
387.985	133.07
388.447	138.97
388.91	131.27
389.372	136.87
389.834	140.87
390.296	135.67
390.758	145.57
391.22	149.57
391.682	157.47
392.144	168.57
392.606	160.87
393.068	152.87
393.529	160.67
393.991	150.77
394.453	140.07
394.915	145.47
395.377	140.37
395.838	151.77
396.3	141.87
396.762	153.97
397.224	145.37
397.685	137.67
398.147	143.47
398.608	143.07
399.07	137.87
399.531	146.27
399.993	157.67
400.454	166.77
400.916	158.17
401.377	158.67
401.839	160.47
402.3	168.47
402.762	181.37
403.223	189.27
403.684	180.97
404.145	170.27
404.607	174.97
405.068	172.77
405.529	172.27
405.99	196.87
406.451	186.07
406.913	187.77
407.374	173.77
407.835	178.17
408.296	175.67
408.757	183.17
409.218	197.47
409.679	195.47
410.14	191.67
410.601	191.47
411.062	192.27
411.522	194.77
411.983	186.97
412.444	185.67
412.905	193.47
413.366	195.17
413.826	210.87
414.287	234.57
414.748	289.17
415.208	270.37
415.669	235.47
416.13	226.27
416.59	223.67
417.051	224.17
417.511	242.27
417.972	262.27
418.432	274.37
418.893	307.17
419.353	277.17
419.814	215.67
420.274	200.07
420.734	195.67
421.195	212.57
421.655	211.97
422.115	216.47
422.576	206.37
423.036	219.77
423.496	227.57
423.956	231.87
424.416	247.17
424.876	293.57
425.336	281.87
425.797	283.67
426.257	274.97
426.717	254.97
427.177	250.27
427.637	243.07
428.097	255.17
428.556	259.07
429.016	286.67
429.476	278.67
429.936	289.27
430.396	293.37
430.856	304.07
431.315	323.17
431.775	371.77
432.235	403.87
432.694	380.87
433.154	388.57
433.614	414.57
434.073	355.57
434.533	299.07
434.993	287.77
435.452	296.47
435.912	314.07
436.371	306.97
436.83	297.27
437.29	282.97
437.749	266.97
438.209	272.67
438.668	295.07
439.127	310.67
439.587	287.97
440.046	282.37
440.505	281.97
440.964	303.87
441.424	353.27
441.883	331.87
442.342	286.77
442.801	240.87
443.26	245.47
443.719	243.97
444.178	240.77
444.637	234.87
445.096	241.47
445.555	243.97
446.014	257.37
446.473	246.27
446.932	250.47
447.391	250.37
447.849	260.97
448.308	244.07
448.767	246.47
449.226	252.97
449.685	259.67
450.143	277.67
450.602	269.27
451.061	254.07
451.519	253.17
451.978	253.47
452.436	259.87
452.895	266.17
453.353	276.57
453.812	262.47
454.27	261.27
454.729	259.37
455.187	265.47
455.646	268.47
456.104	273.57
456.562	289.27
457.021	296.87
457.479	281.87
457.937	311.87
458.395	295.57
458.854	281.17
459.312	275.67
459.77	305.07
460.228	282.27
460.686	274.67
461.144	277.27
461.602	269.57
462.06	262.87
462.518	278.07
462.976	282.27
463.434	282.27
463.892	288.27
464.35	302.37
464.808	324.07
465.266	291.47
465.724	293.37
466.181	295.97
466.639	304.07
467.097	322.27
467.555	328.57
468.012	324.17
468.47	334.77
468.928	360.97
469.385	367.37
469.843	384.97
470.3	387.57
470.758	401.57
471.215	422.97
471.673	451.57
472.13	445.97
472.588	459.77
473.045	417.07
473.503	414.77
473.96	434.07
474.417	439.97
474.875	472.57
475.332	513.97
475.789	513.37
476.246	505.27
476.704	527.27
477.161	548.97
477.618	561.17
478.075	605.97
478.532	663.77
478.989	736.07
479.446	856.37
479.903	806.77
480.36	840.27
480.817	887.97
481.274	982.77
481.731	1075.77
482.188	1168.37
482.645	1304.17
483.102	1395.07
483.558	1519.27
484.015	1558.77
484.472	1527.57
484.929	1477.67
485.385	1454.27
485.842	1415.37
486.299	1359.27
486.755	1323.87
487.212	1122.17
487.668	966.87
488.125	900.87
488.582	831.07
489.038	787.37
489.494	755.67
489.951	738.37
490.407	715.67
490.864	692.07
491.32	681.77
491.776	695.97
492.233	697.37
492.689	654.27
493.145	650.37
493.602	658.37
494.058	666.37
494.514	673.07
494.97	687.17
495.426	692.27
495.882	673.37
496.338	663.67
496.794	672.17
497.251	668.87
497.707	689.87
498.163	687.17
498.618	695.37
499.074	693.67
499.53	722.57
499.986	722.77
500.442	698.57
500.898	669.77
501.354	654.47
501.809	670.47
502.265	676.07
502.721	697.27
503.177	692.27
503.632	699.47
504.088	702.87
504.543	726.57
504.999	742.17
505.455	718.87
505.91	690.07
506.366	693.27
506.821	683.37
507.277	684.17
507.732	688.77
508.187	677.97
508.643	693.27
509.098	699.17
509.553	718.87
510.009	725.27
510.464	736.17
510.919	742.67
511.375	763.07
511.83	778.27
512.285	793.37
512.74	819.47
513.195	848.47
513.65	839.37
514.105	826.87
514.56	833.17
515.015	845.97
515.47	869.07
515.925	841.77
516.38	854.77
516.835	854.77
517.29	839.57
517.745	843.47
518.2	819.97
518.655	804.87
519.109	810.97
519.564	795.47
520.019	793.37
520.474	782.67
520.928	786.37
521.383	775.67
521.838	761.17
522.292	765.97
522.747	767.97
523.201	764.17
523.656	767.57
524.11	752.07
524.565	749.07
525.019	747.07
525.474	752.57
525.928	754.27
526.382	757.97
526.837	761.67
527.291	764.67
527.745	752.87
528.2	756.27
528.654	750.87
529.108	742.87
529.562	742.87
530.016	741.67
530.47	745.17
530.925	745.47
531.379	748.97
531.833	760.07
532.287	758.07
532.741	755.57
533.195	757.47
533.649	767.57
534.103	775.17
534.556	763.77
535.01	771.17
535.464	764.07
535.918	765.27
536.372	772.67
536.826	768.17
537.279	755.87
537.733	759.47
538.187	767.07
538.64	765.67
539.094	777.87
539.548	792.07
540.001	793.17
540.455	778.87
540.908	780.87
541.362	789.77
541.815	805.07
542.269	837.97
542.722	824.97
543.175	826.47
543.629	826.37
544.082	847.97
544.536	849.47
544.989	853.37
545.442	860.77
545.895	850.77
546.349	850.17
546.802	860.47
547.255	863.17
547.708	874.37
548.161	880.87
548.614	892.47
549.067	896.07
549.52	881.67
549.973	868.27
550.426	878.37
550.879	860.97
551.332	873.17
551.785	864.27
552.238	870.57
552.691	877.07
553.144	894.57
553.596	922.17
554.049	934.77
554.502	960.47
554.955	981.77
555.407	977.87
555.86	975.67
556.313	957.57
556.765	965.07
557.218	955.67
557.67	951.37
558.123	947.77
558.576	943.87
559.028	945.37
559.48	955.47
559.933	937.47
560.385	920.07
560.838	877.77
561.29	856.97
561.742	855.57
562.195	830.17
562.647	815.27
563.099	832.07
563.551	838.07
564.004	842.87
564.456	832.17
564.908	830.17
565.36	797.67
565.812	779.67
566.264	777.07
566.716	766.67
567.168	757.17
567.62	762.07
568.072	749.47
568.524	752.37
568.976	743.97
569.428	731.37
569.88	724.57
570.332	734.47
570.784	742.07
571.235	741.77
571.687	754.37
572.139	754.57
572.59	762.17
573.042	776.57
573.494	773.67
573.945	767.77
574.397	742.87
574.849	752.67
575.3	750.07
575.752	737.87
576.203	726.67
576.655	738.17
577.106	724.97
577.557	718.27
578.009	719.67
578.46	716.87
578.912	709.97
579.363	709.07
579.814	708.87
580.265	709.67
580.717	722.97
581.168	714.97
581.619	730.97
582.07	727.57
582.521	724.87
582.972	719.97
583.423	718.17
583.875	725.77
584.326	729.87
584.777	750.97
585.227	774.57
585.678	792.47
586.129	815.77
586.58	839.87
587.031	862.37
587.482	914.77
587.933	942.17
588.384	925.87
588.834	853.17
589.285	819.17
589.736	831.57
590.186	831.87
590.637	820.57
591.088	792.47
591.538	792.47
591.989	775.87
592.439	773.07
592.89	756.57
593.34	755.97
593.791	749.47
594.241	742.67
594.692	741.37
595.142	742.77
595.593	749.97
596.043	752.27
596.493	755.77
596.943	759.07
597.394	765.77
597.844	762.07
598.294	789.17
598.744	804.57
599.195	834.27
599.645	877.47
600.095	921.37
600.545	981.87
600.995	1030.37
601.445	1082.07
601.895	1149.07
602.345	1202.37
602.795	1179.37
603.245	1132.07
603.695	1072.67
604.145	1021.07
604.594	977.87
605.044	919.77
605.494	853.87
605.944	802.67
606.393	794.27
606.843	763.87
607.293	783.97
607.743	781.77
608.192	786.47
608.642	799.97
609.091	802.07
609.541	806.37
609.99	810.27
610.44	809.27
610.889	756.67
611.339	736.37
611.788	730.97
612.238	726.27
612.687	745.47
613.136	735.67
613.586	742.77
614.035	731.67
614.484	755.87
614.933	760.47
615.383	750.07
615.832	745.57
616.281	742.87
616.73	712.27
617.179	692.07
617.628	684.77
618.077	668.87
618.526	647.67
618.975	654.17
619.424	643.47
619.873	649.67
620.322	656.97
620.771	637.27
621.22	634.47
621.669	627.27
622.118	621.87
622.567	615.17
623.015	607.97
623.464	607.87
623.913	599.17
624.361	577.67
624.81	584.47
625.259	582.37
625.707	586.27
626.156	590.17
626.604	595.47
627.053	602.87
627.501	592.97
627.95	603.17
628.398	614.77
628.847	602.77
629.295	610.17
629.744	603.27
630.192	606.17
630.64	587.77
631.089	578.57
631.537	573.77
631.985	565.87
632.433	566.07
632.881	561.17
633.33	574.97
633.778	562.37
634.226	553.17
634.674	574.47
635.122	572.37
635.57	582.17
636.018	584.87
636.466	593.27
636.914	592.07
637.362	590.47
637.81	612.87
638.258	610.47
638.705	616.07
639.153	636.67
639.601	654.57
640.049	686.87
640.497	705.57
640.944	729.77
641.392	687.77
641.84	650.17
642.287	614.17
642.735	596.47
643.182	600.47
643.63	588.97
644.078	593.67
644.525	599.77
644.973	602.27
645.42	624.87
645.867	639.07
646.315	668.97
646.762	673.87
647.21	701.67
647.657	736.47
648.104	768.77
648.551	792.57
648.999	854.07
649.446	933.37
649.893	1014.87
650.34	1154.97
650.787	1365.47
651.234	1690.17
651.682	2175.37
652.129	2942.67
652.576	4182.17
653.023	6099.77
653.47	8211.37
653.917	10244.17
654.363	11839.57
654.81	13067.57
655.257	12321.77
655.704	8197.87
656.151	4944.27
656.598	3260.97
657.044	2336.67
657.491	1808.87
657.938	1458.77
658.385	1229.47
658.831	1081.57
659.278	973.67
659.724	869.97
660.171	802.37
660.618	740.57
661.064	707.27
661.511	685.17
661.957	677.67
662.404	669.27
662.85	672.87
663.296	645.77
663.743	589.87
664.189	566.57
664.635	562.07
665.082	553.97
665.528	553.07
665.974	548.37
666.42	536.47
666.867	526.77
667.313	505.87
667.759	488.97
668.205	477.97
668.651	471.87
669.097	471.97
669.543	468.27
669.989	470.57
670.435	468.17
670.881	468.07
671.327	475.27
671.773	497.37
672.219	521.27
672.665	581.97
673.11	619.67
673.556	667.57
674.002	705.37
674.448	691.07
674.893	588.57
675.339	498.17
675.785	463.77
676.23	441.07
676.676	419.67
677.122	400.67
677.567	405.67
678.013	400.47
678.458	385.47
678.904	375.97
679.349	368.87
679.794	370.87
680.24	371.47
680.685	367.97
681.131	370.27
681.576	361.47
682.021	370.47
682.466	374.77
682.912	370.47
683.357	374.67
683.802	404.97
684.247	438.37
684.692	480.07
685.137	526.07
685.583	569.07
686.028	592.27
686.473	551.47
686.918	476.97
687.363	445.67
687.807	426.97
688.252	386.57
688.697	377.97
689.142	360.57
689.587	352.97
690.032	342.37
690.477	362.07
690.921	378.67
691.366	406.57
691.811	427.97
692.255	453.47
692.7	479.57
693.145	532.27
693.589	735.37
694.034	1198.27
694.478	1623.67
694.923	1835.07
695.367	2410.97
695.812	1271.17
696.256	528.77
696.701	398.87
697.145	362.77
697.59	347.47
698.034	334.97
698.478	338.37
698.922	343.47
699.367	343.47
699.811	350.37
700.255	369.17
700.699	405.77
701.143	443.77
701.588	497.87
702.032	550.07
702.476	540.47
702.92	519.17
703.364	525.27
703.808	681.97
704.252	1105.87
704.696	1536.57
705.14	1771.07
705.584	2262.97
706.027	1136.37
706.471	558.37
706.915	425.17
707.359	366.87
707.803	342.57
708.246	327.17
708.69	328.47
709.134	324.17
709.577	328.47
710.021	337.67
710.465	316.87
710.908	318.47
711.352	315.27
711.795	322.07
712.239	379.07
712.682	403.07
713.126	437.27
713.569	478.07
714.012	372.17
714.456	318.67
714.899	306.47
715.342	289.87
715.786	274.37
716.229	275.37
716.672	273.07
717.115	258.77
717.558	258.67
718.002	264.27
718.445	284.47
718.888	299.77
719.331	308.97
719.774	326.27
720.217	322.37
720.66	302.87
721.103	278.77
721.546	269.27
721.989	256.67
722.432	247.17
722.874	246.17
723.317	241.57
723.76	243.77
724.203	267.67
724.645	339.67
725.088	474.67
725.531	599.37
725.974	673.47
726.416	569.07
726.859	314.07
727.301	257.77
727.744	252.97
728.187	241.47
728.629	257.17
729.071	257.87
729.514	269.87
729.956	286.07
730.399	301.07
730.841	305.97
731.283	283.07
731.726	274.37
732.168	268.27
732.61	285.67
733.053	305.47
733.495	335.07
733.937	372.67
734.379	425.77
734.821	463.37
735.263	574.47
735.705	883.37
736.148	1683.47
736.59	2746.87
737.032	3252.27
737.474	2655.07
737.916	861.47
738.357	463.17
738.799	344.67
739.241	316.57
739.683	303.97
740.125	310.37
740.567	318.77
741.008	327.67
741.45	337.87
741.892	339.67
742.334	373.07
742.775	384.57
743.217	366.47
743.658	295.37
744.1	272.17
744.542	277.27
744.983	343.17
745.425	370.17
745.866	362.67
746.307	289.37
746.749	295.07
747.19	334.57
747.632	489.87
748.073	946.67
748.514	1988.17
748.956	3033.47
749.397	3790.07
749.838	3153.27
750.279	3141.27
750.72	1600.37
751.162	580.17
751.603	344.47
752.044	260.67
752.485	235.47
752.926	223.87
753.367	216.67
753.808	207.67
754.249	198.87
754.69	198.97
755.131	191.47
755.572	195.47
756.013	179.77
756.453	198.07
756.894	197.47
757.335	203.67
757.776	205.07
758.216	210.67
758.657	212.57
759.098	216.27
759.538	239.47
759.979	278.17
760.42	394.47
760.86	746.07
761.301	1941.27
761.741	4697.47
762.182	6808.07
762.622	4801.77
763.063	1402.07
763.503	565.47
763.943	351.97
764.384	291.67
764.824	274.27
765.264	273.37
765.705	230.17
766.145	194.37
766.585	181.87
767.025	180.37
767.465	175.57
767.906	189.67
768.346	216.37
768.786	227.27
769.226	230.17
769.666	319.27
770.106	651.07
770.546	1645.67
770.986	2793.47
771.426	2502.37
771.866	839.87
772.306	339.47
772.745	211.97
773.185	182.57
773.625	166.67
774.065	156.87
774.505	181.17
774.944	216.27
775.384	379.37
775.824	642.47
776.263	631.67
776.703	304.47
777.142	171.87
777.582	145.37
778.021	132.47
778.461	129.47
778.9	132.07
779.34	137.97
779.779	121.37
780.219	112.07
780.658	114.07
781.097	112.37
781.537	117.87
781.976	118.37
782.415	115.97
782.855	110.07
783.294	109.37
783.733	111.37
784.172	117.97
784.611	107.77
785.05	118.27
785.489	115.47
785.928	118.97
786.367	128.47
786.806	127.97
787.245	133.77
787.684	145.37
788.123	158.27
788.562	138.87
789.001	135.67
789.44	126.57
789.879	121.37
790.317	121.87
790.756	125.67
791.195	137.17
791.634	153.07
792.072	220.17
792.511	382.67
792.95	1043.57
793.388	2232.57
793.827	2027.07
794.265	709.07
794.704	300.07
795.142	191.77
795.581	159.47
796.019	145.57
796.458	135.47
796.896	127.07
797.334	134.27
797.773	159.07
798.211	228.37
798.649	463.97
799.087	1076.87
799.526	1677.47
799.964	2126.67
800.402	2127.17
800.84	802.47
801.278	321.87
801.716	202.47
802.154	166.87
802.592	148.07
803.03	147.87
803.468	138.97
803.906	148.57
804.344	155.87
804.782	148.07
805.22	149.97
805.658	139.47
806.096	163.37
806.533	171.97
806.971	184.77
807.409	225.17
807.847	334.07
808.284	707.87
808.722	1974.87
809.16	3491.17
809.597	3338.17
810.035	5740.77
810.472	6114.27
810.91	2225.87
811.347	848.77
811.785	434.27
812.222	275.87
812.66	202.87
813.097	173.67
813.535	152.77
813.972	135.47
814.409	128.77
814.846	120.37
815.284	114.27
815.721	103.97
816.158	105.27
816.595	109.17
817.032	160.87
817.47	194.17
817.907	143.37
818.344	111.67
818.781	102.87
819.218	101.57
819.655	129.97
820.092	205.57
820.529	226.07
820.966	176.97
821.403	127.67
821.839	109.77
822.276	98.87
822.713	129.47
823.15	146.87
823.587	120.77
824.023	156.07
824.46	319.97
824.897	953.27
825.333	1434.47
825.77	618.17
826.206	250.17
826.643	138.87
827.08	109.97
827.516	86.37
827.953	83.27
828.389	84.37
828.825	72.27
829.262	73.57
829.698	69.37
830.135	70.67
830.571	66.67
831.007	62.07
831.443	73.57
831.88	63.17
832.316	67.37
832.752	69.07
833.188	69.27
833.624	63.47
834.06	70.77
834.497	66.77
834.933	76.57
835.369	77.27
835.805	69.27
836.241	80.67
836.677	82.57
837.112	97.47
837.548	112.57
837.984	142.97
838.42	218.77
838.856	524.47
839.292	1610.07
839.727	2433.37
840.163	1140.47
840.599	985.47
841.034	2136.17
841.47	2237.07
841.906	822.77
842.341	347.57
842.777	214.27
843.212	219.37
843.648	200.47
844.083	113.27
844.519	84.37
844.954	71.97
845.39	59.37
845.825	58.27
846.261	53.17
846.696	54.27
847.131	52.47
847.566	55.87
848.002	56.17
848.437	54.67
848.872	61.57
849.307	73.27
849.742	92.17
850.177	189.07
850.613	588.67
851.048	926.87
851.483	406.47
851.918	171.77
852.353	85.27
852.788	59.27
853.223	57.17
853.657	55.87
854.092	50.87
854.527	46.37
854.962	46.77
855.397	48.47
855.832	43.77
856.266	38.97
856.701	39.07
857.136	45.77
857.57	40.07
858.005	54.57
858.44	60.67
858.874	51.37
859.309	57.67
859.743	44.87
860.178	51.27
860.612	46.07
861.047	48.67
861.481	68.07
861.915	80.57
862.35	52.97
862.784	46.17
863.218	39.37
863.653	41.97
864.087	50.27
864.521	55.67
864.955	70.27
865.39	166.07
865.824	185.07
866.258	123.87
866.692	180.37
867.126	200.87
867.56	116.87
867.994	50.87
868.428	40.07
868.862	49.07
869.296	59.67
869.73	59.97
870.164	55.47
870.598	54.17
871.031	41.47
871.465	36.17
871.899	37.47
872.333	23.57
872.766	27.27
873.2	25.37
873.634	31.37
874.067	30.57
874.501	27.37
874.935	34.47
875.368	39.37
875.802	31.37
876.235	29.67
876.669	24.37
877.102	25.07
877.535	26.27
877.969	21.87
878.402	27.17
878.836	19.47
879.269	25.67
879.702	24.47
880.135	24.17
880.569	20.97
881.002	27.37
881.435	24.87
881.868	18.27
882.301	21.47
882.734	14.47
883.167	22.27
883.601	23.47
884.034	23.47
884.467	14.37
884.899	17.17
885.332	17.77
885.765	15.57
886.198	16.97
886.631	17.17
887.064	18.97
887.497	27.27
887.929	27.27
888.362	15.67
888.795	14.37
889.228	18.17
889.66	20.27
890.093	18.87
890.526	13.07
890.958	18.17
891.391	14.77
891.823	23.17
892.256	21.97
892.688	15.37
893.121	16.77
893.553	15.37
893.985	25.67
894.418	21.67
894.85	13.77
895.282	15.47
895.715	18.67
896.147	19.27
896.579	22.17
897.011	11.97
897.444	22.07
897.876	20.67
898.308	18.17
898.74	7.97
899.172	14.67
899.604	21.07
900.036	18.07
900.468	13.47
900.9	11.47
901.332	18.97
901.764	14.17
902.196	16.27
902.628	10.77
903.06	21.87
903.491	33.07
903.923	21.97
904.355	23.87
904.787	26.47
905.218	23.47
905.65	19.27
906.082	11.87
906.513	17.17
906.945	17.07
907.376	10.77
907.808	19.67
908.239	20.47
908.671	11.77
909.102	21.17
909.534	25.97
909.965	46.67
910.397	98.07
910.828	328.57
911.259	493.57
911.691	229.87
912.122	110.47
912.553	57.97
912.984	28.97
913.415	28.77
913.847	25.17
914.278	13.77
914.709	14.87
915.14	20.87
915.571	17.27
916.002	10.07
916.433	22.17
916.864	16.77
917.295	12.27
917.726	19.67
918.157	19.27
918.587	32.47
919.018	25.87
919.449	23.27
919.88	28.87
920.311	32.27
920.741	54.17
921.172	172.67
921.603	169.57
922.033	75.97
922.464	45.07
922.895	23.07
923.325	19.87
923.756	13.27
924.186	13.07
924.617	26.07
925.047	18.67
925.478	25.67
925.908	23.57
926.338	13.57
926.769	13.37
927.199	16.87
927.629	8.57
928.06	16.67
928.49	15.57
928.92	10.47
929.35	12.07
929.78	9.57
930.21	4.67
930.641	6.17
931.071	12.67
931.501	6.37
931.931	6.97
932.361	11.97
932.791	3.27
933.221	4.97
933.651	3.97
934.08	18.57
934.51	28.57
934.94	13.57
935.37	8.47
935.8	8.97
936.229	5.67
936.659	11.87
937.089	1.87
937.519	14.37
937.948	22.27
938.378	13.57
938.807	1.37
939.237	5.97
939.666	2.97
940.096	-7.93
940.525	7.57
940.955	0.37
941.384	3.27
941.814	-5.93
942.243	-1.33
942.672	0.77
943.102	-0.53
943.531	3.97
943.96	6.77
944.39	2.47
944.819	1.07
945.248	2.87
945.677	-5.83
946.106	1.47
946.535	5.77
946.964	2.47
947.393	7.17
947.822	0.17
948.251	-2.53
948.68	7.67
949.109	4.37
949.538	6.97
949.967	-1.43
950.396	1.77
950.825	2.57
951.254	4.67
951.682	-3.43
952.111	0.67
952.54	4.07
952.969	-9.33
953.397	-3.23
953.826	4.27
954.254	-4.93
954.683	-0.83
955.112	-7.73
955.54	1.37
955.969	-0.33
956.397	1.27
956.826	-3.33
957.254	1.97
957.682	1.27
958.111	4.87
958.539	-1.23
958.967	6.27
959.396	-1.03
959.824	1.07
960.252	2.17
960.68	-7.43
961.109	3.17
961.537	-4.73
961.965	1.57
962.393	7.07
962.821	-0.93
963.249	2.97
963.677	7.27
964.105	4.87
964.533	49.17
964.961	47.57
965.389	26.17
965.817	8.97
966.245	4.67
966.672	3.27
967.1	-0.33
967.528	1.77
967.956	-2.23
968.383	-2.53
968.811	-6.73
969.239	1.67
969.666	0.37
970.094	-0.23
970.522	1.77
970.949	1.17
971.377	-5.73
971.804	-3.03
972.232	-0.83
972.659	-1.23
973.087	-7.03
973.514	-5.63
973.941	-3.23
974.369	1.87
974.796	4.07
975.223	0.07
975.651	-4.73
976.078	2.27
976.505	1.27
976.932	6.17
977.359	14.27
977.786	21.47
978.214	3.67
978.641	-2.93
979.068	-5.13
979.495	0.67
979.922	0.47
980.349	1.07
980.776	4.47
981.202	1.27
981.629	5.17
982.056	8.67
982.483	1.27
982.91	-0.43
983.337	-8.23
983.763	1.77
984.19	-5.83
984.617	1.37
985.043	-7.43
985.47	-8.13
985.897	1.77
986.323	-8.53
986.75	5.47
987.176	-3.33
987.603	-0.83
988.029	-1.73
988.456	-2.93
988.882	2.37
989.308	-1.33
989.735	-4.33
990.161	-2.43
990.587	-5.53
991.014	-2.03
991.44	4.07
991.866	-1.63
992.292	-10.63
992.719	-5.53
993.145	1.87
993.571	-8.33
993.997	-2.23
994.423	3.47
994.849	-2.63
995.275	-0.03
995.701	7.37
996.127	-6.73
996.553	9.37
996.979	-8.13
997.405	-5.43
997.83	-6.03
998.256	-6.53
998.682	-5.53
999.108	-8.73
999.534	1.67
999.959	-5.03
1000.385	-3.33
1000.811	4.97
1001.236	-7.73
1001.662	-8.13
1002.087	-9.13
1002.513	2.47
1002.938	1.87
1003.364	-2.43
1003.789	-2.23
1004.215	-1.73
1004.64	-5.13
1005.066	1.97
1005.491	0.97
1005.916	-3.93
1006.342	-6.13
1006.767	-5.73
1007.192	2.07
1007.617	-0.53
1008.042	-1.63
1008.468	-8.13
1008.893	-0.13
1009.318	-2.13
1009.743	-1.63
1010.168	0.87
1010.593	-0.03
1011.018	-6.23
1011.443	-2.83
1011.868	5.77
1012.293	-5.83
1012.718	-12.63
1013.143	1.47
1013.567	-4.03
1013.992	-2.03
1014.417	-3.23
1014.842	4.77
1015.267	-7.43
1015.691	1.77
1016.116	5.27
1016.541	2.07
1016.965	5.17
1017.39	2.37
1017.814	-0.13
1018.239	1.67
1018.663	-6.93
1019.088	-2.03
1019.512	-3.33
1019.937	-2.63
1020.361	-4.83
1020.785	-9.73
1021.21	-2.03
1021.634	-4.63
1022.058	-0.73
1022.483	2.27
1022.907	-2.93
1023.331	-5.73
1023.755	-7.03
1024.179	-2.23
1024.604	-6.73
1025.028	-7.73
1025.452	-4.53
1025.876	1.97
1026.3	-4.13
1026.724	-8.93
1027.148	-5.43
1027.572	-7.73
1027.996	-5.63
1028.42	-2.73
1028.843	-8.43
1029.267	-3.03
1029.691	-1.63
1030.115	-5.63
1030.539	-2.83
1030.962	-3.03
1031.386	-15.73
1031.81	-2.63
1032.233	-0.43
1032.657	2.47
1033.08	-3.23
1033.504	-1.53
1033.927	-4.73
1034.351	-0.93
1034.774	-1.53
1035.198	-1.23
1035.621	-1.23
1036.045	-3.13
1036.468	4.97
1036.891	-9.73
1037.315	-3.63
1037.738	-7.93
1038.161	-0.43
1038.584	-4.93
1039.008	-2.23
1039.431	-11.73
1039.854	-5.33
1040.277	-11.03
1040.7	-7.03
1041.123	-2.73
1041.546	-6.63
1041.969	-1.13
1042.392	-4.63
1042.815	-5.23
1043.238	-1.63
1043.661	5.17
1044.084	-4.83
1044.507	-4.33
1044.93	-4.43
1045.352	-5.53
1045.775	-2.43
1046.198	-5.13
1046.621	-2.33
1047.043	0.37
1047.466	6.47
1047.889	-4.43
1048.311	-5.63
1048.734	-5.23
1049.156	-1.13
1049.579	-1.23
1050.001	-3.63
1050.424	-1.33
1050.846	-4.63
1051.269	-0.03
1051.691	-6.23
1052.113	-11.33
1052.536	-2.33
1052.958	-3.43
1053.38	-7.43
1053.802	-14.93
1054.225	5.47
1054.647	-11.53
1055.069	-3.33
1055.491	0.27
1055.913	-6.23
1056.335	2.47
1056.757	-0.03
1057.179	-3.23
1057.601	-6.23
1058.023	-5.13
1058.445	-1.23
1058.867	-2.93
1059.289	-6.53
1059.711	-10.33
1060.133	-3.33
1060.555	-6.63
1060.976	-1.63
1061.398	-10.83
1061.82	-5.23
1062.241	-10.13
1062.663	-12.43
1063.085	-7.13
1063.506	2.47
1063.928	-0.43
1064.35	-5.93
1064.771	-12.83
1065.193	-4.33
1065.614	-7.83
1066.035	-6.73
1066.457	-5.33
1066.878	3.67
1067.3	-1.73
1067.721	-7.03
1068.142	-8.03
1068.564	-8.13
1068.985	-2.53
1069.406	-7.13
1069.827	-14.13
1070.248	-9.33
1070.67	-7.23
1071.091	-6.03
1071.512	-4.03
1071.933	-7.83
1072.354	-8.23
1072.775	-6.33
1073.196	-13.03
1073.617	-2.13
1074.038	-7.93
1074.459	-2.43
1074.88	-5.23
1075.3	-0.93
1075.721	-8.43
1076.142	-4.23
1076.563	-2.93
1076.983	-10.63
1077.404	-8.53
1077.825	-10.23
1078.246	-6.13
1078.666	-10.73
1079.087	-12.83
1079.507	-10.33
1079.928	2.17
1080.348	0.57
1080.769	-11.93
1081.189	-0.23
1081.61	0.97
1082.03	-4.63
1082.451	-9.33
1082.871	-2.53
1083.291	-10.63
1083.711	-13.73
1084.132	-3.93
1084.552	-3.93
1084.972	-0.93
1085.392	-13.43
1085.813	-11.73
1086.233	-8.83
1086.653	-8.43
1087.073	-6.23
1087.493	-11.83
1087.913	-10.23
1088.333	-5.53
1088.753	-3.13
1089.173	0.87
1089.593	-1.33
1090.013	6.17
1090.433	3.37
1090.852	-4.13
1091.272	-0.63
1091.692	-1.53
1092.112	-1.73
1092.531	-5.93
1092.951	-15.13
1093.371	-6.93
1093.79	0.27
1094.21	-5.23
1094.63	-6.93
1095.049	-5.53
1095.469	-5.03
1095.888	-10.23
1096.308	-0.43
1096.727	2.17
1097.146	-6.23
1097.566	-4.23
1097.985	-4.43
1098.405	-1.83
1098.824	-2.03
1099.243	-9.83
1099.662	-11.33
1100.082	-5.63
1100.501	-0.43
1100.92	-7.03
1101.339	-2.03
1101.758	-5.13
