Data from 20171114-ORNL-Ar_H_NY_Subt18_08-09-13-041.txt Node
Date: Tue Nov 14 08:09:13 EST 2017
User: Ender
Spectrometer: HR+D1039
Trigger mode: 0
Integration Time (sec): 2.730000E-2
Scans to average: 10
Electric dark correction enabled: true
Nonlinearity correction enabled: false
Boxcar width: 0
XAxis mode: Wavelengths
Number of Pixels in Spectrum: 2048
>>>>>Begin Spectral Data<<<<<
187.836	-5.52
188.309	-5.52
188.782	-5.52
189.255	-0.52
189.728	-2.42
190.201	8.88
190.674	-0.12
191.147	2.08
191.619	-4.32
192.092	-1.82
192.565	11.98
193.038	-0.82
193.511	2.68
193.984	1.38
194.456	-0.72
194.929	-2.82
195.402	-6.92
195.874	-1.02
196.347	1.88
196.82	-0.82
197.292	4.28
197.765	0.08
198.237	-4.92
198.71	2.68
199.182	2.28
199.655	3.68
200.127	5.68
200.6	-7.12
201.072	-1.92
201.544	-5.42
202.017	0.28
202.489	7.58
202.961	-1.22
203.433	-6.72
203.906	-6.62
204.378	-3.82
204.85	-1.32
205.322	-4.42
205.794	0.48
206.266	-1.02
206.739	-5.22
207.211	4.08
207.683	-3.52
208.155	-2.52
208.627	-5.12
209.099	2.08
209.57	-0.82
210.042	-5.22
210.514	-1.82
210.986	-0.62
211.458	-7.12
211.93	-2.62
212.402	1.78
212.873	-3.92
213.345	-5.22
213.817	-10.22
214.288	-1.32
214.76	-7.12
215.232	-6.72
215.703	-4.22
216.175	-3.02
216.646	-6.82
217.118	-8.82
217.589	-2.22
218.061	0.48
218.532	-2.02
219.004	-1.62
219.475	-4.72
219.946	-7.82
220.418	-4.42
220.889	1.58
221.36	4.88
221.832	-1.42
222.303	-6.12
222.774	2.88
223.245	-8.02
223.717	-5.22
224.188	-2.12
224.659	-5.92
225.13	-2.22
225.601	-1.92
226.072	4.18
226.543	-1.52
227.014	5.98
227.485	4.38
227.956	-2.42
228.427	-4.22
228.898	-0.42
229.369	-1.02
229.839	-3.62
230.31	-5.62
230.781	0.48
231.252	-1.52
231.722	-9.22
232.193	-9.32
232.664	-0.72
233.135	-0.42
233.605	-0.22
234.076	-4.52
234.546	0.28
235.017	1.08
235.487	-1.52
235.958	-4.72
236.428	-9.92
236.899	-4.02
237.369	-1.32
237.84	-9.32
238.31	0.88
238.78	-3.12
239.251	-7.62
239.721	-2.52
240.191	-4.92
240.662	1.18
241.132	1.48
241.602	-6.22
242.072	-3.42
242.542	6.28
243.013	-0.32
243.483	0.88
243.953	2.98
244.423	-1.72
244.893	-4.12
245.363	-3.12
245.833	-1.42
246.303	-5.32
246.773	7.38
247.243	-3.72
247.712	-0.92
248.182	1.78
248.652	2.18
249.122	-4.82
249.592	3.48
250.061	9.08
250.531	9.88
251.001	2.68
251.471	3.78
251.94	3.58
252.41	1.78
252.879	-6.82
253.349	2.38
253.818	5.68
254.288	1.58
254.757	-5.62
255.227	-1.02
255.696	-0.72
256.166	4.38
256.635	4.38
257.105	4.68
257.574	3.48
258.043	-1.42
258.513	-6.92
258.982	0.18
259.451	-0.42
259.92	0.98
260.389	2.28
260.859	3.48
261.328	4.28
261.797	4.58
262.266	5.08
262.735	8.38
263.204	0.78
263.673	-5.02
264.142	4.88
264.611	-4.32
265.08	5.78
265.549	0.48
266.018	3.78
266.487	-4.22
266.955	1.88
267.424	0.88
267.893	4.48
268.362	0.48
268.83	1.08
269.299	6.88
269.768	6.08
270.236	-0.32
270.705	0.98
271.174	5.68
271.642	9.58
272.111	2.18
272.579	1.88
273.048	1.58
273.516	-3.72
273.985	0.88
274.453	6.88
274.922	6.48
275.39	5.68
275.858	-4.62
276.327	8.38
276.795	10.48
277.263	-4.32
277.731	8.88
278.2	11.08
278.668	4.18
279.136	10.28
279.604	1.78
280.072	10.28
280.54	11.48
281.008	2.98
281.477	10.28
281.945	9.98
282.413	7.68
282.881	6.38
283.348	3.78
283.816	6.48
284.284	6.88
284.752	11.18
285.22	12.78
285.688	14.98
286.156	7.98
286.623	21.08
287.091	5.28
287.559	8.88
288.026	8.88
288.494	5.68
288.962	2.18
289.429	6.38
289.897	13.38
290.364	6.28
290.832	12.88
291.3	6.28
291.767	10.88
292.234	10.28
292.702	6.38
293.169	5.98
293.637	11.58
294.104	8.18
294.571	1.48
295.039	6.78
295.506	11.78
295.973	11.58
296.44	12.28
296.908	10.98
297.375	1.68
297.842	11.68
298.309	9.38
298.776	6.68
299.243	10.98
299.71	7.28
300.177	10.38
300.644	10.48
301.111	12.48
301.578	16.28
302.045	10.58
302.512	19.48
302.979	21.48
303.446	13.68
303.913	17.98
304.379	11.98
304.846	14.58
305.313	18.48
305.78	9.28
306.246	13.78
306.713	20.58
307.18	18.48
307.646	18.28
308.113	18.38
308.579	20.48
309.046	20.88
309.512	16.48
309.979	16.08
310.445	25.78
310.912	25.28
311.378	28.88
311.845	21.28
312.311	26.18
312.777	19.18
313.244	23.58
313.71	26.68
314.176	25.38
314.642	22.98
315.109	22.98
315.575	25.88
316.041	29.18
316.507	19.48
316.973	27.18
317.439	21.58
317.905	31.28
318.371	29.18
318.837	26.78
319.303	26.58
319.769	29.38
320.235	29.08
320.701	22.88
321.167	29.88
321.633	25.78
322.099	31.48
322.564	29.28
323.03	28.18
323.496	23.68
323.962	25.88
324.427	29.08
324.893	30.68
325.359	32.38
325.824	26.38
326.29	24.78
326.755	26.58
327.221	30.78
327.686	31.78
328.152	34.78
328.617	32.98
329.083	35.68
329.548	42.28
330.014	40.28
330.479	26.68
330.944	35.68
331.41	30.18
331.875	36.68
332.34	34.48
332.805	35.58
333.271	32.08
333.736	28.18
334.201	35.98
334.666	38.98
335.131	41.78
335.596	44.88
336.061	37.28
336.526	33.88
336.991	35.58
337.456	40.58
337.921	38.38
338.386	34.28
338.851	35.18
339.316	39.78
339.781	42.68
340.246	42.78
340.711	40.08
341.175	45.88
341.64	38.78
342.105	46.08
342.569	45.98
343.034	46.48
343.499	40.48
343.963	36.38
344.428	50.08
344.893	48.08
345.357	50.98
345.822	46.78
346.286	56.58
346.751	55.78
347.215	57.68
347.679	60.28
348.144	74.08
348.608	60.78
349.073	57.88
349.537	57.18
350.001	61.88
350.465	69.88
350.93	68.08
351.394	68.38
351.858	49.98
352.322	73.78
352.786	67.58
353.25	76.48
353.715	85.68
354.179	77.18
354.643	94.78
355.107	94.58
355.571	79.68
356.035	80.68
356.498	87.28
356.962	88.88
357.426	92.18
357.89	89.28
358.354	73.38
358.818	69.78
359.281	61.28
359.745	68.18
360.209	66.98
360.673	61.78
361.136	65.78
361.6	68.78
362.064	69.58
362.527	70.28
362.991	74.88
363.454	65.88
363.918	64.08
364.381	64.28
364.845	65.08
365.308	76.08
365.772	79.28
366.235	75.38
366.698	71.38
367.162	69.78
367.625	72.18
368.088	76.88
368.552	67.28
369.015	72.48
369.478	82.18
369.941	90.88
370.404	74.48
370.867	88.18
371.331	92.58
371.794	88.08
372.257	84.68
372.72	95.28
373.183	91.98
373.646	80.78
374.109	86.88
374.572	86.58
375.035	77.98
375.497	81.98
375.96	91.08
376.423	93.28
376.886	101.08
377.349	90.48
377.811	86.18
378.274	92.78
378.737	93.28
379.199	94.88
379.662	97.28
380.125	94.38
380.587	91.98
381.05	96.38
381.512	104.38
381.975	106.08
382.437	112.28
382.9	106.08
383.362	112.68
383.825	117.28
384.287	108.98
384.75	106.08
385.212	107.28
385.674	119.58
386.136	110.88
386.599	101.08
387.061	108.18
387.523	108.68
387.985	118.88
388.447	122.78
388.91	111.18
389.372	112.18
389.834	113.98
390.296	113.18
390.758	116.68
391.22	115.48
391.682	128.58
392.144	135.68
392.606	126.98
393.068	129.38
393.529	136.48
393.991	124.88
394.453	119.18
394.915	122.78
395.377	118.48
395.838	123.18
396.3	123.78
396.762	126.38
397.224	122.58
397.685	123.78
398.147	127.18
398.608	118.78
399.07	116.58
399.531	127.88
399.993	136.38
400.454	143.18
400.916	131.68
401.377	124.78
401.839	142.18
402.3	141.38
402.762	154.78
403.223	158.68
403.684	155.68
404.145	149.78
404.607	153.78
405.068	153.18
405.529	159.18
405.99	168.78
406.451	154.08
406.913	157.38
407.374	152.98
407.835	157.38
408.296	159.48
408.757	166.28
409.218	173.78
409.679	167.88
410.14	166.58
410.601	165.68
411.062	172.08
411.522	172.38
411.983	169.88
412.444	168.18
412.905	174.08
413.366	177.88
413.826	190.98
414.287	214.38
414.748	255.78
415.208	246.58
415.669	203.68
416.13	200.08
416.59	197.68
417.051	209.28
417.511	217.88
417.972	230.08
418.432	238.18
418.893	279.98
419.353	245.88
419.814	186.48
420.274	172.38
420.734	173.58
421.195	187.68
421.655	183.38
422.115	183.48
422.576	192.18
423.036	189.88
423.496	202.48
423.956	200.88
424.416	220.68
424.876	256.08
425.336	249.58
425.797	255.58
426.257	247.78
426.717	231.08
427.177	227.88
427.637	217.68
428.097	223.98
428.556	231.38
429.016	252.18
429.476	240.88
429.936	258.88
430.396	265.08
430.856	272.48
431.315	297.18
431.775	329.48
432.235	346.18
432.694	328.08
433.154	335.78
433.614	362.78
434.073	311.88
434.533	267.18
434.993	252.58
435.452	266.38
435.912	265.88
436.371	264.48
436.83	261.38
437.29	246.68
437.749	236.98
438.209	244.28
438.668	260.38
439.127	265.28
439.587	255.68
440.046	238.08
440.505	245.08
440.964	267.18
441.424	298.38
441.883	296.88
442.342	255.38
442.801	218.08
443.26	216.28
443.719	218.88
444.178	219.38
444.637	208.28
445.096	219.38
445.555	216.88
446.014	222.98
446.473	230.48
446.932	235.88
447.391	229.78
447.849	223.38
448.308	218.68
448.767	228.38
449.226	240.68
449.685	231.38
450.143	248.58
450.602	240.68
451.061	226.98
451.519	224.58
451.978	226.28
452.436	231.98
452.895	237.78
453.353	249.58
453.812	237.98
454.27	234.38
454.729	234.78
455.187	235.98
455.646	238.08
456.104	243.18
456.562	258.68
457.021	256.78
457.479	260.58
457.937	274.68
458.395	259.48
458.854	252.58
459.312	255.48
459.77	274.68
460.228	256.08
460.686	248.28
461.144	256.38
461.602	241.78
462.06	248.68
462.518	255.48
462.976	261.18
463.434	261.58
463.892	255.78
464.35	275.38
464.808	291.28
465.266	270.18
465.724	276.88
466.181	277.88
466.639	270.38
467.097	293.58
467.555	300.48
468.012	297.68
468.47	304.38
468.928	325.18
469.385	346.38
469.843	349.78
470.3	347.78
470.758	361.28
471.215	378.28
471.673	397.18
472.13	396.68
472.588	407.08
473.045	372.38
473.503	384.38
473.96	393.78
474.417	400.88
474.875	428.18
475.332	466.58
475.789	458.98
476.246	457.68
476.704	477.88
477.161	489.78
477.618	516.98
478.075	556.88
478.532	597.28
478.989	658.78
479.446	774.68
479.903	738.58
480.36	758.78
480.817	824.48
481.274	902.48
481.731	993.58
482.188	1060.98
482.645	1170.98
483.102	1276.68
483.558	1368.18
484.015	1409.68
484.472	1394.18
484.929	1351.48
485.385	1308.58
485.842	1277.48
486.299	1230.68
486.755	1192.68
487.212	1019.18
487.668	865.98
488.125	803.28
488.582	745.98
489.038	722.38
489.494	687.68
489.951	670.88
490.407	655.28
490.864	634.28
491.32	626.98
491.776	631.78
492.233	636.78
492.689	607.78
493.145	597.28
493.602	588.88
494.058	620.78
494.514	611.68
494.97	628.78
495.426	647.28
495.882	608.48
496.338	604.78
496.794	607.78
497.251	607.18
497.707	625.18
498.163	634.78
498.618	637.38
499.074	633.58
499.53	658.08
499.986	660.18
500.442	644.68
500.898	620.98
501.354	609.18
501.809	616.28
502.265	613.78
502.721	626.78
503.177	638.68
503.632	640.98
504.088	641.98
504.543	659.68
504.999	685.78
505.455	649.68
505.91	640.28
506.366	640.58
506.821	630.18
507.277	629.58
507.732	636.58
508.187	629.78
508.643	644.78
509.098	643.68
509.553	658.98
510.009	676.48
510.464	678.28
510.919	688.78
511.375	696.98
511.83	703.78
512.285	717.48
512.74	754.48
513.195	772.98
513.65	775.88
514.105	768.88
514.56	765.28
515.015	786.38
515.47	793.48
515.925	773.68
516.38	782.78
516.835	789.98
517.29	779.68
517.745	777.78
518.2	768.58
518.655	760.88
519.109	745.08
519.564	735.98
520.019	733.28
520.474	727.08
520.928	724.58
521.383	722.28
521.838	714.08
522.292	707.58
522.747	727.08
523.201	709.98
523.656	699.28
524.11	696.38
524.565	706.98
525.019	698.98
525.474	701.88
525.928	706.88
526.382	695.58
526.837	696.18
527.291	710.78
527.745	700.78
528.2	703.98
528.654	697.78
529.108	700.18
529.562	694.98
530.016	693.68
530.47	691.78
530.925	683.28
531.379	691.48
531.833	700.78
532.287	702.18
532.741	709.38
533.195	707.78
533.649	705.68
534.103	721.68
534.556	705.28
535.01	715.28
535.464	708.28
535.918	723.38
536.372	716.58
536.826	719.58
537.279	713.28
537.733	707.48
538.187	717.28
538.64	711.38
539.094	726.78
539.548	733.08
540.001	729.38
540.455	740.18
540.908	740.88
541.362	744.28
541.815	756.98
542.269	764.88
542.722	768.58
543.175	778.38
543.629	773.38
544.082	798.48
544.536	793.88
544.989	783.68
545.442	798.48
545.895	807.48
546.349	802.38
546.802	808.38
547.255	817.88
547.708	819.18
548.161	816.78
548.614	824.88
549.067	839.88
549.52	828.48
549.973	823.18
550.426	811.88
550.879	797.28
551.332	823.28
551.785	822.98
552.238	822.68
552.691	835.88
553.144	845.28
553.596	873.18
554.049	878.68
554.502	906.58
554.955	927.18
555.407	924.58
555.86	907.68
556.313	906.58
556.765	895.48
557.218	890.98
557.67	891.98
558.123	893.38
558.576	876.78
559.028	889.38
559.48	899.88
559.933	886.58
560.385	862.98
560.838	815.58
561.29	808.28
561.742	802.98
562.195	785.58
562.647	783.98
563.099	795.58
563.551	796.38
564.004	803.38
564.456	773.08
564.908	771.28
565.36	752.28
565.812	742.08
566.264	735.98
566.716	729.28
567.168	717.28
567.62	725.18
568.072	706.58
568.524	713.98
568.976	697.18
569.428	679.98
569.88	696.68
570.332	701.68
570.784	698.88
571.235	701.38
571.687	714.28
572.139	729.58
572.59	727.08
573.042	724.38
573.494	727.28
573.945	718.28
574.397	698.58
574.849	703.88
575.3	699.48
575.752	689.28
576.203	686.08
576.655	704.78
577.106	683.98
577.557	689.68
578.009	682.48
578.46	676.88
578.912	674.98
579.363	678.88
579.814	687.68
580.265	678.18
580.717	685.88
581.168	688.88
581.619	685.38
582.07	696.08
582.521	690.68
582.972	684.88
583.423	688.68
583.875	685.58
584.326	690.78
584.777	712.48
585.227	734.48
585.678	741.38
586.129	755.38
586.58	780.38
587.031	806.68
587.482	838.38
587.933	858.68
588.384	831.88
588.834	796.18
589.285	778.08
589.736	799.68
590.186	780.68
590.637	786.78
591.088	763.08
591.538	753.88
591.989	740.28
592.439	743.18
592.89	733.58
593.34	725.18
593.791	717.68
594.241	707.78
594.692	715.08
595.142	711.18
595.593	710.08
596.043	710.98
596.493	720.08
596.943	722.88
597.394	740.28
597.844	728.98
598.294	758.18
598.744	775.68
599.195	801.78
599.645	853.48
600.095	878.68
600.545	941.78
600.995	992.88
601.445	1060.18
601.895	1113.28
602.345	1162.68
602.795	1139.98
603.245	1099.48
603.695	1043.48
604.145	989.58
604.594	940.28
605.044	889.88
605.494	822.08
605.944	779.08
606.393	765.98
606.843	738.18
607.293	741.88
607.743	750.48
608.192	756.48
608.642	772.18
609.091	773.58
609.541	775.28
609.99	789.98
610.44	771.58
610.889	735.08
611.339	713.58
611.788	706.28
612.238	708.08
612.687	717.28
613.136	712.08
613.586	723.98
614.035	723.18
614.484	734.68
614.933	721.28
615.383	730.98
615.832	720.98
616.281	720.88
616.73	691.18
617.179	675.18
617.628	653.18
618.077	646.48
618.526	631.38
618.975	640.28
619.424	632.28
619.873	630.18
620.322	630.08
620.771	624.28
621.22	618.08
621.669	605.38
622.118	602.28
622.567	604.18
623.015	593.18
623.464	582.68
623.913	568.48
624.361	563.58
624.81	577.08
625.259	572.28
625.707	569.08
626.156	571.28
626.604	580.78
627.053	575.58
627.501	588.78
627.95	588.18
628.398	604.98
628.847	592.18
629.295	591.68
629.744	586.48
630.192	581.28
630.64	579.68
631.089	568.58
631.537	555.08
631.985	540.48
632.433	546.48
632.881	549.88
633.33	547.68
633.778	541.78
634.226	536.18
634.674	551.98
635.122	548.58
635.57	570.98
636.018	577.98
636.466	570.48
636.914	568.78
637.362	592.88
637.81	588.18
638.258	603.78
638.705	604.08
639.153	636.38
639.601	643.08
640.049	664.08
640.497	691.48
640.944	716.28
641.392	660.38
641.84	621.98
642.287	604.18
642.735	582.28
643.182	573.28
643.63	572.98
644.078	578.68
644.525	594.58
644.973	588.68
645.42	610.48
645.867	634.78
646.315	648.48
646.762	668.38
647.21	701.48
647.657	727.38
648.104	759.58
648.551	763.48
648.999	830.68
649.446	901.78
649.893	987.28
650.34	1136.68
650.787	1354.58
651.234	1661.88
651.682	2160.68
652.129	2926.28
652.576	4155.68
653.023	6036.68
653.47	8134.88
653.917	10045.28
654.363	11446.08
654.81	12559.98
655.257	11894.58
655.704	7904.08
656.151	4757.98
656.598	3133.78
657.044	2255.18
657.491	1750.68
657.938	1406.18
658.385	1192.98
658.831	1055.38
659.278	932.48
659.724	841.88
660.171	791.88
660.618	726.78
661.064	683.48
661.511	666.08
661.957	659.68
662.404	658.28
662.85	657.28
663.296	637.38
663.743	570.08
664.189	554.18
664.635	540.48
665.082	541.38
665.528	535.78
665.974	536.58
666.42	525.98
666.867	529.28
667.313	503.88
667.759	485.88
668.205	460.18
668.651	467.98
669.097	454.98
669.543	460.88
669.989	456.78
670.435	460.38
670.881	460.38
671.327	470.38
671.773	487.28
672.219	509.88
672.665	578.18
673.11	612.18
673.556	661.38
674.002	697.98
674.448	681.08
674.893	560.38
675.339	503.18
675.785	457.08
676.23	440.68
676.676	407.38
677.122	408.68
677.567	391.08
678.013	386.98
678.458	369.18
678.904	373.48
679.349	359.68
679.794	375.28
680.24	370.08
680.685	368.28
681.131	360.28
681.576	368.68
682.021	367.78
682.466	369.18
682.912	370.28
683.357	373.78
683.802	400.48
684.247	435.88
684.692	476.08
685.137	515.78
685.583	561.08
686.028	595.68
686.473	545.88
686.918	469.08
687.363	439.38
687.807	413.88
688.252	381.28
688.697	374.08
689.142	356.28
689.587	349.58
690.032	340.68
690.477	364.48
690.921	374.88
691.366	403.18
691.811	422.78
692.255	454.58
692.7	483.88
693.145	538.48
693.589	759.38
694.034	1231.18
694.478	1642.88
694.923	1807.18
695.367	2336.88
695.812	1247.38
696.256	526.78
696.701	383.68
697.145	362.68
697.59	352.98
698.034	327.78
698.478	341.88
698.922	339.58
699.367	328.38
699.811	349.18
700.255	372.38
700.699	403.08
701.143	444.28
701.588	500.18
702.032	536.88
702.476	530.78
702.92	516.48
703.364	527.18
703.808	704.28
704.252	1123.28
704.696	1567.28
705.14	1750.38
705.584	2207.18
706.027	1118.08
706.471	545.28
706.915	418.68
707.359	373.98
707.803	335.58
708.246	335.08
708.69	324.98
709.134	333.48
709.577	335.08
710.021	328.88
710.465	324.38
710.908	314.88
711.352	310.68
711.795	321.58
712.239	374.38
712.682	405.68
713.126	436.28
713.569	471.48
714.012	374.28
714.456	316.68
714.899	299.58
715.342	284.58
715.786	274.78
716.229	271.18
716.672	270.68
717.115	261.58
717.558	262.98
718.002	262.28
718.445	277.48
718.888	295.18
719.331	309.28
719.774	322.88
720.217	319.78
720.66	294.08
721.103	285.68
721.546	260.48
721.989	264.18
722.432	245.28
722.874	252.98
723.317	250.78
723.76	246.28
724.203	268.78
724.645	339.08
725.088	479.68
725.531	591.28
725.974	667.28
726.416	569.08
726.859	322.38
727.301	263.88
727.744	251.98
728.187	241.58
728.629	244.98
729.071	258.78
729.514	266.98
729.956	286.08
730.399	300.88
730.841	302.78
731.283	295.48
731.726	279.28
732.168	278.78
732.61	287.28
733.053	304.68
733.495	336.48
733.937	377.28
734.379	420.08
734.821	467.88
735.263	595.48
735.705	917.58
736.148	1748.38
736.59	2753.88
737.032	3177.38
737.474	2588.38
737.916	861.98
738.357	464.08
738.799	348.88
739.241	316.58
739.683	295.18
740.125	308.58
740.567	314.68
741.008	337.68
741.45	329.98
741.892	331.28
742.334	371.68
742.775	381.68
743.217	366.38
743.658	281.68
744.1	271.28
744.542	284.28
744.983	338.18
745.425	358.68
745.866	359.38
746.307	291.48
746.749	301.88
747.19	349.98
747.632	502.48
748.073	984.28
748.514	2057.98
748.956	3031.88
749.397	3826.38
749.838	3177.78
750.279	3079.78
750.72	1581.48
751.162	592.18
751.603	348.48
752.044	264.48
752.485	231.18
752.926	221.98
753.367	210.68
753.808	205.68
754.249	199.48
754.69	193.18
755.131	195.08
755.572	200.68
756.013	193.98
756.453	197.88
756.894	204.08
757.335	202.68
757.776	206.18
758.216	206.98
758.657	210.48
759.098	217.68
759.538	239.08
759.979	280.88
760.42	413.08
760.86	796.28
761.301	2068.58
761.741	4878.38
762.182	6681.88
762.622	4723.08
763.063	1391.98
763.503	565.68
763.943	348.08
764.384	282.88
764.824	265.18
765.264	243.28
765.705	224.78
766.145	196.28
766.585	188.58
767.025	183.88
767.465	176.38
767.906	191.18
768.346	202.78
768.786	213.68
769.226	223.48
769.666	333.38
770.106	695.48
770.546	1732.28
770.986	2767.38
771.426	2445.48
771.866	839.38
772.306	346.68
772.745	213.88
773.185	168.78
773.625	176.58
774.065	159.98
774.505	170.28
774.944	221.18
775.384	386.28
775.824	600.88
776.263	576.28
776.703	290.58
777.142	169.08
777.582	148.38
778.021	130.38
778.461	135.78
778.9	139.28
779.34	131.38
779.779	119.28
780.219	117.58
780.658	113.88
781.097	117.78
781.537	117.18
781.976	119.98
782.415	111.78
782.855	109.98
783.294	110.38
783.733	109.68
784.172	112.08
784.611	109.98
785.05	112.18
785.489	118.28
785.928	123.88
786.367	132.18
786.806	125.88
787.245	137.88
787.684	146.48
788.123	153.58
788.562	138.58
789.001	137.38
789.44	131.48
789.879	123.68
790.317	124.18
790.756	125.98
791.195	140.38
791.634	157.98
792.072	222.68
792.511	415.58
792.95	1129.48
793.388	2252.08
793.827	1974.58
794.265	712.08
794.704	302.28
795.142	197.18
795.581	165.58
796.019	149.18
796.458	141.08
796.896	125.28
797.334	148.78
797.773	173.98
798.211	241.08
798.649	502.88
799.087	1120.28
799.526	1738.88
799.964	2165.08
800.402	2084.68
800.84	801.18
801.278	328.68
801.716	198.78
802.154	163.38
802.592	156.78
803.03	147.88
803.468	140.88
803.906	150.38
804.344	166.68
804.782	145.88
805.22	145.88
805.658	138.28
806.096	156.28
806.533	168.28
806.971	190.08
807.409	235.38
807.847	353.88
808.284	757.48
808.722	2067.38
809.16	3479.98
809.597	3457.38
810.035	5845.08
810.472	5983.08
810.91	2229.58
811.347	860.58
811.785	433.98
812.222	274.58
812.66	210.48
813.097	173.28
813.535	151.38
813.972	138.28
814.409	121.68
814.846	119.78
815.284	115.88
815.721	109.08
816.158	114.18
816.595	116.18
817.032	159.68
817.47	181.08
817.907	141.48
818.344	105.98
818.781	103.68
819.218	99.98
819.655	131.18
820.092	202.98
820.529	221.78
820.966	177.88
821.403	136.18
821.839	106.18
822.276	103.78
822.713	131.88
823.15	146.28
823.587	130.28
824.023	163.18
824.46	335.18
824.897	987.68
825.333	1409.08
825.77	615.58
826.206	245.98
826.643	148.28
827.08	114.38
827.516	87.38
827.953	84.48
828.389	88.98
828.825	71.28
829.262	72.38
829.698	73.38
830.135	69.38
830.571	65.78
831.007	69.68
831.443	66.28
831.88	67.98
832.316	60.88
832.752	69.38
833.188	71.78
833.624	76.28
834.06	70.18
834.497	70.08
834.933	75.88
835.369	76.88
835.805	80.18
836.241	80.28
836.677	87.48
837.112	96.58
837.548	119.78
837.984	151.58
838.42	225.88
838.856	564.78
839.292	1662.98
839.727	2409.78
840.163	1146.38
840.599	1041.18
841.034	2189.68
841.47	2183.48
841.906	821.68
842.341	362.78
842.777	209.98
843.212	211.68
843.648	193.68
844.083	118.88
844.519	88.08
844.954	72.88
845.39	63.68
845.825	61.18
846.261	60.08
846.696	58.58
847.131	59.88
847.566	64.38
848.002	57.58
848.437	62.88
848.872	64.58
849.307	72.08
849.742	91.58
850.177	210.88
850.613	612.58
851.048	919.98
851.483	402.28
851.918	162.48
852.353	96.38
852.788	57.58
853.223	56.18
853.657	54.78
854.092	52.88
854.527	49.18
854.962	46.58
855.397	48.18
855.832	47.38
856.266	50.28
856.701	43.08
857.136	38.68
857.57	46.88
858.005	59.58
858.44	59.58
858.874	45.78
859.309	59.18
859.743	43.88
860.178	54.08
860.612	39.78
861.047	61.48
861.481	74.58
861.915	74.98
862.35	51.68
862.784	39.68
863.218	42.88
863.653	28.08
864.087	52.38
864.521	59.08
864.955	76.78
865.39	165.78
865.824	179.38
866.258	127.08
866.692	177.78
867.126	197.58
867.56	113.58
867.994	56.98
868.428	43.28
868.862	54.88
869.296	61.28
869.73	61.78
870.164	56.18
870.598	53.38
871.031	45.68
871.465	32.88
871.899	28.28
872.333	27.28
872.766	23.78
873.2	26.08
873.634	34.58
874.067	25.08
874.501	27.68
874.935	37.38
875.368	37.48
875.802	27.18
876.235	27.78
876.669	30.98
877.102	28.08
877.535	25.48
877.969	22.88
878.402	28.88
878.836	23.38
879.269	20.48
879.702	25.38
880.135	24.88
880.569	27.08
881.002	34.88
881.435	28.48
881.868	23.48
882.301	26.78
882.734	23.78
883.167	25.68
883.601	23.38
884.034	29.88
884.467	15.28
884.899	21.88
885.332	17.48
885.765	13.48
886.198	14.48
886.631	19.08
887.064	14.78
887.497	25.58
887.929	27.28
888.362	22.68
888.795	12.68
889.228	20.58
889.66	22.28
890.093	22.28
890.526	17.68
890.958	17.28
891.391	24.08
891.823	24.88
892.256	21.18
892.688	11.78
893.121	24.28
893.553	16.68
893.985	22.88
894.418	24.78
894.85	17.38
895.282	16.28
895.715	18.28
896.147	22.28
896.579	14.08
897.011	15.68
897.444	21.28
897.876	17.98
898.308	17.38
898.74	16.68
899.172	16.98
899.604	24.98
900.036	22.28
900.468	14.48
900.9	20.68
901.332	22.48
901.764	17.78
902.196	18.88
902.628	19.48
903.06	21.18
903.491	30.98
903.923	29.18
904.355	20.58
904.787	31.48
905.218	24.48
905.65	26.88
906.082	16.28
906.513	14.48
906.945	22.78
907.376	13.98
907.808	22.48
908.239	20.98
908.671	19.88
909.102	23.68
909.534	21.88
909.965	47.28
910.397	104.28
910.828	333.78
911.259	496.08
911.691	238.58
912.122	116.98
912.553	60.08
912.984	39.38
913.415	27.18
913.847	29.58
914.278	18.38
914.709	21.78
915.14	19.38
915.571	23.88
916.002	18.98
916.433	21.58
916.864	17.38
917.295	15.48
917.726	23.98
918.157	14.78
918.587	30.58
919.018	29.38
919.449	24.68
919.88	28.58
920.311	38.28
920.741	56.68
921.172	184.58
921.603	161.08
922.033	79.88
922.464	46.48
922.895	31.58
923.325	24.78
923.756	18.98
924.186	17.68
924.617	23.18
925.047	23.48
925.478	24.68
925.908	25.98
926.338	11.78
926.769	16.48
927.199	20.78
927.629	7.38
928.06	17.78
928.49	17.08
928.92	16.48
929.35	13.58
929.78	8.18
930.21	5.68
930.641	14.98
931.071	12.58
931.501	6.68
931.931	12.68
932.361	12.48
932.791	4.08
933.221	9.38
933.651	7.78
934.08	19.38
934.51	29.08
934.94	16.58
935.37	16.78
935.8	19.58
936.229	7.88
936.659	11.78
937.089	7.88
937.519	16.58
937.948	28.38
938.378	19.88
938.807	6.08
939.237	7.18
939.666	6.38
940.096	-3.62
940.525	10.18
940.955	4.38
941.384	5.38
941.814	0.98
942.243	-1.72
942.672	5.18
943.102	4.18
943.531	6.08
943.96	8.58
944.39	-2.32
944.819	-1.12
945.248	10.48
945.677	6.28
946.106	11.38
946.535	16.48
946.964	2.68
947.393	8.58
947.822	1.88
948.251	5.98
948.68	8.58
949.109	4.08
949.538	4.88
949.967	1.28
950.396	5.98
950.825	1.28
951.254	3.28
951.682	-3.82
952.111	5.18
952.54	7.28
952.969	2.58
953.397	-2.12
953.826	4.88
954.254	-3.22
954.683	-0.32
955.112	-4.32
955.54	5.98
955.969	7.88
956.397	3.28
956.826	-1.22
957.254	3.68
957.682	3.98
958.111	2.48
958.539	-1.52
958.967	4.48
959.396	-0.32
959.824	6.88
960.252	4.28
960.68	1.48
961.109	6.48
961.537	2.58
961.965	0.98
962.393	4.58
962.821	-0.32
963.249	4.98
963.677	5.88
964.105	11.68
964.533	53.68
964.961	44.88
965.389	24.48
965.817	16.98
966.245	4.28
966.672	3.88
967.1	-13.42
967.528	-0.02
967.956	2.58
968.383	7.68
968.811	4.28
969.239	1.58
969.666	5.78
970.094	1.88
970.522	11.28
970.949	3.28
971.377	-1.12
971.804	-1.42
972.232	-1.32
972.659	3.78
973.087	1.38
973.514	1.48
973.941	-2.52
974.369	12.48
974.796	2.78
975.223	5.38
975.651	4.08
976.078	8.68
976.505	-1.12
976.932	2.08
977.359	18.58
977.786	15.78
978.214	6.08
978.641	4.78
979.068	1.48
979.495	-0.42
979.922	3.48
980.349	1.38
980.776	6.38
981.202	-1.02
981.629	9.38
982.056	8.18
982.483	-0.42
982.91	5.38
983.337	-4.62
983.763	6.78
984.19	-1.52
984.617	-2.52
985.043	0.68
985.47	1.78
985.897	3.88
986.323	-4.42
986.75	7.78
987.176	1.28
987.603	5.58
988.029	5.68
988.456	-0.12
988.882	5.18
989.308	-5.82
989.735	0.08
990.161	1.48
990.587	-2.82
991.014	3.08
991.44	10.98
991.866	-0.42
992.292	-4.62
992.719	1.38
993.145	11.18
993.571	-5.92
993.997	-1.22
994.423	5.28
994.849	2.38
995.275	-0.52
995.701	6.88
996.127	-0.22
996.553	4.78
996.979	-6.02
997.405	1.98
997.83	6.58
998.256	-1.12
998.682	-9.82
999.108	-6.82
999.534	-0.22
999.959	-1.92
1000.385	-0.12
1000.811	-3.12
1001.236	-1.02
1001.662	-4.32
1002.087	2.18
1002.513	5.58
1002.938	4.18
1003.364	-0.32
1003.789	-1.52
1004.215	1.68
1004.64	0.38
1005.066	5.98
1005.491	3.88
1005.916	-0.72
1006.342	-5.82
1006.767	-2.92
1007.192	10.78
1007.617	-0.32
1008.042	-0.52
1008.468	-5.12
1008.893	-0.12
1009.318	-0.62
1009.743	3.98
1010.168	4.48
1010.593	3.68
1011.018	-2.42
1011.443	2.78
1011.868	1.98
1012.293	0.08
1012.718	-0.22
1013.143	3.38
1013.567	7.28
1013.992	3.28
1014.417	-8.22
1014.842	6.18
1015.267	-3.22
1015.691	-1.52
1016.116	3.48
1016.541	-5.32
1016.965	4.68
1017.39	6.08
1017.814	-0.62
1018.239	0.78
1018.663	-4.22
1019.088	-5.02
1019.512	4.18
1019.937	-0.92
1020.361	-2.52
1020.785	-7.62
1021.21	3.88
1021.634	-0.12
1022.058	-3.12
1022.483	3.88
1022.907	6.78
1023.331	-3.52
1023.755	-2.52
1024.179	2.58
1024.604	-3.92
1025.028	-0.22
1025.452	-1.22
1025.876	2.88
1026.3	4.08
1026.724	-9.42
1027.148	-4.52
1027.572	-4.12
1027.996	-0.62
1028.42	0.68
1028.843	-1.72
1029.267	-4.62
1029.691	1.48
1030.115	-5.52
1030.539	-2.92
1030.962	-4.12
1031.386	-8.52
1031.81	4.58
1032.233	1.78
1032.657	1.68
1033.08	-5.52
1033.504	0.48
1033.927	-3.32
1034.351	-2.12
1034.774	-3.82
1035.198	1.78
1035.621	-2.32
1036.045	-4.02
1036.468	0.58
1036.891	-4.92
1037.315	-5.62
1037.738	-9.42
1038.161	-0.12
1038.584	-8.32
1039.008	-7.62
1039.431	-2.42
1039.854	-0.42
1040.277	-3.52
1040.7	-10.02
1041.123	3.18
1041.546	-3.52
1041.969	-2.32
1042.392	3.28
1042.815	5.08
1043.238	2.18
1043.661	2.88
1044.084	-8.72
1044.507	-4.82
1044.93	0.78
1045.352	-1.12
1045.775	-3.72
1046.198	3.58
1046.621	-2.92
1047.043	3.38
1047.466	9.18
1047.889	3.78
1048.311	-1.72
1048.734	0.08
1049.156	5.18
1049.579	-0.82
1050.001	1.48
1050.424	2.08
1050.846	-1.62
1051.269	-2.32
1051.691	-8.02
1052.113	-9.02
1052.536	-0.22
1052.958	-2.92
1053.38	0.38
1053.802	-9.82
1054.225	3.38
1054.647	-5.72
1055.069	-2.42
1055.491	2.28
1055.913	-9.22
1056.335	5.28
1056.757	-3.92
1057.179	-3.02
1057.601	-6.22
1058.023	-1.92
1058.445	0.88
1058.867	-4.12
1059.289	-0.12
1059.711	-7.72
1060.133	4.78
1060.555	-4.12
1060.976	-7.02
1061.398	-10.82
1061.82	-7.92
1062.241	-6.02
1062.663	-3.52
1063.085	-4.82
1063.506	3.78
1063.928	-0.22
1064.35	1.58
1064.771	-8.52
1065.193	0.18
1065.614	-3.72
1066.035	0.78
1066.457	-0.22
1066.878	7.78
1067.3	-0.72
1067.721	-4.72
1068.142	-4.12
1068.564	-4.12
1068.985	-2.82
1069.406	-4.02
1069.827	0.48
1070.248	-1.42
1070.67	-5.72
1071.091	-3.32
1071.512	-1.42
1071.933	-2.12
1072.354	-3.52
1072.775	-5.22
1073.196	-7.72
1073.617	-2.42
1074.038	-6.52
1074.459	-3.32
1074.88	-2.82
1075.3	0.28
1075.721	-4.72
1076.142	3.78
1076.563	1.58
1076.983	-8.52
1077.404	-4.92
1077.825	-4.02
1078.246	-2.12
1078.666	-7.62
1079.087	-0.02
1079.507	-6.12
1079.928	2.68
1080.348	1.18
1080.769	-6.42
1081.189	-2.22
1081.61	-1.62
1082.03	-1.32
1082.451	-1.62
1082.871	-1.72
1083.291	-6.52
1083.711	-2.32
1084.132	-5.82
1084.552	-3.32
1084.972	2.68
1085.392	-14.02
1085.813	-9.72
1086.233	-8.52
1086.653	-0.32
1087.073	-3.52
1087.493	-6.82
1087.913	-6.02
1088.333	-2.82
1088.753	-3.32
1089.173	2.88
1089.593	2.48
1090.013	0.38
1090.433	1.78
1090.852	-1.82
1091.272	-0.62
1091.692	-0.82
1092.112	-3.52
1092.531	0.88
1092.951	-9.52
1093.371	-2.12
1093.79	-0.32
1094.21	-4.22
1094.63	-3.02
1095.049	-1.22
1095.469	-3.82
1095.888	-4.52
1096.308	7.98
1096.727	7.28
1097.146	-3.82
1097.566	4.08
1097.985	-5.92
1098.405	-4.02
1098.824	-4.22
1099.243	-6.42
1099.662	-2.82
1100.082	-0.42
1100.501	4.98
1100.92	-5.72
1101.339	-0.02
1101.758	-3.92
