Data from 20171114-ORNL-Ar_H_NY_Subt18_08-05-10-306.txt Node
Date: Tue Nov 14 08:05:10 EST 2017
User: Ender
Spectrometer: HR+D1039
Trigger mode: 0
Integration Time (sec): 2.730000E-2
Scans to average: 10
Electric dark correction enabled: true
Nonlinearity correction enabled: false
Boxcar width: 0
XAxis mode: Wavelengths
Number of Pixels in Spectrum: 2048
>>>>>Begin Spectral Data<<<<<
187.836	-3.73
188.309	-3.73
188.782	-3.73
189.255	2.57
189.728	-0.13
190.201	3.87
190.674	1.37
191.147	4.67
191.619	-5.63
192.092	-1.33
192.565	2.67
193.038	-2.33
193.511	2.67
193.984	-2.83
194.456	-2.43
194.929	-0.03
195.402	0.67
195.874	-0.03
196.347	-0.73
196.82	-9.33
197.292	-1.43
197.765	-2.93
198.237	-5.53
198.71	-1.03
199.182	-1.73
199.655	1.07
200.127	-1.23
200.6	-0.23
201.072	-3.13
201.544	-3.83
202.017	-2.23
202.489	2.17
202.961	-0.73
203.433	-4.03
203.906	-4.23
204.378	-8.73
204.85	-5.33
205.322	-9.13
205.794	-2.53
206.266	-2.03
206.739	-12.33
207.211	3.47
207.683	-7.33
208.155	-5.43
208.627	-2.93
209.099	-0.53
209.57	-7.43
210.042	-0.13
210.514	-3.03
210.986	-0.53
211.458	-7.83
211.93	-0.33
212.402	-1.23
212.873	-5.03
213.345	-10.93
213.817	-17.43
214.288	-6.63
214.76	-10.73
215.232	-4.03
215.703	-5.63
216.175	-6.43
216.646	-4.83
217.118	-2.43
217.589	-5.83
218.061	1.17
218.532	-5.13
219.004	-6.23
219.475	1.37
219.946	4.07
220.418	-1.33
220.889	-0.73
221.36	1.87
221.832	-7.53
222.303	-1.13
222.774	-2.43
223.245	-12.53
223.717	-1.23
224.188	-3.43
224.659	-5.73
225.13	-2.03
225.601	-3.73
226.072	0.07
226.543	5.17
227.014	-1.73
227.485	0.17
227.956	-4.73
228.427	-0.83
228.898	-1.03
229.369	6.57
229.839	-0.23
230.31	-11.03
230.781	-1.03
231.252	-2.03
231.722	-7.63
232.193	-0.43
232.664	-5.03
233.135	1.97
233.605	-6.43
234.076	-4.43
234.546	0.07
235.017	11.47
235.487	2.07
235.958	-2.73
236.428	-7.03
236.899	5.17
237.369	8.37
237.84	5.77
238.31	6.97
238.78	6.97
239.251	-5.53
239.721	-1.83
240.191	-0.83
240.662	-0.63
241.132	-0.23
241.602	1.47
242.072	5.77
242.542	8.97
243.013	-1.93
243.483	4.77
243.953	1.67
244.423	-3.63
244.893	-1.03
245.363	3.47
245.833	3.07
246.303	4.37
246.773	10.07
247.243	6.87
247.712	6.07
248.182	4.27
248.652	11.67
249.122	2.17
249.592	11.17
250.061	24.67
250.531	36.87
251.001	14.67
251.471	28.07
251.94	22.07
252.41	4.97
252.879	1.17
253.349	17.07
253.818	10.27
254.288	2.97
254.757	4.07
255.227	-3.93
255.696	5.57
256.166	7.87
256.635	8.27
257.105	3.47
257.574	3.67
258.043	15.37
258.513	10.97
258.982	21.77
259.451	7.17
259.92	12.87
260.389	12.17
260.859	17.97
261.328	12.67
261.797	19.97
262.266	11.97
262.735	15.27
263.204	12.77
263.673	-2.23
264.142	4.37
264.611	-1.83
265.08	4.87
265.549	-0.33
266.018	5.17
266.487	-0.53
266.955	-1.13
267.424	4.27
267.893	5.17
268.362	4.07
268.83	-2.13
269.299	12.77
269.768	5.67
270.236	10.47
270.705	10.17
271.174	7.37
271.642	12.97
272.111	18.67
272.579	20.57
273.048	22.37
273.516	33.97
273.985	33.87
274.453	29.47
274.922	23.17
275.39	12.77
275.858	7.57
276.327	9.77
276.795	19.77
277.263	7.57
277.731	31.87
278.2	62.87
278.668	66.57
279.136	47.87
279.604	15.37
280.072	19.07
280.54	15.47
281.008	12.47
281.477	16.97
281.945	23.47
282.413	14.77
282.881	14.87
283.348	5.27
283.816	21.97
284.284	15.97
284.752	22.67
285.22	17.47
285.688	16.37
286.156	16.67
286.623	42.97
287.091	57.27
287.559	28.97
288.026	30.97
288.494	16.47
288.962	9.47
289.429	6.97
289.897	23.37
290.364	20.77
290.832	15.87
291.3	15.27
291.767	21.77
292.234	23.17
292.702	13.87
293.169	20.27
293.637	25.67
294.104	23.07
294.571	13.67
295.039	16.07
295.506	20.77
295.973	17.07
296.44	14.77
296.908	23.97
297.375	19.07
297.842	19.47
298.309	21.67
298.776	20.27
299.243	22.77
299.71	19.47
300.177	25.17
300.644	24.17
301.111	23.67
301.578	23.17
302.045	21.97
302.512	24.47
302.979	29.97
303.446	22.57
303.913	22.77
304.379	17.57
304.846	30.47
305.313	23.57
305.78	22.77
306.246	29.67
306.713	30.67
307.18	25.07
307.646	20.57
308.113	31.27
308.579	25.17
309.046	28.47
309.512	30.97
309.979	18.37
310.445	27.27
310.912	26.67
311.378	34.17
311.845	28.97
312.311	32.67
312.777	29.17
313.244	28.27
313.71	35.87
314.176	33.67
314.642	36.07
315.109	28.97
315.575	38.97
316.041	44.57
316.507	35.37
316.973	41.97
317.439	36.97
317.905	40.97
318.371	34.87
318.837	32.07
319.303	36.87
319.769	40.07
320.235	40.07
320.701	38.07
321.167	43.07
321.633	34.57
322.099	42.77
322.564	50.67
323.03	46.27
323.496	42.97
323.962	46.17
324.427	37.67
324.893	42.37
325.359	41.27
325.824	33.87
326.29	37.27
326.755	36.77
327.221	40.37
327.686	46.27
328.152	52.97
328.617	44.27
329.083	47.67
329.548	52.17
330.014	57.67
330.479	41.67
330.944	43.77
331.41	45.17
331.875	50.47
332.34	45.67
332.805	49.37
333.271	55.07
333.736	51.57
334.201	56.87
334.666	52.07
335.131	53.27
335.596	50.87
336.061	60.97
336.526	44.77
336.991	55.27
337.456	57.07
337.921	56.67
338.386	43.87
338.851	52.57
339.316	52.37
339.781	47.77
340.246	51.57
340.711	47.17
341.175	59.57
341.64	51.07
342.105	51.07
342.569	58.27
343.034	60.97
343.499	61.17
343.963	49.87
344.428	65.97
344.893	68.77
345.357	57.77
345.822	68.87
346.286	71.37
346.751	76.17
347.215	76.57
347.679	81.67
348.144	104.67
348.608	88.47
349.073	72.67
349.537	77.97
350.001	81.37
350.465	94.77
350.93	87.87
351.394	83.17
351.858	76.37
352.322	92.67
352.786	90.17
353.25	104.67
353.715	109.37
354.179	100.97
354.643	130.17
355.107	127.47
355.571	108.77
356.035	108.97
356.498	116.97
356.962	120.17
357.426	137.67
357.89	122.57
358.354	94.07
358.818	88.67
359.281	78.17
359.745	83.57
360.209	85.47
360.673	78.37
361.136	84.17
361.6	87.77
362.064	89.37
362.527	93.47
362.991	89.87
363.454	82.57
363.918	80.07
364.381	80.17
364.845	81.27
365.308	89.17
365.772	89.67
366.235	90.77
366.698	84.27
367.162	91.47
367.625	89.67
368.088	90.57
368.552	93.87
369.015	86.17
369.478	100.07
369.941	100.87
370.404	95.47
370.867	107.77
371.331	111.27
371.794	116.37
372.257	112.97
372.72	122.27
373.183	108.57
373.646	109.57
374.109	103.87
374.572	111.57
375.035	111.77
375.497	112.57
375.96	114.97
376.423	107.27
376.886	111.17
377.349	109.57
377.811	101.87
378.274	110.07
378.737	105.87
379.199	114.77
379.662	111.57
380.125	112.87
380.587	116.17
381.05	122.87
381.512	122.17
381.975	132.97
382.437	126.57
382.9	130.67
383.362	134.17
383.825	144.07
384.287	146.17
384.75	141.37
385.212	140.37
385.674	142.17
386.136	143.57
386.599	129.67
387.061	132.57
387.523	130.77
387.985	143.77
388.447	144.77
388.91	145.67
389.372	157.97
389.834	157.57
390.296	144.37
390.758	156.97
391.22	164.67
391.682	213.37
392.144	293.67
392.606	230.07
393.068	177.07
393.529	167.77
393.991	149.37
394.453	152.37
394.915	160.07
395.377	189.97
395.838	215.27
396.3	157.77
396.762	142.77
397.224	130.57
397.685	128.37
398.147	132.67
398.608	133.57
399.07	124.67
399.531	136.07
399.993	143.47
400.454	149.17
400.916	147.97
401.377	148.77
401.839	154.17
402.3	149.77
402.762	167.87
403.223	178.37
403.684	171.37
404.145	166.97
404.607	162.37
405.068	168.87
405.529	169.77
405.99	190.97
406.451	178.47
406.913	174.07
407.374	162.37
407.835	161.77
408.296	169.27
408.757	168.87
409.218	183.07
409.679	177.87
410.14	179.17
410.601	177.87
411.062	179.37
411.522	192.27
411.983	193.77
412.444	176.37
412.905	179.57
413.366	184.77
413.826	193.57
414.287	216.97
414.748	255.17
415.208	245.67
415.669	211.07
416.13	209.07
416.59	202.07
417.051	207.77
417.511	219.17
417.972	232.97
418.432	250.57
418.893	281.07
419.353	247.17
419.814	201.47
420.274	180.87
420.734	184.37
421.195	195.57
421.655	189.77
422.115	191.27
422.576	192.17
423.036	195.47
423.496	206.27
423.956	213.67
424.416	229.07
424.876	262.67
425.336	260.37
425.797	265.37
426.257	254.17
426.717	243.27
427.177	231.57
427.637	221.47
428.097	239.77
428.556	249.27
429.016	272.17
429.476	272.97
429.936	278.37
430.396	275.37
430.856	290.97
431.315	317.87
431.775	345.97
432.235	379.17
432.694	360.27
433.154	367.37
433.614	395.47
434.073	332.57
434.533	286.87
434.993	272.47
435.452	282.57
435.912	294.97
436.371	286.77
436.83	282.47
437.29	269.57
437.749	246.97
438.209	243.17
438.668	272.27
439.127	285.37
439.587	266.87
440.046	249.67
440.505	265.87
440.964	277.87
441.424	326.07
441.883	312.87
442.342	252.67
442.801	216.07
443.26	217.47
443.719	220.77
444.178	214.07
444.637	204.67
445.096	222.17
445.555	222.77
446.014	218.77
446.473	218.87
446.932	229.87
447.391	223.27
447.849	225.37
448.308	216.07
448.767	219.17
449.226	230.87
449.685	235.37
450.143	249.97
450.602	235.07
451.061	222.97
451.519	223.67
451.978	233.97
452.436	235.77
452.895	245.47
453.353	251.87
453.812	241.67
454.27	233.57
454.729	246.67
455.187	245.37
455.646	241.87
456.104	244.37
456.562	258.67
457.021	263.77
457.479	251.77
457.937	272.07
458.395	257.07
458.854	246.87
459.312	256.57
459.77	277.87
460.228	256.57
460.686	240.17
461.144	249.37
461.602	249.37
462.06	235.57
462.518	246.67
462.976	249.87
463.434	255.07
463.892	262.77
464.35	278.47
464.808	283.17
465.266	270.47
465.724	275.07
466.181	269.17
466.639	269.57
467.097	281.47
467.555	299.87
468.012	304.47
468.47	306.07
468.928	329.57
469.385	348.07
469.843	347.87
470.3	342.57
470.758	354.07
471.215	389.17
471.673	416.77
472.13	410.37
472.588	414.57
473.045	369.87
473.503	381.17
473.96	397.97
474.417	401.77
474.875	428.87
475.332	471.17
475.789	463.07
476.246	468.67
476.704	486.37
477.161	500.47
477.618	520.97
478.075	557.07
478.532	621.37
478.989	690.27
479.446	803.27
479.903	773.27
480.36	814.97
480.817	866.57
481.274	971.77
481.731	1082.67
482.188	1173.27
482.645	1307.07
483.102	1415.17
483.558	1555.67
484.015	1612.67
484.472	1591.27
484.929	1519.17
485.385	1476.57
485.842	1444.47
486.299	1379.17
486.755	1314.27
487.212	1091.77
487.668	910.37
488.125	851.97
488.582	781.47
489.038	743.17
489.494	718.47
489.951	685.37
490.407	673.67
490.864	640.17
491.32	641.37
491.776	639.97
492.233	659.07
492.689	610.47
493.145	597.27
493.602	598.87
494.058	613.77
494.514	609.07
494.97	630.97
495.426	644.77
495.882	620.47
496.338	612.77
496.794	619.47
497.251	612.27
497.707	634.27
498.163	637.37
498.618	645.77
499.074	642.87
499.53	671.97
499.986	671.77
500.442	649.27
500.898	631.47
501.354	616.67
501.809	632.37
502.265	653.77
502.721	654.67
503.177	665.97
503.632	650.87
504.088	663.47
504.543	703.67
504.999	697.47
505.455	658.67
505.91	628.97
506.366	628.47
506.821	623.37
507.277	618.67
507.732	618.77
508.187	609.37
508.643	625.27
509.098	623.37
509.553	658.87
510.009	657.67
510.464	660.17
510.919	674.47
511.375	688.17
511.83	702.27
512.285	708.47
512.74	752.87
513.195	768.37
513.65	768.07
514.105	766.47
514.56	771.27
515.015	784.77
515.47	808.67
515.925	783.77
516.38	785.77
516.835	790.07
517.29	787.07
517.745	767.17
518.2	756.27
518.655	746.97
519.109	733.57
519.564	741.67
520.019	729.17
520.474	719.97
520.928	718.17
521.383	722.77
521.838	696.47
522.292	712.27
522.747	705.27
523.201	697.77
523.656	693.67
524.11	693.47
524.565	682.37
525.019	688.27
525.474	683.67
525.928	699.37
526.382	684.67
526.837	683.27
527.291	695.27
527.745	678.87
528.2	686.37
528.654	687.17
529.108	675.47
529.562	676.87
530.016	669.27
530.47	684.57
530.925	692.17
531.379	691.27
531.833	701.07
532.287	696.37
532.741	696.77
533.195	699.87
533.649	717.37
534.103	715.37
534.556	699.97
535.01	698.27
535.464	692.07
535.918	707.67
536.372	710.67
536.826	703.37
537.279	697.47
537.733	693.77
538.187	708.97
538.64	713.47
539.094	711.97
539.548	719.97
540.001	716.37
540.455	716.37
540.908	720.67
541.362	734.87
541.815	732.87
542.269	750.87
542.722	741.67
543.175	753.67
543.629	757.97
544.082	772.87
544.536	772.27
544.989	770.57
545.442	785.77
545.895	772.37
546.349	774.77
546.802	774.97
547.255	789.97
547.708	781.17
548.161	805.17
548.614	803.67
549.067	809.57
549.52	805.47
549.973	795.57
550.426	791.27
550.879	774.07
551.332	779.27
551.785	779.07
552.238	788.87
552.691	802.77
553.144	822.37
553.596	832.57
554.049	851.17
554.502	873.87
554.955	884.17
555.407	876.47
555.86	880.27
556.313	877.07
556.765	865.77
557.218	867.47
557.67	867.47
558.123	851.67
558.576	856.97
559.028	868.27
559.48	851.87
559.933	850.77
560.385	817.07
560.838	794.87
561.29	763.97
561.742	757.47
562.195	737.57
562.647	751.27
563.099	751.37
563.551	751.97
564.004	775.07
564.456	743.87
564.908	748.17
565.36	733.67
565.812	717.97
566.264	710.87
566.716	699.17
567.168	699.07
567.62	709.67
568.072	680.27
568.524	674.67
568.976	662.47
569.428	653.47
569.88	649.97
570.332	661.07
570.784	660.17
571.235	661.17
571.687	674.17
572.139	681.87
572.59	697.47
573.042	686.47
573.494	688.97
573.945	679.27
574.397	657.47
574.849	672.17
575.3	669.07
575.752	663.77
576.203	653.57
576.655	651.67
577.106	654.47
577.557	643.37
578.009	653.27
578.46	646.37
578.912	642.27
579.363	641.57
579.814	647.37
580.265	646.17
580.717	650.57
581.168	638.87
581.619	659.37
582.07	660.07
582.521	660.17
582.972	657.37
583.423	661.67
583.875	656.77
584.326	679.27
584.777	729.37
585.227	798.07
585.678	888.67
586.129	969.87
586.58	1049.97
587.031	1130.87
587.482	1288.27
587.933	1472.37
588.384	1270.37
588.834	943.97
589.285	773.97
589.736	759.27
590.186	737.67
590.637	730.77
591.088	712.67
591.538	709.27
591.989	709.97
592.439	692.87
592.89	686.87
593.34	684.27
593.791	686.27
594.241	673.17
594.692	682.37
595.142	672.77
595.593	666.07
596.043	674.77
596.493	684.87
596.943	692.27
597.394	692.97
597.844	681.07
598.294	701.27
598.744	725.97
599.195	740.87
599.645	777.37
600.095	822.87
600.545	874.07
600.995	921.67
601.445	981.17
601.895	1033.87
602.345	1086.57
602.795	1062.57
603.245	1020.67
603.695	968.07
604.145	916.77
604.594	875.17
605.044	817.07
605.494	763.67
605.944	718.17
606.393	716.27
606.843	693.37
607.293	713.07
607.743	691.37
608.192	706.47
608.642	729.17
609.091	731.87
609.541	727.67
609.99	737.67
610.44	725.87
610.889	681.57
611.339	677.07
611.788	659.37
612.238	667.47
612.687	681.87
613.136	678.57
613.586	707.97
614.035	700.97
614.484	709.77
614.933	720.57
615.383	713.37
615.832	707.77
616.281	696.87
616.73	664.27
617.179	636.07
617.628	615.97
618.077	599.37
618.526	596.47
618.975	581.57
619.424	587.67
619.873	586.97
620.322	584.27
620.771	563.87
621.22	568.97
621.669	554.47
622.118	558.77
622.567	547.77
623.015	543.67
623.464	533.17
623.913	524.57
624.361	522.17
624.81	530.87
625.259	515.87
625.707	521.27
626.156	525.07
626.604	541.97
627.053	523.27
627.501	523.97
627.95	531.47
628.398	549.97
628.847	540.47
629.295	535.47
629.744	542.67
630.192	538.67
630.64	536.27
631.089	535.67
631.537	549.97
631.985	551.47
632.433	565.77
632.881	574.07
633.33	616.07
633.778	592.67
634.226	528.57
634.674	537.07
635.122	550.17
635.57	562.47
636.018	581.57
636.466	544.07
636.914	524.97
637.362	538.27
637.81	540.87
638.258	535.67
638.705	536.17
639.153	573.17
639.601	575.67
640.049	603.37
640.497	639.67
640.944	645.97
641.392	600.67
641.84	569.57
642.287	548.17
642.735	541.67
643.182	538.47
643.63	534.87
644.078	540.07
644.525	555.97
644.973	557.97
645.42	562.97
645.867	587.77
646.315	597.37
646.762	618.27
647.21	650.07
647.657	670.17
648.104	708.77
648.551	724.47
648.999	789.07
649.446	864.57
649.893	946.07
650.34	1090.17
650.787	1287.47
651.234	1628.87
651.682	2105.67
652.129	2870.97
652.576	4161.17
653.023	6146.27
653.47	8476.57
653.917	10688.77
654.363	12458.07
654.81	13861.07
655.257	13170.07
655.704	8559.27
656.151	5057.97
656.598	3281.47
657.044	2312.07
657.491	1770.27
657.938	1411.07
658.385	1177.77
658.831	1028.67
659.278	908.97
659.724	822.57
660.171	741.67
660.618	684.57
661.064	639.77
661.511	620.27
661.957	609.57
662.404	594.17
662.85	612.57
663.296	579.77
663.743	524.67
664.189	504.27
664.635	500.57
665.082	480.37
665.528	487.47
665.974	482.97
666.42	485.07
666.867	471.07
667.313	458.67
667.759	452.97
668.205	444.67
668.651	443.27
669.097	452.17
669.543	473.37
669.989	443.17
670.435	422.67
670.881	411.97
671.327	408.47
671.773	432.57
672.219	456.27
672.665	506.57
673.11	539.47
673.556	583.57
674.002	623.77
674.448	607.67
674.893	510.17
675.339	442.17
675.785	408.57
676.23	387.97
676.676	367.97
677.122	357.57
677.567	341.47
678.013	341.77
678.458	328.87
678.904	334.17
679.349	329.07
679.794	326.77
680.24	324.37
680.685	315.67
681.131	315.47
681.576	314.67
682.021	323.07
682.466	323.77
682.912	321.27
683.357	318.97
683.802	349.97
684.247	384.17
684.692	421.97
685.137	459.67
685.583	495.17
686.028	521.27
686.473	474.67
686.918	406.27
687.363	380.67
687.807	361.57
688.252	336.97
688.697	328.77
689.142	314.37
689.587	302.37
690.032	298.17
690.477	314.47
690.921	321.47
691.366	345.67
691.811	364.27
692.255	403.57
692.7	424.67
693.145	461.97
693.589	627.87
694.034	1024.97
694.478	1399.87
694.923	1612.17
695.367	2109.57
695.812	1099.57
696.256	456.97
696.701	342.07
697.145	317.07
697.59	303.67
698.034	296.47
698.478	301.87
698.922	295.57
699.367	300.47
699.811	306.17
700.255	322.87
700.699	353.67
701.143	391.97
701.588	442.67
702.032	472.37
702.476	472.87
702.92	449.77
703.364	448.17
703.808	567.97
704.252	928.67
704.696	1317.97
705.14	1535.57
705.584	1977.37
706.027	984.07
706.471	478.57
706.915	370.57
707.359	320.47
707.803	283.47
708.246	280.07
708.69	279.47
709.134	293.97
709.577	289.97
710.021	292.77
710.465	277.77
710.908	268.47
711.352	274.37
711.795	281.87
712.239	325.77
712.682	345.87
713.126	384.67
713.569	429.17
714.012	339.57
714.456	298.97
714.899	276.17
715.342	253.67
715.786	233.17
716.229	234.47
716.672	242.57
717.115	229.77
717.558	231.27
718.002	224.97
718.445	243.27
718.888	256.77
719.331	271.07
719.774	279.57
720.217	275.97
720.66	256.07
721.103	245.17
721.546	227.37
721.989	224.67
722.432	217.67
722.874	214.27
723.317	211.37
723.76	212.47
724.203	237.87
724.645	290.77
725.088	398.07
725.531	516.47
725.974	599.17
726.416	506.07
726.859	276.97
727.301	227.77
727.744	216.07
728.187	214.97
728.629	214.37
729.071	219.57
729.514	229.77
729.956	244.27
730.399	264.87
730.841	267.27
731.283	249.27
731.726	240.67
732.168	238.67
732.61	245.37
733.053	260.77
733.495	284.77
733.937	315.47
734.379	362.97
734.821	391.87
735.263	479.67
735.705	754.27
736.148	1408.07
736.59	2326.47
737.032	2817.97
737.474	2299.47
737.916	741.37
738.357	400.07
738.799	293.87
739.241	274.37
739.683	262.37
740.125	270.47
740.567	282.57
741.008	284.37
741.45	279.57
741.892	286.97
742.334	315.07
742.775	328.27
743.217	314.57
743.658	247.67
744.1	233.37
744.542	242.07
744.983	279.37
745.425	311.77
745.866	315.87
746.307	256.57
746.749	256.47
747.19	291.17
747.632	403.27
748.073	771.67
748.514	1654.37
748.956	2617.07
749.397	3254.57
749.838	2700.27
750.279	2747.37
750.72	1388.47
751.162	501.17
751.603	291.47
752.044	224.87
752.485	201.07
752.926	190.47
753.367	182.37
753.808	179.27
754.249	178.47
754.69	176.07
755.131	167.97
755.572	162.97
756.013	171.97
756.453	160.17
756.894	165.37
757.335	172.67
757.776	180.07
758.216	178.67
758.657	178.47
759.098	188.17
759.538	202.57
759.979	244.07
760.42	333.87
760.86	618.97
761.301	1592.87
761.741	3955.87
762.182	5981.27
762.622	4231.97
763.063	1211.67
763.503	491.77
763.943	324.47
764.384	305.27
764.824	370.77
765.264	407.57
765.705	288.27
766.145	196.07
766.585	179.57
767.025	162.57
767.465	168.87
767.906	223.37
768.346	295.17
768.786	317.07
769.226	243.27
769.666	287.87
770.106	547.27
770.546	1358.77
770.986	2433.87
771.426	2187.17
771.866	728.27
772.306	303.27
772.745	187.87
773.185	161.27
773.625	156.87
774.065	152.07
774.505	183.77
774.944	281.07
775.384	621.47
775.824	1163.97
776.263	1156.87
776.703	481.47
777.142	205.47
777.582	144.17
778.021	135.27
778.461	133.67
778.9	133.87
779.34	126.17
779.779	113.47
780.219	101.47
780.658	104.47
781.097	95.97
781.537	105.17
781.976	105.07
782.415	98.07
782.855	96.67
783.294	91.97
783.733	100.57
784.172	90.37
784.611	91.27
785.05	95.97
785.489	104.67
785.928	108.27
786.367	110.17
786.806	107.27
787.245	118.07
787.684	123.27
788.123	137.77
788.562	124.07
789.001	108.57
789.44	111.77
789.879	105.17
790.317	102.47
790.756	114.57
791.195	114.17
791.634	133.87
792.072	182.47
792.511	321.37
792.95	880.27
793.388	1949.67
793.827	1815.57
794.265	619.67
794.704	253.57
795.142	171.37
795.581	139.27
796.019	124.57
796.458	114.07
796.896	111.67
797.334	111.87
797.773	142.07
798.211	197.67
798.649	384.07
799.087	922.47
799.526	1436.27
799.964	1823.57
800.402	1873.47
800.84	681.87
801.278	273.27
801.716	161.77
802.154	136.27
802.592	133.37
803.03	122.87
803.468	116.17
803.906	128.77
804.344	132.67
804.782	129.47
805.22	121.77
805.658	114.47
806.096	128.87
806.533	144.47
806.971	154.77
807.409	194.27
807.847	276.07
808.284	584.67
808.722	1644.27
809.16	3004.87
809.597	2791.57
810.035	4928.27
810.472	5414.47
810.91	1932.77
811.347	723.97
811.785	363.47
812.222	233.27
812.66	182.67
813.097	147.07
813.535	126.67
813.972	115.57
814.409	111.77
814.846	99.07
815.284	104.27
815.721	97.37
816.158	98.97
816.595	112.57
817.032	162.27
817.47	178.17
817.907	145.37
818.344	134.07
818.781	106.37
819.218	90.47
819.655	111.37
820.092	161.67
820.529	193.87
820.966	166.37
821.403	120.17
821.839	99.67
822.276	91.87
822.713	108.67
823.15	127.27
823.587	106.17
824.023	130.97
824.46	264.87
824.897	798.27
825.333	1252.17
825.77	538.57
826.206	209.97
826.643	122.37
827.08	96.17
827.516	75.67
827.953	68.47
828.389	68.37
828.825	66.07
829.262	65.57
829.698	59.07
830.135	59.67
830.571	60.87
831.007	62.17
831.443	59.47
831.88	62.47
832.316	60.57
832.752	62.57
833.188	52.57
833.624	59.17
834.06	64.97
834.497	68.17
834.933	58.77
835.369	61.67
835.805	64.17
836.241	67.17
836.677	69.07
837.112	75.27
837.548	91.27
837.984	121.17
838.42	179.97
838.856	432.07
839.292	1356.57
839.727	2140.67
840.163	991.57
840.599	825.07
841.034	1827.37
841.47	1984.97
841.906	712.37
842.341	303.87
842.777	208.87
843.212	290.67
843.648	299.47
844.083	138.37
844.519	85.17
844.954	67.17
845.39	54.27
845.825	54.17
846.261	53.47
846.696	43.07
847.131	48.97
847.566	55.17
848.002	45.37
848.437	49.77
848.872	56.67
849.307	58.37
849.742	75.77
850.177	157.67
850.613	493.47
851.048	810.37
851.483	356.47
851.918	143.07
852.353	81.07
852.788	47.77
853.223	51.37
853.657	43.37
854.092	42.37
854.527	42.07
854.962	34.77
855.397	38.67
855.832	39.97
856.266	38.57
856.701	42.27
857.136	36.57
857.57	32.87
858.005	49.17
858.44	47.47
858.874	40.97
859.309	43.67
859.743	34.77
860.178	44.67
860.612	38.17
861.047	51.87
861.481	61.67
861.915	65.47
862.35	41.17
862.784	35.57
863.218	35.37
863.653	33.77
864.087	39.87
864.521	52.57
864.955	64.87
865.39	141.47
865.824	161.87
866.258	104.97
866.692	150.07
867.126	161.87
867.56	96.67
867.994	43.37
868.428	33.27
868.862	42.17
869.296	52.37
869.73	57.17
870.164	46.17
870.598	39.67
871.031	37.17
871.465	26.47
871.899	26.97
872.333	22.97
872.766	23.27
873.2	20.37
873.634	19.97
874.067	25.17
874.501	26.17
874.935	30.17
875.368	25.67
875.802	21.77
876.235	24.37
876.669	27.97
877.102	25.47
877.535	21.07
877.969	19.47
878.402	24.67
878.836	17.57
879.269	22.17
879.702	23.37
880.135	16.87
880.569	17.27
881.002	18.57
881.435	19.87
881.868	19.67
882.301	21.47
882.734	10.47
883.167	19.27
883.601	17.27
884.034	15.27
884.467	14.17
884.899	20.57
885.332	13.77
885.765	14.07
886.198	13.27
886.631	17.57
887.064	18.97
887.497	15.97
887.929	23.57
888.362	15.17
888.795	7.37
889.228	18.17
889.66	19.47
890.093	14.87
890.526	12.17
890.958	15.07
891.391	18.27
891.823	20.87
892.256	15.87
892.688	8.77
893.121	16.27
893.553	13.27
893.985	18.87
894.418	16.47
894.85	11.47
895.282	16.27
895.715	15.27
896.147	23.07
896.579	15.57
897.011	11.07
897.444	11.77
897.876	8.17
898.308	14.97
898.74	9.27
899.172	8.57
899.604	25.47
900.036	15.87
900.468	14.47
900.9	13.57
901.332	14.87
901.764	8.87
902.196	18.27
902.628	15.27
903.06	10.17
903.491	24.57
903.923	14.97
904.355	17.07
904.787	23.77
905.218	20.27
905.65	21.17
906.082	14.87
906.513	7.37
906.945	8.87
907.376	9.57
907.808	21.37
908.239	20.17
908.671	18.17
909.102	21.97
909.534	24.47
909.965	37.77
910.397	84.17
910.828	285.67
911.259	435.77
911.691	201.47
912.122	98.07
912.553	45.97
912.984	32.97
913.415	21.87
913.847	20.27
914.278	14.07
914.709	13.17
915.14	12.77
915.571	22.67
916.002	8.57
916.433	16.37
916.864	13.17
917.295	13.17
917.726	20.37
918.157	14.67
918.587	30.07
919.018	16.17
919.449	21.27
919.88	19.27
920.311	27.17
920.741	44.57
921.172	153.67
921.603	146.67
922.033	62.67
922.464	38.67
922.895	16.77
923.325	22.37
923.756	14.57
924.186	13.17
924.617	21.57
925.047	42.87
925.478	51.77
925.908	44.17
926.338	24.67
926.769	13.67
927.199	16.07
927.629	8.77
928.06	16.47
928.49	9.87
928.92	10.67
929.35	11.07
929.78	6.37
930.21	5.57
930.641	4.97
931.071	4.77
931.501	1.77
931.931	11.37
932.361	4.27
932.791	4.27
933.221	9.87
933.651	0.57
934.08	12.07
934.51	26.27
934.94	7.17
935.37	7.67
935.8	15.97
936.229	4.47
936.659	7.77
937.089	2.07
937.519	13.87
937.948	19.67
938.378	14.17
938.807	5.77
939.237	7.87
939.666	10.07
940.096	-4.53
940.525	1.57
940.955	-1.33
941.384	1.47
941.814	-6.53
942.243	-2.03
942.672	4.37
943.102	-2.53
943.531	5.67
943.96	4.97
944.39	-1.33
944.819	-2.43
945.248	3.77
945.677	7.27
946.106	2.17
946.535	5.27
946.964	-0.53
947.393	2.87
947.822	-1.13
948.251	-5.63
948.68	4.77
949.109	6.67
949.538	8.27
949.967	3.67
950.396	-0.53
950.825	-5.93
951.254	1.87
951.682	-2.63
952.111	6.87
952.54	9.07
952.969	-6.43
953.397	-3.73
953.826	3.07
954.254	-2.93
954.683	-2.03
955.112	-10.33
955.54	0.27
955.969	8.87
956.397	-0.13
956.826	-6.33
957.254	5.77
957.682	3.47
958.111	8.67
958.539	-0.93
958.967	-2.23
959.396	-3.03
959.824	-0.33
960.252	2.67
960.68	-2.13
961.109	0.67
961.537	-3.23
961.965	0.67
962.393	-0.23
962.821	-3.13
963.249	-1.63
963.677	-1.43
964.105	4.37
964.533	40.47
964.961	36.37
965.389	19.77
965.817	4.17
966.245	1.87
966.672	0.27
967.1	-7.53
967.528	-2.43
967.956	-3.13
968.383	2.67
968.811	-4.33
969.239	0.07
969.666	-1.93
970.094	-3.93
970.522	-1.63
970.949	-4.63
971.377	-1.33
971.804	-2.63
972.232	-2.23
972.659	2.27
973.087	-2.03
973.514	-6.93
973.941	-5.63
974.369	1.97
974.796	2.27
975.223	-2.33
975.651	-0.83
976.078	4.67
976.505	-5.63
976.932	2.37
977.359	13.37
977.786	15.57
978.214	1.97
978.641	-0.03
979.068	-1.43
979.495	-2.63
979.922	-4.83
980.349	0.47
980.776	2.27
981.202	-4.63
981.629	3.07
982.056	4.67
982.483	-5.33
982.91	1.87
983.337	-10.43
983.763	2.37
984.19	-9.73
984.617	-2.93
985.043	-3.63
985.47	-0.83
985.897	1.57
986.323	-5.63
986.75	6.07
987.176	1.07
987.603	-3.03
988.029	-1.43
988.456	-10.23
988.882	-0.03
989.308	-9.73
989.735	-4.53
990.161	2.57
990.587	-4.73
991.014	-1.93
991.44	3.77
991.866	-7.23
992.292	-5.13
992.719	-5.33
993.145	4.47
993.571	-9.33
993.997	-3.63
994.423	-6.43
994.849	-5.43
995.275	0.97
995.701	3.17
996.127	2.07
996.553	4.27
996.979	-4.93
997.405	2.37
997.83	0.07
998.256	-8.33
998.682	-4.63
999.108	-8.43
999.534	-3.53
999.959	-3.23
1000.385	-5.23
1000.811	-3.53
1001.236	-16.33
1001.662	-5.33
1002.087	-7.93
1002.513	-2.33
1002.938	2.57
1003.364	-7.63
1003.789	-1.23
1004.215	3.77
1004.64	0.27
1005.066	4.67
1005.491	-2.43
1005.916	-1.43
1006.342	-0.63
1006.767	-1.13
1007.192	2.87
1007.617	-0.83
1008.042	-6.23
1008.468	-10.63
1008.893	1.47
1009.318	3.07
1009.743	-0.43
1010.168	5.97
1010.593	2.47
1011.018	-9.93
1011.443	-5.43
1011.868	1.87
1012.293	-3.13
1012.718	-1.83
1013.143	-0.33
1013.567	-2.73
1013.992	-4.03
1014.417	-17.73
1014.842	-2.03
1015.267	-5.53
1015.691	0.27
1016.116	8.47
1016.541	-0.93
1016.965	-1.73
1017.39	0.47
1017.814	4.07
1018.239	-0.73
1018.663	-5.73
1019.088	-7.93
1019.512	0.17
1019.937	-4.63
1020.361	-6.33
1020.785	-12.53
1021.21	-0.33
1021.634	-4.13
1022.058	-4.03
1022.483	-1.93
1022.907	-9.53
1023.331	-3.83
1023.755	-3.13
1024.179	-2.73
1024.604	-5.03
1025.028	-3.13
1025.452	-7.23
1025.876	2.97
1026.3	1.57
1026.724	-8.83
1027.148	-3.23
1027.572	-3.63
1027.996	-4.33
1028.42	0.97
1028.843	-4.73
1029.267	-1.73
1029.691	-1.63
1030.115	-7.83
1030.539	-13.23
1030.962	-8.53
1031.386	-8.13
1031.81	-4.73
1032.233	-0.83
1032.657	-2.13
1033.08	-3.13
1033.504	-4.43
1033.927	-4.03
1034.351	-4.23
1034.774	-8.63
1035.198	1.07
1035.621	-5.83
1036.045	-3.23
1036.468	5.97
1036.891	-12.13
1037.315	-7.83
1037.738	-13.93
1038.161	-2.93
1038.584	-1.93
1039.008	-0.93
1039.431	2.37
1039.854	-4.83
1040.277	-9.43
1040.7	-12.93
1041.123	-0.93
1041.546	-8.83
1041.969	-5.73
1042.392	-4.33
1042.815	2.67
1043.238	-1.23
1043.661	6.07
1044.084	-7.83
1044.507	-5.23
1044.93	-7.53
1045.352	-5.33
1045.775	0.77
1046.198	-2.73
1046.621	-1.23
1047.043	0.77
1047.466	6.07
1047.889	-2.83
1048.311	-5.93
1048.734	-2.33
1049.156	-0.93
1049.579	-0.43
1050.001	-1.63
1050.424	0.37
1050.846	-5.83
1051.269	-4.73
1051.691	-3.43
1052.113	-3.13
1052.536	-1.03
1052.958	-3.53
1053.38	-3.83
1053.802	-9.83
1054.225	2.37
1054.647	-4.83
1055.069	-8.13
1055.491	0.67
1055.913	-7.23
1056.335	-0.03
1056.757	-5.23
1057.179	-1.13
1057.601	-10.23
1058.023	-8.03
1058.445	-2.93
1058.867	-4.73
1059.289	-1.03
1059.711	-7.33
1060.133	-0.23
1060.555	-7.93
1060.976	-4.73
1061.398	-3.33
1061.82	-3.43
1062.241	-9.23
1062.663	-8.03
1063.085	-3.03
1063.506	-2.63
1063.928	-4.43
1064.35	1.17
1064.771	-9.93
1065.193	-6.93
1065.614	-11.33
1066.035	-3.13
1066.457	-6.93
1066.878	0.27
1067.3	-2.43
1067.721	-4.83
1068.142	-3.13
1068.564	-0.63
1068.985	-3.43
1069.406	0.17
1069.827	-3.83
1070.248	-4.63
1070.67	-10.43
1071.091	-6.43
1071.512	-5.13
1071.933	-8.03
1072.354	-9.63
1072.775	-8.03
1073.196	-1.43
1073.617	-3.73
1074.038	-11.73
1074.459	-0.03
1074.88	-4.03
1075.3	2.17
1075.721	-9.83
1076.142	1.17
1076.563	-6.13
1076.983	-13.13
1077.404	-4.83
1077.825	-12.53
1078.246	-1.03
1078.666	-8.93
1079.087	-2.73
1079.507	-8.83
1079.928	-4.63
1080.348	-2.63
1080.769	-5.23
1081.189	-0.13
1081.61	-0.83
1082.03	-5.33
1082.451	-6.63
1082.871	-6.93
1083.291	-5.03
1083.711	-7.13
1084.132	-11.73
1084.552	-5.83
1084.972	-1.83
1085.392	-8.33
1085.813	-8.13
1086.233	-2.53
1086.653	-7.33
1087.073	-4.93
1087.493	-6.03
1087.913	-2.13
1088.333	-8.73
1088.753	-10.63
1089.173	-2.63
1089.593	-2.43
1090.013	4.67
1090.433	-3.43
1090.852	-0.33
1091.272	0.27
1091.692	-1.33
1092.112	-4.43
1092.531	-9.33
1092.951	-8.63
1093.371	1.57
1093.79	4.37
1094.21	-1.03
1094.63	-2.93
1095.049	-7.53
1095.469	-7.83
1095.888	-1.83
1096.308	-0.23
1096.727	-2.23
1097.146	-11.23
1097.566	-0.13
1097.985	-6.83
1098.405	-1.33
1098.824	-5.43
1099.243	-9.33
1099.662	-3.83
1100.082	0.97
1100.501	-0.43
1100.92	-10.73
1101.339	-12.93
1101.758	-5.63
