Data from 20171114-ORNL-Ar_H_NY_Subt18_08-05-56-985.txt Node
Date: Tue Nov 14 08:05:56 EST 2017
User: Ender
Spectrometer: HR+D1039
Trigger mode: 0
Integration Time (sec): 2.730000E-2
Scans to average: 10
Electric dark correction enabled: true
Nonlinearity correction enabled: false
Boxcar width: 0
XAxis mode: Wavelengths
Number of Pixels in Spectrum: 2048
>>>>>Begin Spectral Data<<<<<
187.836	-2.01
188.309	-2.01
188.782	-2.01
189.255	0.49
189.728	1.09
190.201	2.29
190.674	2.29
191.147	3.59
191.619	-5.01
192.092	6.69
192.565	8.59
193.038	-1.91
193.511	-2.01
193.984	-2.31
194.456	-6.11
194.929	2.59
195.402	-6.21
195.874	-2.01
196.347	-3.61
196.82	-9.11
197.292	5.79
197.765	-3.01
198.237	-9.61
198.71	-3.91
199.182	-4.91
199.655	6.19
200.127	5.09
200.6	-3.21
201.072	-3.51
201.544	-7.01
202.017	0.39
202.489	4.89
202.961	0.89
203.433	-8.71
203.906	-8.01
204.378	-8.31
204.85	-3.61
205.322	-5.31
205.794	-3.01
206.266	-6.11
206.739	-12.01
207.211	3.79
207.683	-5.01
208.155	-4.31
208.627	-9.31
209.099	-4.41
209.57	-5.81
210.042	-10.91
210.514	-4.81
210.986	-5.81
211.458	-8.01
211.93	-2.51
212.402	1.49
212.873	-3.81
213.345	-10.81
213.817	-11.81
214.288	-0.51
214.76	-8.81
215.232	-1.51
215.703	-1.71
216.175	-3.81
216.646	-4.01
217.118	-6.21
217.589	-7.81
218.061	2.99
218.532	-5.21
219.004	-2.01
219.475	-3.91
219.946	2.39
220.418	2.09
220.889	4.99
221.36	-2.81
221.832	-3.31
222.303	-6.91
222.774	4.99
223.245	-7.31
223.717	-4.31
224.188	-1.91
224.659	-3.81
225.13	-1.91
225.601	-5.51
226.072	-1.31
226.543	0.99
227.014	0.29
227.485	-0.11
227.956	-4.61
228.427	-2.91
228.898	-3.21
229.369	0.69
229.839	-4.91
230.31	-10.61
230.781	3.79
231.252	2.49
231.722	-5.11
232.193	0.89
232.664	2.19
233.135	-3.81
233.605	-0.91
234.076	-9.61
234.546	3.29
235.017	4.49
235.487	4.79
235.958	1.19
236.428	0.69
236.899	0.79
237.369	3.29
237.84	2.49
238.31	6.59
238.78	3.79
239.251	-1.71
239.721	5.99
240.191	3.79
240.662	-0.31
241.132	-5.81
241.602	-3.61
242.072	4.09
242.542	5.79
243.013	0.49
243.483	-0.21
243.953	6.39
244.423	-0.21
244.893	-1.61
245.363	4.69
245.833	1.49
246.303	-5.71
246.773	4.79
247.243	2.69
247.712	2.49
248.182	9.29
248.652	10.29
249.122	-4.21
249.592	14.09
250.061	16.99
250.531	35.29
251.001	19.99
251.471	20.99
251.94	17.99
252.41	5.79
252.879	1.59
253.349	17.49
253.818	7.99
254.288	4.89
254.757	8.99
255.227	3.09
255.696	6.89
256.166	2.59
256.635	7.59
257.105	8.29
257.574	10.49
258.043	4.99
258.513	14.69
258.982	19.79
259.451	11.39
259.92	19.69
260.389	6.19
260.859	23.09
261.328	11.79
261.797	23.29
262.266	10.39
262.735	8.19
263.204	10.59
263.673	6.49
264.142	10.49
264.611	6.09
265.08	-0.61
265.549	6.89
266.018	12.89
266.487	-0.01
266.955	-4.11
267.424	2.49
267.893	11.59
268.362	6.59
268.83	6.39
269.299	14.49
269.768	6.79
270.236	10.89
270.705	7.49
271.174	9.69
271.642	8.99
272.111	8.29
272.579	18.69
273.048	25.59
273.516	31.79
273.985	24.49
274.453	23.09
274.922	22.09
275.39	14.99
275.858	-0.01
276.327	13.69
276.795	19.29
277.263	13.29
277.731	36.29
278.2	51.49
278.668	59.59
279.136	50.59
279.604	22.89
280.072	14.39
280.54	15.09
281.008	12.89
281.477	14.79
281.945	14.09
282.413	12.09
282.881	12.89
283.348	10.59
283.816	18.59
284.284	16.49
284.752	22.39
285.22	15.99
285.688	15.29
286.156	20.29
286.623	47.49
287.091	52.19
287.559	33.09
288.026	23.09
288.494	18.39
288.962	7.69
289.429	15.39
289.897	18.29
290.364	14.39
290.832	17.89
291.3	18.89
291.767	19.19
292.234	19.19
292.702	13.29
293.169	19.79
293.637	25.79
294.104	20.19
294.571	7.29
295.039	13.69
295.506	19.49
295.973	14.39
296.44	16.19
296.908	22.79
297.375	19.59
297.842	21.69
298.309	20.79
298.776	18.19
299.243	19.59
299.71	17.79
300.177	22.49
300.644	23.19
301.111	25.39
301.578	27.59
302.045	17.99
302.512	26.29
302.979	27.39
303.446	20.69
303.913	14.49
304.379	20.59
304.846	29.49
305.313	30.29
305.78	22.69
306.246	27.19
306.713	30.39
307.18	27.09
307.646	28.29
308.113	30.29
308.579	26.09
309.046	27.19
309.512	25.99
309.979	21.19
310.445	29.89
310.912	29.99
311.378	29.99
311.845	30.19
312.311	30.69
312.777	35.19
313.244	32.69
313.71	42.39
314.176	33.29
314.642	38.59
315.109	33.89
315.575	38.79
316.041	41.49
316.507	37.19
316.973	38.69
317.439	37.69
317.905	42.79
318.371	43.79
318.837	37.19
319.303	41.09
319.769	42.89
320.235	36.79
320.701	35.89
321.167	38.39
321.633	37.29
322.099	44.99
322.564	45.69
323.03	43.39
323.496	37.09
323.962	41.09
324.427	39.39
324.893	46.89
325.359	37.39
325.824	38.19
326.29	33.89
326.755	33.89
327.221	38.19
327.686	40.79
328.152	45.89
328.617	43.19
329.083	53.39
329.548	49.89
330.014	47.29
330.479	37.89
330.944	48.19
331.41	47.69
331.875	46.39
332.34	47.69
332.805	36.79
333.271	48.09
333.736	45.49
334.201	53.69
334.666	54.59
335.131	53.99
335.596	53.19
336.061	56.29
336.526	42.79
336.991	53.39
337.456	55.99
337.921	57.09
338.386	50.19
338.851	45.09
339.316	47.19
339.781	47.39
340.246	57.69
340.711	46.29
341.175	54.49
341.64	46.49
342.105	51.69
342.569	55.79
343.034	55.69
343.499	63.89
343.963	50.49
344.428	68.99
344.893	65.89
345.357	62.89
345.822	64.99
346.286	65.99
346.751	71.09
347.215	70.39
347.679	72.99
348.144	99.99
348.608	85.39
349.073	67.29
349.537	79.59
350.001	81.29
350.465	91.39
350.93	87.19
351.394	82.09
351.858	74.79
352.322	93.19
352.786	83.29
353.25	101.99
353.715	117.69
354.179	104.79
354.643	125.19
355.107	134.69
355.571	108.99
356.035	102.09
356.498	116.69
356.962	127.59
357.426	137.19
357.89	118.29
358.354	94.19
358.818	88.29
359.281	89.29
359.745	76.79
360.209	79.99
360.673	85.89
361.136	87.29
361.6	87.89
362.064	85.89
362.527	84.79
362.991	96.79
363.454	84.79
363.918	76.39
364.381	79.49
364.845	84.69
365.308	89.79
365.772	85.59
366.235	88.89
366.698	83.39
367.162	89.19
367.625	86.39
368.088	87.09
368.552	90.79
369.015	89.19
369.478	98.99
369.941	98.59
370.404	92.19
370.867	105.19
371.331	107.89
371.794	113.39
372.257	107.99
372.72	119.49
373.183	111.89
373.646	105.59
374.109	107.99
374.572	113.79
375.035	107.59
375.497	107.29
375.96	113.29
376.423	108.99
376.886	112.99
377.349	112.89
377.811	101.89
378.274	111.29
378.737	102.29
379.199	105.19
379.662	114.09
380.125	122.89
380.587	123.79
381.05	125.09
381.512	133.59
381.975	130.59
382.437	134.69
382.9	124.09
383.362	133.69
383.825	143.49
384.287	149.09
384.75	144.09
385.212	147.79
385.674	141.39
386.136	138.49
386.599	127.09
387.061	133.49
387.523	133.59
387.985	142.19
388.447	147.49
388.91	146.59
389.372	162.99
389.834	162.49
390.296	151.19
390.758	159.59
391.22	170.29
391.682	213.69
392.144	299.99
392.606	245.19
393.068	169.79
393.529	172.99
393.991	155.89
394.453	142.59
394.915	154.29
395.377	191.99
395.838	217.19
396.3	158.99
396.762	143.19
397.224	136.49
397.685	132.19
398.147	140.59
398.608	131.19
399.07	132.99
399.531	146.69
399.993	155.09
400.454	153.49
400.916	149.19
401.377	150.09
401.839	150.69
402.3	155.29
402.762	174.79
403.223	177.39
403.684	169.69
404.145	166.09
404.607	159.59
405.068	168.79
405.529	173.09
405.99	187.99
406.451	182.39
406.913	175.99
407.374	173.19
407.835	167.19
408.296	171.19
408.757	174.69
409.218	186.89
409.679	184.29
410.14	185.69
410.601	180.59
411.062	191.29
411.522	192.39
411.983	185.49
412.444	177.99
412.905	175.89
413.366	186.29
413.826	196.79
414.287	216.19
414.748	263.89
415.208	249.99
415.669	214.69
416.13	207.79
416.59	204.59
417.051	213.39
417.511	218.59
417.972	232.79
418.432	250.09
418.893	284.69
419.353	248.99
419.814	201.09
420.274	185.49
420.734	186.29
421.195	201.79
421.655	203.79
422.115	201.69
422.576	194.99
423.036	197.89
423.496	209.09
423.956	218.49
424.416	238.19
424.876	265.39
425.336	262.19
425.797	268.09
426.257	253.59
426.717	240.99
427.177	232.69
427.637	227.89
428.097	232.89
428.556	251.59
429.016	278.49
429.476	269.79
429.936	271.29
430.396	282.99
430.856	292.79
431.315	316.79
431.775	362.39
432.235	381.39
432.694	359.89
433.154	373.69
433.614	399.09
434.073	344.89
434.533	288.99
434.993	273.49
435.452	281.59
435.912	305.29
436.371	290.79
436.83	287.49
437.29	276.59
437.749	253.39
438.209	258.89
438.668	280.29
439.127	299.49
439.587	266.79
440.046	251.29
440.505	265.59
440.964	289.39
441.424	336.29
441.883	323.09
442.342	261.29
442.801	227.09
443.26	226.69
443.719	228.39
444.178	225.69
444.637	209.39
445.096	226.19
445.555	218.49
446.014	232.59
446.473	222.39
446.932	239.69
447.391	232.39
447.849	234.09
448.308	222.89
448.767	226.59
449.226	235.79
449.685	243.19
450.143	247.19
450.602	248.39
451.061	229.59
451.519	232.89
451.978	233.89
452.436	233.39
452.895	236.59
453.353	252.49
453.812	247.79
454.27	246.59
454.729	238.99
455.187	236.89
455.646	247.89
456.104	256.39
456.562	256.69
457.021	268.39
457.479	266.79
457.937	276.59
458.395	265.89
458.854	248.79
459.312	258.19
459.77	286.19
460.228	249.49
460.686	240.89
461.144	255.99
461.602	247.49
462.06	250.89
462.518	253.69
462.976	260.79
463.434	263.49
463.892	262.49
464.35	276.29
464.808	290.19
465.266	265.59
465.724	267.69
466.181	273.89
466.639	276.39
467.097	294.49
467.555	304.29
468.012	302.79
468.47	308.49
468.928	334.99
469.385	343.39
469.843	352.29
470.3	348.59
470.758	366.69
471.215	395.49
471.673	407.99
472.13	412.89
472.588	425.29
473.045	382.59
473.503	386.89
473.96	402.79
474.417	410.99
474.875	427.89
475.332	480.69
475.789	469.59
476.246	473.99
476.704	491.29
477.161	510.39
477.618	537.49
478.075	572.99
478.532	627.29
478.989	706.09
479.446	822.79
479.903	785.79
480.36	817.39
480.817	881.29
481.274	984.39
481.731	1084.49
482.188	1183.59
482.645	1328.79
483.102	1430.79
483.558	1572.29
484.015	1627.39
484.472	1593.29
484.929	1554.09
485.385	1502.79
485.842	1454.49
486.299	1377.89
486.755	1312.59
487.212	1109.29
487.668	943.39
488.125	870.99
488.582	798.09
489.038	755.79
489.494	714.59
489.951	685.89
490.407	677.69
490.864	649.79
491.32	655.19
491.776	645.19
492.233	666.59
492.689	611.19
493.145	621.49
493.602	601.89
494.058	624.59
494.514	621.69
494.97	644.79
495.426	644.29
495.882	629.39
496.338	622.19
496.794	621.59
497.251	619.99
497.707	642.69
498.163	643.19
498.618	663.19
499.074	653.79
499.53	676.59
499.986	690.19
500.442	660.09
500.898	640.59
501.354	628.79
501.809	638.69
502.265	650.29
502.721	661.09
503.177	678.49
503.632	665.69
504.088	682.49
504.543	724.49
504.999	722.39
505.455	659.29
505.91	634.49
506.366	643.59
506.821	642.79
507.277	626.99
507.732	626.79
508.187	628.69
508.643	631.59
509.098	645.89
509.553	655.89
510.009	674.09
510.464	677.69
510.919	695.49
511.375	704.79
511.83	707.99
512.285	735.89
512.74	763.99
513.195	788.89
513.65	775.99
514.105	768.09
514.56	784.59
515.015	797.29
515.47	810.89
515.925	802.09
516.38	790.99
516.835	804.69
517.29	787.59
517.745	787.69
518.2	772.79
518.655	759.99
519.109	752.99
519.564	745.29
520.019	748.49
520.474	725.79
520.928	725.49
521.383	729.59
521.838	730.99
522.292	718.79
522.747	716.89
523.201	709.19
523.656	698.19
524.11	696.39
524.565	685.49
525.019	698.59
525.474	700.39
525.928	703.89
526.382	700.19
526.837	706.69
527.291	705.79
527.745	702.09
528.2	703.69
528.654	703.19
529.108	698.79
529.562	700.59
530.016	706.39
530.47	692.39
530.925	692.69
531.379	703.39
531.833	707.79
532.287	703.69
532.741	703.29
533.195	711.89
533.649	710.19
534.103	719.89
534.556	710.89
535.01	718.29
535.464	708.09
535.918	723.69
536.372	726.99
536.826	729.39
537.279	710.09
537.733	719.59
538.187	718.89
538.64	715.79
539.094	728.69
539.548	743.99
540.001	728.39
540.455	733.09
540.908	729.39
541.362	744.59
541.815	746.59
542.269	763.99
542.722	768.99
543.175	774.39
543.629	772.89
544.082	787.29
544.536	788.59
544.989	779.09
545.442	799.99
545.895	797.59
546.349	804.79
546.802	800.79
547.255	787.69
547.708	806.89
548.161	820.49
548.614	829.99
549.067	828.89
549.52	810.99
549.973	804.49
550.426	805.99
550.879	798.79
551.332	800.39
551.785	804.69
552.238	816.49
552.691	824.39
553.144	833.59
553.596	852.39
554.049	859.89
554.502	900.09
554.955	909.69
555.407	918.89
555.86	899.59
556.313	887.89
556.765	877.39
557.218	882.89
557.67	878.69
558.123	874.39
558.576	857.79
559.028	876.39
559.48	886.29
559.933	865.49
560.385	837.99
560.838	805.59
561.29	780.89
561.742	776.69
562.195	770.39
562.647	756.49
563.099	776.39
563.551	769.39
564.004	779.59
564.456	774.39
564.908	765.39
565.36	747.69
565.812	726.59
566.264	723.09
566.716	727.09
567.168	715.49
567.62	721.39
568.072	703.89
568.524	698.89
568.976	694.59
569.428	678.29
569.88	681.59
570.332	681.89
570.784	687.29
571.235	696.79
571.687	699.59
572.139	696.79
572.59	717.49
573.042	708.69
573.494	708.59
573.945	704.49
574.397	685.69
574.849	694.09
575.3	696.29
575.752	683.79
576.203	675.69
576.655	686.99
577.106	668.69
577.557	657.39
578.009	659.79
578.46	668.59
578.912	655.99
579.363	664.99
579.814	660.99
580.265	665.99
580.717	678.49
581.168	667.29
581.619	675.89
582.07	685.99
582.521	676.59
582.972	665.09
583.423	672.39
583.875	683.09
584.326	695.89
584.777	748.99
585.227	825.69
585.678	917.59
586.129	994.19
586.58	1072.29
587.031	1162.89
587.482	1296.69
587.933	1509.89
588.384	1296.79
588.834	970.79
589.285	803.29
589.736	777.09
590.186	765.89
590.637	768.59
591.088	736.19
591.538	727.19
591.989	730.39
592.439	727.69
592.89	724.29
593.34	711.19
593.791	704.89
594.241	695.69
594.692	701.49
595.142	692.49
595.593	695.69
596.043	702.39
596.493	713.29
596.943	710.89
597.394	716.69
597.844	717.29
598.294	718.59
598.744	754.59
599.195	773.09
599.645	808.09
600.095	851.59
600.545	914.19
600.995	970.49
601.445	1020.99
601.895	1078.79
602.345	1125.79
602.795	1102.59
603.245	1048.89
603.695	1005.79
604.145	952.69
604.594	897.79
605.044	848.99
605.494	798.89
605.944	752.79
606.393	734.99
606.843	728.29
607.293	721.89
607.743	726.49
608.192	730.69
608.642	749.79
609.091	752.59
609.541	765.79
609.99	764.89
610.44	759.19
610.889	711.79
611.339	688.79
611.788	679.39
612.238	697.69
612.687	707.19
613.136	711.29
613.586	733.19
614.035	733.39
614.484	752.09
614.933	754.69
615.383	750.99
615.832	738.49
616.281	723.09
616.73	682.89
617.179	666.79
617.628	654.49
618.077	625.29
618.526	621.69
618.975	618.19
619.424	599.99
619.873	598.79
620.322	616.79
620.771	604.39
621.22	594.79
621.669	590.09
622.118	583.99
622.567	572.29
623.015	567.09
623.464	559.89
623.913	555.49
624.361	545.39
624.81	552.39
625.259	537.99
625.707	541.29
626.156	555.59
626.604	559.49
627.053	554.49
627.501	555.99
627.95	557.29
628.398	567.79
628.847	562.19
629.295	562.59
629.744	567.19
630.192	555.49
630.64	555.49
631.089	553.69
631.537	565.49
631.985	576.69
632.433	593.09
632.881	595.09
633.33	648.99
633.778	633.29
634.226	555.79
634.674	555.99
635.122	575.19
635.57	590.99
636.018	620.99
636.466	577.29
636.914	557.09
637.362	553.49
637.81	567.99
638.258	572.29
638.705	577.89
639.153	604.39
639.601	603.09
640.049	625.49
640.497	663.29
640.944	687.49
641.392	626.39
641.84	607.29
642.287	577.29
642.735	556.49
643.182	560.39
643.63	563.29
644.078	563.39
644.525	589.19
644.973	585.39
645.42	594.29
645.867	610.79
646.315	621.99
646.762	653.59
647.21	682.39
647.657	703.69
648.104	747.79
648.551	755.59
648.999	823.49
649.446	901.19
649.893	990.99
650.34	1151.19
650.787	1372.19
651.234	1708.99
651.682	2216.89
652.129	3048.39
652.576	4375.99
653.023	6490.89
653.47	8868.49
653.917	11172.79
654.363	12921.39
654.81	14308.49
655.257	13599.49
655.704	8891.69
656.151	5267.29
656.598	3412.69
657.044	2398.29
657.491	1841.09
657.938	1467.29
658.385	1232.69
658.831	1067.59
659.278	949.99
659.724	848.19
660.171	777.99
660.618	706.99
661.064	675.89
661.511	651.49
661.957	646.19
662.404	635.89
662.85	641.79
663.296	610.49
663.743	549.99
664.189	535.79
664.635	519.79
665.082	518.09
665.528	524.59
665.974	501.49
666.42	505.49
666.867	498.99
667.313	485.39
667.759	466.29
668.205	476.19
668.651	471.59
669.097	473.39
669.543	498.89
669.989	458.99
670.435	441.69
670.881	437.19
671.327	433.39
671.773	455.69
672.219	480.39
672.665	527.69
673.11	569.69
673.556	612.59
674.002	643.19
674.448	635.49
674.893	538.69
675.339	465.19
675.785	425.39
676.23	413.09
676.676	380.19
677.122	371.09
677.567	359.39
678.013	353.49
678.458	350.59
678.904	351.39
679.349	334.49
679.794	344.69
680.24	341.49
680.685	342.39
681.131	343.99
681.576	332.39
682.021	349.99
682.466	332.29
682.912	343.39
683.357	341.79
683.802	383.09
684.247	396.29
684.692	438.19
685.137	479.09
685.583	523.59
686.028	545.19
686.473	498.29
686.918	432.69
687.363	406.79
687.807	383.39
688.252	354.79
688.697	344.99
689.142	330.99
689.587	323.59
690.032	316.39
690.477	329.89
690.921	344.39
691.366	375.29
691.811	388.99
692.255	422.89
692.7	442.59
693.145	485.89
693.589	670.69
694.034	1079.29
694.478	1475.99
694.923	1687.79
695.367	2203.79
695.812	1166.09
696.256	491.99
696.701	365.99
697.145	329.09
697.59	321.09
698.034	308.69
698.478	318.79
698.922	312.09
699.367	323.89
699.811	327.39
700.255	345.99
700.699	380.49
701.143	413.09
701.588	459.69
702.032	498.49
702.476	490.69
702.92	482.59
703.364	474.59
703.808	605.59
704.252	986.59
704.696	1406.09
705.14	1618.99
705.584	2073.19
706.027	1022.99
706.471	506.19
706.915	384.59
707.359	338.69
707.803	314.29
708.246	306.19
708.69	298.89
709.134	306.19
709.577	297.99
710.021	304.79
710.465	291.89
710.908	286.29
711.352	297.59
711.795	302.99
712.239	343.09
712.682	368.49
713.126	407.89
713.569	462.39
714.012	362.59
714.456	304.69
714.899	291.19
715.342	268.59
715.786	257.39
716.229	250.69
716.672	252.09
717.115	241.19
717.558	244.49
718.002	239.09
718.445	256.49
718.888	276.79
719.331	280.09
719.774	296.99
720.217	291.19
720.66	279.79
721.103	263.39
721.546	243.89
721.989	252.89
722.432	226.99
722.874	236.59
723.317	219.49
723.76	233.09
724.203	252.09
724.645	308.89
725.088	428.09
725.531	544.99
725.974	623.79
726.416	521.99
726.859	296.59
727.301	247.59
727.744	229.99
728.187	218.29
728.629	233.39
729.071	230.49
729.514	246.39
729.956	264.29
730.399	275.29
730.841	274.99
731.283	265.09
731.726	256.89
732.168	245.89
732.61	265.79
733.053	285.09
733.495	293.59
733.937	333.49
734.379	384.49
734.821	418.69
735.263	504.29
735.705	784.59
736.148	1496.09
736.59	2467.69
737.032	2948.29
737.474	2409.59
737.916	786.39
738.357	412.09
738.799	314.59
739.241	287.59
739.683	270.69
740.125	273.19
740.567	283.69
741.008	301.59
741.45	303.09
741.892	307.39
742.334	335.79
742.775	339.69
743.217	326.19
743.658	258.09
744.1	244.19
744.542	251.19
744.983	292.79
745.425	329.99
745.866	332.69
746.307	283.19
746.749	272.69
747.19	313.29
747.632	435.99
748.073	842.19
748.514	1753.59
748.956	2724.89
749.397	3410.49
749.838	2853.09
750.279	2863.09
750.72	1455.59
751.162	520.39
751.603	307.09
752.044	238.19
752.485	205.09
752.926	198.49
753.367	194.79
753.808	181.09
754.249	183.09
754.69	177.79
755.131	178.69
755.572	171.49
756.013	170.59
756.453	178.39
756.894	179.29
757.335	183.29
757.776	189.59
758.216	188.49
758.657	195.09
759.098	201.49
759.538	214.69
759.979	253.69
760.42	358.99
760.86	660.19
761.301	1711.99
761.741	4181.99
762.182	6212.99
762.622	4394.19
763.063	1252.59
763.503	512.09
763.943	327.59
764.384	330.99
764.824	389.39
765.264	428.29
765.705	297.29
766.145	200.59
766.585	181.99
767.025	176.99
767.465	184.59
767.906	228.69
768.346	310.89
768.786	341.79
769.226	250.29
769.666	307.29
770.106	578.99
770.546	1468.59
770.986	2540.19
771.426	2278.29
771.866	769.69
772.306	310.69
772.745	199.29
773.185	171.69
773.625	170.79
774.065	170.99
774.505	198.79
774.944	299.19
775.384	649.59
775.824	1222.99
776.263	1196.09
776.703	500.79
777.142	210.09
777.582	148.09
778.021	130.69
778.461	132.39
778.9	129.79
779.34	132.89
779.779	112.09
780.219	107.39
780.658	104.59
781.097	106.99
781.537	114.59
781.976	104.79
782.415	102.99
782.855	98.29
783.294	98.59
783.733	99.59
784.172	104.89
784.611	101.39
785.05	102.49
785.489	107.29
785.928	119.49
786.367	118.99
786.806	116.49
787.245	125.39
787.684	133.99
788.123	138.59
788.562	129.19
789.001	127.59
789.44	119.19
789.879	114.19
790.317	114.59
790.756	117.89
791.195	125.99
791.634	135.69
792.072	190.19
792.511	341.99
792.95	948.79
793.388	2051.99
793.827	1894.09
794.265	650.79
794.704	271.19
795.142	176.89
795.581	153.79
796.019	130.59
796.458	114.99
796.896	116.19
797.334	128.09
797.773	151.29
798.211	215.29
798.649	416.09
799.087	972.99
799.526	1512.49
799.964	1917.99
800.402	1946.79
800.84	729.69
801.278	286.29
801.716	185.19
802.154	150.59
802.592	138.69
803.03	134.99
803.468	132.69
803.906	137.69
804.344	151.79
804.782	127.99
805.22	127.29
805.658	128.69
806.096	139.09
806.533	150.49
806.971	165.19
807.409	203.59
807.847	300.09
808.284	618.89
808.722	1778.99
809.16	3162.39
809.597	2948.29
810.035	5163.49
810.472	5600.89
810.91	2006.29
811.347	766.89
811.785	390.09
812.222	244.69
812.66	188.99
813.097	153.99
813.535	135.69
813.972	126.49
814.409	116.59
814.846	107.89
815.284	103.69
815.721	96.59
816.158	109.39
816.595	117.79
817.032	169.59
817.47	199.19
817.907	170.99
818.344	150.39
818.781	112.49
819.218	96.19
819.655	118.99
820.092	178.19
820.529	203.09
820.966	171.69
821.403	134.89
821.839	108.69
822.276	99.89
822.713	121.49
823.15	138.89
823.587	114.39
824.023	141.89
824.46	275.49
824.897	854.89
825.333	1323.59
825.77	561.69
826.206	218.49
826.643	130.79
827.08	97.79
827.516	74.09
827.953	76.49
828.389	79.89
828.825	73.19
829.262	68.59
829.698	62.19
830.135	65.49
830.571	60.59
831.007	60.49
831.443	58.89
831.88	59.39
832.316	62.09
832.752	62.79
833.188	59.49
833.624	55.69
834.06	63.49
834.497	65.09
834.933	69.39
835.369	76.99
835.805	63.39
836.241	81.39
836.677	79.49
837.112	87.89
837.548	99.89
837.984	128.39
838.42	186.69
838.856	454.99
839.292	1419.79
839.727	2219.19
840.163	1026.59
840.599	874.19
841.034	1920.49
841.47	2074.29
841.906	756.39
842.341	311.99
842.777	221.39
843.212	312.69
843.648	309.29
844.083	151.69
844.519	89.29
844.954	77.09
845.39	62.89
845.825	54.59
846.261	53.59
846.696	56.59
847.131	55.79
847.566	61.69
848.002	47.89
848.437	52.69
848.872	57.19
849.307	63.39
849.742	83.09
850.177	171.39
850.613	527.19
851.048	846.29
851.483	369.69
851.918	154.29
852.353	78.19
852.788	63.49
853.223	53.99
853.657	57.19
854.092	47.09
854.527	36.99
854.962	36.39
855.397	41.19
855.832	52.89
856.266	36.19
856.701	42.39
857.136	31.59
857.57	36.09
858.005	46.09
858.44	58.49
858.874	42.59
859.309	54.59
859.743	39.39
860.178	52.39
860.612	39.19
861.047	45.89
861.481	61.29
861.915	74.89
862.35	47.79
862.784	33.59
863.218	34.69
863.653	34.29
864.087	40.59
864.521	55.89
864.955	65.59
865.39	145.49
865.824	174.79
866.258	107.89
866.692	149.39
867.126	168.69
867.56	102.09
867.994	46.59
868.428	33.19
868.862	48.69
869.296	59.09
869.73	56.59
870.164	45.79
870.598	41.39
871.031	37.19
871.465	28.59
871.899	33.69
872.333	23.39
872.766	28.79
873.2	19.19
873.634	27.69
874.067	24.49
874.501	26.39
874.935	32.59
875.368	35.09
875.802	30.59
876.235	22.19
876.669	22.19
877.102	16.49
877.535	25.09
877.969	19.19
878.402	19.69
878.836	20.79
879.269	21.69
879.702	24.19
880.135	19.69
880.569	22.59
881.002	31.49
881.435	21.39
881.868	15.19
882.301	24.29
882.734	16.99
883.167	19.39
883.601	14.99
884.034	18.69
884.467	16.19
884.899	19.59
885.332	15.09
885.765	16.99
886.198	17.49
886.631	22.39
887.064	17.99
887.497	19.79
887.929	24.69
888.362	18.59
888.795	12.59
889.228	23.69
889.66	20.49
890.093	16.69
890.526	24.19
890.958	16.39
891.391	23.69
891.823	20.49
892.256	9.49
892.688	16.49
893.121	16.79
893.553	16.09
893.985	22.59
894.418	19.69
894.85	10.69
895.282	10.79
895.715	22.29
896.147	17.29
896.579	16.09
897.011	15.69
897.444	16.69
897.876	13.29
898.308	12.79
898.74	19.09
899.172	12.29
899.604	18.59
900.036	17.69
900.468	16.59
900.9	16.69
901.332	19.59
901.764	17.29
902.196	18.79
902.628	17.59
903.06	14.89
903.491	27.19
903.923	19.39
904.355	28.49
904.787	26.49
905.218	23.29
905.65	20.09
906.082	11.19
906.513	17.29
906.945	18.19
907.376	13.09
907.808	19.29
908.239	23.29
908.671	20.19
909.102	22.79
909.534	26.79
909.965	48.89
910.397	93.09
910.828	300.69
911.259	457.89
911.691	213.09
912.122	100.59
912.553	47.19
912.984	35.39
913.415	25.69
913.847	25.29
914.278	13.49
914.709	12.09
915.14	17.59
915.571	23.19
916.002	18.09
916.433	21.99
916.864	17.99
917.295	9.49
917.726	19.79
918.157	17.19
918.587	28.39
919.018	23.29
919.449	21.29
919.88	27.49
920.311	30.29
920.741	47.29
921.172	148.89
921.603	149.39
922.033	72.19
922.464	44.59
922.895	25.09
923.325	22.89
923.756	12.09
924.186	13.49
924.617	23.29
925.047	45.59
925.478	55.79
925.908	42.79
926.338	21.09
926.769	24.19
927.199	19.69
927.629	5.79
928.06	22.89
928.49	14.79
928.92	14.79
929.35	8.29
929.78	7.49
930.21	10.99
930.641	10.69
931.071	10.29
931.501	8.89
931.931	8.89
932.361	4.99
932.791	6.89
933.221	2.09
933.651	0.39
934.08	20.29
934.51	25.59
934.94	7.49
935.37	11.29
935.8	4.79
936.229	11.69
936.659	10.29
937.089	9.59
937.519	18.69
937.948	24.59
938.378	15.29
938.807	7.29
939.237	7.89
939.666	7.99
940.096	-2.81
940.525	1.09
940.955	2.19
941.384	4.09
941.814	-4.01
942.243	-4.31
942.672	4.99
943.102	-3.11
943.531	-2.11
943.96	2.59
944.39	5.59
944.819	-3.01
945.248	0.99
945.677	8.19
946.106	6.39
946.535	0.79
946.964	1.99
947.393	1.49
947.822	1.99
948.251	-2.41
948.68	9.29
949.109	10.29
949.538	5.99
949.967	-5.21
950.396	1.79
950.825	1.49
951.254	5.39
951.682	0.59
952.111	7.69
952.54	0.69
952.969	0.19
953.397	0.69
953.826	-0.41
954.254	-1.71
954.683	5.09
955.112	-1.51
955.54	1.49
955.969	-3.71
956.397	-1.31
956.826	0.29
957.254	3.79
957.682	1.59
958.111	1.69
958.539	0.69
958.967	1.29
959.396	-0.81
959.824	2.69
960.252	6.49
960.68	-2.11
961.109	1.89
961.537	-5.81
961.965	-1.31
962.393	4.49
962.821	1.49
963.249	-3.41
963.677	6.09
964.105	4.69
964.533	46.09
964.961	40.99
965.389	18.59
965.817	9.39
966.245	3.59
966.672	1.59
967.1	-1.31
967.528	3.19
967.956	-5.71
968.383	-1.21
968.811	-1.51
969.239	-0.61
969.666	-0.41
970.094	5.49
970.522	4.69
970.949	-1.71
971.377	-8.31
971.804	0.29
972.232	-0.21
972.659	1.59
973.087	-5.81
973.514	-1.51
973.941	-0.61
974.369	3.99
974.796	-2.01
975.223	0.99
975.651	-0.11
976.078	-0.11
976.505	-0.81
976.932	1.29
977.359	13.79
977.786	16.99
978.214	5.69
978.641	-3.41
979.068	3.99
979.495	-3.71
979.922	-2.81
980.349	-4.51
980.776	0.39
981.202	2.99
981.629	1.79
982.056	5.69
982.483	1.59
982.91	0.79
983.337	-5.61
983.763	5.39
984.19	-4.41
984.617	-3.81
985.043	-2.21
985.47	-2.51
985.897	0.09
986.323	-9.01
986.75	7.09
987.176	-0.71
987.603	2.79
988.029	-1.11
988.456	-4.61
988.882	6.79
989.308	-6.21
989.735	-1.91
990.161	1.19
990.587	-6.81
991.014	1.69
991.44	5.89
991.866	-1.81
992.292	-4.81
992.719	1.89
993.145	6.79
993.571	-10.51
993.997	0.49
994.423	-0.31
994.849	-1.41
995.275	6.29
995.701	-2.81
996.127	-6.51
996.553	8.09
996.979	-4.71
997.405	4.29
997.83	-9.11
998.256	-5.31
998.682	-6.01
999.108	-8.31
999.534	-3.21
999.959	1.69
1000.385	-5.71
1000.811	0.89
1001.236	-8.81
1001.662	-8.21
1002.087	-5.81
1002.513	-1.61
1002.938	-1.91
1003.364	-0.81
1003.789	4.29
1004.215	-0.01
1004.64	-0.11
1005.066	-0.01
1005.491	-1.11
1005.916	-0.81
1006.342	-2.11
1006.767	-12.51
1007.192	7.19
1007.617	-3.51
1008.042	-3.81
1008.468	-5.01
1008.893	-2.01
1009.318	-2.91
1009.743	1.99
1010.168	2.79
1010.593	-0.31
1011.018	-7.71
1011.443	0.89
1011.868	1.39
1012.293	-4.51
1012.718	-5.91
1013.143	-0.11
1013.567	2.29
1013.992	3.69
1014.417	-10.81
1014.842	1.79
1015.267	4.19
1015.691	3.09
1016.116	7.09
1016.541	-3.61
1016.965	1.39
1017.39	1.99
1017.814	-4.61
1018.239	-2.91
1018.663	-4.91
1019.088	-10.61
1019.512	-3.31
1019.937	-5.41
1020.361	-6.51
1020.785	-8.31
1021.21	-1.61
1021.634	-4.11
1022.058	0.19
1022.483	9.29
1022.907	-3.01
1023.331	-8.91
1023.755	-0.91
1024.179	-0.91
1024.604	-3.11
1025.028	-6.71
1025.452	-10.31
1025.876	0.59
1026.3	1.59
1026.724	-11.51
1027.148	-5.91
1027.572	-9.01
1027.996	-2.21
1028.42	-1.01
1028.843	-9.31
1029.267	-5.81
1029.691	-1.51
1030.115	-8.31
1030.539	-7.41
1030.962	-2.11
1031.386	-11.51
1031.81	-0.61
1032.233	2.69
1032.657	-1.31
1033.08	2.29
1033.504	1.09
1033.927	-3.61
1034.351	1.79
1034.774	-10.21
1035.198	-0.11
1035.621	-4.21
1036.045	-7.01
1036.468	2.99
1036.891	-13.31
1037.315	-3.51
1037.738	-2.21
1038.161	5.79
1038.584	-4.91
1039.008	-7.71
1039.431	-4.11
1039.854	-5.01
1040.277	-6.61
1040.7	-10.41
1041.123	4.59
1041.546	-6.81
1041.969	-4.71
1042.392	-3.31
1042.815	-1.11
1043.238	-1.91
1043.661	2.09
1044.084	-6.01
1044.507	-6.91
1044.93	-8.11
1045.352	-8.01
1045.775	-2.71
1046.198	-1.61
1046.621	-3.41
1047.043	0.69
1047.466	10.89
1047.889	-0.21
1048.311	-2.81
1048.734	-5.81
1049.156	-3.21
1049.579	-3.21
1050.001	-2.71
1050.424	3.09
1050.846	-4.81
1051.269	-4.01
1051.691	-2.31
1052.113	-4.61
1052.536	0.39
1052.958	-2.61
1053.38	-5.11
1053.802	-12.31
1054.225	1.59
1054.647	-6.81
1055.069	-0.81
1055.491	1.29
1055.913	-1.61
1056.335	-1.71
1056.757	-2.31
1057.179	-9.41
1057.601	-10.41
1058.023	-4.91
1058.445	-2.81
1058.867	-3.51
1059.289	-8.11
1059.711	-5.31
1060.133	-2.91
1060.555	-7.21
1060.976	-3.41
1061.398	-1.71
1061.82	-6.21
1062.241	-3.61
1062.663	1.69
1063.085	-4.71
1063.506	-0.31
1063.928	-1.61
1064.35	-1.01
1064.771	-7.51
1065.193	-4.71
1065.614	-7.31
1066.035	-1.81
1066.457	-3.91
1066.878	-0.41
1067.3	-8.41
1067.721	-1.11
1068.142	-3.91
1068.564	-1.71
1068.985	-2.61
1069.406	-8.11
1069.827	-1.81
1070.248	0.49
1070.67	-8.61
1071.091	-8.91
1071.512	-11.81
1071.933	-8.21
1072.354	-7.51
1072.775	-5.61
1073.196	-9.61
1073.617	-2.71
1074.038	-5.31
1074.459	-3.91
1074.88	-5.71
1075.3	-3.91
1075.721	-0.11
1076.142	2.89
1076.563	-1.01
1076.983	-10.61
1077.404	-6.01
1077.825	-5.21
1078.246	-3.61
1078.666	-13.51
1079.087	-3.21
1079.507	-4.41
1079.928	-0.51
1080.348	-1.91
1080.769	-12.21
1081.189	-4.11
1081.61	-0.61
1082.03	-7.91
1082.451	-7.21
1082.871	-6.91
1083.291	-4.91
1083.711	-6.61
1084.132	-0.51
1084.552	0.69
1084.972	1.09
1085.392	-10.21
1085.813	-5.81
1086.233	-11.51
1086.653	-1.81
1087.073	-1.11
1087.493	-6.61
1087.913	-6.81
1088.333	-11.71
1088.753	-4.91
1089.173	3.19
1089.593	0.09
1090.013	0.49
1090.433	1.99
1090.852	-6.21
1091.272	-6.41
1091.692	-4.11
1092.112	-4.71
1092.531	-9.11
1092.951	-14.21
1093.371	-3.81
1093.79	0.19
1094.21	-9.11
1094.63	-5.51
1095.049	-2.21
1095.469	-4.61
1095.888	-3.01
1096.308	3.99
1096.727	1.39
1097.146	-5.31
1097.566	2.69
1097.985	-2.51
1098.405	-5.31
1098.824	-3.81
1099.243	-5.41
1099.662	-10.51
1100.082	-5.11
1100.501	-0.41
1100.92	-2.51
1101.339	-6.71
1101.758	-2.61
