Data from 20171114-ORNL-Ar_H_NY_Subt18_08-04-15-984.txt Node
Date: Tue Nov 14 08:04:15 EST 2017
User: Ender
Spectrometer: HR+D1039
Trigger mode: 0
Integration Time (sec): 2.730000E-2
Scans to average: 10
Electric dark correction enabled: true
Nonlinearity correction enabled: false
Boxcar width: 0
XAxis mode: Wavelengths
Number of Pixels in Spectrum: 2048
>>>>>Begin Spectral Data<<<<<
187.836	-2.82
188.309	-2.82
188.782	-2.82
189.255	2.78
189.728	-3.62
190.201	1.98
190.674	-0.62
191.147	0.78
191.619	-2.52
192.092	-1.92
192.565	2.78
193.038	2.88
193.511	2.78
193.984	-1.92
194.456	1.78
194.929	3.18
195.402	1.38
195.874	-6.92
196.347	-7.82
196.82	-4.52
197.292	0.18
197.765	-3.82
198.237	-6.32
198.71	7.48
199.182	0.28
199.655	-0.62
200.127	7.18
200.6	-7.42
201.072	-1.92
201.544	-4.62
202.017	-3.72
202.489	3.98
202.961	2.48
203.433	-7.92
203.906	-4.42
204.378	-7.82
204.85	-0.02
205.322	-9.72
205.794	-6.72
206.266	-0.82
206.739	-8.12
207.211	3.98
207.683	-9.82
208.155	-4.02
208.627	-7.62
209.099	-10.12
209.57	-6.82
210.042	-1.42
210.514	-3.72
210.986	-0.22
211.458	-7.72
211.93	-0.92
212.402	0.88
212.873	-5.32
213.345	-9.82
213.817	-7.62
214.288	-5.92
214.76	-5.42
215.232	2.08
215.703	-6.32
216.175	-3.42
216.646	0.68
217.118	-10.72
217.589	-11.02
218.061	-8.12
218.532	-5.72
219.004	-1.72
219.475	-6.22
219.946	-8.82
220.418	-5.92
220.889	5.08
221.36	0.58
221.832	-4.22
222.303	-7.02
222.774	2.38
223.245	-4.82
223.717	-3.72
224.188	-7.52
224.659	-8.22
225.13	-6.62
225.601	4.08
226.072	3.78
226.543	0.88
227.014	-1.52
227.485	0.18
227.956	-5.02
228.427	-0.12
228.898	1.28
229.369	7.88
229.839	-2.42
230.31	-5.92
230.781	1.18
231.252	0.38
231.722	-2.02
232.193	-0.22
232.664	-2.42
233.135	0.48
233.605	-0.42
234.076	-5.22
234.546	0.58
235.017	4.38
235.487	5.28
235.958	2.98
236.428	1.78
236.899	4.48
237.369	8.48
237.84	-1.92
238.31	8.98
238.78	4.88
239.251	-0.82
239.721	3.08
240.191	-0.32
240.662	-1.62
241.132	0.68
241.602	-7.82
242.072	3.88
242.542	6.88
243.013	6.98
243.483	4.18
243.953	5.68
244.423	8.68
244.893	-3.92
245.363	8.68
245.833	0.48
246.303	3.28
246.773	9.18
247.243	-0.82
247.712	1.68
248.182	5.88
248.652	8.18
249.122	-4.02
249.592	11.68
250.061	19.08
250.531	32.18
251.001	15.78
251.471	21.38
251.94	15.88
252.41	7.18
252.879	1.78
253.349	16.78
253.818	10.28
254.288	8.18
254.757	3.38
255.227	-0.02
255.696	2.78
256.166	6.78
256.635	13.88
257.105	7.38
257.574	4.58
258.043	10.08
258.513	12.18
258.982	17.88
259.451	13.98
259.92	13.18
260.389	12.48
260.859	13.28
261.328	13.88
261.797	18.18
262.266	7.18
262.735	7.18
263.204	10.88
263.673	4.78
264.142	11.38
264.611	-2.42
265.08	2.08
265.549	1.68
266.018	8.88
266.487	-1.82
266.955	0.98
267.424	-0.72
267.893	2.28
268.362	5.08
268.83	5.48
269.299	14.58
269.768	3.88
270.236	8.68
270.705	0.18
271.174	7.58
271.642	14.48
272.111	4.78
272.579	18.48
273.048	22.78
273.516	24.58
273.985	22.28
274.453	30.78
274.922	17.38
275.39	12.88
275.858	9.18
276.327	15.88
276.795	18.28
277.263	19.28
277.731	31.08
278.2	49.08
278.668	57.18
279.136	38.28
279.604	16.68
280.072	16.98
280.54	13.58
281.008	10.98
281.477	15.98
281.945	9.48
282.413	18.48
282.881	15.48
283.348	7.98
283.816	10.28
284.284	17.08
284.752	18.08
285.22	15.08
285.688	12.98
286.156	17.28
286.623	43.38
287.091	44.78
287.559	24.38
288.026	16.58
288.494	17.48
288.962	9.88
289.429	12.68
289.897	18.98
290.364	10.08
290.832	14.78
291.3	13.68
291.767	12.78
292.234	15.48
292.702	14.58
293.169	22.08
293.637	24.88
294.104	16.58
294.571	6.78
295.039	11.38
295.506	14.98
295.973	15.28
296.44	14.68
296.908	10.38
297.375	16.78
297.842	19.08
298.309	17.48
298.776	15.98
299.243	14.58
299.71	13.88
300.177	17.38
300.644	20.08
301.111	22.38
301.578	18.88
302.045	13.88
302.512	16.58
302.979	26.68
303.446	21.78
303.913	16.68
304.379	17.48
304.846	28.38
305.313	19.38
305.78	22.88
306.246	25.58
306.713	21.58
307.18	22.98
307.646	19.18
308.113	27.08
308.579	20.18
309.046	28.48
309.512	29.18
309.979	20.48
310.445	24.98
310.912	29.08
311.378	33.58
311.845	25.68
312.311	26.68
312.777	27.78
313.244	29.58
313.71	36.28
314.176	27.08
314.642	28.58
315.109	24.28
315.575	34.98
316.041	38.88
316.507	32.28
316.973	34.58
317.439	23.98
317.905	31.28
318.371	38.58
318.837	31.08
319.303	30.48
319.769	29.48
320.235	29.38
320.701	37.98
321.167	31.18
321.633	28.88
322.099	31.28
322.564	40.58
323.03	35.18
323.496	38.68
323.962	43.48
324.427	33.28
324.893	40.18
325.359	34.88
325.824	34.08
326.29	32.88
326.755	39.58
327.221	37.28
327.686	33.88
328.152	43.18
328.617	36.98
329.083	43.18
329.548	50.28
330.014	39.68
330.479	33.78
330.944	37.78
331.41	42.98
331.875	46.08
332.34	38.68
332.805	35.08
333.271	45.88
333.736	38.58
334.201	50.18
334.666	50.28
335.131	55.38
335.596	52.08
336.061	47.08
336.526	39.48
336.991	42.38
337.456	54.38
337.921	48.48
338.386	43.98
338.851	46.58
339.316	48.08
339.781	45.78
340.246	54.18
340.711	38.78
341.175	46.88
341.64	37.58
342.105	47.28
342.569	56.38
343.034	57.08
343.499	48.38
343.963	50.18
344.428	64.48
344.893	50.88
345.357	55.58
345.822	53.38
346.286	53.28
346.751	68.78
347.215	58.88
347.679	62.18
348.144	85.08
348.608	72.28
349.073	54.58
349.537	65.28
350.001	74.08
350.465	77.08
350.93	66.18
351.394	68.78
351.858	69.18
352.322	73.58
352.786	73.18
353.25	81.98
353.715	89.58
354.179	92.38
354.643	99.58
355.107	106.38
355.571	92.68
356.035	87.98
356.498	101.98
356.962	93.48
357.426	106.68
357.89	97.18
358.354	76.08
358.818	77.88
359.281	75.68
359.745	62.68
360.209	64.28
360.673	66.68
361.136	73.48
361.6	71.08
362.064	75.08
362.527	77.98
362.991	87.48
363.454	75.08
363.918	66.18
364.381	67.48
364.845	73.68
365.308	71.08
365.772	76.18
366.235	75.18
366.698	74.28
367.162	77.98
367.625	77.78
368.088	73.18
368.552	77.18
369.015	80.98
369.478	82.38
369.941	88.08
370.404	92.88
370.867	96.88
371.331	92.48
371.794	105.48
372.257	104.38
372.72	107.48
373.183	94.88
373.646	87.08
374.109	91.78
374.572	100.78
375.035	91.08
375.497	98.28
375.96	91.38
376.423	93.98
376.886	97.98
377.349	95.68
377.811	92.58
378.274	91.28
378.737	94.78
379.199	96.68
379.662	101.68
380.125	100.88
380.587	108.48
381.05	113.08
381.512	118.38
381.975	121.68
382.437	110.98
382.9	116.88
383.362	118.78
383.825	123.78
384.287	122.48
384.75	119.08
385.212	123.48
385.674	121.98
386.136	120.28
386.599	108.58
387.061	114.08
387.523	113.68
387.985	118.88
388.447	126.38
388.91	126.18
389.372	143.88
389.834	135.98
390.296	130.08
390.758	131.48
391.22	145.58
391.682	176.28
392.144	253.58
392.606	203.28
393.068	147.38
393.529	148.28
393.991	136.18
394.453	130.18
394.915	134.58
395.377	167.68
395.838	187.58
396.3	140.78
396.762	128.88
397.224	119.08
397.685	110.18
398.147	118.48
398.608	120.08
399.07	116.28
399.531	119.08
399.993	120.58
400.454	133.58
400.916	128.68
401.377	129.18
401.839	135.48
402.3	126.28
402.762	143.88
403.223	156.58
403.684	154.18
404.145	146.68
404.607	144.18
405.068	145.28
405.529	154.68
405.99	164.38
406.451	146.58
406.913	155.18
407.374	144.78
407.835	136.88
408.296	147.88
408.757	146.98
409.218	156.28
409.679	155.28
410.14	156.78
410.601	156.68
411.062	166.48
411.522	167.88
411.983	173.68
412.444	149.68
412.905	164.58
413.366	166.48
413.826	167.18
414.287	191.78
414.748	235.58
415.208	219.58
415.669	191.98
416.13	184.88
416.59	181.28
417.051	190.78
417.511	195.78
417.972	212.58
418.432	218.18
418.893	255.98
419.353	214.88
419.814	178.28
420.274	164.08
420.734	160.28
421.195	181.48
421.655	169.28
422.115	168.88
422.576	164.68
423.036	170.48
423.496	191.58
423.956	198.08
424.416	215.68
424.876	235.48
425.336	233.48
425.797	227.68
426.257	227.48
426.717	210.18
427.177	204.28
427.637	195.98
428.097	210.98
428.556	216.98
429.016	239.58
429.476	232.38
429.936	239.18
430.396	246.08
430.856	253.48
431.315	277.98
431.775	298.78
432.235	331.38
432.694	307.38
433.154	306.68
433.614	334.38
434.073	293.78
434.533	252.18
434.993	237.88
435.452	244.08
435.912	255.88
436.371	260.38
436.83	252.58
437.29	235.98
437.749	213.98
438.209	205.78
438.668	231.78
439.127	251.88
439.587	228.68
440.046	214.58
440.505	226.38
440.964	245.68
441.424	266.98
441.883	260.28
442.342	226.08
442.801	198.48
443.26	193.78
443.719	203.08
444.178	192.68
444.637	185.18
445.096	194.18
445.555	197.88
446.014	205.88
446.473	201.28
446.932	211.38
447.391	194.88
447.849	205.58
448.308	192.38
448.767	192.38
449.226	200.58
449.685	209.58
450.143	231.38
450.602	210.38
451.061	201.48
451.519	208.88
451.978	200.78
452.436	206.08
452.895	213.08
453.353	221.98
453.812	209.28
454.27	217.08
454.729	207.58
455.187	211.68
455.646	218.28
456.104	219.48
456.562	229.08
457.021	227.78
457.479	231.68
457.937	236.38
458.395	228.28
458.854	212.68
459.312	221.38
459.77	232.68
460.228	222.28
460.686	208.28
461.144	224.88
461.602	217.08
462.06	217.68
462.518	226.28
462.976	223.68
463.434	236.08
463.892	235.88
464.35	243.88
464.808	252.88
465.266	225.08
465.724	236.78
466.181	248.48
466.639	238.68
467.097	259.78
467.555	264.08
468.012	277.08
468.47	272.98
468.928	286.98
469.385	302.08
469.843	308.58
470.3	300.68
470.758	319.68
471.215	331.88
471.673	352.48
472.13	352.88
472.588	359.78
473.045	328.48
473.503	340.28
473.96	349.58
474.417	353.78
474.875	386.58
475.332	414.68
475.789	399.78
476.246	411.08
476.704	420.08
477.161	448.68
477.618	454.58
478.075	490.28
478.532	540.88
478.989	602.88
479.446	696.68
479.903	685.68
480.36	715.78
480.817	778.78
481.274	857.38
481.731	949.48
482.188	1029.98
482.645	1143.78
483.102	1251.38
483.558	1365.58
484.015	1429.78
484.472	1405.68
484.929	1360.78
485.385	1322.18
485.842	1299.28
486.299	1213.18
486.755	1143.08
487.212	968.18
487.668	824.08
488.125	753.68
488.582	696.68
489.038	668.18
489.494	642.48
489.951	614.98
490.407	596.28
490.864	571.98
491.32	572.48
491.776	570.78
492.233	560.28
492.689	537.48
493.145	541.08
493.602	530.38
494.058	543.58
494.514	548.18
494.97	561.48
495.426	573.18
495.882	551.68
496.338	549.78
496.794	550.28
497.251	559.38
497.707	552.18
498.163	560.58
498.618	574.48
499.074	581.08
499.53	605.98
499.986	593.68
500.442	563.38
500.898	559.48
501.354	549.98
501.809	561.88
502.265	571.08
502.721	580.88
503.177	595.88
503.632	585.18
504.088	603.28
504.543	622.38
504.999	619.98
505.455	584.08
505.91	567.08
506.366	559.18
506.821	562.08
507.277	546.28
507.732	554.58
508.187	556.38
508.643	563.68
509.098	565.48
509.553	581.98
510.009	579.98
510.464	594.68
510.919	620.18
511.375	605.88
511.83	629.08
512.285	636.58
512.74	667.58
513.195	688.18
513.65	684.88
514.105	688.68
514.56	691.58
515.015	705.18
515.47	723.28
515.925	705.08
516.38	703.88
516.835	703.98
517.29	691.78
517.745	691.78
518.2	682.68
518.655	670.18
519.109	658.38
519.564	658.18
520.019	651.08
520.474	642.98
520.928	635.58
521.383	639.48
521.838	632.38
522.292	626.78
522.747	628.18
523.201	622.08
523.656	611.88
524.11	609.28
524.565	609.38
525.019	609.38
525.474	619.48
525.928	617.98
526.382	613.78
526.837	612.38
527.291	617.58
527.745	616.08
528.2	617.88
528.654	605.88
529.108	604.08
529.562	614.48
530.016	599.88
530.47	610.68
530.925	610.88
531.379	608.48
531.833	615.68
532.287	616.18
532.741	616.58
533.195	615.68
533.649	615.48
534.103	636.98
534.556	629.68
535.01	628.48
535.464	625.68
535.918	640.68
536.372	642.68
536.826	640.08
537.279	619.68
537.733	635.28
538.187	628.68
538.64	635.08
539.094	627.38
539.548	650.88
540.001	640.88
540.455	631.78
540.908	637.58
541.362	647.98
541.815	644.28
542.269	669.78
542.722	661.78
543.175	666.48
543.629	673.98
544.082	677.58
544.536	693.08
544.989	696.08
545.442	691.88
545.895	694.98
546.349	687.98
546.802	691.08
547.255	691.78
547.708	705.98
548.161	707.38
548.614	711.98
549.067	727.48
549.52	716.28
549.973	706.18
550.426	703.68
550.879	696.58
551.332	688.88
551.785	700.78
552.238	690.98
552.691	706.98
553.144	721.38
553.596	729.18
554.049	751.68
554.502	777.98
554.955	798.78
555.407	794.18
555.86	784.58
556.313	775.28
556.765	755.68
557.218	767.48
557.67	773.28
558.123	760.18
558.576	747.88
559.028	751.68
559.48	758.18
559.933	754.18
560.385	733.28
560.838	698.98
561.29	679.48
561.742	667.78
562.195	650.88
562.647	654.48
563.099	674.78
563.551	659.98
564.004	684.08
564.456	665.18
564.908	663.58
565.36	650.18
565.812	622.88
566.264	624.48
566.716	623.68
567.168	615.08
567.62	610.98
568.072	604.28
568.524	588.58
568.976	586.18
569.428	581.38
569.88	576.88
570.332	581.98
570.784	587.08
571.235	578.88
571.687	594.08
572.139	600.58
572.59	608.98
573.042	604.78
573.494	607.58
573.945	601.88
574.397	584.48
574.849	585.58
575.3	595.18
575.752	582.88
576.203	578.18
576.655	590.08
577.106	564.08
577.557	564.08
578.009	565.28
578.46	562.88
578.912	565.18
579.363	560.98
579.814	557.98
580.265	562.68
580.717	561.88
581.168	567.98
581.619	568.88
582.07	573.48
582.521	576.08
582.972	563.08
583.423	565.28
583.875	572.18
584.326	598.78
584.777	628.78
585.227	701.38
585.678	770.48
586.129	856.18
586.58	917.98
587.031	1007.08
587.482	1142.38
587.933	1295.68
588.384	1119.48
588.834	816.58
589.285	686.38
589.736	657.58
590.186	646.18
590.637	645.98
591.088	618.98
591.538	616.38
591.989	613.58
592.439	616.08
592.89	601.48
593.34	597.98
593.791	591.88
594.241	596.78
594.692	596.18
595.142	587.68
595.593	586.38
596.043	586.88
596.493	595.78
596.943	598.68
597.394	606.48
597.844	592.38
598.294	606.48
598.744	633.68
599.195	648.28
599.645	677.78
600.095	700.78
600.545	761.78
600.995	795.68
601.445	852.88
601.895	896.78
602.345	953.08
602.795	930.48
603.245	900.38
603.695	843.78
604.145	798.48
604.594	760.18
605.044	707.88
605.494	672.78
605.944	629.78
606.393	616.38
606.843	594.88
607.293	602.38
607.743	597.18
608.192	609.08
608.642	623.08
609.091	631.18
609.541	643.28
609.99	622.88
610.44	634.88
610.889	592.28
611.339	572.58
611.788	561.88
612.238	577.58
612.687	592.58
613.136	595.88
613.586	607.98
614.035	597.98
614.484	625.18
614.933	624.58
615.383	610.18
615.832	604.68
616.281	593.08
616.73	556.88
617.179	549.58
617.628	537.08
618.077	522.88
618.526	508.78
618.975	506.18
619.424	504.08
619.873	499.78
620.322	511.68
620.771	490.78
621.22	490.28
621.669	485.28
622.118	478.38
622.567	473.08
623.015	457.98
623.464	471.48
623.913	457.08
624.361	453.18
624.81	449.08
625.259	453.48
625.707	452.48
626.156	444.38
626.604	463.48
627.053	459.58
627.501	452.28
627.95	461.28
628.398	474.98
628.847	463.08
629.295	456.38
629.744	465.68
630.192	464.98
630.64	467.68
631.089	458.48
631.537	462.18
631.985	464.18
632.433	480.08
632.881	488.28
633.33	528.98
633.778	507.18
634.226	457.38
634.674	467.88
635.122	469.18
635.57	486.78
636.018	494.38
636.466	476.08
636.914	452.28
637.362	460.68
637.81	475.08
638.258	456.78
638.705	467.28
639.153	492.98
639.601	496.78
640.049	515.18
640.497	541.88
640.944	562.08
641.392	515.08
641.84	491.28
642.287	468.48
642.735	460.88
643.182	456.98
643.63	462.38
644.078	465.18
644.525	467.68
644.973	474.48
645.42	486.08
645.867	501.88
646.315	508.48
646.762	531.68
647.21	560.48
647.657	566.48
648.104	600.58
648.551	618.18
648.999	670.48
649.446	728.88
649.893	803.98
650.34	920.08
650.787	1104.28
651.234	1352.28
651.682	1776.68
652.129	2398.78
652.576	3430.88
653.023	5137.28
653.47	7098.48
653.917	8973.98
654.363	10581.18
654.81	11911.58
655.257	11326.58
655.704	7331.18
656.151	4299.78
656.598	2780.28
657.044	1968.08
657.491	1509.98
657.938	1204.88
658.385	999.28
658.831	872.68
659.278	768.78
659.724	677.18
660.171	638.78
660.618	576.58
661.064	546.68
661.511	526.98
661.957	506.88
662.404	496.48
662.85	508.38
663.296	494.78
663.743	453.18
664.189	431.48
664.635	433.48
665.082	417.98
665.528	423.38
665.974	409.58
666.42	399.58
666.867	394.38
667.313	387.48
667.759	387.58
668.205	386.08
668.651	388.18
669.097	380.38
669.543	402.78
669.989	383.08
670.435	359.78
670.881	354.08
671.327	361.68
671.773	379.58
672.219	390.08
672.665	433.18
673.11	458.08
673.556	496.88
674.002	542.88
674.448	523.78
674.893	441.18
675.339	379.68
675.785	353.08
676.23	340.18
676.676	314.48
677.122	289.18
677.567	294.48
678.013	298.88
678.458	279.28
678.904	282.88
679.349	273.48
679.794	279.68
680.24	280.28
680.685	284.88
681.131	278.18
681.576	274.58
682.021	281.98
682.466	282.28
682.912	278.98
683.357	274.48
683.802	304.48
684.247	327.58
684.692	354.08
685.137	392.68
685.583	429.28
686.028	453.48
686.473	411.78
686.918	350.08
687.363	331.98
687.807	312.38
688.252	288.88
688.697	271.18
689.142	265.78
689.587	259.18
690.032	256.88
690.477	272.28
690.921	277.18
691.366	297.78
691.811	320.88
692.255	338.78
692.7	371.18
693.145	387.78
693.589	537.78
694.034	871.78
694.478	1214.18
694.923	1399.88
695.367	1842.38
695.812	968.78
696.256	396.68
696.701	290.68
697.145	277.18
697.59	266.28
698.034	252.48
698.478	264.18
698.922	257.78
699.367	248.28
699.811	259.38
700.255	272.18
700.699	302.28
701.143	329.78
701.588	365.08
702.032	416.08
702.476	407.08
702.92	389.98
703.364	390.68
703.808	484.58
704.252	785.08
704.696	1136.28
705.14	1348.58
705.584	1743.08
706.027	853.28
706.471	407.88
706.915	315.98
707.359	279.18
707.803	245.78
708.246	245.28
708.69	249.88
709.134	248.48
709.577	241.28
710.021	246.28
710.465	244.38
710.908	231.98
711.352	231.98
711.795	240.28
712.239	270.78
712.682	291.08
713.126	328.98
713.569	374.38
714.012	297.98
714.456	259.48
714.899	235.68
715.342	213.38
715.786	199.68
716.229	204.38
716.672	200.68
717.115	189.88
717.558	199.48
718.002	192.48
718.445	204.58
718.888	226.08
719.331	235.28
719.774	244.38
720.217	239.68
720.66	225.68
721.103	215.08
721.546	197.28
721.989	194.68
722.432	184.08
722.874	182.98
723.317	177.98
723.76	183.68
724.203	200.98
724.645	247.08
725.088	333.08
725.531	448.58
725.974	520.38
726.416	439.98
726.859	243.28
727.301	197.68
727.744	188.98
728.187	186.58
728.629	189.48
729.071	186.68
729.514	201.68
729.956	210.28
730.399	219.68
730.841	224.38
731.283	218.28
731.726	210.08
732.168	200.18
732.61	201.98
733.053	220.48
733.495	248.98
733.937	267.08
734.379	314.18
734.821	333.68
735.263	404.08
735.705	629.28
736.148	1183.88
736.59	2025.48
737.032	2509.38
737.474	2024.28
737.916	646.58
738.357	332.38
738.799	250.18
739.241	234.18
739.683	224.18
740.125	225.08
740.567	232.58
741.008	249.98
741.45	250.18
741.892	251.58
742.334	278.68
742.775	282.28
743.217	274.28
743.658	213.18
744.1	197.78
744.542	204.48
744.983	239.48
745.425	272.88
745.866	282.08
746.307	227.68
746.749	218.98
747.19	252.58
747.632	339.28
748.073	655.98
748.514	1417.38
748.956	2254.88
749.397	2817.68
749.838	2350.88
750.279	2419.38
750.72	1203.88
751.162	431.18
751.603	247.78
752.044	199.48
752.485	172.98
752.926	163.58
753.367	155.98
753.808	153.98
754.249	148.78
754.69	149.58
755.131	142.98
755.572	138.28
756.013	134.98
756.453	136.38
756.894	144.88
757.335	145.08
757.776	150.38
758.216	148.88
758.657	152.58
759.098	156.58
759.538	172.18
759.979	203.68
760.42	276.98
760.86	515.38
761.301	1381.08
761.741	3444.58
762.182	5332.68
762.622	3764.78
763.063	1072.18
763.503	433.98
763.943	277.48
764.384	267.18
764.824	317.28
765.264	356.98
765.705	239.38
766.145	160.58
766.585	136.68
767.025	139.58
767.465	144.58
767.906	186.58
768.346	252.48
768.786	276.08
769.226	208.28
769.666	244.58
770.106	460.98
770.546	1182.08
770.986	2133.78
771.426	1948.98
771.866	637.88
772.306	258.98
772.745	175.48
773.185	134.98
773.625	134.68
774.065	132.98
774.505	152.08
774.944	234.48
775.384	513.88
775.824	963.88
776.263	954.18
776.703	402.08
777.142	176.08
777.582	125.08
778.021	101.68
778.461	108.48
778.9	109.68
779.34	102.08
779.779	92.58
780.219	79.58
780.658	85.18
781.097	80.78
781.537	90.68
781.976	78.18
782.415	80.58
782.855	87.88
783.294	88.18
783.733	80.38
784.172	84.18
784.611	78.38
785.05	83.58
785.489	92.18
785.928	89.28
786.367	99.98
786.806	89.38
787.245	96.28
787.684	106.98
788.123	110.98
788.562	103.48
789.001	102.48
789.44	97.18
789.879	93.18
790.317	94.18
790.756	104.38
791.195	101.98
791.634	109.38
792.072	150.98
792.511	271.28
792.95	755.98
793.388	1721.78
793.827	1608.18
794.265	546.38
794.704	222.68
795.142	139.18
795.581	118.78
796.019	99.08
796.458	96.58
796.896	91.18
797.334	98.58
797.773	120.28
798.211	166.88
798.649	330.58
799.087	784.38
799.526	1265.68
799.964	1590.58
800.402	1667.28
800.84	607.78
801.278	238.38
801.716	142.08
802.154	114.58
802.592	111.18
803.03	107.18
803.468	106.48
803.906	103.38
804.344	117.58
804.782	105.38
805.22	106.28
805.658	100.88
806.096	114.08
806.533	119.88
806.971	141.98
807.409	166.58
807.847	239.98
808.284	496.18
808.722	1433.98
809.16	2671.08
809.597	2428.38
810.035	4370.78
810.472	4891.38
810.91	1715.28
811.347	640.78
811.785	316.88
812.222	208.78
812.66	157.18
813.097	127.18
813.535	114.28
813.972	98.08
814.409	92.68
814.846	83.68
815.284	85.78
815.721	80.88
816.158	82.58
816.595	88.68
817.032	143.78
817.47	157.58
817.907	141.68
818.344	122.88
818.781	92.28
819.218	78.98
819.655	98.28
820.092	147.28
820.529	171.58
820.966	136.28
821.403	98.68
821.839	79.38
822.276	79.98
822.713	99.28
823.15	103.58
823.587	94.28
824.023	110.38
824.46	224.48
824.897	692.78
825.333	1116.08
825.77	477.28
826.206	185.38
826.643	109.78
827.08	76.08
827.516	61.88
827.953	56.18
828.389	61.58
828.825	57.98
829.262	61.68
829.698	49.48
830.135	47.38
830.571	46.68
831.007	50.68
831.443	51.98
831.88	49.98
832.316	43.48
832.752	50.98
833.188	56.88
833.624	47.68
834.06	49.88
834.497	44.88
834.933	54.58
835.369	62.48
835.805	48.78
836.241	58.38
836.677	60.38
837.112	66.78
837.548	80.98
837.984	102.78
838.42	149.78
838.856	371.98
839.292	1204.88
839.727	1915.98
840.163	879.58
840.599	713.08
841.034	1630.28
841.47	1776.18
841.906	638.68
842.341	260.08
842.777	178.98
843.212	255.28
843.648	252.48
844.083	122.18
844.519	85.18
844.954	59.78
845.39	44.28
845.825	43.18
846.261	46.68
846.696	43.58
847.131	46.58
847.566	46.88
848.002	42.08
848.437	48.08
848.872	46.18
849.307	42.58
849.742	67.38
850.177	136.58
850.613	431.88
851.048	725.88
851.483	304.18
851.918	114.28
852.353	64.78
852.788	47.28
853.223	45.18
853.657	40.28
854.092	37.78
854.527	30.18
854.962	27.08
855.397	31.28
855.832	39.88
856.266	31.98
856.701	33.98
857.136	23.58
857.57	26.18
858.005	38.88
858.44	46.98
858.874	36.78
859.309	39.08
859.743	30.78
860.178	38.28
860.612	31.18
861.047	41.68
861.481	47.98
861.915	59.18
862.35	38.88
862.784	25.68
863.218	26.38
863.653	30.28
864.087	34.48
864.521	46.78
864.955	52.98
865.39	122.58
865.824	141.68
866.258	89.28
866.692	127.28
867.126	149.98
867.56	85.58
867.994	38.68
868.428	31.08
868.862	36.18
869.296	40.68
869.73	45.78
870.164	38.08
870.598	41.18
871.031	25.58
871.465	24.08
871.899	28.68
872.333	17.98
872.766	18.18
873.2	19.38
873.634	20.88
874.067	24.38
874.501	22.68
874.935	30.78
875.368	24.38
875.802	16.98
876.235	21.68
876.669	18.68
877.102	23.48
877.535	20.78
877.969	17.68
878.402	19.08
878.836	13.98
879.269	16.48
879.702	14.98
880.135	19.48
880.569	17.98
881.002	26.88
881.435	12.58
881.868	16.18
882.301	19.78
882.734	11.18
883.167	21.18
883.601	12.28
884.034	20.98
884.467	8.38
884.899	18.08
885.332	11.28
885.765	10.58
886.198	12.18
886.631	14.48
887.064	15.88
887.497	18.48
887.929	16.28
888.362	6.18
888.795	10.88
889.228	12.28
889.66	9.18
890.093	13.98
890.526	13.28
890.958	15.48
891.391	13.48
891.823	17.88
892.256	10.08
892.688	4.48
893.121	9.08
893.553	14.08
893.985	23.08
894.418	18.78
894.85	16.08
895.282	7.98
895.715	7.18
896.147	13.98
896.579	17.88
897.011	11.28
897.444	13.68
897.876	8.48
898.308	9.98
898.74	9.78
899.172	4.38
899.604	22.68
900.036	14.18
900.468	14.08
900.9	6.68
901.332	17.78
901.764	7.38
902.196	7.68
902.628	12.38
903.06	9.18
903.491	19.58
903.923	13.58
904.355	19.48
904.787	16.38
905.218	14.98
905.65	9.88
906.082	6.58
906.513	14.98
906.945	10.58
907.376	9.48
907.808	11.88
908.239	21.58
908.671	10.18
909.102	21.98
909.534	20.18
909.965	37.68
910.397	70.18
910.828	250.68
911.259	401.58
911.691	181.08
912.122	83.18
912.553	39.98
912.984	31.78
913.415	18.88
913.847	23.98
914.278	8.88
914.709	9.38
915.14	13.28
915.571	16.98
916.002	4.58
916.433	13.48
916.864	17.18
917.295	11.98
917.726	15.28
918.157	14.78
918.587	21.18
919.018	20.28
919.449	16.18
919.88	25.18
920.311	27.58
920.741	40.28
921.172	135.38
921.603	122.78
922.033	58.08
922.464	30.18
922.895	16.68
923.325	17.28
923.756	18.68
924.186	13.88
924.617	24.68
925.047	30.18
925.478	39.78
925.908	36.88
926.338	19.18
926.769	17.58
927.199	21.88
927.629	11.28
928.06	14.38
928.49	14.48
928.92	9.58
929.35	11.68
929.78	6.78
930.21	5.68
930.641	11.08
931.071	9.78
931.501	-1.02
931.931	2.98
932.361	5.58
932.791	-3.22
933.221	6.38
933.651	7.18
934.08	9.28
934.51	19.48
934.94	4.98
935.37	8.18
935.8	6.38
936.229	4.58
936.659	5.88
937.089	-3.62
937.519	7.18
937.948	12.18
938.378	10.08
938.807	-0.62
939.237	4.88
939.666	4.08
940.096	-6.92
940.525	3.98
940.955	1.88
941.384	0.48
941.814	-8.52
942.243	-1.72
942.672	1.78
943.102	-3.92
943.531	0.68
943.96	10.38
944.39	1.18
944.819	5.08
945.248	6.38
945.677	-1.42
946.106	4.78
946.535	2.48
946.964	2.18
947.393	5.38
947.822	0.78
948.251	-5.52
948.68	5.38
949.109	8.78
949.538	6.88
949.967	1.38
950.396	-1.42
950.825	-2.92
951.254	-2.92
951.682	-4.12
952.111	2.98
952.54	3.68
952.969	-4.02
953.397	-4.52
953.826	3.98
954.254	-5.82
954.683	6.48
955.112	-4.92
955.54	-1.92
955.969	-1.32
956.397	1.08
956.826	-2.32
957.254	-2.72
957.682	-2.52
958.111	6.58
958.539	3.08
958.967	1.38
959.396	-0.82
959.824	-0.82
960.252	2.38
960.68	-4.32
961.109	-0.52
961.537	-3.92
961.965	-2.72
962.393	3.48
962.821	-2.52
963.249	-0.72
963.677	5.08
964.105	2.78
964.533	36.48
964.961	31.48
965.389	12.98
965.817	3.18
966.245	2.98
966.672	-7.92
967.1	-3.52
967.528	-2.72
967.956	-2.22
968.383	3.48
968.811	-4.02
969.239	-1.82
969.666	-6.72
970.094	7.98
970.522	-2.02
970.949	-1.52
971.377	-6.22
971.804	-6.82
972.232	0.48
972.659	-2.42
973.087	-7.42
973.514	-4.12
973.941	-9.02
974.369	5.08
974.796	-1.42
975.223	-2.02
975.651	3.48
976.078	7.68
976.505	-1.42
976.932	4.58
977.359	13.78
977.786	9.88
978.214	-3.82
978.641	-6.52
979.068	-5.92
979.495	-8.12
979.922	-2.82
980.349	-0.62
980.776	-1.32
981.202	0.78
981.629	3.08
982.056	8.28
982.483	3.08
982.91	-0.82
983.337	-5.62
983.763	0.78
984.19	-5.72
984.617	-8.32
985.043	-6.02
985.47	-3.52
985.897	-9.82
986.323	-6.32
986.75	-4.22
987.176	-1.52
987.603	-0.92
988.029	1.68
988.456	-1.22
988.882	4.98
989.308	-7.42
989.735	-2.32
990.161	0.18
990.587	-2.72
991.014	0.88
991.44	4.58
991.866	0.68
992.292	-5.02
992.719	-1.82
993.145	6.88
993.571	-11.12
993.997	-4.92
994.423	4.58
994.849	-2.22
995.275	-0.02
995.701	-3.92
996.127	-7.92
996.553	0.98
996.979	-5.82
997.405	0.78
997.83	-6.12
998.256	-10.82
998.682	0.98
999.108	-7.72
999.534	0.18
999.959	-7.92
1000.385	-7.22
1000.811	-1.42
1001.236	-4.82
1001.662	-4.42
1002.087	-3.72
1002.513	-0.82
1002.938	-0.02
1003.364	-4.22
1003.789	-4.72
1004.215	3.28
1004.64	-5.72
1005.066	2.68
1005.491	4.88
1005.916	-1.12
1006.342	-3.72
1006.767	-10.02
1007.192	6.58
1007.617	-7.22
1008.042	4.18
1008.468	-0.12
1008.893	1.68
1009.318	-13.12
1009.743	-3.22
1010.168	2.68
1010.593	5.98
1011.018	-8.92
1011.443	-2.72
1011.868	-0.82
1012.293	-9.62
1012.718	-7.92
1013.143	0.98
1013.567	-3.42
1013.992	-3.22
1014.417	-11.42
1014.842	4.38
1015.267	-10.82
1015.691	0.28
1016.116	-0.12
1016.541	-2.92
1016.965	-0.02
1017.39	3.88
1017.814	-0.12
1018.239	-1.52
1018.663	-7.72
1019.088	-15.52
1019.512	1.78
1019.937	-5.12
1020.361	-4.32
1020.785	-7.22
1021.21	3.58
1021.634	-2.22
1022.058	1.28
1022.483	1.48
1022.907	-1.12
1023.331	-1.32
1023.755	-7.52
1024.179	0.48
1024.604	-5.42
1025.028	-6.12
1025.452	-2.92
1025.876	-8.32
1026.3	-0.02
1026.724	-11.62
1027.148	-2.42
1027.572	-10.22
1027.996	-5.92
1028.42	-3.72
1028.843	-1.62
1029.267	-1.22
1029.691	-6.22
1030.115	-4.32
1030.539	-10.02
1030.962	-5.32
1031.386	-15.42
1031.81	1.78
1032.233	0.38
1032.657	-6.92
1033.08	-2.22
1033.504	-5.92
1033.927	-2.72
1034.351	-0.72
1034.774	-3.32
1035.198	-4.92
1035.621	-3.02
1036.045	-2.42
1036.468	6.08
1036.891	-7.52
1037.315	-5.92
1037.738	-3.92
1038.161	-2.52
1038.584	-8.02
1039.008	-4.92
1039.431	-6.62
1039.854	-10.32
1040.277	-5.02
1040.7	-7.92
1041.123	-0.22
1041.546	-3.52
1041.969	-1.62
1042.392	-8.42
1042.815	-6.42
1043.238	2.48
1043.661	0.68
1044.084	-10.52
1044.507	-4.62
1044.93	-1.02
1045.352	-3.82
1045.775	-5.72
1046.198	0.08
1046.621	0.18
1047.043	3.08
1047.466	5.98
1047.889	-0.82
1048.311	-4.62
1048.734	-2.42
1049.156	-1.32
1049.579	3.48
1050.001	-3.22
1050.424	-3.92
1050.846	-7.22
1051.269	-4.82
1051.691	-4.82
1052.113	-9.02
1052.536	-7.82
1052.958	-2.82
1053.38	-2.82
1053.802	-3.22
1054.225	1.18
1054.647	-4.22
1055.069	-6.22
1055.491	-1.12
1055.913	-6.42
1056.335	-4.02
1056.757	-5.72
1057.179	-3.42
1057.601	-2.52
1058.023	-7.72
1058.445	-2.32
1058.867	-4.92
1059.289	1.68
1059.711	-11.42
1060.133	-2.72
1060.555	-4.02
1060.976	-6.92
1061.398	-10.22
1061.82	-6.82
1062.241	-3.72
1062.663	-7.62
1063.085	2.98
1063.506	4.48
1063.928	-2.72
1064.35	-4.02
1064.771	-11.82
1065.193	-3.12
1065.614	-7.72
1066.035	-3.02
1066.457	-1.92
1066.878	1.88
1067.3	0.38
1067.721	-3.62
1068.142	-7.52
1068.564	-0.72
1068.985	0.68
1069.406	-5.22
1069.827	-2.72
1070.248	-3.52
1070.67	-6.02
1071.091	-10.12
1071.512	-7.52
1071.933	-2.72
1072.354	-4.52
1072.775	-5.92
1073.196	-9.72
1073.617	-2.12
1074.038	-6.72
1074.459	-2.82
1074.88	-5.22
1075.3	0.28
1075.721	-5.02
1076.142	4.88
1076.563	-3.42
1076.983	-9.92
1077.404	-1.42
1077.825	-10.62
1078.246	-6.42
1078.666	-13.72
1079.087	-5.82
1079.507	-10.42
1079.928	4.88
1080.348	2.88
1080.769	-1.12
1081.189	-1.32
1081.61	-7.72
1082.03	2.18
1082.451	-7.02
1082.871	-5.22
1083.291	-5.72
1083.711	-13.82
1084.132	-9.62
1084.552	-3.82
1084.972	-3.42
1085.392	-10.82
1085.813	-9.42
1086.233	-10.52
1086.653	-11.22
1087.073	-7.62
1087.493	-7.42
1087.913	-8.92
1088.333	-6.62
1088.753	-2.82
1089.173	8.88
1089.593	-0.12
1090.013	-3.92
1090.433	2.68
1090.852	-7.22
1091.272	-2.82
1091.692	1.78
1092.112	0.18
1092.531	-3.62
1092.951	-15.32
1093.371	-0.62
1093.79	1.88
1094.21	-1.92
1094.63	-7.12
1095.049	-3.52
1095.469	-6.32
1095.888	0.98
1096.308	6.18
1096.727	4.98
1097.146	-7.72
1097.566	-1.42
1097.985	-8.02
1098.405	-3.22
1098.824	-4.62
1099.243	-9.52
1099.662	-1.22
1100.082	-3.02
1100.501	-2.92
1100.92	-8.42
1101.339	-3.62
1101.758	-6.52
