Data from 20171114-ORNL-Ar_H_NY_Subt18_08-09-22-868.txt Node
Date: Tue Nov 14 08:09:22 EST 2017
User: Ender
Spectrometer: HR+D1039
Trigger mode: 0
Integration Time (sec): 2.730000E-2
Scans to average: 10
Electric dark correction enabled: true
Nonlinearity correction enabled: false
Boxcar width: 0
XAxis mode: Wavelengths
Number of Pixels in Spectrum: 2048
>>>>>Begin Spectral Data<<<<<
187.836	-4.11
188.309	-4.11
188.782	-4.11
189.255	1.89
189.728	0.79
190.201	4.79
190.674	-0.31
191.147	4.59
191.619	-9.11
192.092	0.19
192.565	0.69
193.038	3.29
193.511	1.49
193.984	3.09
194.456	0.79
194.929	-2.31
195.402	-4.31
195.874	-1.51
196.347	-2.61
196.82	-4.61
197.292	2.69
197.765	-2.31
198.237	-10.01
198.71	6.09
199.182	1.19
199.655	1.59
200.127	-1.01
200.6	-3.81
201.072	-0.91
201.544	-3.61
202.017	-7.21
202.489	3.79
202.961	-2.21
203.433	-9.41
203.906	-7.11
204.378	-9.81
204.85	-6.91
205.322	-9.71
205.794	-4.71
206.266	-5.81
206.739	-13.11
207.211	4.89
207.683	-8.61
208.155	-9.11
208.627	-8.61
209.099	-9.41
209.57	-12.11
210.042	-2.81
210.514	-4.41
210.986	-1.01
211.458	-6.51
211.93	-9.51
212.402	0.59
212.873	-9.21
213.345	-11.21
213.817	-9.21
214.288	-7.41
214.76	-15.21
215.232	-10.71
215.703	-1.61
216.175	-2.81
216.646	-8.61
217.118	-11.61
217.589	-4.61
218.061	-4.71
218.532	-8.41
219.004	-2.11
219.475	-3.51
219.946	0.09
220.418	-7.51
220.889	0.79
221.36	-3.01
221.832	-3.01
222.303	-9.51
222.774	1.19
223.245	-13.41
223.717	-9.71
224.188	-7.41
224.659	-7.31
225.13	-11.41
225.601	-3.91
226.072	1.39
226.543	-0.61
227.014	-3.31
227.485	-0.21
227.956	-6.71
228.427	-0.31
228.898	-2.01
229.369	0.99
229.839	-4.81
230.31	-5.41
230.781	3.09
231.252	-1.51
231.722	-7.41
232.193	-8.51
232.664	-4.71
233.135	-4.31
233.605	-0.31
234.076	-9.51
234.546	-4.81
235.017	-2.21
235.487	-9.71
235.958	-9.41
236.428	-14.81
236.899	0.49
237.369	-5.11
237.84	-6.71
238.31	-2.71
238.78	-4.61
239.251	-6.51
239.721	-4.41
240.191	-4.61
240.662	-4.21
241.132	-3.31
241.602	-5.41
242.072	-1.51
242.542	1.49
243.013	-5.01
243.483	-8.41
243.953	-5.81
244.423	-6.31
244.893	-2.41
245.363	-2.41
245.833	-8.31
246.303	-4.51
246.773	1.79
247.243	-3.41
247.712	-2.41
248.182	-2.91
248.652	3.19
249.122	-11.51
249.592	-3.01
250.061	3.89
250.531	3.69
251.001	-4.81
251.471	3.79
251.94	3.79
252.41	-3.71
252.879	-9.81
253.349	3.59
253.818	-1.61
254.288	-4.51
254.757	-1.21
255.227	-6.11
255.696	-6.71
256.166	-3.81
256.635	-3.61
257.105	-2.41
257.574	-3.81
258.043	1.79
258.513	-6.41
258.982	-4.01
259.451	-8.41
259.92	-0.71
260.389	-3.91
260.859	2.99
261.328	-4.91
261.797	-0.11
262.266	-0.31
262.735	3.59
263.204	-0.11
263.673	-3.91
264.142	3.29
264.611	-3.01
265.08	-3.71
265.549	-3.61
266.018	0.49
266.487	-4.01
266.955	-8.51
267.424	1.39
267.893	2.69
268.362	-8.51
268.83	-5.91
269.299	4.19
269.768	-1.21
270.236	-1.21
270.705	-5.61
271.174	-6.71
271.642	0.99
272.111	-5.01
272.579	-2.71
273.048	-3.51
273.516	-6.31
273.985	-2.11
274.453	2.49
274.922	4.19
275.39	-0.01
275.858	-2.71
276.327	5.99
276.795	4.29
277.263	-3.61
277.731	4.09
278.2	5.49
278.668	1.59
279.136	3.19
279.604	-0.01
280.072	4.99
280.54	4.29
281.008	5.09
281.477	9.69
281.945	6.89
282.413	3.79
282.881	1.49
283.348	-2.81
283.816	4.29
284.284	3.89
284.752	4.99
285.22	8.79
285.688	5.99
286.156	5.49
286.623	12.49
287.091	5.69
287.559	9.19
288.026	7.19
288.494	5.99
288.962	1.19
289.429	1.79
289.897	3.39
290.364	4.99
290.832	8.19
291.3	1.59
291.767	14.09
292.234	11.49
292.702	4.59
293.169	6.59
293.637	12.39
294.104	3.59
294.571	-2.71
295.039	-0.01
295.506	3.69
295.973	7.59
296.44	5.89
296.908	10.19
297.375	6.09
297.842	13.49
298.309	7.79
298.776	5.39
299.243	9.89
299.71	3.19
300.177	9.79
300.644	15.19
301.111	11.29
301.578	16.49
302.045	8.69
302.512	17.49
302.979	11.09
303.446	9.19
303.913	9.49
304.379	8.79
304.846	11.49
305.313	12.69
305.78	12.59
306.246	17.89
306.713	19.09
307.18	16.39
307.646	16.69
308.113	12.09
308.579	14.59
309.046	13.89
309.512	14.99
309.979	10.89
310.445	16.19
310.912	13.99
311.378	23.49
311.845	20.09
312.311	20.89
312.777	22.89
313.244	19.79
313.71	19.39
314.176	14.99
314.642	18.89
315.109	16.69
315.575	25.19
316.041	26.19
316.507	12.69
316.973	23.29
317.439	17.89
317.905	27.79
318.371	20.99
318.837	18.99
319.303	20.79
319.769	21.99
320.235	19.29
320.701	20.99
321.167	20.79
321.633	16.49
322.099	19.69
322.564	27.29
323.03	25.59
323.496	23.79
323.962	24.39
324.427	24.09
324.893	27.29
325.359	25.69
325.824	22.79
326.29	20.59
326.755	26.69
327.221	24.29
327.686	26.59
328.152	36.49
328.617	35.49
329.083	34.89
329.548	35.59
330.014	31.09
330.479	28.39
330.944	25.59
331.41	25.49
331.875	25.99
332.34	32.29
332.805	27.29
333.271	28.69
333.736	24.69
334.201	35.39
334.666	33.19
335.131	35.69
335.596	34.99
336.061	34.79
336.526	28.09
336.991	33.99
337.456	37.89
337.921	37.99
338.386	32.89
338.851	37.69
339.316	38.89
339.781	36.79
340.246	38.59
340.711	36.49
341.175	35.49
341.64	31.29
342.105	37.29
342.569	37.49
343.034	41.09
343.499	37.89
343.963	35.89
344.428	54.89
344.893	47.59
345.357	40.89
345.822	40.69
346.286	47.89
346.751	54.89
347.215	52.89
347.679	46.79
348.144	69.49
348.608	60.89
349.073	53.59
349.537	58.19
350.001	62.89
350.465	67.79
350.93	56.29
351.394	63.79
351.858	54.79
352.322	64.39
352.786	61.89
353.25	74.19
353.715	77.19
354.179	72.69
354.643	88.89
355.107	86.99
355.571	81.19
356.035	73.09
356.498	80.99
356.962	88.59
357.426	88.79
357.89	90.19
358.354	71.29
358.818	71.89
359.281	62.09
359.745	56.39
360.209	62.59
360.673	56.79
361.136	59.89
361.6	66.99
362.064	64.79
362.527	64.59
362.991	75.99
363.454	58.09
363.918	63.39
364.381	61.29
364.845	70.69
365.308	65.39
365.772	71.19
366.235	71.09
366.698	66.19
367.162	65.19
367.625	66.59
368.088	65.39
368.552	75.39
369.015	70.59
369.478	74.69
369.941	83.09
370.404	70.59
370.867	79.19
371.331	82.49
371.794	89.39
372.257	81.29
372.72	83.49
373.183	83.59
373.646	77.89
374.109	80.09
374.572	74.79
375.035	79.09
375.497	86.19
375.96	90.19
376.423	91.89
376.886	89.09
377.349	92.59
377.811	87.79
378.274	88.79
378.737	89.09
379.199	97.19
379.662	85.99
380.125	91.59
380.587	89.79
381.05	91.19
381.512	97.99
381.975	101.19
382.437	95.69
382.9	102.39
383.362	111.49
383.825	111.09
384.287	109.29
384.75	97.19
385.212	106.29
385.674	111.89
386.136	117.49
386.599	103.59
387.061	108.09
387.523	105.69
387.985	108.19
388.447	115.79
388.91	102.89
389.372	111.19
389.834	111.99
390.296	107.59
390.758	117.89
391.22	111.79
391.682	132.39
392.144	130.69
392.606	124.99
393.068	123.89
393.529	138.29
393.991	117.99
394.453	120.09
394.915	113.49
395.377	113.39
395.838	121.29
396.3	117.99
396.762	125.29
397.224	123.69
397.685	118.99
398.147	119.49
398.608	122.19
399.07	118.89
399.531	124.79
399.993	130.89
400.454	133.09
400.916	131.79
401.377	133.89
401.839	136.99
402.3	136.29
402.762	147.79
403.223	156.89
403.684	155.59
404.145	141.59
404.607	142.09
405.068	152.19
405.529	141.69
405.99	168.89
406.451	157.19
406.913	152.69
407.374	146.09
407.835	148.29
408.296	152.89
408.757	149.99
409.218	170.49
409.679	156.89
410.14	161.69
410.601	157.49
411.062	167.39
411.522	164.49
411.983	159.39
412.444	155.09
412.905	165.09
413.366	173.59
413.826	179.19
414.287	209.19
414.748	247.59
415.208	234.39
415.669	197.09
416.13	191.59
416.59	195.19
417.051	205.79
417.511	209.29
417.972	229.79
418.432	234.59
418.893	276.49
419.353	245.69
419.814	189.89
420.274	171.79
420.734	176.99
421.195	182.49
421.655	181.79
422.115	185.89
422.576	186.89
423.036	188.39
423.496	195.89
423.956	199.99
424.416	217.39
424.876	254.39
425.336	235.09
425.797	249.59
426.257	233.69
426.717	223.89
427.177	220.29
427.637	211.89
428.097	223.69
428.556	226.49
429.016	245.19
429.476	242.39
429.936	247.89
430.396	258.99
430.856	269.99
431.315	286.59
431.775	317.79
432.235	344.79
432.694	320.69
433.154	328.19
433.614	354.09
434.073	308.39
434.533	263.39
434.993	258.89
435.452	261.79
435.912	269.39
436.371	263.09
436.83	259.79
437.29	250.19
437.749	229.59
438.209	237.49
438.668	257.39
439.127	271.59
439.587	243.59
440.046	240.09
440.505	246.89
440.964	260.59
441.424	303.09
441.883	283.79
442.342	248.19
442.801	219.19
443.26	220.79
443.719	217.89
444.178	221.39
444.637	207.59
445.096	217.89
445.555	212.49
446.014	223.69
446.473	219.59
446.932	223.19
447.391	221.49
447.849	226.59
448.308	214.09
448.767	214.99
449.226	231.19
449.685	226.59
450.143	240.79
450.602	239.89
451.061	226.49
451.519	237.69
451.978	237.09
452.436	224.59
452.895	230.19
453.353	245.69
453.812	234.39
454.27	232.49
454.729	237.79
455.187	242.59
455.646	235.99
456.104	242.99
456.562	252.09
457.021	262.49
457.479	257.49
457.937	270.29
458.395	258.59
458.854	243.19
459.312	248.99
459.77	272.39
460.228	252.69
460.686	241.59
461.144	238.69
461.602	245.99
462.06	237.39
462.518	253.49
462.976	254.19
463.434	258.29
463.892	263.49
464.35	269.69
464.808	272.19
465.266	260.79
465.724	265.59
466.181	265.69
466.639	271.69
467.097	285.09
467.555	301.89
468.012	302.59
468.47	297.49
468.928	321.59
469.385	341.69
469.843	345.49
470.3	336.59
470.758	354.79
471.215	376.89
471.673	401.79
472.13	401.79
472.588	405.69
473.045	362.09
473.503	378.49
473.96	387.39
474.417	396.99
474.875	426.39
475.332	469.99
475.789	450.39
476.246	458.99
476.704	477.39
477.161	491.79
477.618	504.89
478.075	545.29
478.532	591.59
478.989	658.19
479.446	752.99
479.903	729.29
480.36	749.69
480.817	805.89
481.274	902.19
481.731	971.99
482.188	1054.09
482.645	1181.99
483.102	1243.79
483.558	1363.29
484.015	1395.19
484.472	1378.49
484.929	1333.99
485.385	1304.19
485.842	1275.59
486.299	1224.79
486.755	1182.49
487.212	1012.49
487.668	864.19
488.125	808.89
488.582	748.49
489.038	713.49
489.494	687.19
489.951	669.29
490.407	643.19
490.864	635.19
491.32	625.69
491.776	626.99
492.233	632.49
492.689	594.49
493.145	599.99
493.602	585.49
494.058	606.19
494.514	590.89
494.97	623.59
495.426	632.99
495.882	597.89
496.338	596.69
496.794	595.19
497.251	596.19
497.707	616.19
498.163	620.29
498.618	624.99
499.074	624.29
499.53	666.29
499.986	653.29
500.442	635.89
500.898	613.79
501.354	611.39
501.809	609.69
502.265	608.89
502.721	625.59
503.177	624.79
503.632	635.09
504.088	643.09
504.543	664.29
504.999	689.09
505.455	643.79
505.91	635.89
506.366	644.09
506.821	632.59
507.277	628.89
507.732	628.49
508.187	626.99
508.643	637.49
509.098	634.09
509.553	657.19
510.009	672.09
510.464	674.19
510.919	686.49
511.375	701.89
511.83	704.09
512.285	722.59
512.74	745.09
513.195	775.69
513.65	768.59
514.105	755.59
514.56	760.69
515.015	776.69
515.47	789.49
515.925	776.49
516.38	783.89
516.835	787.09
517.29	779.59
517.745	771.39
518.2	758.09
518.655	751.29
519.109	731.09
519.564	736.39
520.019	724.49
520.474	725.29
520.928	731.69
521.383	722.59
521.838	710.89
522.292	718.79
522.747	707.09
523.201	708.69
523.656	702.29
524.11	690.89
524.565	687.49
525.019	690.19
525.474	703.99
525.928	683.49
526.382	689.89
526.837	700.99
527.291	701.29
527.745	697.59
528.2	694.89
528.654	690.69
529.108	681.09
529.562	688.39
530.016	686.59
530.47	690.39
530.925	688.19
531.379	695.69
531.833	696.59
532.287	688.79
532.741	693.79
533.195	690.79
533.649	713.09
534.103	726.19
534.556	708.29
535.01	701.39
535.464	708.49
535.918	716.09
536.372	712.39
536.826	720.19
537.279	699.29
537.733	704.59
538.187	718.69
538.64	714.79
539.094	721.99
539.548	733.39
540.001	719.69
540.455	725.19
540.908	737.49
541.362	735.39
541.815	751.09
542.269	765.99
542.722	762.29
543.175	773.29
543.629	774.89
544.082	793.49
544.536	806.89
544.989	795.29
545.442	798.69
545.895	797.49
546.349	799.89
546.802	806.69
547.255	810.39
547.708	806.89
548.161	832.69
548.614	830.49
549.067	833.79
549.52	827.09
549.973	812.99
550.426	817.49
550.879	805.49
551.332	810.09
551.785	812.59
552.238	815.59
552.691	832.39
553.144	855.49
553.596	860.09
554.049	877.99
554.502	902.29
554.955	924.99
555.407	914.29
555.86	906.79
556.313	897.59
556.765	896.29
557.218	900.39
557.67	876.19
558.123	883.89
558.576	873.69
559.028	883.49
559.48	890.79
559.933	875.19
560.385	853.99
560.838	826.39
561.29	800.39
561.742	799.99
562.195	778.39
562.647	779.59
563.099	790.39
563.551	784.49
564.004	795.89
564.456	785.89
564.908	766.79
565.36	753.89
565.812	737.69
566.264	730.29
566.716	721.69
567.168	724.79
567.62	715.19
568.072	709.19
568.524	713.39
568.976	704.39
569.428	685.09
569.88	700.49
570.332	692.69
570.784	701.49
571.235	706.99
571.687	706.79
572.139	713.79
572.59	729.39
573.042	723.39
573.494	725.69
573.945	712.69
574.397	708.69
574.849	695.69
575.3	704.09
575.752	699.59
576.203	683.29
576.655	693.29
577.106	685.39
577.557	673.49
578.009	682.59
578.46	678.89
578.912	676.19
579.363	678.99
579.814	679.19
580.265	672.39
580.717	682.19
581.168	683.79
581.619	679.89
582.07	686.29
582.521	678.99
582.972	688.29
583.423	679.19
583.875	686.69
584.326	688.19
584.777	708.49
585.227	733.39
585.678	731.09
586.129	744.99
586.58	758.19
587.031	780.69
587.482	794.89
587.933	818.19
588.384	812.59
588.834	794.59
589.285	771.49
589.736	788.39
590.186	783.59
590.637	785.59
591.088	762.89
591.538	751.89
591.989	737.19
592.439	729.99
592.89	728.89
593.34	725.59
593.791	709.39
594.241	701.59
594.692	707.59
595.142	709.19
595.593	706.39
596.043	719.89
596.493	716.19
596.943	717.99
597.394	731.19
597.844	735.69
598.294	752.79
598.744	769.59
599.195	791.69
599.645	833.99
600.095	879.79
600.545	949.99
600.995	987.29
601.445	1043.69
601.895	1107.99
602.345	1155.59
602.795	1141.89
603.245	1087.99
603.695	1039.29
604.145	981.99
604.594	922.29
605.044	881.19
605.494	812.79
605.944	777.49
606.393	753.49
606.843	731.49
607.293	750.79
607.743	745.29
608.192	753.09
608.642	770.69
609.091	769.19
609.541	783.99
609.99	781.59
610.44	763.29
610.889	726.09
611.339	709.09
611.788	691.79
612.238	706.69
612.687	719.39
613.136	704.69
613.586	720.99
614.035	717.29
614.484	723.39
614.933	718.89
615.383	720.49
615.832	716.49
616.281	707.99
616.73	697.59
617.179	671.39
617.628	662.09
618.077	648.99
618.526	634.59
618.975	630.49
619.424	616.99
619.873	625.69
620.322	631.89
620.771	621.19
621.22	608.79
621.669	602.39
622.118	596.29
622.567	584.69
623.015	581.99
623.464	580.49
623.913	578.29
624.361	565.89
624.81	566.29
625.259	567.39
625.707	566.79
626.156	572.49
626.604	576.29
627.053	575.09
627.501	578.49
627.95	587.79
628.398	597.39
628.847	576.29
629.295	579.19
629.744	584.49
630.192	583.59
630.64	575.89
631.089	560.39
631.537	543.79
631.985	533.99
632.433	541.59
632.881	536.39
633.33	549.39
633.778	541.19
634.226	529.59
634.674	547.19
635.122	549.79
635.57	563.79
636.018	581.19
636.466	563.39
636.914	569.69
637.362	576.09
637.81	585.49
638.258	589.59
638.705	598.19
639.153	628.19
639.601	634.39
640.049	661.39
640.497	694.79
640.944	704.99
641.392	661.59
641.84	633.39
642.287	598.79
642.735	576.99
643.182	572.79
643.63	573.09
644.078	572.99
644.525	577.49
644.973	588.99
645.42	606.19
645.867	620.79
646.315	645.09
646.762	671.59
647.21	693.79
647.657	713.19
648.104	746.99
648.551	768.59
648.999	820.09
649.446	901.89
649.893	990.29
650.34	1128.59
650.787	1340.09
651.234	1663.69
651.682	2146.29
652.129	2921.59
652.576	4146.59
653.023	6018.09
653.47	8119.29
653.917	10014.49
654.363	11381.19
654.81	12473.79
655.257	11841.79
655.704	7847.09
656.151	4725.39
656.598	3118.09
657.044	2236.39
657.491	1748.39
657.938	1412.09
658.385	1195.29
658.831	1037.09
659.278	929.59
659.724	835.19
660.171	777.59
660.618	712.29
661.064	687.29
661.511	662.79
661.957	652.29
662.404	635.09
662.85	658.69
663.296	624.69
663.743	567.09
664.189	550.79
664.635	545.49
665.082	547.09
665.528	537.89
665.974	534.59
666.42	526.09
666.867	519.19
667.313	493.59
667.759	474.99
668.205	459.89
668.651	461.99
669.097	455.09
669.543	454.89
669.989	463.49
670.435	454.79
670.881	454.99
671.327	465.79
671.773	477.79
672.219	506.19
672.665	565.69
673.11	604.79
673.556	646.59
674.002	688.99
674.448	672.09
674.893	570.49
675.339	501.79
675.785	458.99
676.23	434.59
676.676	404.09
677.122	395.69
677.567	389.69
678.013	385.39
678.458	375.59
678.904	374.99
679.349	361.59
679.794	369.49
680.24	363.49
680.685	362.49
681.131	351.69
681.576	361.59
682.021	369.39
682.466	364.59
682.912	362.59
683.357	366.79
683.802	402.19
684.247	434.69
684.692	478.19
685.137	513.29
685.583	554.49
686.028	581.99
686.473	533.39
686.918	465.79
687.363	427.49
687.807	404.49
688.252	379.29
688.697	363.69
689.142	348.59
689.587	343.29
690.032	337.99
690.477	355.39
690.921	367.89
691.366	394.29
691.811	418.09
692.255	445.29
692.7	483.99
693.145	539.59
693.589	761.19
694.034	1229.79
694.478	1639.29
694.923	1812.19
695.367	2336.69
695.812	1254.39
696.256	525.19
696.701	390.89
697.145	360.99
697.59	344.59
698.034	327.19
698.478	339.09
698.922	336.59
699.367	341.69
699.811	349.29
700.255	373.89
700.699	408.69
701.143	448.19
701.588	501.29
702.032	528.19
702.476	530.19
702.92	516.39
703.364	531.99
703.808	695.79
704.252	1127.99
704.696	1547.99
705.14	1756.89
705.584	2201.19
706.027	1115.09
706.471	554.09
706.915	412.39
707.359	361.89
707.803	334.29
708.246	331.89
708.69	332.69
709.134	327.49
709.577	321.29
710.021	329.39
710.465	321.19
710.908	310.09
711.352	306.79
711.795	330.39
712.239	361.69
712.682	397.09
713.126	426.59
713.569	473.39
714.012	364.19
714.456	313.99
714.899	300.39
715.342	290.59
715.786	274.19
716.229	259.89
716.672	265.69
717.115	261.99
717.558	262.39
718.002	263.09
718.445	267.99
718.888	289.49
719.331	303.59
719.774	311.59
720.217	316.19
720.66	292.89
721.103	281.89
721.546	270.09
721.989	262.49
722.432	240.49
722.874	251.09
723.317	239.19
723.76	246.09
724.203	264.19
724.645	333.29
725.088	476.19
725.531	593.69
725.974	661.29
726.416	569.89
726.859	313.59
727.301	256.99
727.744	240.19
728.187	242.59
728.629	244.79
729.071	252.29
729.514	274.49
729.956	282.29
730.399	295.59
730.841	298.19
731.283	298.19
731.726	277.69
732.168	274.09
732.61	281.09
733.053	300.09
733.495	334.69
733.937	380.29
734.379	422.09
734.821	464.49
735.263	591.39
735.705	937.99
736.148	1762.19
736.59	2772.89
737.032	3170.29
737.474	2578.09
737.916	854.69
738.357	454.09
738.799	343.99
739.241	316.29
739.683	299.39
740.125	308.19
740.567	312.99
741.008	335.99
741.45	332.39
741.892	332.09
742.334	366.69
742.775	375.89
743.217	356.49
743.658	287.59
744.1	273.49
744.542	284.69
744.983	330.99
745.425	352.49
745.866	372.09
746.307	298.09
746.749	297.09
747.19	344.09
747.632	503.89
748.073	994.09
748.514	2069.89
748.956	3023.09
749.397	3833.39
749.838	3172.09
750.279	3062.39
750.72	1571.99
751.162	592.59
751.603	339.39
752.044	264.49
752.485	224.99
752.926	221.49
753.367	216.89
753.808	206.19
754.249	202.19
754.69	194.39
755.131	188.99
755.572	189.89
756.013	191.29
756.453	182.19
756.894	196.09
757.335	200.79
757.776	202.59
758.216	202.89
758.657	202.19
759.098	208.69
759.538	243.99
759.979	291.39
760.42	415.39
760.86	802.99
761.301	2084.39
761.741	4847.19
762.182	6655.69
762.622	4711.09
763.063	1397.79
763.503	569.19
763.943	340.49
764.384	277.69
764.824	244.79
765.264	233.49
765.705	211.09
766.145	186.19
766.585	179.89
767.025	176.69
767.465	174.19
767.906	188.19
768.346	194.59
768.786	194.99
769.226	224.99
769.666	337.89
770.106	698.89
770.546	1719.89
770.986	2763.59
771.426	2444.69
771.866	838.69
772.306	344.29
772.745	222.59
773.185	170.59
773.625	171.19
774.065	152.49
774.505	169.39
774.944	220.39
775.384	373.59
775.824	590.59
776.263	563.89
776.703	277.59
777.142	161.79
777.582	132.69
778.021	133.39
778.461	131.19
778.9	123.99
779.34	127.49
779.779	117.29
780.219	108.29
780.658	104.49
781.097	115.59
781.537	117.79
781.976	110.09
782.415	102.89
782.855	103.59
783.294	101.79
783.733	104.89
784.172	107.49
784.611	104.09
785.05	113.69
785.489	117.09
785.928	123.99
786.367	124.39
786.806	123.89
787.245	133.29
787.684	141.89
788.123	149.39
788.562	139.19
789.001	134.39
789.44	125.39
789.879	120.49
790.317	130.59
790.756	139.29
791.195	136.29
791.634	157.49
792.072	221.19
792.511	409.39
792.95	1117.19
793.388	2233.99
793.827	1972.19
794.265	701.19
794.704	297.99
795.142	185.59
795.581	153.09
796.019	139.69
796.458	134.39
796.896	125.49
797.334	143.69
797.773	171.19
798.211	238.19
798.649	488.09
799.087	1120.89
799.526	1715.09
799.964	2158.79
800.402	2062.99
800.84	793.29
801.278	321.29
801.716	209.89
802.154	164.89
802.592	147.89
803.03	148.29
803.468	142.09
803.906	147.99
804.344	150.19
804.782	144.09
805.22	146.39
805.658	134.89
806.096	152.59
806.533	166.09
806.971	188.29
807.409	236.29
807.847	344.69
808.284	757.69
808.722	2056.79
809.16	3481.49
809.597	3472.69
810.035	5867.69
810.472	5941.09
810.91	2203.69
811.347	858.79
811.785	426.29
812.222	278.89
812.66	209.49
813.097	172.39
813.535	149.69
813.972	135.29
814.409	119.29
814.846	112.49
815.284	115.29
815.721	104.19
816.158	98.29
816.595	113.69
817.032	160.09
817.47	186.49
817.907	134.69
818.344	107.19
818.781	97.89
819.218	96.59
819.655	131.89
820.092	201.19
820.529	220.49
820.966	175.79
821.403	137.29
821.839	108.99
822.276	102.39
822.713	128.59
823.15	140.49
823.587	123.29
824.023	159.59
824.46	349.59
824.897	987.19
825.333	1393.39
825.77	609.69
826.206	245.39
826.643	141.09
827.08	107.19
827.516	87.89
827.953	74.79
828.389	84.69
828.825	76.79
829.262	72.19
829.698	66.69
830.135	67.39
830.571	69.19
831.007	65.29
831.443	68.59
831.88	59.09
832.316	64.79
832.752	64.29
833.188	72.59
833.624	67.29
834.06	72.19
834.497	68.39
834.933	73.59
835.369	79.39
835.805	71.99
836.241	75.69
836.677	84.49
837.112	102.59
837.548	111.19
837.984	143.79
838.42	224.49
838.856	561.29
839.292	1670.29
839.727	2381.49
840.163	1128.09
840.599	1029.19
841.034	2188.79
841.47	2186.69
841.906	809.99
842.341	351.69
842.777	212.69
843.212	204.89
843.648	192.59
844.083	116.19
844.519	86.39
844.954	69.39
845.39	61.19
845.825	59.49
846.261	56.59
846.696	58.19
847.131	53.89
847.566	54.19
848.002	45.19
848.437	52.59
848.872	61.69
849.307	62.09
849.742	90.89
850.177	201.39
850.613	605.09
851.048	917.29
851.483	399.79
851.918	159.79
852.353	91.09
852.788	53.99
853.223	56.89
853.657	58.19
854.092	48.69
854.527	42.09
854.962	44.49
855.397	49.99
855.832	47.89
856.266	47.19
856.701	40.29
857.136	36.69
857.57	46.29
858.005	59.39
858.44	64.59
858.874	49.49
859.309	54.69
859.743	41.09
860.178	45.09
860.612	46.99
861.047	56.49
861.481	74.69
861.915	79.59
862.35	47.59
862.784	36.19
863.218	36.29
863.653	31.79
864.087	45.69
864.521	55.49
864.955	69.49
865.39	160.99
865.824	178.89
866.258	119.39
866.692	179.79
867.126	184.89
867.56	113.89
867.994	56.69
868.428	37.09
868.862	46.39
869.296	54.49
869.73	63.99
870.164	55.99
870.598	45.59
871.031	36.39
871.465	28.29
871.899	31.49
872.333	23.89
872.766	26.19
873.2	23.19
873.634	31.09
874.067	27.59
874.501	30.39
874.935	34.89
875.368	30.59
875.802	27.09
876.235	22.09
876.669	25.99
877.102	21.79
877.535	28.09
877.969	25.09
878.402	26.29
878.836	19.39
879.269	22.99
879.702	22.79
880.135	18.89
880.569	21.79
881.002	22.29
881.435	22.29
881.868	17.99
882.301	26.69
882.734	18.29
883.167	20.69
883.601	18.89
884.034	25.19
884.467	13.99
884.899	20.89
885.332	16.19
885.765	16.39
886.198	17.69
886.631	21.59
887.064	13.69
887.497	23.49
887.929	23.89
888.362	14.69
888.795	17.79
889.228	21.99
889.66	21.89
890.093	18.39
890.526	15.89
890.958	14.19
891.391	16.89
891.823	18.99
892.256	18.79
892.688	7.99
893.121	13.49
893.553	18.99
893.985	24.29
894.418	20.29
894.85	10.99
895.282	15.39
895.715	19.39
896.147	14.79
896.579	17.39
897.011	13.99
897.444	17.49
897.876	12.29
898.308	18.69
898.74	14.89
899.172	8.09
899.604	22.59
900.036	18.79
900.468	11.19
900.9	15.09
901.332	18.69
901.764	11.79
902.196	11.09
902.628	12.19
903.06	19.29
903.491	27.99
903.923	24.69
904.355	18.69
904.787	27.59
905.218	22.19
905.65	18.69
906.082	8.69
906.513	7.09
906.945	14.99
907.376	10.99
907.808	19.99
908.239	17.19
908.671	17.29
909.102	19.69
909.534	32.99
909.965	49.19
910.397	100.09
910.828	345.39
911.259	490.69
911.691	226.09
912.122	110.39
912.553	56.69
912.984	32.89
913.415	22.99
913.847	22.99
914.278	8.49
914.709	14.59
915.14	16.09
915.571	9.39
916.002	8.79
916.433	19.39
916.864	17.69
917.295	13.79
917.726	17.19
918.157	14.79
918.587	29.79
919.018	23.39
919.449	23.09
919.88	24.29
920.311	31.79
920.741	54.19
921.172	176.29
921.603	155.79
922.033	78.39
922.464	48.19
922.895	18.49
923.325	24.19
923.756	15.29
924.186	14.09
924.617	22.29
925.047	18.69
925.478	21.99
925.908	26.19
926.338	12.89
926.769	12.49
927.199	15.29
927.629	4.89
928.06	16.99
928.49	14.99
928.92	10.39
929.35	10.49
929.78	10.09
930.21	6.49
930.641	7.59
931.071	14.29
931.501	4.49
931.931	11.99
932.361	10.39
932.791	5.09
933.221	-0.41
933.651	4.09
934.08	21.69
934.51	34.79
934.94	10.99
935.37	8.09
935.8	10.19
936.229	5.99
936.659	13.29
937.089	5.79
937.519	13.49
937.948	25.39
938.378	12.99
938.807	6.79
939.237	5.49
939.666	11.69
940.096	-3.61
940.525	2.49
940.955	0.79
941.384	2.39
941.814	-5.01
942.243	2.59
942.672	7.39
943.102	-4.11
943.531	1.49
943.96	0.39
944.39	4.29
944.819	4.39
945.248	3.99
945.677	4.59
946.106	6.99
946.535	7.19
946.964	2.39
947.393	8.49
947.822	2.49
948.251	-4.51
948.68	1.59
949.109	7.49
949.538	7.39
949.967	-4.51
950.396	-3.71
950.825	-2.91
951.254	2.59
951.682	-5.31
952.111	-0.71
952.54	4.09
952.969	-4.81
953.397	-11.81
953.826	-2.21
954.254	-3.81
954.683	-1.51
955.112	-3.61
955.54	1.29
955.969	4.39
956.397	3.69
956.826	1.49
957.254	5.89
957.682	-3.41
958.111	6.19
958.539	2.79
958.967	-1.01
959.396	-6.41
959.824	0.89
960.252	3.69
960.68	-5.81
961.109	-4.01
961.537	-6.41
961.965	2.39
962.393	4.19
962.821	-1.11
963.249	-2.11
963.677	1.79
964.105	5.29
964.533	47.09
964.961	45.19
965.389	22.59
965.817	2.99
966.245	-1.01
966.672	1.29
967.1	-8.81
967.528	1.29
967.956	-7.31
968.383	4.49
968.811	-0.11
969.239	-0.81
969.666	-3.81
970.094	2.69
970.522	2.79
970.949	-3.91
971.377	-2.81
971.804	0.59
972.232	-1.81
972.659	-4.91
973.087	-7.81
973.514	-5.81
973.941	-8.81
974.369	3.19
974.796	2.39
975.223	1.49
975.651	-1.31
976.078	-4.21
976.505	-8.21
976.932	5.39
977.359	18.19
977.786	16.49
978.214	2.79
978.641	-6.31
979.068	-2.11
979.495	-5.71
979.922	-3.91
980.349	-4.51
980.776	6.89
981.202	-2.71
981.629	5.09
982.056	1.29
982.483	-5.31
982.91	-2.01
983.337	-8.61
983.763	4.69
984.19	-8.71
984.617	-0.61
985.043	-7.31
985.47	-7.51
985.897	-0.01
986.323	-7.81
986.75	2.29
987.176	0.29
987.603	2.69
988.029	0.19
988.456	-8.11
988.882	4.39
989.308	-9.11
989.735	1.39
990.161	1.69
990.587	-4.91
991.014	1.39
991.44	-1.01
991.866	-2.81
992.292	-6.81
992.719	-2.91
993.145	2.99
993.571	-3.91
993.997	-7.71
994.423	-4.31
994.849	-1.11
995.275	2.89
995.701	-1.21
996.127	-5.61
996.553	3.99
996.979	-1.91
997.405	-1.51
997.83	-5.61
998.256	-9.41
998.682	-7.51
999.108	-7.41
999.534	1.99
999.959	-1.81
1000.385	-3.21
1000.811	-1.01
1001.236	-6.31
1001.662	-7.51
1002.087	-17.31
1002.513	-2.11
1002.938	1.99
1003.364	-5.51
1003.789	-0.51
1004.215	1.69
1004.64	-0.51
1005.066	3.69
1005.491	1.79
1005.916	-0.31
1006.342	-3.81
1006.767	-2.71
1007.192	9.49
1007.617	-2.31
1008.042	-6.21
1008.468	-11.81
1008.893	-9.01
1009.318	-6.01
1009.743	2.29
1010.168	4.29
1010.593	-3.01
1011.018	-11.21
1011.443	-5.11
1011.868	3.89
1012.293	-1.01
1012.718	-9.61
1013.143	-4.81
1013.567	-0.01
1013.992	-2.31
1014.417	-16.11
1014.842	-1.81
1015.267	-9.81
1015.691	-6.41
1016.116	5.79
1016.541	2.09
1016.965	-4.31
1017.39	2.29
1017.814	2.79
1018.239	-4.21
1018.663	-7.51
1019.088	-12.01
1019.512	-1.51
1019.937	-5.21
1020.361	-0.11
1020.785	-10.81
1021.21	-7.21
1021.634	-2.61
1022.058	0.89
1022.483	-0.61
1022.907	-6.71
1023.331	-3.31
1023.755	-6.51
1024.179	-6.11
1024.604	-8.41
1025.028	-1.71
1025.452	-4.11
1025.876	-2.01
1026.3	-1.71
1026.724	-8.91
1027.148	-5.81
1027.572	-13.91
1027.996	-0.81
1028.42	-2.51
1028.843	-7.51
1029.267	-5.01
1029.691	-4.91
1030.115	-7.61
1030.539	-11.61
1030.962	-6.41
1031.386	-8.91
1031.81	-0.91
1032.233	-3.61
1032.657	-6.61
1033.08	-2.61
1033.504	1.69
1033.927	-0.71
1034.351	1.99
1034.774	-6.21
1035.198	-2.81
1035.621	-6.61
1036.045	-10.11
1036.468	-1.51
1036.891	-6.01
1037.315	-6.41
1037.738	-4.91
1038.161	5.09
1038.584	-8.91
1039.008	-4.51
1039.431	-0.81
1039.854	-5.51
1040.277	-10.61
1040.7	-13.01
1041.123	1.49
1041.546	-9.61
1041.969	-3.71
1042.392	-3.01
1042.815	-2.41
1043.238	-2.41
1043.661	-0.61
1044.084	-6.31
1044.507	-12.81
1044.93	-8.41
1045.352	-7.51
1045.775	-5.01
1046.198	-3.01
1046.621	0.79
1047.043	-1.31
1047.466	6.19
1047.889	-4.91
1048.311	-4.81
1048.734	-7.61
1049.156	-6.81
1049.579	-1.31
1050.001	-3.51
1050.424	-3.61
1050.846	-3.11
1051.269	-5.81
1051.691	-10.21
1052.113	-5.11
1052.536	-0.71
1052.958	-2.31
1053.38	-4.31
1053.802	-15.21
1054.225	0.99
1054.647	-8.51
1055.069	-9.01
1055.491	1.59
1055.913	-12.81
1056.335	-3.01
1056.757	-9.11
1057.179	-6.41
1057.601	-9.81
1058.023	-3.91
1058.445	-0.41
1058.867	-3.51
1059.289	-1.11
1059.711	-1.41
1060.133	-6.71
1060.555	-11.81
1060.976	-6.31
1061.398	-5.61
1061.82	-3.11
1062.241	-9.61
1062.663	-7.81
1063.085	-1.11
1063.506	-2.01
1063.928	-3.11
1064.35	-0.71
1064.771	-14.71
1065.193	-6.71
1065.614	-13.51
1066.035	-3.01
1066.457	-2.31
1066.878	-2.61
1067.3	-4.01
1067.721	-1.31
1068.142	-8.51
1068.564	-3.21
1068.985	-5.51
1069.406	-6.01
1069.827	-8.01
1070.248	-5.01
1070.67	-11.51
1071.091	-10.71
1071.512	-4.71
1071.933	-6.41
1072.354	-8.41
1072.775	-6.71
1073.196	-7.91
1073.617	-7.11
1074.038	-10.91
1074.459	-9.41
1074.88	-4.61
1075.3	-1.91
1075.721	-4.61
1076.142	-3.11
1076.563	-2.71
1076.983	-9.41
1077.404	-12.11
1077.825	-14.51
1078.246	-0.61
1078.666	-13.21
1079.087	-3.81
1079.507	-12.21
1079.928	2.39
1080.348	-0.61
1080.769	-3.81
1081.189	-2.41
1081.61	-1.41
1082.03	-7.01
1082.451	-4.11
1082.871	-6.01
1083.291	-14.81
1083.711	-14.81
1084.132	-5.21
1084.552	-10.31
1084.972	-1.71
1085.392	-14.01
1085.813	-12.91
1086.233	-5.11
1086.653	-5.51
1087.073	-2.01
1087.493	-9.81
1087.913	-12.61
1088.333	-7.51
1088.753	-5.01
1089.173	1.19
1089.593	-5.21
1090.013	-3.01
1090.433	0.29
1090.852	-8.71
1091.272	1.69
1091.692	-9.01
1092.112	-6.01
1092.531	-6.11
1092.951	-12.51
1093.371	-0.51
1093.79	0.19
1094.21	-5.21
1094.63	-2.51
1095.049	-2.91
1095.469	-6.71
1095.888	-3.61
1096.308	1.59
1096.727	3.89
1097.146	-9.41
1097.566	-6.41
1097.985	-3.81
1098.405	-5.21
1098.824	-4.21
1099.243	-9.51
1099.662	-8.91
1100.082	-1.31
1100.501	-3.21
1100.92	-4.11
1101.339	-8.31
1101.758	-11.11
