Data from 20171114-ORNL-Ar_H_NY_Subt18_08-06-36-567.txt Node
Date: Tue Nov 14 08:06:36 EST 2017
User: Ender
Spectrometer: HR+D1039
Trigger mode: 0
Integration Time (sec): 2.730000E-2
Scans to average: 10
Electric dark correction enabled: true
Nonlinearity correction enabled: false
Boxcar width: 0
XAxis mode: Wavelengths
Number of Pixels in Spectrum: 2048
>>>>>Begin Spectral Data<<<<<
187.836	-0.33
188.309	-0.33
188.782	-0.33
189.255	3.17
189.728	1.87
190.201	4.17
190.674	2.57
191.147	-1.23
191.619	-3.73
192.092	2.37
192.565	4.77
193.038	-5.43
193.511	-3.53
193.984	-0.43
194.456	0.27
194.929	-0.23
195.402	-0.73
195.874	-3.53
196.347	-2.23
196.82	-3.93
197.292	6.27
197.765	-2.73
198.237	-6.93
198.71	6.37
199.182	-3.43
199.655	-4.43
200.127	8.87
200.6	-5.23
201.072	-3.43
201.544	-5.93
202.017	-2.83
202.489	0.57
202.961	3.77
203.433	-1.63
203.906	-8.53
204.378	-2.03
204.85	-4.13
205.322	-6.23
205.794	-3.13
206.266	-0.73
206.739	-10.03
207.211	3.77
207.683	-1.53
208.155	-5.13
208.627	-3.43
209.099	0.47
209.57	-4.13
210.042	-5.63
210.514	-2.73
210.986	5.17
211.458	-4.73
211.93	1.27
212.402	-4.33
212.873	0.87
213.345	-6.33
213.817	-10.13
214.288	-5.33
214.76	-10.83
215.232	-0.23
215.703	-0.93
216.175	-9.63
216.646	-9.33
217.118	-6.73
217.589	-1.63
218.061	-0.23
218.532	-6.63
219.004	-2.33
219.475	-7.53
219.946	-3.03
220.418	-9.43
220.889	4.17
221.36	1.67
221.832	-1.43
222.303	-10.13
222.774	-0.03
223.245	-13.33
223.717	-12.53
224.188	-3.73
224.659	-9.43
225.13	-9.53
225.601	-1.23
226.072	-0.73
226.543	4.87
227.014	-4.23
227.485	-0.53
227.956	-5.03
228.427	-0.33
228.898	-0.83
229.369	4.67
229.839	-5.73
230.31	-8.83
230.781	1.27
231.252	-1.73
231.722	-9.63
232.193	-2.13
232.664	3.67
233.135	-0.43
233.605	1.47
234.076	-9.13
234.546	-2.63
235.017	1.17
235.487	-1.73
235.958	-2.13
236.428	-3.83
236.899	-3.43
237.369	-0.63
237.84	-7.63
238.31	0.77
238.78	-0.13
239.251	-6.63
239.721	0.27
240.191	1.77
240.662	-0.73
241.132	-0.83
241.602	-3.43
242.072	-0.13
242.542	8.27
243.013	-4.13
243.483	4.97
243.953	0.77
244.423	1.17
244.893	-3.63
245.363	-2.93
245.833	-0.53
246.303	-0.83
246.773	4.37
247.243	0.47
247.712	-3.73
248.182	1.37
248.652	2.07
249.122	-8.03
249.592	1.07
250.061	11.67
250.531	13.37
251.001	2.37
251.471	2.27
251.94	10.57
252.41	-0.53
252.879	-1.43
253.349	7.97
253.818	4.17
254.288	4.77
254.757	2.47
255.227	-4.83
255.696	3.27
256.166	6.87
256.635	3.37
257.105	6.47
257.574	0.87
258.043	3.77
258.513	5.97
258.982	9.17
259.451	-2.13
259.92	1.57
260.389	5.37
260.859	8.27
261.328	2.57
261.797	6.97
262.266	3.27
262.735	8.97
263.204	4.47
263.673	1.37
264.142	6.77
264.611	-4.33
265.08	1.97
265.549	3.77
266.018	3.87
266.487	2.27
266.955	0.77
267.424	1.47
267.893	7.07
268.362	5.47
268.83	6.07
269.299	8.87
269.768	5.07
270.236	7.07
270.705	-3.73
271.174	-2.23
271.642	4.37
272.111	13.67
272.579	4.97
273.048	10.37
273.516	8.47
273.985	14.27
274.453	12.07
274.922	16.87
275.39	9.17
275.858	-2.23
276.327	9.57
276.795	20.17
277.263	9.47
277.731	18.07
278.2	14.17
278.668	17.07
279.136	15.87
279.604	5.17
280.072	16.17
280.54	6.37
281.008	10.97
281.477	13.67
281.945	10.97
282.413	13.07
282.881	19.57
283.348	4.17
283.816	9.47
284.284	6.97
284.752	18.17
285.22	15.77
285.688	15.67
286.156	16.27
286.623	23.47
287.091	16.37
287.559	20.87
288.026	13.57
288.494	14.77
288.962	1.97
289.429	9.57
289.897	18.27
290.364	17.47
290.832	15.77
291.3	11.07
291.767	23.07
292.234	17.87
292.702	10.57
293.169	16.77
293.637	24.17
294.104	14.37
294.571	12.07
295.039	11.17
295.506	14.97
295.973	22.07
296.44	15.27
296.908	20.27
297.375	19.87
297.842	21.47
298.309	16.07
298.776	14.97
299.243	16.67
299.71	16.37
300.177	24.37
300.644	23.57
301.111	23.97
301.578	18.77
302.045	20.67
302.512	20.77
302.979	19.27
303.446	18.47
303.913	17.57
304.379	23.97
304.846	28.27
305.313	29.67
305.78	28.37
306.246	21.27
306.713	31.37
307.18	28.37
307.646	24.47
308.113	27.57
308.579	28.97
309.046	28.57
309.512	29.77
309.979	18.37
310.445	30.87
310.912	32.37
311.378	33.67
311.845	32.87
312.311	34.87
312.777	37.97
313.244	37.07
313.71	43.87
314.176	25.07
314.642	33.27
315.109	36.07
315.575	32.77
316.041	38.17
316.507	31.77
316.973	36.37
317.439	34.07
317.905	36.87
318.371	33.47
318.837	38.67
319.303	35.17
319.769	35.47
320.235	34.87
320.701	35.47
321.167	37.27
321.633	35.97
322.099	36.97
322.564	45.57
323.03	38.47
323.496	38.07
323.962	40.97
324.427	33.27
324.893	45.57
325.359	41.67
325.824	42.27
326.29	48.67
326.755	44.07
327.221	42.47
327.686	42.17
328.152	56.57
328.617	45.67
329.083	44.77
329.548	56.67
330.014	46.97
330.479	45.27
330.944	50.17
331.41	50.87
331.875	49.67
332.34	44.47
332.805	45.67
333.271	45.57
333.736	40.57
334.201	55.97
334.666	56.07
335.131	56.57
335.596	51.67
336.061	50.27
336.526	51.77
336.991	46.37
337.456	62.97
337.921	51.67
338.386	49.87
338.851	49.07
339.316	55.47
339.781	49.57
340.246	57.77
340.711	50.37
341.175	48.57
341.64	48.57
342.105	57.57
342.569	62.27
343.034	57.07
343.499	58.87
343.963	51.67
344.428	64.37
344.893	64.47
345.357	66.27
345.822	63.87
346.286	69.17
346.751	80.77
347.215	75.57
347.679	78.37
348.144	98.87
348.608	82.47
349.073	72.17
349.537	80.37
350.001	83.67
350.465	89.57
350.93	89.97
351.394	84.27
351.858	78.17
352.322	86.87
352.786	92.17
353.25	102.57
353.715	116.67
354.179	104.87
354.643	123.67
355.107	127.67
355.571	107.37
356.035	105.47
356.498	121.17
356.962	123.27
357.426	129.77
357.89	117.27
358.354	100.87
358.818	87.47
359.281	84.07
359.745	79.77
360.209	79.77
360.673	74.87
361.136	85.57
361.6	92.47
362.064	83.87
362.527	83.27
362.991	95.77
363.454	86.47
363.918	85.07
364.381	86.97
364.845	93.97
365.308	89.77
365.772	92.77
366.235	90.87
366.698	90.87
367.162	94.57
367.625	88.17
368.088	90.87
368.552	93.57
369.015	98.37
369.478	97.77
369.941	107.67
370.404	100.57
370.867	106.07
371.331	110.07
371.794	114.47
372.257	99.67
372.72	115.47
373.183	112.17
373.646	101.67
374.109	106.57
374.572	110.97
375.035	111.97
375.497	115.07
375.96	109.57
376.423	105.07
376.886	113.97
377.349	114.37
377.811	111.17
378.274	106.87
378.737	114.27
379.199	114.47
379.662	119.67
380.125	120.77
380.587	113.77
381.05	121.97
381.512	121.17
381.975	136.77
382.437	128.17
382.9	125.57
383.362	132.07
383.825	137.57
384.287	136.47
384.75	131.67
385.212	133.57
385.674	140.67
386.136	145.37
386.599	131.97
387.061	125.97
387.523	125.87
387.985	132.97
388.447	143.17
388.91	137.87
389.372	141.37
389.834	139.67
390.296	140.87
390.758	142.67
391.22	143.17
391.682	168.77
392.144	186.27
392.606	169.57
393.068	159.77
393.529	164.47
393.991	148.57
394.453	133.77
394.915	148.97
395.377	160.87
395.838	163.77
396.3	149.57
396.762	151.97
397.224	146.97
397.685	141.77
398.147	136.57
398.608	142.67
399.07	141.47
399.531	141.57
399.993	156.57
400.454	165.67
400.916	157.47
401.377	155.17
401.839	155.77
402.3	157.47
402.762	175.57
403.223	195.07
403.684	180.77
404.145	165.37
404.607	168.87
405.068	171.77
405.529	178.57
405.99	199.67
406.451	190.67
406.913	184.77
407.374	175.87
407.835	165.17
408.296	170.27
408.757	182.27
409.218	198.17
409.679	190.27
410.14	189.97
410.601	189.57
411.062	186.37
411.522	193.27
411.983	188.27
412.444	187.37
412.905	195.37
413.366	202.17
413.826	214.57
414.287	241.17
414.748	284.87
415.208	272.17
415.669	231.17
416.13	223.87
416.59	217.87
417.051	237.17
417.511	241.07
417.972	257.07
418.432	269.47
418.893	312.27
419.353	273.57
419.814	214.47
420.274	200.07
420.734	198.07
421.195	210.17
421.655	203.27
422.115	212.47
422.576	213.97
423.036	216.07
423.496	225.97
423.956	229.27
424.416	249.17
424.876	294.57
425.336	291.37
425.797	281.77
426.257	268.57
426.717	256.47
427.177	257.37
427.637	241.77
428.097	252.97
428.556	259.37
429.016	295.27
429.476	276.07
429.936	284.27
430.396	293.67
430.856	311.27
431.315	326.77
431.775	371.87
432.235	407.17
432.694	378.07
433.154	383.57
433.614	414.37
434.073	361.97
434.533	306.57
434.993	287.97
435.452	293.27
435.912	313.57
436.371	299.47
436.83	292.27
437.29	285.17
437.749	261.07
438.209	267.97
438.668	296.87
439.127	313.27
439.587	286.27
440.046	268.77
440.505	281.57
440.964	305.17
441.424	351.77
441.883	335.07
442.342	287.87
442.801	250.17
443.26	244.87
443.719	242.97
444.178	238.87
444.637	234.97
445.096	240.87
445.555	246.97
446.014	248.47
446.473	245.67
446.932	247.97
447.391	253.57
447.849	255.97
448.308	242.37
448.767	239.57
449.226	258.77
449.685	259.07
450.143	278.87
450.602	258.67
451.061	248.17
451.519	257.47
451.978	257.47
452.436	255.87
452.895	266.77
453.353	275.57
453.812	262.97
454.27	263.57
454.729	263.97
455.187	266.77
455.646	270.97
456.104	266.77
456.562	278.97
457.021	294.77
457.479	294.67
457.937	302.67
458.395	293.77
458.854	276.67
459.312	281.67
459.77	304.07
460.228	280.07
460.686	270.57
461.144	274.87
461.602	270.87
462.06	266.47
462.518	274.57
462.976	287.57
463.434	282.87
463.892	293.87
464.35	312.47
464.808	322.57
465.266	295.47
465.724	297.37
466.181	306.57
466.639	298.57
467.097	318.17
467.555	328.77
468.012	332.87
468.47	336.97
468.928	363.07
469.385	379.97
469.843	386.97
470.3	387.77
470.758	401.57
471.215	424.67
471.673	449.07
472.13	443.37
472.588	447.57
473.045	401.27
473.503	419.27
473.96	435.37
474.417	441.87
474.875	472.57
475.332	522.57
475.789	504.77
476.246	515.77
476.704	537.97
477.161	553.27
477.618	563.67
478.075	605.97
478.532	666.17
478.989	741.37
479.446	858.37
479.903	811.17
480.36	848.47
480.817	904.37
481.274	995.47
481.731	1096.07
482.188	1180.77
482.645	1306.67
483.102	1402.77
483.558	1532.97
484.015	1573.37
484.472	1557.17
484.929	1505.47
485.385	1459.17
485.842	1440.07
486.299	1379.87
486.755	1329.37
487.212	1132.17
487.668	961.77
488.125	906.57
488.582	833.67
489.038	805.37
489.494	764.17
489.951	745.97
490.407	727.27
490.864	695.27
491.32	705.87
491.776	695.67
492.233	699.57
492.689	673.37
493.145	667.07
493.602	653.87
494.058	666.07
494.514	673.87
494.97	683.17
495.426	711.67
495.882	686.17
496.338	668.47
496.794	684.57
497.251	682.67
497.707	701.47
498.163	695.47
498.618	697.47
499.074	693.47
499.53	732.47
499.986	723.77
500.442	700.07
500.898	675.47
501.354	680.37
501.809	685.07
502.265	689.07
502.721	692.87
503.177	702.07
503.632	709.17
504.088	712.47
504.543	738.77
504.999	745.37
505.455	721.27
505.91	693.37
506.366	699.07
506.821	692.17
507.277	686.87
507.732	694.77
508.187	695.67
508.643	697.07
509.098	703.77
509.553	726.17
510.009	738.37
510.464	738.57
510.919	759.87
511.375	766.47
511.83	787.27
512.285	796.17
512.74	828.77
513.195	855.97
513.65	838.37
514.105	844.77
514.56	846.07
515.015	867.07
515.47	890.87
515.925	857.97
516.38	855.47
516.835	860.17
517.29	848.77
517.745	859.67
518.2	836.37
518.655	819.07
519.109	810.77
519.564	813.17
520.019	791.97
520.474	784.77
520.928	786.17
521.383	777.67
521.838	780.87
522.292	777.47
522.747	784.57
523.201	776.27
523.656	758.77
524.11	762.07
524.565	771.07
525.019	750.97
525.474	772.07
525.928	769.77
526.382	765.77
526.837	767.67
527.291	774.87
527.745	771.37
528.2	772.27
528.654	760.37
529.108	744.57
529.562	752.47
530.016	764.97
530.47	760.07
530.925	758.37
531.379	762.67
531.833	766.87
532.287	764.07
532.741	766.57
533.195	769.67
533.649	786.67
534.103	787.17
534.556	783.17
535.01	776.87
535.464	779.47
535.918	787.67
536.372	784.77
536.826	787.87
537.279	761.87
537.733	773.07
538.187	782.37
538.64	782.97
539.094	786.07
539.548	793.07
540.001	802.77
540.455	790.07
540.908	800.17
541.362	810.77
541.815	820.37
542.269	825.57
542.722	837.27
543.175	838.27
543.629	838.47
544.082	863.87
544.536	873.07
544.989	863.77
545.442	872.67
545.895	879.07
546.349	873.67
546.802	872.67
547.255	878.97
547.708	879.77
548.161	883.67
548.614	896.67
549.067	921.37
549.52	905.97
549.973	883.77
550.426	883.37
550.879	882.17
551.332	878.57
551.785	877.47
552.238	896.27
552.691	906.87
553.144	915.37
553.596	929.77
554.049	949.57
554.502	984.47
554.955	994.17
555.407	995.27
555.86	984.07
556.313	978.27
556.765	967.37
557.218	956.27
557.67	981.17
558.123	961.17
558.576	962.47
559.028	965.07
559.48	964.87
559.933	950.97
560.385	922.07
560.838	886.67
561.29	867.87
561.742	872.77
562.195	849.37
562.647	842.37
563.099	859.07
563.551	841.77
564.004	857.47
564.456	843.07
564.908	847.87
565.36	817.67
565.812	795.67
566.264	783.47
566.716	778.57
567.168	772.87
567.62	779.77
568.072	764.77
568.524	759.27
568.976	750.17
569.428	737.27
569.88	743.27
570.332	754.97
570.784	755.87
571.235	752.37
571.687	768.67
572.139	778.97
572.59	779.57
573.042	794.57
573.494	778.47
573.945	769.57
574.397	751.37
574.849	758.07
575.3	753.87
575.752	752.57
576.203	744.67
576.655	754.07
577.106	730.67
577.557	737.87
578.009	730.77
578.46	730.07
578.912	721.77
579.363	727.37
579.814	724.17
580.265	736.37
580.717	732.47
581.168	730.07
581.619	746.47
582.07	746.07
582.521	738.27
582.972	727.97
583.423	737.37
583.875	744.07
584.326	746.67
584.777	766.57
585.227	797.47
585.678	820.17
586.129	850.57
586.58	879.47
587.031	915.57
587.482	966.97
587.933	1008.27
588.384	963.87
588.834	885.47
589.285	848.47
589.736	839.97
590.186	842.57
590.637	830.27
591.088	811.37
591.538	812.77
591.989	793.87
592.439	782.77
592.89	772.47
593.34	762.17
593.791	775.77
594.241	765.07
594.692	757.77
595.142	765.27
595.593	746.97
596.043	761.97
596.493	771.07
596.943	763.07
597.394	784.57
597.844	775.47
598.294	804.67
598.744	813.17
599.195	849.27
599.645	894.27
600.095	931.47
600.545	996.27
600.995	1052.47
601.445	1109.37
601.895	1184.97
602.345	1227.67
602.795	1216.87
603.245	1159.47
603.695	1109.67
604.145	1054.77
604.594	988.77
605.044	941.87
605.494	871.07
605.944	823.47
606.393	809.07
606.843	788.67
607.293	795.77
607.743	788.77
608.192	806.87
608.642	815.17
609.091	817.57
609.541	832.37
609.99	824.17
610.44	827.27
610.889	773.87
611.339	755.07
611.788	736.27
612.238	743.97
612.687	754.87
613.136	745.97
613.586	764.37
614.035	756.37
614.484	779.27
614.933	763.37
615.383	772.17
615.832	769.27
616.281	758.67
616.73	734.17
617.179	714.77
617.628	694.77
618.077	678.17
618.526	677.97
618.975	672.07
619.424	662.67
619.873	664.87
620.322	668.47
620.771	655.77
621.22	657.17
621.669	640.57
622.118	633.77
622.567	623.17
623.015	609.17
623.464	624.27
623.913	603.87
624.361	611.77
624.81	595.17
625.259	597.07
625.707	586.17
626.156	596.27
626.604	612.27
627.053	610.47
627.501	611.07
627.95	619.57
628.398	632.77
628.847	613.47
629.295	623.27
629.744	624.67
630.192	611.57
630.64	613.67
631.089	596.47
631.537	586.67
631.985	575.37
632.433	585.87
632.881	585.17
633.33	586.67
633.778	583.67
634.226	575.27
634.674	585.17
635.122	596.37
635.57	603.47
636.018	614.57
636.466	606.07
636.914	610.87
637.362	621.87
637.81	624.47
638.258	623.97
638.705	626.37
639.153	658.87
639.601	672.47
640.049	694.97
640.497	722.57
640.944	734.27
641.392	691.27
641.84	663.67
642.287	638.47
642.735	618.37
643.182	608.77
643.63	601.27
644.078	609.57
644.525	624.57
644.973	627.37
645.42	632.67
645.867	661.17
646.315	682.67
646.762	703.47
647.21	723.57
647.657	759.67
648.104	790.77
648.551	809.67
648.999	861.97
649.446	942.57
649.893	1029.17
650.34	1191.07
650.787	1418.67
651.234	1718.77
651.682	2215.47
652.129	3006.67
652.576	4277.07
653.023	6224.77
653.47	8453.57
653.917	10506.87
654.363	12119.07
654.81	13377.07
655.257	12673.57
655.704	8433.67
656.151	5054.87
656.598	3341.37
657.044	2388.37
657.491	1849.37
657.938	1496.77
658.385	1260.67
658.831	1101.57
659.278	986.17
659.724	887.17
660.171	828.47
660.618	756.17
661.064	726.97
661.511	704.77
661.957	689.17
662.404	676.07
662.85	694.97
663.296	658.07
663.743	594.07
664.189	575.07
664.635	575.67
665.082	563.87
665.528	562.77
665.974	552.37
666.42	543.47
666.867	542.27
667.313	518.57
667.759	506.07
668.205	483.87
668.651	487.27
669.097	490.47
669.543	477.67
669.989	486.87
670.435	482.77
670.881	478.37
671.327	485.87
671.773	499.67
672.219	524.77
672.665	585.67
673.11	632.27
673.556	673.57
674.002	722.57
674.448	709.27
674.893	597.87
675.339	520.97
675.785	478.47
676.23	460.47
676.676	425.37
677.122	416.07
677.567	411.17
678.013	400.07
678.458	380.97
678.904	389.37
679.349	386.97
679.794	386.37
680.24	380.37
680.685	370.57
681.131	380.17
681.576	388.57
682.021	389.47
682.466	379.27
682.912	378.57
683.357	385.17
683.802	420.87
684.247	447.17
684.692	497.67
685.137	531.07
685.583	580.67
686.028	612.17
686.473	559.47
686.918	479.77
687.363	445.77
687.807	419.57
688.252	393.27
688.697	382.57
689.142	369.57
689.587	362.57
690.032	354.07
690.477	377.57
690.921	377.57
691.366	420.07
691.811	435.37
692.255	454.37
692.7	496.97
693.145	541.17
693.589	750.77
694.034	1218.97
694.478	1668.87
694.923	1881.87
695.367	2472.87
695.812	1291.67
696.256	541.67
696.701	404.77
697.145	369.87
697.59	353.17
698.034	350.17
698.478	356.07
698.922	351.27
699.367	347.07
699.811	365.97
700.255	375.17
700.699	416.37
701.143	453.97
701.588	520.07
702.032	548.07
702.476	553.47
702.92	531.07
703.364	532.97
703.808	696.07
704.252	1111.67
704.696	1569.67
705.14	1821.47
705.584	2296.17
706.027	1154.27
706.471	566.17
706.915	432.97
707.359	387.37
707.803	349.37
708.246	337.37
708.69	334.57
709.134	335.87
709.577	341.67
710.021	339.77
710.465	332.47
710.908	321.87
711.352	324.87
711.795	334.67
712.239	374.77
712.682	412.67
713.126	446.67
713.569	494.37
714.012	386.47
714.456	328.77
714.899	311.37
715.342	302.67
715.786	283.27
716.229	282.87
716.672	278.37
717.115	270.67
717.558	270.67
718.002	269.27
718.445	275.47
718.888	306.27
719.331	318.37
719.774	335.47
720.217	324.17
720.66	304.57
721.103	291.47
721.546	277.37
721.989	268.27
722.432	250.47
722.874	255.07
723.317	245.37
723.76	255.97
724.203	275.67
724.645	344.17
725.088	477.57
725.531	618.57
725.974	698.57
726.416	593.57
726.859	330.07
727.301	270.97
727.744	256.07
728.187	248.57
728.629	259.07
729.071	260.17
729.514	279.07
729.956	290.57
730.399	304.57
730.841	303.47
731.283	296.07
731.726	292.57
732.168	291.47
732.61	289.57
733.053	318.27
733.495	348.47
733.937	380.37
734.379	433.67
734.821	471.17
735.263	590.67
735.705	903.37
736.148	1708.97
736.59	2809.07
737.032	3335.87
737.474	2705.87
737.916	885.97
738.357	461.47
738.799	356.77
739.241	321.57
739.683	306.27
740.125	315.97
740.567	325.77
741.008	342.67
741.45	336.47
741.892	342.37
742.334	379.07
742.775	394.97
743.217	377.17
743.658	300.67
744.1	281.37
744.542	287.47
744.983	346.87
745.425	383.47
745.866	372.97
746.307	300.67
746.749	297.77
747.19	347.47
747.632	496.37
748.073	958.97
748.514	2016.77
748.956	3090.57
749.397	3881.87
749.838	3219.37
750.279	3220.17
750.72	1625.17
751.162	599.57
751.603	345.77
752.044	282.87
752.485	236.57
752.926	224.37
753.367	219.27
753.808	211.57
754.249	199.87
754.69	207.87
755.131	201.57
755.572	197.67
756.013	189.37
756.453	197.57
756.894	200.87
757.335	212.07
757.776	210.37
758.216	215.67
758.657	219.87
759.098	218.27
759.538	241.67
759.979	293.07
760.42	407.97
760.86	763.87
761.301	1995.67
761.741	4795.57
762.182	6966.27
762.622	4909.67
763.063	1424.17
763.503	580.87
763.943	364.47
764.384	306.27
764.824	299.87
765.264	301.27
765.705	250.17
766.145	201.37
766.585	194.17
767.025	186.77
767.465	181.57
767.906	205.17
768.346	234.97
768.786	245.57
769.226	245.97
769.666	331.17
770.106	661.47
770.546	1676.07
770.986	2876.17
771.426	2549.17
771.866	849.67
772.306	354.47
772.745	222.97
773.185	177.77
773.625	172.27
774.065	159.47
774.505	174.67
774.944	223.97
775.384	398.27
775.824	670.57
776.263	653.17
776.703	312.67
777.142	177.37
777.582	141.87
778.021	134.57
778.461	137.17
778.9	130.27
779.34	134.37
779.779	123.07
780.219	114.07
780.658	111.37
781.097	113.87
781.537	117.37
781.976	120.07
782.415	110.57
782.855	117.87
783.294	112.07
783.733	109.37
784.172	118.57
784.611	109.07
785.05	115.77
785.489	119.27
785.928	132.07
786.367	131.47
786.806	128.37
787.245	136.87
787.684	140.17
788.123	157.17
788.562	143.27
789.001	136.27
789.44	134.67
789.879	127.77
790.317	130.97
790.756	134.97
791.195	135.77
791.634	158.97
792.072	219.67
792.511	391.97
792.95	1077.97
793.388	2272.77
793.827	2063.67
794.265	721.17
794.704	302.57
795.142	201.27
795.581	167.77
796.019	145.37
796.458	136.87
796.896	131.77
797.334	143.87
797.773	169.67
798.211	241.97
798.649	469.47
799.087	1094.87
799.526	1717.17
799.964	2164.47
800.402	2164.47
800.84	821.47
801.278	324.37
801.716	202.37
802.154	166.97
802.592	157.47
803.03	155.77
803.468	143.07
803.906	156.67
804.344	165.17
804.782	154.67
805.22	150.67
805.658	145.37
806.096	158.27
806.533	160.27
806.971	188.97
807.409	236.07
807.847	345.37
808.284	706.27
808.722	2028.17
809.16	3561.27
809.597	3385.67
810.035	5862.27
810.472	6252.47
810.91	2267.67
811.347	876.77
811.785	442.97
812.222	274.27
812.66	210.27
813.097	178.87
813.535	147.57
813.972	137.77
814.409	130.17
814.846	115.07
815.284	116.57
815.721	109.07
816.158	109.07
816.595	115.97
817.032	166.07
817.47	195.07
817.907	150.77
818.344	113.67
818.781	107.07
819.218	107.87
819.655	130.47
820.092	202.27
820.529	234.67
820.966	185.57
821.403	136.07
821.839	111.27
822.276	103.67
822.713	128.07
823.15	152.77
823.587	122.87
824.023	157.67
824.46	323.37
824.897	968.37
825.333	1467.47
825.77	634.67
826.206	255.07
826.643	144.87
827.08	107.27
827.516	87.47
827.953	87.47
828.389	85.67
828.825	72.87
829.262	73.27
829.698	70.27
830.135	70.77
830.571	66.07
831.007	69.57
831.443	66.67
831.88	63.27
832.316	63.77
832.752	74.67
833.188	66.27
833.624	65.37
834.06	70.97
834.497	76.47
834.933	77.97
835.369	84.27
835.805	77.37
836.241	86.07
836.677	83.07
837.112	94.17
837.548	111.67
837.984	143.27
838.42	211.67
838.856	536.07
839.292	1631.87
839.727	2493.57
840.163	1156.77
840.599	1000.37
841.034	2192.27
841.47	2297.17
841.906	836.67
842.341	360.47
842.777	217.87
843.212	224.87
843.648	206.57
844.083	119.67
844.519	90.87
844.954	76.77
845.39	60.17
845.825	62.27
846.261	54.97
846.696	57.57
847.131	65.27
847.566	58.67
848.002	56.37
848.437	52.87
848.872	65.57
849.307	66.97
849.742	88.87
850.177	189.97
850.613	593.57
851.048	950.57
851.483	416.47
851.918	166.07
852.353	92.67
852.788	63.17
853.223	57.47
853.657	61.87
854.092	51.57
854.527	47.87
854.962	48.97
855.397	50.07
855.832	52.87
856.266	41.77
856.701	44.37
857.136	33.67
857.57	44.97
858.005	57.27
858.44	60.27
858.874	50.07
859.309	57.47
859.743	50.97
860.178	47.77
860.612	48.67
861.047	57.37
861.481	81.47
861.915	78.37
862.35	56.07
862.784	37.87
863.218	41.27
863.653	37.97
864.087	43.77
864.521	52.57
864.955	70.87
865.39	166.67
865.824	190.07
866.258	128.77
866.692	186.47
867.126	196.27
867.56	116.47
867.994	61.87
868.428	41.87
868.862	57.17
869.296	65.27
869.73	63.67
870.164	56.17
870.598	59.07
871.031	43.67
871.465	37.17
871.899	37.17
872.333	25.77
872.766	32.47
873.2	27.27
873.634	29.77
874.067	23.47
874.501	29.87
874.935	37.37
875.368	32.97
875.802	26.47
876.235	24.87
876.669	24.77
877.102	22.37
877.535	31.27
877.969	20.77
878.402	24.87
878.836	17.67
879.269	23.57
879.702	27.47
880.135	17.37
880.569	25.87
881.002	22.77
881.435	24.77
881.868	16.77
882.301	32.77
882.734	17.57
883.167	26.37
883.601	19.77
884.034	26.57
884.467	21.87
884.899	23.17
885.332	21.97
885.765	23.77
886.198	20.07
886.631	23.27
887.064	23.57
887.497	17.27
887.929	25.07
888.362	12.47
888.795	18.07
889.228	17.57
889.66	22.07
890.093	18.97
890.526	21.37
890.958	18.57
891.391	19.57
891.823	25.77
892.256	18.17
892.688	13.77
893.121	18.47
893.553	15.87
893.985	27.77
894.418	16.87
894.85	17.07
895.282	19.07
895.715	15.37
896.147	14.37
896.579	21.17
897.011	18.37
897.444	22.17
897.876	14.77
898.308	19.77
898.74	12.67
899.172	12.47
899.604	23.27
900.036	23.77
900.468	13.17
900.9	19.27
901.332	20.77
901.764	18.57
902.196	19.87
902.628	23.57
903.06	19.87
903.491	32.77
903.923	24.27
904.355	23.17
904.787	25.67
905.218	22.87
905.65	20.67
906.082	10.17
906.513	19.07
906.945	16.47
907.376	19.77
907.808	24.97
908.239	24.17
908.671	29.47
909.102	19.67
909.534	28.57
909.965	48.87
910.397	103.87
910.828	343.37
911.259	506.67
911.691	236.07
912.122	117.67
912.553	51.87
912.984	34.27
913.415	26.17
913.847	26.57
914.278	20.57
914.709	14.47
915.14	16.27
915.571	20.37
916.002	15.87
916.433	24.17
916.864	18.97
917.295	10.17
917.726	21.17
918.157	16.47
918.587	27.37
919.018	23.37
919.449	21.07
919.88	28.67
920.311	34.37
920.741	47.77
921.172	185.27
921.603	157.57
922.033	86.07
922.464	51.77
922.895	31.07
923.325	23.67
923.756	11.57
924.186	12.67
924.617	19.77
925.047	28.07
925.478	26.27
925.908	23.77
926.338	19.87
926.769	12.17
927.199	16.97
927.629	6.57
928.06	16.57
928.49	14.87
928.92	14.37
929.35	9.17
929.78	13.87
930.21	9.47
930.641	9.07
931.071	7.87
931.501	5.47
931.931	7.57
932.361	6.77
932.791	-2.03
933.221	4.17
933.651	5.97
934.08	22.87
934.51	30.17
934.94	11.27
935.37	11.77
935.8	12.77
936.229	8.07
936.659	8.47
937.089	5.67
937.519	19.97
937.948	28.17
938.378	14.97
938.807	4.47
939.237	6.97
939.666	5.37
940.096	-6.03
940.525	6.17
940.955	4.97
941.384	3.17
941.814	-0.03
942.243	1.47
942.672	7.47
943.102	4.27
943.531	-1.73
943.96	1.57
944.39	0.97
944.819	-1.03
945.248	-0.13
945.677	6.77
946.106	7.37
946.535	3.17
946.964	3.57
947.393	5.47
947.822	0.57
948.251	-1.53
948.68	8.07
949.109	9.27
949.538	4.47
949.967	-3.73
950.396	-1.93
950.825	1.77
951.254	1.67
951.682	-4.73
952.111	3.17
952.54	3.07
952.969	0.27
953.397	-5.53
953.826	-1.63
954.254	-3.93
954.683	-1.83
955.112	-3.23
955.54	0.47
955.969	2.67
956.397	4.57
956.826	0.47
957.254	-0.83
957.682	7.77
958.111	4.47
958.539	-0.03
958.967	-1.83
959.396	1.17
959.824	-5.43
960.252	0.27
960.68	-0.63
961.109	-9.33
961.537	-7.83
961.965	-0.33
962.393	0.27
962.821	-0.03
963.249	5.57
963.677	-0.33
964.105	6.57
964.533	49.17
964.961	41.07
965.389	22.47
965.817	4.97
966.245	4.87
966.672	1.87
967.1	-3.23
967.528	0.67
967.956	-5.53
968.383	0.97
968.811	-4.23
969.239	1.27
969.666	-6.03
970.094	2.17
970.522	-2.23
970.949	-3.13
971.377	-4.03
971.804	-4.83
972.232	-4.33
972.659	-0.93
973.087	0.47
973.514	-4.23
973.941	1.87
974.369	0.77
974.796	-0.63
975.223	2.67
975.651	4.67
976.078	4.27
976.505	0.07
976.932	6.47
977.359	10.87
977.786	10.57
978.214	5.57
978.641	0.47
979.068	-2.33
979.495	-5.63
979.922	-7.43
980.349	-5.33
980.776	7.77
981.202	-0.13
981.629	3.77
982.056	0.07
982.483	-1.33
982.91	5.17
983.337	-5.93
983.763	0.67
984.19	-7.53
984.617	-4.33
985.043	-3.83
985.47	5.67
985.897	-4.13
986.323	-11.23
986.75	7.17
987.176	-3.63
987.603	2.77
988.029	6.67
988.456	-2.83
988.882	-0.33
989.308	0.77
989.735	-1.53
990.161	-2.13
990.587	-6.63
991.014	3.57
991.44	10.97
991.866	-1.53
992.292	-9.03
992.719	-3.23
993.145	-0.03
993.571	-9.63
993.997	2.37
994.423	1.67
994.849	-0.43
995.275	3.07
995.701	1.17
996.127	-0.83
996.553	2.87
996.979	-4.63
997.405	-2.53
997.83	-10.83
998.256	-6.23
998.682	-8.63
999.108	-10.53
999.534	0.27
999.959	-4.13
1000.385	-8.83
1000.811	-2.03
1001.236	-6.93
1001.662	-6.33
1002.087	-9.93
1002.513	-1.13
1002.938	2.57
1003.364	-2.23
1003.789	-2.33
1004.215	4.77
1004.64	-6.53
1005.066	-0.83
1005.491	-0.53
1005.916	-5.43
1006.342	-1.73
1006.767	-10.13
1007.192	6.37
1007.617	-5.63
1008.042	-9.53
1008.468	-6.73
1008.893	0.07
1009.318	1.37
1009.743	-4.53
1010.168	3.37
1010.593	2.57
1011.018	-2.13
1011.443	5.27
1011.868	4.57
1012.293	-9.63
1012.718	-8.33
1013.143	-1.33
1013.567	2.27
1013.992	-3.83
1014.417	-15.53
1014.842	-1.73
1015.267	-4.53
1015.691	-4.13
1016.116	2.07
1016.541	-3.43
1016.965	6.77
1017.39	0.27
1017.814	0.97
1018.239	-2.53
1018.663	-3.33
1019.088	-9.93
1019.512	-0.93
1019.937	-0.03
1020.361	-5.73
1020.785	-7.83
1021.21	0.07
1021.634	0.17
1022.058	1.27
1022.483	1.77
1022.907	-1.43
1023.331	-3.73
1023.755	-1.43
1024.179	0.57
1024.604	-5.93
1025.028	-4.73
1025.452	0.87
1025.876	-1.63
1026.3	-2.73
1026.724	-10.53
1027.148	-5.93
1027.572	-4.03
1027.996	-0.53
1028.42	-1.93
1028.843	-5.53
1029.267	-8.43
1029.691	-2.63
1030.115	-13.33
1030.539	-4.63
1030.962	-4.33
1031.386	-9.43
1031.81	2.97
1032.233	-2.03
1032.657	-3.43
1033.08	-6.63
1033.504	-2.13
1033.927	-1.93
1034.351	-4.33
1034.774	-3.33
1035.198	-0.63
1035.621	-7.43
1036.045	-10.33
1036.468	3.17
1036.891	-10.13
1037.315	-10.83
1037.738	-7.63
1038.161	-1.03
1038.584	-0.43
1039.008	2.07
1039.431	-7.13
1039.854	-4.53
1040.277	-7.23
1040.7	-13.23
1041.123	-1.63
1041.546	-6.83
1041.969	-2.93
1042.392	-7.93
1042.815	-0.13
1043.238	1.17
1043.661	0.47
1044.084	-5.23
1044.507	-7.13
1044.93	-9.63
1045.352	-4.63
1045.775	-7.93
1046.198	1.27
1046.621	-2.83
1047.043	-0.03
1047.466	8.07
1047.889	-4.43
1048.311	-4.33
1048.734	-4.33
1049.156	-1.33
1049.579	-2.63
1050.001	2.67
1050.424	2.47
1050.846	0.57
1051.269	-4.63
1051.691	-4.53
1052.113	-1.73
1052.536	-8.23
1052.958	-6.33
1053.38	-5.83
1053.802	-6.73
1054.225	3.87
1054.647	-5.93
1055.069	-4.83
1055.491	6.17
1055.913	-4.43
1056.335	-2.43
1056.757	-7.13
1057.179	-6.03
1057.601	-7.43
1058.023	-7.03
1058.445	-4.03
1058.867	-0.23
1059.289	-6.63
1059.711	-10.53
1060.133	-7.33
1060.555	-3.43
1060.976	-6.53
1061.398	-9.13
1061.82	-5.13
1062.241	-5.53
1062.663	-9.93
1063.085	-1.03
1063.506	-0.83
1063.928	-5.03
1064.35	-1.13
1064.771	-14.73
1065.193	-4.73
1065.614	-10.63
1066.035	-0.63
1066.457	-1.93
1066.878	-3.73
1067.3	-1.23
1067.721	-4.63
1068.142	-8.03
1068.564	-4.33
1068.985	-5.33
1069.406	-3.63
1069.827	0.07
1070.248	0.17
1070.67	-10.53
1071.091	-13.03
1071.512	-5.83
1071.933	-7.93
1072.354	-6.33
1072.775	-0.93
1073.196	-7.23
1073.617	-2.53
1074.038	-7.83
1074.459	-3.83
1074.88	-12.33
1075.3	0.87
1075.721	-6.03
1076.142	-0.03
1076.563	2.67
1076.983	-16.23
1077.404	-7.43
1077.825	-9.63
1078.246	-7.63
1078.666	-12.63
1079.087	-4.73
1079.507	-8.93
1079.928	-5.43
1080.348	-1.83
1080.769	-4.53
1081.189	5.07
1081.61	-1.33
1082.03	-2.43
1082.451	-14.23
1082.871	-7.63
1083.291	-7.53
1083.711	-6.83
1084.132	-3.23
1084.552	-5.73
1084.972	3.07
1085.392	-8.03
1085.813	-7.43
1086.233	-9.13
1086.653	-4.93
1087.073	-3.33
1087.493	-6.93
1087.913	-10.03
1088.333	-8.03
1088.753	-1.13
1089.173	3.37
1089.593	-4.83
1090.013	0.47
1090.433	-5.93
1090.852	-3.13
1091.272	-1.63
1091.692	1.37
1092.112	-0.53
1092.531	-4.33
1092.951	-9.63
1093.371	1.27
1093.79	0.37
1094.21	-5.03
1094.63	-8.63
1095.049	-8.03
1095.469	-1.13
1095.888	-4.53
1096.308	1.37
1096.727	-0.13
1097.146	-9.73
1097.566	-1.03
1097.985	-7.43
1098.405	-2.43
1098.824	-4.33
1099.243	-4.03
1099.662	-7.73
1100.082	-2.53
1100.501	-0.23
1100.92	-1.93
1101.339	-2.33
1101.758	-8.23
