Data from 20171114-ORNL-Ar_H_NY_Subt18_08-07-37-440.txt Node
Date: Tue Nov 14 08:07:37 EST 2017
User: Ender
Spectrometer: HR+D1039
Trigger mode: 0
Integration Time (sec): 2.730000E-2
Scans to average: 10
Electric dark correction enabled: true
Nonlinearity correction enabled: false
Boxcar width: 0
XAxis mode: Wavelengths
Number of Pixels in Spectrum: 2048
>>>>>Begin Spectral Data<<<<<
187.836	-3.62
188.309	-3.62
188.782	-3.62
189.255	3.18
189.728	4.18
190.201	1.38
190.674	3.08
191.147	0.38
191.619	-9.32
192.092	1.08
192.565	3.68
193.038	-3.82
193.511	-1.72
193.984	-2.72
194.456	1.28
194.929	2.88
195.402	-0.22
195.874	0.28
196.347	-2.42
196.82	-4.62
197.292	8.88
197.765	0.38
198.237	-6.52
198.71	8.28
199.182	-0.82
199.655	-0.82
200.127	4.08
200.6	-2.12
201.072	1.68
201.544	-0.92
202.017	-3.22
202.489	8.38
202.961	-3.42
203.433	-6.52
203.906	-10.92
204.378	-11.52
204.85	-8.72
205.322	-6.82
205.794	-0.42
206.266	-2.12
206.739	-4.82
207.211	11.18
207.683	-6.52
208.155	-9.82
208.627	-1.62
209.099	-3.62
209.57	-7.12
210.042	-4.72
210.514	-9.32
210.986	-8.12
211.458	-9.92
211.93	-6.62
212.402	3.38
212.873	-7.82
213.345	-8.62
213.817	-15.82
214.288	-2.02
214.76	-10.62
215.232	-7.42
215.703	-1.92
216.175	-4.32
216.646	-4.62
217.118	-6.22
217.589	2.08
218.061	-0.82
218.532	-4.32
219.004	-7.22
219.475	-2.12
219.946	-3.62
220.418	-3.72
220.889	3.98
221.36	4.88
221.832	-13.22
222.303	-4.62
222.774	0.58
223.245	-6.42
223.717	-8.22
224.188	-4.22
224.659	-2.92
225.13	-9.62
225.601	-3.42
226.072	-1.82
226.543	0.48
227.014	-1.72
227.485	-2.32
227.956	-2.92
228.427	-5.32
228.898	0.78
229.369	1.08
229.839	-7.02
230.31	-12.92
230.781	-0.42
231.252	-1.02
231.722	-1.12
232.193	-2.82
232.664	-3.42
233.135	1.28
233.605	-6.72
234.076	-0.12
234.546	3.78
235.017	3.48
235.487	2.88
235.958	-6.32
236.428	-0.22
236.899	4.28
237.369	5.38
237.84	-0.22
238.31	5.58
238.78	-6.72
239.251	-5.22
239.721	2.68
240.191	2.38
240.662	-3.22
241.132	-6.52
241.602	0.18
242.072	1.98
242.542	3.68
243.013	0.98
243.483	2.78
243.953	-0.82
244.423	0.28
244.893	-1.12
245.363	2.58
245.833	0.78
246.303	-5.92
246.773	2.48
247.243	-2.12
247.712	0.88
248.182	8.08
248.652	9.38
249.122	-4.02
249.592	6.68
250.061	16.08
250.531	30.88
251.001	16.78
251.471	20.08
251.94	16.88
252.41	6.78
252.879	1.68
253.349	11.88
253.818	1.38
254.288	7.18
254.757	5.28
255.227	-1.02
255.696	-2.02
256.166	3.98
256.635	5.38
257.105	7.88
257.574	5.28
258.043	5.48
258.513	7.68
258.982	7.28
259.451	8.38
259.92	8.48
260.389	8.98
260.859	9.48
261.328	12.88
261.797	12.38
262.266	6.18
262.735	4.78
263.204	1.48
263.673	0.28
264.142	8.48
264.611	-7.52
265.08	0.28
265.549	-5.92
266.018	-2.32
266.487	-0.32
266.955	-0.42
267.424	1.18
267.893	5.18
268.362	1.28
268.83	-1.12
269.299	6.98
269.768	6.78
270.236	2.58
270.705	-0.92
271.174	1.98
271.642	8.58
272.111	3.68
272.579	8.48
273.048	21.58
273.516	23.28
273.985	23.28
274.453	19.38
274.922	16.68
275.39	9.78
275.858	1.58
276.327	14.18
276.795	14.58
277.263	4.48
277.731	19.18
278.2	49.58
278.668	51.98
279.136	45.28
279.604	17.28
280.072	11.08
280.54	14.08
281.008	8.18
281.477	15.08
281.945	17.78
282.413	13.98
282.881	10.18
283.348	4.78
283.816	8.38
284.284	12.68
284.752	16.68
285.22	7.18
285.688	12.48
286.156	18.98
286.623	35.58
287.091	45.08
287.559	25.38
288.026	14.38
288.494	12.28
288.962	7.38
289.429	5.68
289.897	12.18
290.364	4.78
290.832	7.18
291.3	11.08
291.767	19.98
292.234	12.88
292.702	11.58
293.169	9.08
293.637	15.48
294.104	15.98
294.571	3.48
295.039	6.58
295.506	12.68
295.973	15.18
296.44	11.28
296.908	15.48
297.375	17.48
297.842	13.08
298.309	9.28
298.776	12.98
299.243	13.88
299.71	8.88
300.177	14.68
300.644	16.58
301.111	19.88
301.578	18.38
302.045	18.48
302.512	16.18
302.979	21.58
303.446	15.68
303.913	12.08
304.379	13.68
304.846	21.98
305.313	18.58
305.78	16.18
306.246	21.78
306.713	22.28
307.18	24.58
307.646	25.48
308.113	24.38
308.579	25.18
309.046	20.68
309.512	24.98
309.979	13.48
310.445	20.28
310.912	19.88
311.378	30.48
311.845	21.58
312.311	20.78
312.777	29.68
313.244	23.18
313.71	27.78
314.176	18.88
314.642	20.98
315.109	28.78
315.575	32.98
316.041	33.88
316.507	23.78
316.973	32.58
317.439	29.88
317.905	36.28
318.371	29.38
318.837	27.58
319.303	30.28
319.769	25.08
320.235	22.48
320.701	27.88
321.167	34.38
321.633	34.98
322.099	32.48
322.564	36.58
323.03	34.68
323.496	33.38
323.962	32.98
324.427	27.28
324.893	32.78
325.359	33.58
325.824	33.18
326.29	31.38
326.755	35.18
327.221	29.78
327.686	33.68
328.152	41.18
328.617	33.18
329.083	34.98
329.548	42.88
330.014	40.18
330.479	36.68
330.944	40.18
331.41	38.78
331.875	32.38
332.34	36.38
332.805	33.48
333.271	34.98
333.736	40.78
334.201	35.98
334.666	40.08
335.131	44.48
335.596	42.08
336.061	44.38
336.526	34.08
336.991	46.38
337.456	51.08
337.921	46.08
338.386	35.28
338.851	46.38
339.316	39.28
339.781	43.68
340.246	40.08
340.711	39.28
341.175	44.38
341.64	38.38
342.105	46.08
342.569	47.58
343.034	49.88
343.499	47.48
343.963	42.48
344.428	48.18
344.893	53.38
345.357	54.58
345.822	52.38
346.286	60.58
346.751	58.78
347.215	58.38
347.679	63.08
348.144	82.98
348.608	70.28
349.073	55.58
349.537	65.28
350.001	65.38
350.465	77.48
350.93	73.28
351.394	72.98
351.858	59.78
352.322	81.58
352.786	72.78
353.25	82.08
353.715	95.18
354.179	85.28
354.643	107.68
355.107	109.68
355.571	94.68
356.035	85.38
356.498	95.58
356.962	108.08
357.426	106.28
357.89	95.58
358.354	73.88
358.818	74.98
359.281	74.88
359.745	65.88
360.209	65.18
360.673	64.08
361.136	70.88
361.6	77.58
362.064	71.68
362.527	76.68
362.991	86.88
363.454	67.68
363.918	58.78
364.381	62.08
364.845	76.18
365.308	73.88
365.772	80.08
366.235	71.28
366.698	71.78
367.162	79.38
367.625	73.48
368.088	79.18
368.552	81.48
369.015	79.98
369.478	89.28
369.941	95.48
370.404	91.68
370.867	97.28
371.331	102.48
371.794	103.68
372.257	91.38
372.72	102.38
373.183	101.98
373.646	97.68
374.109	93.58
374.572	92.08
375.035	92.08
375.497	95.58
375.96	97.48
376.423	97.38
376.886	101.48
377.349	98.18
377.811	92.98
378.274	97.18
378.737	93.08
379.199	101.68
379.662	102.58
380.125	109.18
380.587	107.78
381.05	113.48
381.512	117.98
381.975	119.68
382.437	122.58
382.9	117.08
383.362	119.98
383.825	123.68
384.287	133.48
384.75	129.18
385.212	127.78
385.674	128.88
386.136	132.08
386.599	116.78
387.061	119.68
387.523	122.28
387.985	129.88
388.447	139.28
388.91	140.08
389.372	152.48
389.834	145.78
390.296	139.98
390.758	141.48
391.22	153.38
391.682	196.18
392.144	286.98
392.606	223.38
393.068	158.38
393.529	158.78
393.991	146.38
394.453	135.08
394.915	145.68
395.377	181.88
395.838	204.08
396.3	142.38
396.762	124.78
397.224	126.18
397.685	118.98
398.147	124.18
398.608	122.98
399.07	123.48
399.531	127.68
399.993	133.78
400.454	147.28
400.916	133.68
401.377	130.08
401.839	140.48
402.3	142.18
402.762	160.98
403.223	171.48
403.684	158.68
404.145	147.28
404.607	148.68
405.068	150.48
405.529	161.48
405.99	179.28
406.451	160.58
406.913	152.98
407.374	151.48
407.835	153.58
408.296	166.08
408.757	161.08
409.218	177.18
409.679	171.78
410.14	165.48
410.601	171.38
411.062	175.38
411.522	180.08
411.983	189.08
412.444	166.18
412.905	172.68
413.366	169.38
413.826	182.88
414.287	206.48
414.748	249.28
415.208	230.18
415.669	200.28
416.13	194.98
416.59	193.28
417.051	210.18
417.511	209.18
417.972	222.78
418.432	232.98
418.893	275.28
419.353	241.18
419.814	195.88
420.274	169.08
420.734	170.48
421.195	189.28
421.655	180.98
422.115	187.88
422.576	183.38
423.036	188.68
423.496	193.88
423.956	203.08
424.416	216.58
424.876	253.78
425.336	243.98
425.797	253.98
426.257	236.38
426.717	226.78
427.177	221.28
427.637	212.78
428.097	225.18
428.556	233.98
429.016	261.58
429.476	251.38
429.936	264.88
430.396	266.18
430.856	282.18
431.315	304.98
431.775	332.38
432.235	366.28
432.694	333.28
433.154	349.68
433.614	375.38
434.073	314.78
434.533	274.78
434.993	260.18
435.452	265.78
435.912	280.18
436.371	278.78
436.83	271.98
437.29	258.58
437.749	233.38
438.209	240.88
438.668	260.88
439.127	272.38
439.587	252.78
440.046	233.68
440.505	253.88
440.964	274.58
441.424	302.38
441.883	288.78
442.342	247.48
442.801	218.88
443.26	214.78
443.719	213.08
444.178	212.38
444.637	198.38
445.096	210.98
445.555	210.78
446.014	217.48
446.473	216.08
446.932	223.38
447.391	218.58
447.849	217.48
448.308	211.18
448.767	212.48
449.226	229.48
449.685	227.88
450.143	236.58
450.602	223.58
451.061	217.38
451.519	219.18
451.978	220.08
452.436	231.78
452.895	233.98
453.353	240.18
453.812	232.18
454.27	230.48
454.729	227.88
455.187	227.88
455.646	237.38
456.104	237.88
456.562	251.68
457.021	258.58
457.479	243.28
457.937	264.68
458.395	255.58
458.854	245.18
459.312	246.38
459.77	265.98
460.228	245.68
460.686	234.48
461.144	243.18
461.602	238.28
462.06	231.78
462.518	245.18
462.976	248.58
463.434	253.68
463.892	250.98
464.35	262.68
464.808	280.58
465.266	260.98
465.724	257.48
466.181	258.58
466.639	261.68
467.097	281.18
467.555	281.88
468.012	286.48
468.47	297.18
468.928	312.78
469.385	326.58
469.843	331.28
470.3	336.88
470.758	350.28
471.215	366.68
471.673	386.28
472.13	390.08
472.588	402.58
473.045	363.08
473.503	372.28
473.96	378.98
474.417	395.98
474.875	415.68
475.332	460.08
475.789	456.28
476.246	454.78
476.704	483.48
477.161	489.28
477.618	506.98
478.075	545.38
478.532	582.68
478.989	667.98
479.446	773.78
479.903	758.18
480.36	789.78
480.817	841.58
481.274	934.48
481.731	1027.08
482.188	1118.28
482.645	1268.08
483.102	1358.08
483.558	1485.98
484.015	1532.08
484.472	1506.38
484.929	1462.18
485.385	1420.98
485.842	1385.18
486.299	1306.88
486.755	1253.08
487.212	1054.68
487.668	902.68
488.125	822.68
488.582	752.18
489.038	726.88
489.494	686.88
489.951	677.88
490.407	645.38
490.864	621.78
491.32	618.38
491.776	624.58
492.233	631.08
492.689	586.48
493.145	594.08
493.602	588.88
494.058	598.78
494.514	601.48
494.97	620.78
495.426	624.38
495.882	600.28
496.338	591.38
496.794	606.58
497.251	606.48
497.707	616.18
498.163	614.58
498.618	612.48
499.074	636.38
499.53	657.58
499.986	656.48
500.442	627.48
500.898	619.08
501.354	615.48
501.809	614.98
502.265	624.78
502.721	638.28
503.177	652.28
503.632	639.68
504.088	661.38
504.543	688.88
504.999	685.68
505.455	645.98
505.91	611.68
506.366	615.28
506.821	608.98
507.277	604.38
507.732	608.28
508.187	613.88
508.643	616.08
509.098	618.08
509.553	633.48
510.009	642.68
510.464	655.98
510.919	671.38
511.375	675.98
511.83	688.88
512.285	713.08
512.74	750.58
513.195	772.38
513.65	752.88
514.105	747.48
514.56	754.58
515.015	769.28
515.47	793.28
515.925	775.08
516.38	764.28
516.835	773.48
517.29	767.58
517.745	760.38
518.2	751.08
518.655	727.78
519.109	722.98
519.564	726.58
520.019	721.88
520.474	708.28
520.928	706.98
521.383	702.78
521.838	692.18
522.292	707.28
522.747	699.28
523.201	688.78
523.656	682.38
524.11	686.58
524.565	671.88
525.019	683.38
525.474	687.58
525.928	684.68
526.382	675.68
526.837	681.88
527.291	684.78
527.745	695.28
528.2	685.98
528.654	673.28
529.108	674.28
529.562	667.18
530.016	674.58
530.47	680.18
530.925	669.48
531.379	683.98
531.833	685.18
532.287	690.98
532.741	679.88
533.195	696.98
533.649	696.88
534.103	696.98
534.556	700.58
535.01	696.98
535.464	697.88
535.918	704.98
536.372	704.18
536.826	707.78
537.279	695.38
537.733	697.58
538.187	697.68
538.64	694.28
539.094	707.08
539.548	711.48
540.001	707.78
540.455	709.38
540.908	719.38
541.362	723.98
541.815	727.78
542.269	748.18
542.722	748.38
543.175	753.38
543.629	760.08
544.082	769.78
544.536	788.08
544.989	774.58
545.442	774.58
545.895	766.68
546.349	770.08
546.802	771.98
547.255	775.58
547.708	792.08
548.161	803.28
548.614	795.68
549.067	813.68
549.52	800.68
549.973	797.58
550.426	787.88
550.879	773.08
551.332	775.08
551.785	795.38
552.238	784.88
552.691	804.88
553.144	803.98
553.596	821.58
554.049	840.28
554.502	871.48
554.955	900.28
555.407	878.88
555.86	876.28
556.313	871.28
556.765	875.18
557.218	868.98
557.67	868.18
558.123	866.48
558.576	849.48
559.028	859.98
559.48	874.88
559.933	855.68
560.385	827.28
560.838	793.68
561.29	759.28
561.742	769.98
562.195	754.58
562.647	751.38
563.099	759.68
563.551	756.98
564.004	767.98
564.456	761.28
564.908	746.28
565.36	738.08
565.812	724.78
566.264	719.48
566.716	711.58
567.168	707.68
567.62	714.48
568.072	700.88
568.524	689.18
568.976	686.88
569.428	664.48
569.88	667.88
570.332	678.98
570.784	673.78
571.235	674.38
571.687	686.68
572.139	689.28
572.59	695.28
573.042	695.58
573.494	691.38
573.945	690.08
574.397	674.48
574.849	685.48
575.3	678.08
575.752	678.08
576.203	677.68
576.655	671.98
577.106	659.88
577.557	666.98
578.009	661.68
578.46	653.88
578.912	659.18
579.363	651.88
579.814	653.28
580.265	652.28
580.717	666.18
581.168	663.68
581.619	666.38
582.07	675.88
582.521	673.18
582.972	670.28
583.423	677.78
583.875	678.48
584.326	693.48
584.777	737.68
585.227	808.18
585.678	899.38
586.129	991.78
586.58	1055.88
587.031	1134.98
587.482	1280.38
587.933	1452.38
588.384	1266.88
588.834	957.48
589.285	798.38
589.736	771.68
590.186	768.98
590.637	757.78
591.088	736.68
591.538	729.48
591.989	714.48
592.439	720.28
592.89	710.08
593.34	704.38
593.791	701.68
594.241	702.48
594.692	708.78
595.142	691.28
595.593	686.28
596.043	699.28
596.493	707.08
596.943	707.88
597.394	716.18
597.844	703.38
598.294	706.98
598.744	739.08
599.195	766.48
599.645	812.78
600.095	847.18
600.545	899.78
600.995	962.68
601.445	1017.38
601.895	1067.58
602.345	1117.38
602.795	1104.28
603.245	1060.28
603.695	991.08
604.145	936.48
604.594	903.78
605.044	841.28
605.494	782.98
605.944	742.68
606.393	727.98
606.843	713.68
607.293	724.68
607.743	722.98
608.192	733.68
608.642	751.38
609.091	753.18
609.541	768.08
609.99	761.98
610.44	759.68
610.889	715.98
611.339	698.08
611.788	683.28
612.238	683.88
612.687	716.78
613.136	716.18
613.586	728.48
614.035	724.68
614.484	750.78
614.933	751.08
615.383	747.78
615.832	730.28
616.281	720.38
616.73	685.58
617.179	654.18
617.628	646.58
618.077	618.88
618.526	620.28
618.975	607.48
619.424	608.88
619.873	604.48
620.322	614.08
620.771	597.28
621.22	599.18
621.669	600.78
622.118	586.78
622.567	571.28
623.015	563.28
623.464	559.38
623.913	560.38
624.361	547.08
624.81	547.48
625.259	542.38
625.707	550.18
626.156	551.88
626.604	558.08
627.053	559.08
627.501	560.98
627.95	566.68
628.398	572.08
628.847	566.48
629.295	566.28
629.744	576.88
630.192	558.18
630.64	567.78
631.089	567.58
631.537	571.58
631.985	584.98
632.433	590.68
632.881	591.78
633.33	652.78
633.778	627.98
634.226	564.78
634.674	565.98
635.122	578.48
635.57	592.08
636.018	617.18
636.466	574.48
636.914	552.58
637.362	571.58
637.81	568.88
638.258	571.88
638.705	571.38
639.153	605.38
639.601	616.18
640.049	633.18
640.497	668.38
640.944	688.68
641.392	641.98
641.84	604.68
642.287	577.28
642.735	569.78
643.182	564.38
643.63	575.18
644.078	571.18
644.525	580.88
644.973	588.18
645.42	599.88
645.867	622.48
646.315	631.88
646.762	658.08
647.21	684.68
647.657	706.18
648.104	754.58
648.551	775.08
648.999	831.58
649.446	915.08
649.893	1006.48
650.34	1160.38
650.787	1382.18
651.234	1733.38
651.682	2257.78
652.129	3098.58
652.576	4464.48
653.023	6571.28
653.47	8974.48
653.917	11200.18
654.363	12875.48
654.81	14180.68
655.257	13498.68
655.704	8835.38
656.151	5200.18
656.598	3379.08
657.044	2391.48
657.491	1835.98
657.938	1474.78
658.385	1228.08
658.831	1065.58
659.278	956.28
659.724	846.88
660.171	787.78
660.618	706.88
661.064	679.68
661.511	656.38
661.957	654.08
662.404	634.98
662.85	658.28
663.296	622.78
663.743	553.28
664.189	535.98
664.635	529.68
665.082	527.98
665.528	521.08
665.974	517.18
666.42	514.38
666.867	502.48
667.313	484.38
667.759	474.48
668.205	479.58
668.651	478.58
669.097	482.58
669.543	488.78
669.989	468.28
670.435	450.18
670.881	449.78
671.327	447.58
671.773	463.88
672.219	482.18
672.665	550.18
673.11	581.38
673.556	613.88
674.002	665.18
674.448	641.48
674.893	541.58
675.339	463.38
675.785	433.58
676.23	411.38
676.676	394.08
677.122	383.38
677.567	374.88
678.013	357.88
678.458	354.78
678.904	361.78
679.349	338.08
679.794	345.58
680.24	351.88
680.685	350.68
681.131	343.88
681.576	346.58
682.021	352.58
682.466	347.18
682.912	352.18
683.357	347.68
683.802	377.48
684.247	402.58
684.692	457.68
685.137	496.98
685.583	528.08
686.028	554.78
686.473	506.08
686.918	437.78
687.363	409.58
687.807	393.68
688.252	360.48
688.697	349.88
689.142	340.18
689.587	329.98
690.032	325.28
690.477	338.78
690.921	352.98
691.366	371.18
691.811	407.38
692.255	429.38
692.7	463.28
693.145	509.48
693.589	696.08
694.034	1145.78
694.478	1535.78
694.923	1708.38
695.367	2204.98
695.812	1182.28
696.256	497.78
696.701	372.08
697.145	340.18
697.59	322.98
698.034	321.28
698.478	327.98
698.922	327.98
699.367	326.48
699.811	342.88
700.255	350.78
700.699	386.38
701.143	431.58
701.588	471.28
702.032	505.38
702.476	507.98
702.92	496.38
703.364	485.58
703.808	647.48
704.252	1045.08
704.696	1459.98
705.14	1649.88
705.584	2093.18
706.027	1041.48
706.471	513.38
706.915	392.48
707.359	348.38
707.803	316.28
708.246	311.88
708.69	306.38
709.134	313.38
709.577	314.18
710.021	314.98
710.465	303.28
710.908	298.48
711.352	298.48
711.795	311.48
712.239	348.48
712.682	377.18
713.126	418.38
713.569	460.08
714.012	365.28
714.456	317.08
714.899	296.88
715.342	271.38
715.786	256.48
716.229	253.78
716.672	249.08
717.115	246.28
717.558	252.38
718.002	250.58
718.445	254.68
718.888	283.88
719.331	300.68
719.774	305.48
720.217	301.28
720.66	282.58
721.103	269.68
721.546	252.58
721.989	248.68
722.432	232.08
722.874	245.48
723.317	230.48
723.76	222.48
724.203	257.78
724.645	321.68
725.088	448.98
725.531	562.78
725.974	637.58
726.416	539.48
726.859	304.38
727.301	241.78
727.744	231.18
728.187	230.88
728.629	234.78
729.071	240.98
729.514	256.28
729.956	275.58
730.399	283.88
730.841	285.78
731.283	271.78
731.726	268.18
732.168	255.78
732.61	266.08
733.053	285.88
733.495	313.38
733.937	354.38
734.379	393.28
734.821	435.78
735.263	539.08
735.705	836.68
736.148	1599.58
736.59	2585.18
737.032	2983.48
737.474	2446.68
737.916	800.08
738.357	422.78
738.799	320.38
739.241	299.58
739.683	285.48
740.125	291.08
740.567	303.48
741.008	314.18
741.45	312.38
741.892	310.98
742.334	352.48
742.775	352.08
743.217	340.78
743.658	267.18
744.1	246.38
744.542	263.18
744.983	304.38
745.425	333.78
745.866	332.48
746.307	285.98
746.749	282.38
747.19	321.98
747.632	459.68
748.073	890.48
748.514	1884.18
748.956	2843.78
749.397	3520.08
749.838	2929.48
750.279	2908.68
750.72	1483.78
751.162	545.58
751.603	324.38
752.044	249.98
752.485	217.18
752.926	203.28
753.367	207.78
753.808	195.18
754.249	186.98
754.69	184.78
755.131	182.98
755.572	183.28
756.013	181.18
756.453	179.68
756.894	185.08
757.335	191.78
757.776	191.28
758.216	193.78
758.657	194.38
759.098	204.98
759.538	230.68
759.979	273.28
760.42	376.38
760.86	726.38
761.301	1857.38
761.741	4427.58
762.182	6310.48
762.622	4464.08
763.063	1295.78
763.503	534.98
763.943	349.98
764.384	345.48
764.824	399.78
765.264	429.08
765.705	303.78
766.145	208.08
766.585	188.98
767.025	180.98
767.465	180.88
767.906	237.18
768.346	310.58
768.786	332.78
769.226	259.18
769.666	318.48
770.106	630.68
770.546	1579.68
770.986	2613.88
771.426	2332.18
771.866	787.48
772.306	322.98
772.745	206.58
773.185	177.08
773.625	174.48
774.065	170.98
774.505	194.68
774.944	313.48
775.384	684.38
775.824	1201.88
776.263	1155.38
776.703	497.08
777.142	221.38
777.582	153.68
778.021	136.18
778.461	142.68
778.9	139.28
779.34	129.18
779.779	116.38
780.219	114.28
780.658	105.68
781.097	109.48
781.537	119.08
781.976	112.58
782.415	114.48
782.855	107.28
783.294	106.68
783.733	102.28
784.172	113.68
784.611	106.48
785.05	103.28
785.489	111.78
785.928	120.68
786.367	120.48
786.806	116.18
787.245	129.68
787.684	135.88
788.123	151.68
788.562	133.08
789.001	128.68
789.44	116.48
789.879	114.18
790.317	119.18
790.756	131.28
791.195	134.78
791.634	144.78
792.072	205.28
792.511	373.28
792.95	1024.38
793.388	2106.78
793.827	1894.38
794.265	670.58
794.704	282.88
795.142	177.68
795.581	150.58
796.019	133.08
796.458	122.88
796.896	120.48
797.334	140.08
797.773	158.18
798.211	216.08
798.649	442.38
799.087	1016.88
799.526	1588.58
799.964	2018.28
800.402	1967.88
800.84	746.08
801.278	298.08
801.716	187.08
802.154	156.78
802.592	149.58
803.03	143.28
803.468	139.08
803.906	143.38
804.344	145.28
804.782	141.78
805.22	128.78
805.658	122.68
806.096	146.18
806.533	158.48
806.971	178.28
807.409	218.28
807.847	314.08
808.284	675.08
808.722	1878.28
809.16	3246.98
809.597	3127.58
810.035	5415.38
810.472	5659.48
810.91	2054.38
811.347	781.18
811.785	396.08
812.222	257.88
812.66	194.48
813.097	158.38
813.535	139.58
813.972	132.48
814.409	119.08
814.846	112.48
815.284	110.28
815.721	103.78
816.158	108.68
816.595	122.58
817.032	170.38
817.47	194.08
817.907	159.78
818.344	147.38
818.781	116.38
819.218	104.48
819.655	126.28
820.092	189.88
820.529	205.48
820.966	180.28
821.403	134.98
821.839	107.78
822.276	101.98
822.713	122.48
823.15	125.58
823.587	123.48
824.023	144.58
824.46	304.78
824.897	906.98
825.333	1331.78
825.77	572.18
826.206	224.18
826.643	135.08
827.08	99.08
827.516	86.98
827.953	77.78
828.389	82.38
828.825	70.48
829.262	67.98
829.698	54.28
830.135	66.88
830.571	55.98
831.007	62.78
831.443	59.78
831.88	64.48
832.316	65.38
832.752	62.78
833.188	67.08
833.624	64.58
834.06	78.28
834.497	72.48
834.933	67.28
835.369	78.38
835.805	64.28
836.241	77.38
836.677	81.98
837.112	91.88
837.548	102.88
837.984	138.98
838.42	203.38
838.856	506.78
839.292	1514.38
839.727	2266.18
840.163	1051.78
840.599	939.68
841.034	2042.88
841.47	2078.68
841.906	771.68
842.341	327.88
842.777	229.38
843.212	316.38
843.648	299.58
844.083	146.68
844.519	97.38
844.954	77.48
845.39	51.78
845.825	59.88
846.261	54.08
846.696	54.08
847.131	55.28
847.566	55.08
848.002	44.68
848.437	54.98
848.872	66.58
849.307	62.08
849.742	82.48
850.177	183.88
850.613	560.88
851.048	860.48
851.483	374.28
851.918	151.98
852.353	87.38
852.788	56.38
853.223	51.88
853.657	57.08
854.092	48.38
854.527	45.68
854.962	41.68
855.397	45.48
855.832	53.78
856.266	45.28
856.701	39.88
857.136	39.38
857.57	40.58
858.005	47.18
858.44	61.88
858.874	51.28
859.309	52.88
859.743	37.48
860.178	43.68
860.612	38.28
861.047	48.78
861.481	63.48
861.915	63.98
862.35	53.68
862.784	30.38
863.218	34.08
863.653	34.08
864.087	42.88
864.521	58.38
864.955	70.48
865.39	152.38
865.824	170.68
866.258	112.68
866.692	159.78
867.126	177.88
867.56	101.18
867.994	54.88
868.428	35.08
868.862	43.38
869.296	58.28
869.73	60.98
870.164	56.18
870.598	46.38
871.031	45.08
871.465	34.98
871.899	35.38
872.333	22.68
872.766	23.98
873.2	22.68
873.634	25.28
874.067	27.88
874.501	26.18
874.935	30.08
875.368	31.68
875.802	21.38
876.235	26.58
876.669	22.58
877.102	23.68
877.535	25.08
877.969	26.28
878.402	20.88
878.836	18.08
879.269	28.28
879.702	23.38
880.135	25.78
880.569	22.48
881.002	28.18
881.435	20.78
881.868	17.38
882.301	27.88
882.734	16.88
883.167	19.18
883.601	16.18
884.034	20.48
884.467	12.38
884.899	21.18
885.332	14.68
885.765	15.28
886.198	17.18
886.631	21.38
887.064	18.78
887.497	17.08
887.929	21.18
888.362	19.68
888.795	9.88
889.228	19.78
889.66	20.38
890.093	20.28
890.526	12.68
890.958	11.38
891.391	18.58
891.823	22.98
892.256	12.58
892.688	15.78
893.121	22.28
893.553	17.38
893.985	23.48
894.418	15.38
894.85	12.68
895.282	14.08
895.715	17.58
896.147	14.88
896.579	17.28
897.011	14.28
897.444	14.98
897.876	17.18
898.308	13.88
898.74	16.68
899.172	16.68
899.604	21.88
900.036	17.98
900.468	16.18
900.9	14.38
901.332	15.78
901.764	8.88
902.196	19.68
902.628	19.38
903.06	24.48
903.491	32.88
903.923	22.98
904.355	20.78
904.787	27.28
905.218	21.68
905.65	20.98
906.082	13.58
906.513	11.98
906.945	18.98
907.376	13.18
907.808	21.68
908.239	22.08
908.671	19.58
909.102	26.98
909.534	24.88
909.965	45.68
910.397	92.58
910.828	309.78
911.259	468.48
911.691	211.48
912.122	105.28
912.553	48.58
912.984	38.28
913.415	24.08
913.847	26.18
914.278	12.28
914.709	14.28
915.14	13.08
915.571	15.28
916.002	14.88
916.433	17.98
916.864	15.28
917.295	9.38
917.726	16.18
918.157	13.68
918.587	33.18
919.018	24.38
919.449	18.98
919.88	20.68
920.311	27.58
920.741	47.08
921.172	167.68
921.603	154.38
922.033	69.98
922.464	47.58
922.895	16.38
923.325	20.88
923.756	10.88
924.186	13.08
924.617	29.18
925.047	37.28
925.478	53.38
925.908	48.58
926.338	27.48
926.769	19.88
927.199	22.58
927.629	17.58
928.06	14.38
928.49	15.68
928.92	16.58
929.35	11.98
929.78	14.68
930.21	5.88
930.641	10.78
931.071	11.58
931.501	3.38
931.931	10.98
932.361	10.68
932.791	2.58
933.221	10.88
933.651	7.78
934.08	20.48
934.51	31.28
934.94	15.18
935.37	9.28
935.8	1.38
936.229	5.08
936.659	7.28
937.089	7.28
937.519	12.18
937.948	22.78
938.378	18.98
938.807	7.78
939.237	4.18
939.666	8.48
940.096	-3.02
940.525	1.28
940.955	5.28
941.384	0.88
941.814	0.58
942.243	-5.22
942.672	1.78
943.102	-1.82
943.531	2.18
943.96	9.88
944.39	0.98
944.819	-0.12
945.248	-0.72
945.677	0.78
946.106	8.98
946.535	9.08
946.964	1.68
947.393	2.48
947.822	1.28
948.251	-7.42
948.68	5.58
949.109	4.48
949.538	6.38
949.967	-1.92
950.396	2.98
950.825	2.98
951.254	1.08
951.682	-4.42
952.111	6.98
952.54	4.28
952.969	-3.32
953.397	-1.92
953.826	0.78
954.254	-9.72
954.683	1.58
955.112	-2.32
955.54	1.18
955.969	-3.62
956.397	4.78
956.826	0.98
957.254	7.48
957.682	-1.52
958.111	3.88
958.539	3.98
958.967	5.28
959.396	4.08
959.824	0.18
960.252	-1.92
960.68	-2.62
961.109	0.88
961.537	-1.72
961.965	3.88
962.393	-2.52
962.821	2.08
963.249	1.98
963.677	1.28
964.105	7.98
964.533	42.88
964.961	46.38
965.389	27.78
965.817	16.08
966.245	6.88
966.672	7.08
967.1	-11.62
967.528	-0.82
967.956	0.18
968.383	-6.62
968.811	-0.42
969.239	-6.42
969.666	0.08
970.094	1.58
970.522	0.58
970.949	-2.72
971.377	-3.12
971.804	-0.12
972.232	0.28
972.659	-4.82
973.087	-3.12
973.514	-2.72
973.941	-3.02
974.369	6.18
974.796	4.88
975.223	1.48
975.651	3.18
976.078	3.18
976.505	1.08
976.932	2.18
977.359	16.98
977.786	12.68
978.214	-1.22
978.641	-1.82
979.068	-4.12
979.495	-1.62
979.922	-0.72
980.349	-2.82
980.776	2.58
981.202	-1.12
981.629	4.18
982.056	2.98
982.483	-7.42
982.91	6.58
983.337	-6.72
983.763	2.48
984.19	-1.22
984.617	-3.42
985.043	-6.22
985.47	-4.02
985.897	-3.52
986.323	-12.82
986.75	1.98
987.176	-0.72
987.603	-1.02
988.029	-0.72
988.456	-3.02
988.882	7.68
989.308	-7.42
989.735	-3.62
990.161	1.58
990.587	-7.02
991.014	-2.52
991.44	6.38
991.866	-2.22
992.292	-13.32
992.719	-3.02
993.145	2.78
993.571	-9.42
993.997	-8.02
994.423	0.18
994.849	-5.12
995.275	-4.22
995.701	0.38
996.127	-9.42
996.553	0.48
996.979	-9.82
997.405	-4.72
997.83	-1.92
998.256	-8.02
998.682	-5.62
999.108	-10.52
999.534	0.58
999.959	2.58
1000.385	-2.42
1000.811	-4.22
1001.236	-16.72
1001.662	-5.62
1002.087	-4.72
1002.513	1.38
1002.938	2.58
1003.364	-0.62
1003.789	-3.52
1004.215	2.18
1004.64	-1.12
1005.066	5.68
1005.491	4.48
1005.916	-1.92
1006.342	-11.12
1006.767	-7.32
1007.192	9.98
1007.617	-4.72
1008.042	-9.32
1008.468	-9.62
1008.893	-2.22
1009.318	-9.22
1009.743	-1.52
1010.168	2.48
1010.593	0.38
1011.018	-11.52
1011.443	-10.82
1011.868	-0.02
1012.293	-6.32
1012.718	-4.12
1013.143	-4.82
1013.567	-6.92
1013.992	-3.62
1014.417	-7.22
1014.842	3.48
1015.267	-5.82
1015.691	-0.82
1016.116	3.78
1016.541	-1.52
1016.965	0.78
1017.39	4.58
1017.814	1.78
1018.239	-2.22
1018.663	-4.62
1019.088	-5.42
1019.512	1.38
1019.937	0.88
1020.361	-1.82
1020.785	-13.42
1021.21	-5.02
1021.634	-3.62
1022.058	5.08
1022.483	5.58
1022.907	-1.72
1023.331	-6.82
1023.755	-12.82
1024.179	-5.42
1024.604	-4.42
1025.028	-6.32
1025.452	-2.12
1025.876	-0.72
1026.3	2.28
1026.724	-7.92
1027.148	-0.52
1027.572	-10.32
1027.996	-3.02
1028.42	-5.52
1028.843	-6.02
1029.267	-7.72
1029.691	3.48
1030.115	-5.02
1030.539	-5.82
1030.962	-10.22
1031.386	-11.32
1031.81	0.68
1032.233	-1.82
1032.657	-4.72
1033.08	-0.02
1033.504	-1.52
1033.927	-7.52
1034.351	-1.12
1034.774	-6.22
1035.198	1.78
1035.621	-3.72
1036.045	-7.42
1036.468	3.18
1036.891	-7.32
1037.315	-5.82
1037.738	-9.82
1038.161	-2.52
1038.584	-3.02
1039.008	-3.82
1039.431	4.88
1039.854	1.18
1040.277	-11.72
1040.7	-5.52
1041.123	-2.72
1041.546	-6.62
1041.969	-11.52
1042.392	-5.52
1042.815	-4.02
1043.238	2.98
1043.661	-7.82
1044.084	-9.52
1044.507	-10.82
1044.93	-9.22
1045.352	-4.22
1045.775	-3.82
1046.198	-5.32
1046.621	-5.12
1047.043	-1.72
1047.466	1.98
1047.889	1.98
1048.311	-4.12
1048.734	0.78
1049.156	-2.92
1049.579	-2.52
1050.001	-3.62
1050.424	-1.82
1050.846	0.38
1051.269	-2.82
1051.691	-5.32
1052.113	-12.12
1052.536	-0.82
1052.958	-0.72
1053.38	-7.02
1053.802	-15.12
1054.225	1.98
1054.647	-2.42
1055.069	-10.32
1055.491	1.68
1055.913	-11.92
1056.335	-6.82
1056.757	-5.02
1057.179	-4.72
1057.601	-13.82
1058.023	-2.12
1058.445	-7.42
1058.867	-7.32
1059.289	0.18
1059.711	-8.72
1060.133	-8.22
1060.555	-3.72
1060.976	-6.82
1061.398	-4.92
1061.82	-6.42
1062.241	-5.72
1062.663	-10.12
1063.085	-5.82
1063.506	0.58
1063.928	-8.52
1064.35	-3.72
1064.771	-7.42
1065.193	-6.92
1065.614	-6.12
1066.035	-4.62
1066.457	-5.92
1066.878	0.28
1067.3	-8.42
1067.721	-4.72
1068.142	-11.62
1068.564	-0.42
1068.985	-2.02
1069.406	-2.92
1069.827	-7.62
1070.248	-6.12
1070.67	-8.72
1071.091	-13.02
1071.512	0.58
1071.933	-5.62
1072.354	-12.02
1072.775	-8.32
1073.196	-8.02
1073.617	-4.82
1074.038	-11.22
1074.459	1.58
1074.88	-1.72
1075.3	0.38
1075.721	-8.72
1076.142	-0.82
1076.563	-0.42
1076.983	-13.62
1077.404	-6.72
1077.825	-13.42
1078.246	-6.42
1078.666	-12.42
1079.087	-7.02
1079.507	-6.52
1079.928	0.88
1080.348	-4.32
1080.769	-1.22
1081.189	0.88
1081.61	-2.02
1082.03	-5.12
1082.451	-5.92
1082.871	-5.52
1083.291	-7.02
1083.711	-8.42
1084.132	-2.32
1084.552	1.58
1084.972	-6.52
1085.392	-14.12
1085.813	-9.82
1086.233	-11.62
1086.653	-0.82
1087.073	-0.92
1087.493	-4.72
1087.913	-7.72
1088.333	-5.52
1088.753	-1.92
1089.173	0.58
1089.593	-5.62
1090.013	0.98
1090.433	6.38
1090.852	-2.52
1091.272	-0.92
1091.692	-0.52
1092.112	-0.52
1092.531	-12.52
1092.951	-12.12
1093.371	-6.52
1093.79	1.78
1094.21	-1.02
1094.63	-5.92
1095.049	-9.32
1095.469	-2.72
1095.888	-1.32
1096.308	-1.82
1096.727	3.98
1097.146	-7.02
1097.566	-1.62
1097.985	-2.52
1098.405	-6.02
1098.824	-9.32
1099.243	-10.12
1099.662	-5.52
1100.082	-6.32
1100.501	-6.82
1100.92	-7.92
1101.339	-1.52
1101.758	-7.52
