Data from 20171114-ORNL-Ar_H_NY_Subt18_08-08-35-857.txt Node
Date: Tue Nov 14 08:08:35 EST 2017
User: Ender
Spectrometer: HR+D1039
Trigger mode: 0
Integration Time (sec): 2.730000E-2
Scans to average: 10
Electric dark correction enabled: true
Nonlinearity correction enabled: false
Boxcar width: 0
XAxis mode: Wavelengths
Number of Pixels in Spectrum: 2048
>>>>>Begin Spectral Data<<<<<
187.836	0.52
188.309	0.52
188.782	0.52
189.255	6.02
189.728	-2.18
190.201	3.22
190.674	-0.78
191.147	0.62
191.619	-9.98
192.092	-0.98
192.565	12.32
193.038	-4.08
193.511	1.92
193.984	-0.78
194.456	-4.88
194.929	3.12
195.402	-3.78
195.874	-0.38
196.347	-4.98
196.82	-3.68
197.292	3.92
197.765	-2.18
198.237	-8.38
198.71	2.82
199.182	-2.18
199.655	0.92
200.127	9.22
200.6	3.12
201.072	-5.08
201.544	-5.48
202.017	-5.48
202.489	7.62
202.961	-4.48
203.433	-6.18
203.906	-1.08
204.378	-2.98
204.85	-3.78
205.322	-7.68
205.794	-0.88
206.266	0.82
206.739	-0.08
207.211	6.82
207.683	-9.58
208.155	-2.58
208.627	-0.78
209.099	4.22
209.57	-7.58
210.042	-2.48
210.514	-2.78
210.986	0.22
211.458	-8.38
211.93	-2.68
212.402	2.52
212.873	-0.78
213.345	-7.48
213.817	-8.58
214.288	-0.98
214.76	-7.88
215.232	-1.88
215.703	-1.28
216.175	-2.88
216.646	-2.88
217.118	-3.88
217.589	-3.98
218.061	-1.58
218.532	-1.88
219.004	-3.98
219.475	-4.48
219.946	1.62
220.418	-6.08
220.889	3.42
221.36	4.92
221.832	-1.38
222.303	-5.78
222.774	1.72
223.245	-6.48
223.717	-6.08
224.188	-2.58
224.659	-13.08
225.13	-7.88
225.601	0.52
226.072	0.72
226.543	3.72
227.014	2.02
227.485	-3.38
227.956	-5.98
228.427	-3.68
228.898	-1.98
229.369	4.32
229.839	-6.28
230.31	-2.28
230.781	3.42
231.252	0.32
231.722	-0.88
232.193	-7.78
232.664	-0.28
233.135	-0.78
233.605	-8.08
234.076	-2.98
234.546	-1.18
235.017	3.62
235.487	0.72
235.958	-0.18
236.428	-3.88
236.899	-1.48
237.369	-0.58
237.84	-3.18
238.31	2.62
238.78	-0.48
239.251	-3.38
239.721	0.92
240.191	2.52
240.662	-5.68
241.132	-1.68
241.602	-3.78
242.072	-2.18
242.542	7.82
243.013	1.02
243.483	6.42
243.953	-0.18
244.423	-3.78
244.893	-4.38
245.363	5.02
245.833	3.02
246.303	-5.48
246.773	1.02
247.243	1.82
247.712	0.82
248.182	3.92
248.652	5.62
249.122	-8.58
249.592	5.72
250.061	8.62
250.531	14.82
251.001	3.42
251.471	6.62
251.94	6.12
252.41	1.02
252.879	-1.68
253.349	8.32
253.818	7.62
254.288	7.22
254.757	2.92
255.227	1.52
255.696	13.22
256.166	3.62
256.635	4.02
257.105	7.42
257.574	1.82
258.043	6.82
258.513	0.52
258.982	5.92
259.451	-0.68
259.92	5.12
260.389	-1.58
260.859	13.52
261.328	9.62
261.797	5.32
262.266	3.92
262.735	4.52
263.204	4.32
263.673	-0.78
264.142	8.82
264.611	-1.48
265.08	2.52
265.549	-2.28
266.018	10.92
266.487	-0.38
266.955	-7.48
267.424	2.32
267.893	4.92
268.362	-0.18
268.83	3.82
269.299	7.02
269.768	1.32
270.236	1.32
270.705	5.62
271.174	2.52
271.642	4.22
272.111	5.92
272.579	9.12
273.048	14.12
273.516	13.52
273.985	10.42
274.453	4.42
274.922	9.02
275.39	4.42
275.858	1.72
276.327	9.22
276.795	14.02
277.263	4.52
277.731	20.82
278.2	30.72
278.668	23.72
279.136	19.92
279.604	7.32
280.072	8.92
280.54	6.72
281.008	8.22
281.477	13.62
281.945	9.42
282.413	11.52
282.881	12.32
283.348	7.72
283.816	12.52
284.284	12.02
284.752	24.72
285.22	7.82
285.688	18.02
286.156	15.32
286.623	24.52
287.091	22.52
287.559	15.22
288.026	7.82
288.494	10.22
288.962	3.62
289.429	12.52
289.897	20.12
290.364	11.52
290.832	10.52
291.3	13.92
291.767	11.42
292.234	18.92
292.702	11.62
293.169	12.22
293.637	18.42
294.104	18.72
294.571	4.92
295.039	12.72
295.506	10.22
295.973	15.12
296.44	11.02
296.908	16.52
297.375	14.92
297.842	20.12
298.309	12.42
298.776	6.92
299.243	20.72
299.71	8.32
300.177	24.02
300.644	18.02
301.111	19.32
301.578	19.92
302.045	16.52
302.512	19.62
302.979	17.22
303.446	22.32
303.913	16.42
304.379	17.02
304.846	24.92
305.313	22.22
305.78	18.12
306.246	22.62
306.713	26.62
307.18	24.22
307.646	22.52
308.113	23.82
308.579	21.32
309.046	15.72
309.512	19.72
309.979	16.12
310.445	30.62
310.912	25.12
311.378	25.92
311.845	26.52
312.311	30.92
312.777	25.72
313.244	27.72
313.71	33.32
314.176	30.82
314.642	29.32
315.109	31.02
315.575	35.22
316.041	35.92
316.507	26.32
316.973	36.02
317.439	27.72
317.905	30.02
318.371	32.72
318.837	32.82
319.303	30.52
319.769	30.82
320.235	30.12
320.701	28.22
321.167	26.72
321.633	24.02
322.099	30.42
322.564	38.32
323.03	34.62
323.496	36.42
323.962	32.12
324.427	29.02
324.893	38.82
325.359	39.12
325.824	32.82
326.29	35.92
326.755	33.62
327.221	37.72
327.686	38.22
328.152	46.52
328.617	39.72
329.083	41.72
329.548	50.42
330.014	41.72
330.479	33.72
330.944	42.12
331.41	41.42
331.875	42.22
332.34	39.42
332.805	42.32
333.271	39.12
333.736	39.12
334.201	44.82
334.666	49.72
335.131	45.62
335.596	51.02
336.061	46.42
336.526	39.22
336.991	45.92
337.456	47.92
337.921	47.02
338.386	40.32
338.851	38.92
339.316	46.92
339.781	42.22
340.246	49.62
340.711	45.52
341.175	46.42
341.64	41.12
342.105	44.52
342.569	48.22
343.034	55.92
343.499	51.22
343.963	51.42
344.428	60.82
344.893	54.42
345.357	59.12
345.822	60.22
346.286	58.92
346.751	71.62
347.215	62.42
347.679	69.82
348.144	87.02
348.608	76.82
349.073	63.32
349.537	71.02
350.001	69.22
350.465	80.62
350.93	73.52
351.394	81.32
351.858	69.42
352.322	79.12
352.786	77.22
353.25	94.02
353.715	100.72
354.179	92.02
354.643	113.02
355.107	118.42
355.571	99.62
356.035	86.42
356.498	109.82
356.962	109.42
357.426	118.22
357.89	108.32
358.354	86.22
358.818	79.42
359.281	72.52
359.745	65.02
360.209	69.02
360.673	69.62
361.136	70.52
361.6	84.12
362.064	74.82
362.527	74.62
362.991	83.22
363.454	76.22
363.918	70.02
364.381	68.02
364.845	81.02
365.308	82.92
365.772	81.02
366.235	80.02
366.698	79.02
367.162	81.72
367.625	82.62
368.088	86.02
368.552	87.72
369.015	83.02
369.478	90.32
369.941	96.52
370.404	87.72
370.867	105.52
371.331	104.02
371.794	108.02
372.257	100.02
372.72	101.72
373.183	103.22
373.646	88.42
374.109	96.92
374.572	99.22
375.035	100.62
375.497	100.52
375.96	96.72
376.423	98.22
376.886	109.12
377.349	99.62
377.811	92.82
378.274	107.02
378.737	101.12
379.199	104.42
379.662	109.12
380.125	113.72
380.587	109.02
381.05	112.02
381.512	110.52
381.975	114.02
382.437	119.22
382.9	118.02
383.362	121.32
383.825	132.02
384.287	130.12
384.75	119.72
385.212	121.32
385.674	131.32
386.136	134.62
386.599	119.52
387.061	124.92
387.523	120.72
387.985	131.92
388.447	136.62
388.91	129.02
389.372	135.02
389.834	133.12
390.296	129.62
390.758	131.12
391.22	146.82
391.682	176.42
392.144	201.72
392.606	173.52
393.068	146.42
393.529	153.32
393.991	142.12
394.453	136.42
394.915	140.42
395.377	152.32
395.838	160.02
396.3	144.72
396.762	144.92
397.224	133.22
397.685	137.62
398.147	138.92
398.608	132.52
399.07	136.62
399.531	135.32
399.993	142.82
400.454	153.22
400.916	145.52
401.377	144.72
401.839	156.62
402.3	154.52
402.762	166.82
403.223	181.02
403.684	166.02
404.145	160.62
404.607	156.62
405.068	162.52
405.529	169.62
405.99	188.02
406.451	171.02
406.913	174.42
407.374	165.22
407.835	166.82
408.296	167.72
408.757	166.82
409.218	184.72
409.679	182.22
410.14	168.82
410.601	171.62
411.062	180.92
411.522	182.72
411.983	183.02
412.444	176.62
412.905	188.02
413.366	186.52
413.826	199.12
414.287	224.12
414.748	269.42
415.208	251.02
415.669	207.92
416.13	215.22
416.59	203.12
417.051	216.22
417.511	217.92
417.972	245.02
418.432	252.02
418.893	300.72
419.353	255.02
419.814	207.02
420.274	188.92
420.734	185.42
421.195	198.02
421.655	199.62
422.115	204.92
422.576	189.82
423.036	203.12
423.496	214.92
423.956	219.22
424.416	226.12
424.876	269.32
425.336	260.32
425.797	266.72
426.257	253.22
426.717	236.32
427.177	233.22
427.637	219.42
428.097	229.02
428.556	249.92
429.016	272.92
429.476	262.02
429.936	265.02
430.396	274.52
430.856	289.62
431.315	311.72
431.775	351.62
432.235	383.52
432.694	351.92
433.154	362.02
433.614	391.42
434.073	341.12
434.533	271.92
434.993	265.42
435.452	288.62
435.912	290.92
436.371	288.62
436.83	287.72
437.29	264.62
437.749	254.92
438.209	247.02
438.668	280.02
439.127	290.62
439.587	265.12
440.046	250.52
440.505	259.42
440.964	278.82
441.424	319.72
441.883	313.52
442.342	270.02
442.801	225.32
443.26	229.02
443.719	225.12
444.178	219.02
444.637	218.12
445.096	224.72
445.555	231.52
446.014	228.52
446.473	236.62
446.932	242.32
447.391	233.62
447.849	240.02
448.308	224.22
448.767	226.92
449.226	243.72
449.685	247.62
450.143	255.52
450.602	248.12
451.061	238.02
451.519	235.32
451.978	242.02
452.436	240.22
452.895	241.52
453.353	255.42
453.812	248.82
454.27	251.72
454.729	250.12
455.187	245.92
455.646	255.52
456.104	252.72
456.562	263.22
457.021	280.02
457.479	267.52
457.937	277.42
458.395	268.22
458.854	259.92
459.312	263.72
459.77	281.22
460.228	256.42
460.686	252.62
461.144	255.92
461.602	252.82
462.06	252.42
462.518	259.02
462.976	263.92
463.434	267.22
463.892	271.12
464.35	285.92
464.808	296.12
465.266	271.12
465.724	285.62
466.181	281.32
466.639	285.12
467.097	301.32
467.555	310.12
468.012	309.12
468.47	326.22
468.928	334.62
469.385	356.82
469.843	356.12
470.3	362.12
470.758	373.82
471.215	395.92
471.673	421.72
472.13	413.82
472.588	427.42
473.045	381.02
473.503	390.22
473.96	403.62
474.417	419.32
474.875	436.42
475.332	489.02
475.789	474.52
476.246	477.22
476.704	490.32
477.161	512.42
477.618	528.12
478.075	562.82
478.532	621.92
478.989	688.92
479.446	804.42
479.903	772.92
480.36	797.52
480.817	848.22
481.274	938.72
481.731	1025.92
482.188	1108.52
482.645	1233.03
483.102	1324.12
483.558	1447.52
484.015	1502.72
484.472	1463.42
484.929	1421.52
485.385	1381.12
485.842	1352.02
486.299	1295.82
486.755	1253.02
487.212	1064.42
487.668	910.62
488.125	839.52
488.582	778.32
489.038	744.62
489.494	704.72
489.951	676.52
490.407	675.72
490.864	650.52
491.32	645.62
491.776	649.52
492.233	662.62
492.689	622.42
493.145	610.02
493.602	607.32
494.058	613.92
494.514	624.72
494.97	644.72
495.426	656.72
495.882	632.72
496.338	613.82
496.794	629.22
497.251	619.22
497.707	647.52
498.163	639.62
498.618	648.12
499.074	649.52
499.53	677.52
499.986	681.42
500.442	659.02
500.898	646.02
501.354	627.72
501.809	634.92
502.265	637.42
502.721	655.42
503.177	653.82
503.632	654.22
504.088	667.62
504.543	688.82
504.999	700.62
505.455	663.92
505.91	651.52
506.366	646.82
506.821	645.62
507.277	638.32
507.732	641.12
508.187	638.32
508.643	649.72
509.098	649.92
509.553	672.82
510.009	681.52
510.464	693.92
510.919	703.22
511.375	711.92
511.83	721.62
512.285	743.72
512.74	776.02
513.195	793.42
513.65	786.82
514.105	777.02
514.56	772.12
515.015	798.02
515.47	817.92
515.925	799.62
516.38	798.22
516.835	808.72
517.29	795.32
517.745	790.42
518.2	769.42
518.655	760.12
519.109	754.82
519.564	757.22
520.019	740.62
520.474	733.72
520.928	734.02
521.383	734.62
521.838	725.32
522.292	728.12
522.747	715.62
523.201	721.22
523.656	717.02
524.11	718.92
524.565	711.62
525.019	710.62
525.474	716.12
525.928	707.52
526.382	713.32
526.837	712.32
527.291	722.12
527.745	707.22
528.2	708.32
528.654	702.82
529.108	691.12
529.562	713.72
530.016	694.62
530.47	704.82
530.925	703.42
531.379	709.52
531.833	717.52
532.287	708.52
532.741	712.52
533.195	714.72
533.649	727.22
534.103	732.42
534.556	716.02
535.01	716.02
535.464	716.62
535.918	739.22
536.372	724.42
536.826	717.92
537.279	710.72
537.733	722.12
538.187	727.52
538.64	725.22
539.094	735.72
539.548	749.92
540.001	725.52
540.455	737.42
540.908	747.92
541.362	759.32
541.815	761.42
542.269	775.42
542.722	778.12
543.175	786.02
543.629	780.62
544.082	798.82
544.536	804.82
544.989	802.92
545.442	819.42
545.895	803.82
546.349	803.52
546.802	813.72
547.255	818.22
547.708	824.12
548.161	832.22
548.614	837.82
549.067	851.72
549.52	836.62
549.973	824.12
550.426	828.82
550.879	812.92
551.332	812.12
551.785	829.12
552.238	828.02
552.691	833.02
553.144	852.02
553.596	860.92
554.049	878.32
554.502	912.52
554.955	937.72
555.407	923.22
555.86	917.52
556.313	910.52
556.765	897.42
557.218	892.02
557.67	905.62
558.123	900.92
558.576	895.02
559.028	901.32
559.48	904.12
559.933	889.52
560.385	869.82
560.838	829.72
561.29	804.72
561.742	810.22
562.195	784.52
562.647	795.52
563.099	791.72
563.551	788.32
564.004	799.42
564.456	792.22
564.908	788.22
565.36	762.92
565.812	743.82
566.264	741.52
566.716	735.32
567.168	716.42
567.62	724.32
568.072	719.52
568.524	715.22
568.976	710.02
569.428	699.32
569.88	694.82
570.332	699.02
570.784	701.82
571.235	701.72
571.687	709.02
572.139	716.52
572.59	727.12
573.042	729.12
573.494	731.72
573.945	721.42
574.397	700.42
574.849	702.62
575.3	707.72
575.752	699.72
576.203	688.42
576.655	704.32
577.106	686.02
577.557	681.52
578.009	695.62
578.46	686.92
578.912	678.22
579.363	676.22
579.814	681.22
580.265	681.52
580.717	678.92
581.168	688.92
581.619	694.42
582.07	700.62
582.521	696.22
582.972	694.92
583.423	687.02
583.875	698.42
584.326	705.22
584.777	734.52
585.227	767.92
585.678	804.12
586.129	844.22
586.58	879.22
587.031	924.22
587.482	975.02
587.933	1072.62
588.384	993.42
588.834	861.92
589.285	810.92
589.736	795.02
590.186	797.02
590.637	797.32
591.088	764.52
591.538	749.02
591.989	756.12
592.439	744.92
592.89	739.82
593.34	727.92
593.791	728.02
594.241	714.52
594.692	722.12
595.142	715.72
595.593	720.82
596.043	727.32
596.493	732.62
596.943	717.62
597.394	734.02
597.844	740.42
598.294	747.32
598.744	777.62
599.195	799.22
599.645	842.52
600.095	897.42
600.545	953.32
600.995	1001.42
601.445	1044.72
601.895	1118.32
602.345	1163.32
602.795	1135.52
603.245	1097.22
603.695	1045.82
604.145	986.32
604.594	924.42
605.044	885.42
605.494	819.82
605.944	775.62
606.393	771.12
606.843	746.52
607.293	750.12
607.743	746.42
608.192	764.12
608.642	768.22
609.091	780.82
609.541	778.82
609.99	782.32
610.44	786.32
610.889	736.02
611.339	710.62
611.788	697.72
612.238	709.42
612.687	727.92
613.136	713.92
613.586	740.42
614.035	727.92
614.484	746.22
614.933	741.32
615.383	733.52
615.832	730.62
616.281	726.22
616.73	693.02
617.179	678.92
617.628	669.02
618.077	652.52
618.526	640.32
618.975	629.42
619.424	632.82
619.873	630.52
620.322	633.82
620.771	623.12
621.22	615.82
621.669	624.82
622.118	598.72
622.567	594.42
623.015	582.72
623.464	577.62
623.913	572.82
624.361	566.52
624.81	568.42
625.259	565.42
625.707	581.42
626.156	578.32
626.604	584.92
627.053	585.92
627.501	580.72
627.95	577.92
628.398	596.82
628.847	582.12
629.295	585.12
629.744	591.92
630.192	577.72
630.64	583.42
631.089	567.22
631.537	566.42
631.985	566.12
632.433	567.22
632.881	556.92
633.33	583.12
633.778	572.92
634.226	548.92
634.674	567.42
635.122	572.62
635.57	576.32
636.018	600.22
636.466	588.62
636.914	582.22
637.362	588.92
637.81	584.02
638.258	598.12
638.705	599.62
639.153	640.92
639.601	634.52
640.049	665.12
640.497	689.72
640.944	708.82
641.392	660.62
641.84	633.52
642.287	603.32
642.735	572.02
643.182	577.72
643.63	578.92
644.078	578.72
644.525	594.52
644.973	598.12
645.42	622.02
645.867	640.92
646.315	655.12
646.762	671.92
647.21	711.22
647.657	720.52
648.104	753.82
648.551	780.12
648.999	844.32
649.446	911.42
649.893	998.42
650.34	1157.02
650.787	1372.72
651.234	1698.42
651.682	2193.72
652.129	2993.42
652.576	4285.92
653.023	6230.03
653.47	8389.73
653.917	10422.62
654.363	11929.63
654.81	13066.93
655.257	12394.12
655.704	8211.92
656.151	4929.73
656.598	3232.92
657.044	2314.72
657.491	1793.82
657.938	1452.72
658.385	1222.62
658.831	1064.72
659.278	954.32
659.724	856.92
660.171	798.32
660.618	719.02
661.064	703.82
661.511	675.02
661.957	664.52
662.404	648.02
662.85	657.12
663.296	634.72
663.743	570.72
664.189	554.72
664.635	545.32
665.082	542.22
665.528	537.62
665.974	536.12
666.42	519.92
666.867	512.32
667.313	502.32
667.759	480.12
668.205	473.52
668.651	472.62
669.097	468.42
669.543	478.72
669.989	466.72
670.435	454.32
670.881	455.32
671.327	469.32
671.773	489.12
672.219	514.02
672.665	566.02
673.11	610.72
673.556	661.12
674.002	694.12
674.448	675.82
674.893	565.82
675.339	495.92
675.785	459.02
676.23	432.62
676.676	407.32
677.122	400.02
677.567	385.42
678.013	385.72
678.458	377.62
678.904	371.92
679.349	369.72
679.794	374.12
680.24	366.62
680.685	365.92
681.131	364.32
681.576	358.32
682.021	366.82
682.466	364.92
682.912	365.82
683.357	362.22
683.802	394.42
684.247	432.42
684.692	469.12
685.137	519.62
685.583	569.42
686.028	586.32
686.473	539.32
686.918	464.12
687.363	431.92
687.807	412.22
688.252	385.42
688.697	374.52
689.142	353.12
689.587	347.32
690.032	338.12
690.477	357.42
690.921	368.02
691.366	397.82
691.811	417.12
692.255	445.22
692.7	478.12
693.145	532.22
693.589	746.32
694.034	1214.82
694.478	1616.02
694.923	1790.92
695.367	2320.32
695.812	1248.82
696.256	519.02
696.701	384.82
697.145	351.12
697.59	341.42
698.034	333.82
698.478	340.42
698.922	335.92
699.367	334.62
699.811	347.72
700.255	366.32
700.699	399.62
701.143	439.42
701.588	487.52
702.032	541.02
702.476	530.12
702.92	520.72
703.364	521.32
703.808	685.02
704.252	1119.12
704.696	1529.83
705.14	1735.52
705.584	2196.42
706.027	1111.12
706.471	547.52
706.915	413.82
707.359	370.62
707.803	335.22
708.246	320.02
708.69	327.42
709.134	330.42
709.577	323.82
710.021	334.92
710.465	323.82
710.908	311.52
711.352	311.12
711.795	332.92
712.239	370.12
712.682	405.22
713.126	425.32
713.569	473.72
714.012	383.12
714.456	326.02
714.899	310.22
715.342	286.92
715.786	264.42
716.229	273.72
716.672	269.62
717.115	260.22
717.558	264.02
718.002	270.92
718.445	276.32
718.888	300.12
719.331	306.12
719.774	331.52
720.217	318.32
720.66	294.32
721.103	270.32
721.546	266.42
721.989	259.12
722.432	244.92
722.874	252.52
723.317	249.62
723.76	242.42
724.203	274.32
724.645	341.42
725.088	469.82
725.531	598.62
725.974	666.32
726.416	564.72
726.859	323.52
727.301	253.32
727.744	243.52
728.187	240.82
728.629	252.62
729.071	249.22
729.514	264.32
729.956	288.62
730.399	290.12
730.841	303.12
731.283	281.22
731.726	282.52
732.168	280.92
732.61	285.52
733.053	297.52
733.495	328.62
733.937	370.32
734.379	419.22
734.821	459.72
735.263	585.92
735.705	904.92
736.148	1704.62
736.59	2707.52
737.032	3151.22
737.474	2559.22
737.916	848.82
738.357	446.02
738.799	347.42
739.241	311.52
739.683	299.12
740.125	306.82
740.567	305.22
741.008	330.92
741.45	335.52
741.892	334.12
742.334	364.72
742.775	378.92
743.217	356.22
743.658	281.32
744.1	265.82
744.542	282.52
744.983	337.12
745.425	358.72
745.866	357.32
746.307	296.92
746.749	293.02
747.19	336.52
747.632	489.52
748.073	962.72
748.514	1998.52
748.956	2995.82
749.397	3739.02
749.838	3107.52
750.279	3045.92
750.72	1559.62
751.162	589.52
751.603	339.32
752.044	267.82
752.485	227.32
752.926	223.52
753.367	216.22
753.808	199.72
754.249	196.42
754.69	194.62
755.131	189.12
755.572	191.72
756.013	187.12
756.453	193.02
756.894	197.12
757.335	198.72
757.776	209.32
758.216	201.52
758.657	204.62
759.098	213.02
759.538	239.22
759.979	286.82
760.42	406.42
760.86	776.32
761.301	2016.02
761.741	4739.23
762.182	6570.43
762.622	4647.12
763.063	1381.12
763.503	570.02
763.943	345.52
764.384	303.32
764.824	306.12
765.264	309.92
765.705	256.52
766.145	198.82
766.585	193.62
767.025	182.12
767.465	179.12
767.906	210.42
768.346	247.12
768.786	252.52
769.226	233.22
769.666	334.22
770.106	677.72
770.546	1682.92
770.986	2730.32
771.426	2443.82
771.866	827.42
772.306	345.62
772.745	217.42
773.185	176.22
773.625	171.82
774.065	158.72
774.505	178.92
774.944	248.92
775.384	469.12
775.824	772.02
776.263	742.52
776.703	359.02
777.142	182.32
777.582	145.32
778.021	135.52
778.461	143.52
778.9	134.52
779.34	134.22
779.779	122.72
780.219	108.02
780.658	110.22
781.097	109.32
781.537	114.62
781.976	113.22
782.415	111.32
782.855	107.92
783.294	103.72
783.733	111.12
784.172	116.12
784.611	113.62
785.05	117.52
785.489	118.92
785.928	128.82
786.367	126.72
786.806	127.62
787.245	135.62
787.684	145.12
788.123	153.52
788.562	144.62
789.001	129.52
789.44	130.42
789.879	125.62
790.317	128.22
790.756	141.32
791.195	139.72
791.634	152.72
792.072	219.72
792.511	395.62
792.95	1092.22
793.388	2218.02
793.827	1952.82
794.265	692.62
794.704	291.32
795.142	187.32
795.581	162.52
796.019	146.82
796.458	137.82
796.896	135.82
797.334	141.32
797.773	163.92
798.211	238.92
798.649	484.02
799.087	1090.82
799.526	1684.32
799.964	2111.42
800.402	2056.82
800.84	796.82
801.278	320.72
801.716	196.82
802.154	163.42
802.592	145.72
803.03	149.32
803.468	143.12
803.906	159.62
804.344	153.22
804.782	151.12
805.22	138.52
805.658	138.72
806.096	161.32
806.533	163.22
806.971	179.82
807.409	227.02
807.847	341.42
808.284	725.22
808.722	2017.22
809.16	3426.42
809.597	3376.42
810.035	5727.73
810.472	5869.62
810.91	2172.12
811.347	835.92
811.785	429.82
812.222	276.72
812.66	209.12
813.097	173.32
813.535	151.42
813.972	133.42
814.409	127.62
814.846	119.82
815.284	112.52
815.721	107.42
816.158	105.82
816.595	119.32
817.032	157.42
817.47	191.32
817.907	138.72
818.344	117.12
818.781	111.32
819.218	96.82
819.655	133.62
820.092	201.52
820.529	224.52
820.966	183.32
821.403	136.62
821.839	104.32
822.276	106.22
822.713	126.42
823.15	140.02
823.587	126.72
824.023	156.92
824.46	334.82
824.897	963.42
825.333	1395.53
825.77	604.12
826.206	241.32
826.643	137.12
827.08	100.12
827.516	95.12
827.953	81.02
828.389	88.42
828.825	72.32
829.262	70.52
829.698	66.52
830.135	73.92
830.571	63.92
831.007	66.72
831.443	68.62
831.88	70.22
832.316	59.02
832.752	69.82
833.188	71.72
833.624	70.02
834.06	72.42
834.497	73.32
834.933	80.42
835.369	82.12
835.805	69.52
836.241	78.72
836.677	84.72
837.112	94.82
837.548	111.72
837.984	144.72
838.42	224.52
838.856	546.32
839.292	1618.32
839.727	2364.93
840.163	1118.52
840.599	1000.52
841.034	2135.72
841.47	2145.52
841.906	810.22
842.341	346.22
842.777	213.12
843.212	241.92
843.648	221.42
844.083	128.62
844.519	95.92
844.954	83.12
845.39	65.92
845.825	63.22
846.261	61.72
846.696	60.92
847.131	53.32
847.566	58.72
848.002	55.32
848.437	61.32
848.872	64.22
849.307	68.32
849.742	93.52
850.177	198.92
850.613	593.62
851.048	918.62
851.483	387.52
851.918	160.02
852.353	96.62
852.788	62.42
853.223	54.02
853.657	53.12
854.092	46.42
854.527	43.42
854.962	42.02
855.397	48.12
855.832	52.22
856.266	43.12
856.701	47.22
857.136	40.72
857.57	43.32
858.005	49.62
858.44	61.72
858.874	50.12
859.309	51.62
859.743	49.02
860.178	49.52
860.612	45.82
861.047	56.62
861.481	70.52
861.915	74.62
862.35	53.82
862.784	37.42
863.218	47.32
863.653	41.52
864.087	47.12
864.521	52.92
864.955	72.22
865.39	163.12
865.824	185.82
866.258	123.62
866.692	172.42
867.126	190.72
867.56	112.62
867.994	61.22
868.428	43.32
868.862	49.52
869.296	57.82
869.73	63.42
870.164	56.62
870.598	54.82
871.031	35.52
871.465	35.92
871.899	29.42
872.333	26.72
872.766	27.82
873.2	26.22
873.634	34.02
874.067	28.42
874.501	31.02
874.935	35.92
875.368	33.72
875.802	27.32
876.235	25.92
876.669	31.42
877.102	22.92
877.535	27.42
877.969	29.42
878.402	21.22
878.836	24.42
879.269	25.72
879.702	21.22
880.135	23.22
880.569	25.32
881.002	24.92
881.435	22.72
881.868	15.32
882.301	21.42
882.734	22.42
883.167	24.42
883.601	26.02
884.034	19.22
884.467	17.12
884.899	25.32
885.332	20.02
885.765	16.82
886.198	22.42
886.631	18.32
887.064	20.42
887.497	23.72
887.929	29.22
888.362	14.62
888.795	19.42
889.228	20.52
889.66	22.62
890.093	18.82
890.526	16.92
890.958	21.82
891.391	17.12
891.823	28.32
892.256	19.82
892.688	17.32
893.121	13.02
893.553	22.62
893.985	22.92
894.418	22.02
894.85	14.62
895.282	14.92
895.715	16.72
896.147	15.92
896.579	23.82
897.011	15.82
897.444	18.42
897.876	15.52
898.308	23.12
898.74	20.82
899.172	19.42
899.604	26.22
900.036	22.52
900.468	15.52
900.9	17.12
901.332	17.52
901.764	16.02
902.196	18.72
902.628	26.82
903.06	22.12
903.491	33.92
903.923	25.42
904.355	22.72
904.787	28.92
905.218	25.82
905.65	26.52
906.082	9.82
906.513	16.92
906.945	21.22
907.376	17.72
907.808	22.72
908.239	23.02
908.671	19.62
909.102	24.92
909.534	26.62
909.965	51.62
910.397	93.42
910.828	330.72
911.259	484.82
911.691	227.12
912.122	113.52
912.553	54.12
912.984	35.72
913.415	27.62
913.847	32.22
914.278	18.92
914.709	15.82
915.14	17.52
915.571	16.92
916.002	19.92
916.433	20.72
916.864	18.92
917.295	16.62
917.726	24.52
918.157	22.22
918.587	31.02
919.018	23.82
919.449	20.02
919.88	29.12
920.311	36.52
920.741	51.12
921.172	180.12
921.603	150.62
922.033	73.92
922.464	46.62
922.895	28.52
923.325	23.92
923.756	19.52
924.186	22.02
924.617	21.22
925.047	27.72
925.478	32.12
925.908	27.52
926.338	22.22
926.769	18.42
927.199	18.62
927.629	8.62
928.06	15.72
928.49	12.42
928.92	14.92
929.35	13.72
929.78	12.12
930.21	12.42
930.641	15.52
931.071	12.02
931.501	7.52
931.931	9.62
932.361	16.82
932.791	4.12
933.221	6.92
933.651	10.22
934.08	22.42
934.51	33.92
934.94	17.42
935.37	10.62
935.8	12.52
936.229	3.32
936.659	8.12
937.089	4.32
937.519	15.02
937.948	24.72
938.378	19.52
938.807	8.92
939.237	5.82
939.666	10.72
940.096	-0.78
940.525	1.52
940.955	-2.78
941.384	3.02
941.814	0.42
942.243	-2.18
942.672	1.92
943.102	8.72
943.531	2.02
943.96	5.92
944.39	2.42
944.819	2.32
945.248	3.62
945.677	1.12
946.106	12.72
946.535	14.32
946.964	3.72
947.393	5.42
947.822	1.32
948.251	-6.18
948.68	6.42
949.109	3.12
949.538	5.22
949.967	1.82
950.396	0.42
950.825	-0.58
951.254	-0.28
951.682	-4.68
952.111	4.02
952.54	8.82
952.969	-2.58
953.397	1.42
953.826	4.42
954.254	-3.18
954.683	3.62
955.112	-1.18
955.54	3.82
955.969	1.32
956.397	-0.68
956.826	1.32
957.254	2.22
957.682	0.12
958.111	2.42
958.539	6.22
958.967	0.82
959.396	3.22
959.824	-2.58
960.252	8.12
960.68	1.52
961.109	-0.28
961.537	-3.88
961.965	2.12
962.393	5.22
962.821	0.72
963.249	6.82
963.677	6.02
964.105	5.52
964.533	48.02
964.961	43.02
965.389	23.02
965.817	8.92
966.245	-2.08
966.672	4.32
967.1	-9.88
967.528	5.62
967.956	-3.98
968.383	6.72
968.811	-1.08
969.239	3.92
969.666	0.42
970.094	0.22
970.522	1.02
970.949	-1.48
971.377	2.62
971.804	2.22
972.232	5.72
972.659	-6.88
973.087	4.62
973.514	-0.88
973.941	-2.38
974.369	1.02
974.796	1.02
975.223	3.42
975.651	-2.88
976.078	1.72
976.505	0.72
976.932	7.22
977.359	20.02
977.786	22.12
978.214	-2.48
978.641	0.72
979.068	-4.78
979.495	-6.08
979.922	0.42
980.349	-2.58
980.776	7.82
981.202	0.32
981.629	4.72
982.056	3.32
982.483	-4.38
982.91	3.32
983.337	-8.38
983.763	5.92
984.19	-2.48
984.617	-0.98
985.043	-5.08
985.47	0.02
985.897	0.72
986.323	-3.78
986.75	3.52
987.176	-0.78
987.603	2.62
988.029	-1.78
988.456	0.82
988.882	2.82
989.308	-3.88
989.735	-3.28
990.161	2.02
990.587	0.92
991.014	0.12
991.44	8.02
991.866	1.62
992.292	-6.08
992.719	-3.28
993.145	13.92
993.571	-1.08
993.997	-1.08
994.423	-1.08
994.849	-3.88
995.275	2.52
995.701	-4.38
996.127	-3.18
996.553	-0.68
996.979	-1.88
997.405	-5.48
997.83	-0.58
998.256	-3.48
998.682	-4.08
999.108	-5.48
999.534	1.02
999.959	-3.38
1000.385	-0.18
1000.811	3.42
1001.236	-6.88
1001.662	-6.28
1002.087	-5.68
1002.513	-3.98
1002.938	1.22
1003.364	-4.08
1003.789	6.92
1004.215	7.22
1004.64	-2.28
1005.066	-0.88
1005.491	-5.98
1005.916	-2.48
1006.342	-3.18
1006.767	-5.78
1007.192	7.22
1007.617	-5.28
1008.042	-5.68
1008.468	-3.68
1008.893	-4.08
1009.318	-2.08
1009.743	-3.68
1010.168	4.52
1010.593	1.42
1011.018	-6.48
1011.443	1.72
1011.868	-1.78
1012.293	-2.98
1012.718	-3.68
1013.143	2.52
1013.567	3.92
1013.992	-0.88
1014.417	-17.68
1014.842	3.32
1015.267	-6.28
1015.691	-0.88
1016.116	7.92
1016.541	0.02
1016.965	-2.88
1017.39	4.12
1017.814	-1.78
1018.239	-1.38
1018.663	-4.98
1019.088	-7.98
1019.512	-10.68
1019.937	0.32
1020.361	-6.78
1020.785	-11.58
1021.21	0.22
1021.634	1.72
1022.058	1.42
1022.483	-1.08
1022.907	-5.78
1023.331	-6.88
1023.755	-0.88
1024.179	-4.58
1024.604	-2.08
1025.028	-9.18
1025.452	-1.08
1025.876	0.62
1026.3	-0.68
1026.724	-4.38
1027.148	0.02
1027.572	-4.58
1027.996	-2.08
1028.42	-0.38
1028.843	-5.58
1029.267	-6.28
1029.691	-5.88
1030.115	-4.28
1030.539	-8.28
1030.962	-6.98
1031.386	-8.48
1031.81	-0.48
1032.233	3.12
1032.657	-0.98
1033.08	-2.58
1033.504	-4.88
1033.927	-0.28
1034.351	1.52
1034.774	-4.68
1035.198	0.02
1035.621	-5.48
1036.045	-4.78
1036.468	1.62
1036.891	-10.28
1037.315	-9.68
1037.738	-11.68
1038.161	2.02
1038.584	-6.38
1039.008	-5.68
1039.431	-2.38
1039.854	3.12
1040.277	-6.18
1040.7	-10.28
1041.123	0.12
1041.546	-6.38
1041.969	-4.58
1042.392	-3.48
1042.815	0.52
1043.238	-0.98
1043.661	2.52
1044.084	-9.68
1044.507	-6.48
1044.93	-8.58
1045.352	-5.78
1045.775	0.32
1046.198	-1.18
1046.621	3.92
1047.043	5.32
1047.466	7.52
1047.889	2.62
1048.311	-4.88
1048.734	-0.68
1049.156	0.02
1049.579	-5.28
1050.001	-7.18
1050.424	-1.68
1050.846	-3.48
1051.269	-2.78
1051.691	-6.98
1052.113	-3.08
1052.536	0.02
1052.958	-8.08
1053.38	-0.28
1053.802	-8.88
1054.225	3.42
1054.647	-8.38
1055.069	-0.18
1055.491	0.82
1055.913	-8.38
1056.335	-2.38
1056.757	-2.28
1057.179	-8.38
1057.601	-6.08
1058.023	-4.28
1058.445	-2.58
1058.867	-0.98
1059.289	-8.08
1059.711	-5.68
1060.133	-4.18
1060.555	-2.88
1060.976	-2.28
1061.398	-3.78
1061.82	-5.68
1062.241	-2.78
1062.663	-2.98
1063.085	-0.58
1063.506	-0.58
1063.928	-2.38
1064.35	-3.38
1064.771	-9.28
1065.193	-3.18
1065.614	-7.58
1066.035	-4.88
1066.457	-0.68
1066.878	-1.68
1067.3	-4.78
1067.721	-2.68
1068.142	-6.18
1068.564	-4.48
1068.985	1.52
1069.406	-3.88
1069.827	-6.38
1070.248	-0.58
1070.67	-10.08
1071.091	-6.88
1071.512	-0.08
1071.933	-1.48
1072.354	-3.38
1072.775	-3.28
1073.196	-3.58
1073.617	-3.38
1074.038	-4.98
1074.459	0.72
1074.88	-2.88
1075.3	-4.18
1075.721	-7.58
1076.142	2.52
1076.563	2.82
1076.983	-11.18
1077.404	-13.58
1077.825	-3.08
1078.246	-2.38
1078.666	-7.18
1079.087	0.12
1079.507	-0.88
1079.928	0.32
1080.348	0.32
1080.769	-6.68
1081.189	-0.08
1081.61	-2.78
1082.03	-6.48
1082.451	-9.68
1082.871	1.32
1083.291	-5.08
1083.711	-4.38
1084.132	1.32
1084.552	-4.58
1084.972	1.02
1085.392	-7.78
1085.813	-6.68
1086.233	-12.68
1086.653	-2.98
1087.073	-3.08
1087.493	-12.38
1087.913	-2.08
1088.333	-2.68
1088.753	-1.68
1089.173	3.42
1089.593	2.12
1090.013	2.02
1090.433	1.42
1090.852	-10.88
1091.272	3.82
1091.692	-5.38
1092.112	0.92
1092.531	-6.68
1092.951	-11.78
1093.371	-1.28
1093.79	5.32
1094.21	-6.58
1094.63	-5.18
1095.049	-6.08
1095.469	-0.08
1095.888	-4.18
1096.308	-0.78
1096.727	5.12
1097.146	-7.48
1097.566	1.32
1097.985	-7.28
1098.405	1.32
1098.824	-6.08
1099.243	1.72
1099.662	-8.88
1100.082	-2.68
1100.501	1.62
1100.92	-5.58
1101.339	0.02
1101.758	-7.18
