Data from 20171114-ORNL-Ar_H_NY_Subt18_08-04-16-803.txt Node
Date: Tue Nov 14 08:04:16 EST 2017
User: Ender
Spectrometer: HR+D1039
Trigger mode: 0
Integration Time (sec): 2.730000E-2
Scans to average: 10
Electric dark correction enabled: true
Nonlinearity correction enabled: false
Boxcar width: 0
XAxis mode: Wavelengths
Number of Pixels in Spectrum: 2048
>>>>>Begin Spectral Data<<<<<
187.836	-4.63
188.309	-4.63
188.782	-4.63
189.255	4.47
189.728	-3.73
190.201	5.97
190.674	-0.13
191.147	4.67
191.619	-3.53
192.092	-3.13
192.565	4.67
193.038	-8.73
193.511	-1.03
193.984	1.67
194.456	0.47
194.929	4.77
195.402	-2.53
195.874	0.77
196.347	-3.33
196.82	-10.63
197.292	5.87
197.765	-3.73
198.237	-9.23
198.71	0.87
199.182	3.07
199.655	3.97
200.127	1.77
200.6	-7.43
201.072	-3.83
201.544	-2.73
202.017	-1.73
202.489	5.77
202.961	2.37
203.433	-1.33
203.906	-3.63
204.378	-2.13
204.85	2.27
205.322	-7.53
205.794	-2.03
206.266	-3.43
206.739	-4.43
207.211	6.27
207.683	-8.63
208.155	0.37
208.627	-0.73
209.099	-6.13
209.57	-11.03
210.042	-6.23
210.514	-2.73
210.986	-0.83
211.458	-3.53
211.93	-1.13
212.402	1.97
212.873	-0.93
213.345	-4.03
213.817	-14.23
214.288	-1.93
214.76	-8.13
215.232	-1.63
215.703	-0.53
216.175	-3.43
216.646	-0.93
217.118	-10.63
217.589	0.67
218.061	2.67
218.532	-3.43
219.004	-0.83
219.475	-4.23
219.946	-1.43
220.418	-5.83
220.889	7.17
221.36	1.67
221.832	-6.13
222.303	-4.03
222.774	5.37
223.245	-2.53
223.717	-1.83
224.188	-2.13
224.659	-5.63
225.13	0.67
225.601	5.87
226.072	0.17
226.543	-5.43
227.014	3.17
227.485	-6.13
227.956	-0.03
228.427	-3.23
228.898	2.67
229.369	7.67
229.839	-4.83
230.31	-5.03
230.781	5.57
231.252	1.47
231.722	-1.03
232.193	-1.03
232.664	8.07
233.135	1.17
233.605	-1.13
234.076	-4.73
234.546	4.87
235.017	6.17
235.487	2.97
235.958	-0.93
236.428	-3.03
236.899	7.27
237.369	1.57
237.84	4.37
238.31	8.47
238.78	3.97
239.251	-5.73
239.721	4.17
240.191	-3.53
240.662	4.47
241.132	-3.73
241.602	-3.93
242.072	3.67
242.542	1.87
243.013	0.87
243.483	1.97
243.953	5.07
244.423	1.37
244.893	-1.33
245.363	1.27
245.833	1.47
246.303	3.47
246.773	6.87
247.243	6.37
247.712	3.47
248.182	9.97
248.652	7.17
249.122	2.47
249.592	15.37
250.061	21.47
250.531	39.77
251.001	19.47
251.471	31.37
251.94	24.87
252.41	4.57
252.879	1.67
253.349	14.87
253.818	13.47
254.288	10.17
254.757	6.47
255.227	-0.13
255.696	6.37
256.166	8.37
256.635	10.57
257.105	5.17
257.574	12.37
258.043	10.97
258.513	16.27
258.982	16.97
259.451	9.97
259.92	14.87
260.389	9.47
260.859	20.27
261.328	13.07
261.797	15.47
262.266	13.07
262.735	8.57
263.204	2.87
263.673	1.47
264.142	8.67
264.611	-5.03
265.08	2.17
265.549	1.97
266.018	8.07
266.487	2.27
266.955	2.27
267.424	3.87
267.893	6.57
268.362	0.37
268.83	-3.33
269.299	9.77
269.768	6.67
270.236	4.87
270.705	2.37
271.174	4.87
271.642	9.37
272.111	7.17
272.579	16.77
273.048	23.27
273.516	31.47
273.985	27.77
274.453	24.07
274.922	19.87
275.39	12.07
275.858	3.77
276.327	12.27
276.795	19.07
277.263	10.57
277.731	26.97
278.2	47.77
278.668	67.57
279.136	47.97
279.604	18.97
280.072	14.17
280.54	8.57
281.008	15.67
281.477	17.47
281.945	15.47
282.413	15.77
282.881	12.87
283.348	3.77
283.816	12.97
284.284	15.17
284.752	15.57
285.22	15.87
285.688	19.37
286.156	21.87
286.623	39.57
287.091	48.57
287.559	23.57
288.026	19.07
288.494	11.07
288.962	4.07
289.429	12.47
289.897	20.07
290.364	9.57
290.832	12.97
291.3	17.37
291.767	15.07
292.234	20.07
292.702	9.27
293.169	18.57
293.637	27.87
294.104	27.07
294.571	9.67
295.039	10.57
295.506	16.77
295.973	17.87
296.44	22.97
296.908	16.37
297.375	19.17
297.842	14.57
298.309	15.67
298.776	14.77
299.243	18.57
299.71	14.27
300.177	14.17
300.644	20.37
301.111	16.77
301.578	21.17
302.045	22.97
302.512	20.67
302.979	24.47
303.446	21.57
303.913	17.37
304.379	21.47
304.846	28.57
305.313	22.77
305.78	22.97
306.246	25.77
306.713	27.47
307.18	22.37
307.646	22.37
308.113	27.37
308.579	23.57
309.046	23.97
309.512	24.17
309.979	17.87
310.445	28.37
310.912	28.87
311.378	34.07
311.845	31.27
312.311	28.37
312.777	28.97
313.244	32.97
313.71	32.17
314.176	27.77
314.642	31.17
315.109	31.57
315.575	28.27
316.041	41.27
316.507	28.67
316.973	36.37
317.439	34.17
317.905	38.67
318.371	30.07
318.837	33.27
319.303	24.27
319.769	34.67
320.235	28.17
320.701	25.87
321.167	39.27
321.633	26.97
322.099	37.07
322.564	47.47
323.03	38.37
323.496	30.57
323.962	35.67
324.427	35.77
324.893	40.67
325.359	30.57
325.824	36.67
326.29	29.87
326.755	35.47
327.221	36.57
327.686	41.67
328.152	37.27
328.617	38.37
329.083	44.87
329.548	42.57
330.014	48.97
330.479	35.27
330.944	40.77
331.41	39.97
331.875	40.27
332.34	38.37
332.805	38.57
333.271	46.47
333.736	41.47
334.201	53.37
334.666	51.97
335.131	51.87
335.596	48.27
336.061	47.07
336.526	31.37
336.991	47.77
337.456	53.67
337.921	47.57
338.386	37.77
338.851	46.97
339.316	39.87
339.781	47.77
340.246	46.07
340.711	47.77
341.175	52.37
341.64	40.17
342.105	49.77
342.569	54.17
343.034	55.57
343.499	51.97
343.963	50.07
344.428	59.27
344.893	55.27
345.357	50.57
345.822	55.07
346.286	62.47
346.751	63.27
347.215	59.47
347.679	70.77
348.144	79.77
348.608	76.07
349.073	62.97
349.537	66.77
350.001	74.47
350.465	78.27
350.93	68.77
351.394	71.77
351.858	68.27
352.322	71.57
352.786	73.67
353.25	90.57
353.715	92.97
354.179	85.77
354.643	100.67
355.107	106.67
355.571	98.37
356.035	87.17
356.498	102.27
356.962	106.47
357.426	112.67
357.89	97.97
358.354	80.27
358.818	74.57
359.281	69.07
359.745	67.57
360.209	69.77
360.673	69.67
361.136	77.87
361.6	78.37
362.064	76.57
362.527	78.17
362.991	81.07
363.454	70.27
363.918	63.67
364.381	63.87
364.845	65.77
365.308	75.07
365.772	75.67
366.235	74.67
366.698	80.57
367.162	78.77
367.625	81.97
368.088	79.27
368.552	82.27
369.015	77.97
369.478	90.37
369.941	97.77
370.404	81.27
370.867	95.07
371.331	98.37
371.794	101.57
372.257	105.17
372.72	109.07
373.183	100.37
373.646	91.67
374.109	95.17
374.572	96.77
375.035	96.67
375.497	100.77
375.96	95.57
376.423	91.57
376.886	99.27
377.349	98.67
377.811	86.47
378.274	98.07
378.737	98.27
379.199	105.77
379.662	104.67
380.125	106.17
380.587	104.87
381.05	109.87
381.512	115.17
381.975	124.67
382.437	118.67
382.9	117.57
383.362	116.17
383.825	124.17
384.287	130.67
384.75	127.27
385.212	120.17
385.674	124.47
386.136	125.67
386.599	113.17
387.061	115.77
387.523	111.87
387.985	126.27
388.447	126.77
388.91	128.47
389.372	142.17
389.834	139.97
390.296	128.87
390.758	135.67
391.22	149.57
391.682	182.07
392.144	259.07
392.606	205.07
393.068	149.87
393.529	149.67
393.991	137.97
394.453	130.17
394.915	136.47
395.377	176.77
395.838	193.77
396.3	139.87
396.762	129.67
397.224	126.67
397.685	117.47
398.147	122.07
398.608	119.77
399.07	111.27
399.531	118.57
399.993	128.77
400.454	139.07
400.916	128.57
401.377	131.57
401.839	131.07
402.3	137.27
402.762	146.77
403.223	158.27
403.684	157.37
404.145	153.17
404.607	144.07
405.068	147.47
405.529	149.27
405.99	168.47
406.451	154.57
406.913	153.87
407.374	142.07
407.835	146.07
408.296	147.97
408.757	153.47
409.218	162.57
409.679	159.97
410.14	158.27
410.601	161.57
411.062	159.77
411.522	166.77
411.983	169.77
412.444	151.97
412.905	159.97
413.366	165.37
413.826	176.47
414.287	189.07
414.748	234.77
415.208	223.17
415.669	192.57
416.13	184.17
416.59	185.07
417.051	196.17
417.511	194.97
417.972	216.47
418.432	225.67
418.893	260.27
419.353	229.37
419.814	177.17
420.274	164.97
420.734	159.17
421.195	176.57
421.655	170.17
422.115	174.67
422.576	169.77
423.036	172.57
423.496	185.17
423.956	191.97
424.416	203.47
424.876	236.07
425.336	232.07
425.797	237.47
426.257	233.37
426.717	213.57
427.177	210.87
427.637	199.87
428.097	214.37
428.556	217.77
429.016	244.17
429.476	236.27
429.936	238.87
430.396	246.17
430.856	264.67
431.315	282.77
431.775	305.77
432.235	325.77
432.694	304.97
433.154	317.97
433.614	335.57
434.073	293.17
434.533	249.57
434.993	233.17
435.452	255.27
435.912	253.37
436.371	243.27
436.83	241.07
437.29	236.07
437.749	221.07
438.209	220.27
438.668	232.57
439.127	252.97
439.587	230.67
440.046	213.47
440.505	226.37
440.964	238.77
441.424	280.17
441.883	265.97
442.342	226.57
442.801	199.77
443.26	192.37
443.719	201.27
444.178	196.67
444.637	184.37
445.096	189.17
445.555	201.87
446.014	200.67
446.473	197.27
446.932	208.47
447.391	201.97
447.849	204.57
448.308	198.97
448.767	197.67
449.226	213.87
449.685	213.07
450.143	218.87
450.602	213.57
451.061	198.07
451.519	203.47
451.978	210.47
452.436	202.07
452.895	212.37
453.353	227.47
453.812	213.37
454.27	211.37
454.729	214.37
455.187	213.37
455.646	214.97
456.104	221.67
456.562	227.97
457.021	232.07
457.479	222.97
457.937	232.17
458.395	235.47
458.854	215.07
459.312	221.87
459.77	239.67
460.228	225.07
460.686	208.97
461.144	219.27
461.602	223.07
462.06	215.47
462.518	224.57
462.976	226.67
463.434	234.47
463.892	238.97
464.35	243.97
464.808	253.37
465.266	234.37
465.724	239.27
466.181	240.87
466.639	242.07
467.097	253.07
467.555	262.77
468.012	272.57
468.47	276.17
468.928	287.67
469.385	301.87
469.843	309.97
470.3	308.17
470.758	321.47
471.215	334.07
471.673	354.77
472.13	353.07
472.588	364.27
473.045	327.77
473.503	342.27
473.96	348.97
474.417	354.47
474.875	381.57
475.332	417.37
475.789	404.67
476.246	409.67
476.704	431.07
477.161	447.47
477.618	458.67
478.075	496.37
478.532	537.77
478.989	597.07
479.446	693.57
479.903	669.97
480.36	719.37
480.817	761.47
481.274	862.87
481.731	955.67
482.188	1042.77
482.645	1170.77
483.102	1247.77
483.558	1384.67
484.015	1439.77
484.472	1423.17
484.929	1365.87
485.385	1333.37
485.842	1289.37
486.299	1226.17
486.755	1158.67
487.212	973.87
487.668	825.57
488.125	763.17
488.582	694.47
489.038	671.37
489.494	642.07
489.951	610.57
490.407	603.67
490.864	586.47
491.32	574.47
491.776	564.37
492.233	570.37
492.689	548.77
493.145	544.77
493.602	535.57
494.058	553.37
494.514	556.07
494.97	560.27
495.426	568.27
495.882	553.27
496.338	546.47
496.794	559.67
497.251	554.57
497.707	567.37
498.163	560.87
498.618	570.37
499.074	582.17
499.53	596.07
499.986	600.77
500.442	578.07
500.898	563.07
501.354	556.87
501.809	572.57
502.265	573.57
502.721	596.97
503.177	600.97
503.632	587.77
504.088	606.07
504.543	627.57
504.999	628.47
505.455	581.87
505.91	570.47
506.366	567.77
506.821	562.77
507.277	561.17
507.732	560.07
508.187	549.27
508.643	564.67
509.098	557.67
509.553	579.37
510.009	591.17
510.464	595.27
510.919	614.97
511.375	616.97
511.83	624.57
512.285	642.37
512.74	677.47
513.195	686.37
513.65	682.57
514.105	691.17
514.56	684.47
515.015	708.67
515.47	723.97
515.925	702.57
516.38	704.47
516.835	706.17
517.29	706.87
517.745	692.97
518.2	680.97
518.655	668.47
519.109	658.27
519.564	650.67
520.019	647.57
520.474	647.47
520.928	650.67
521.383	640.07
521.838	626.47
522.292	634.87
522.747	622.37
523.201	627.07
523.656	615.17
524.11	604.27
524.565	614.27
525.019	602.47
525.474	622.77
525.928	623.87
526.382	619.37
526.837	625.97
527.291	618.67
527.745	611.57
528.2	617.57
528.654	608.27
529.108	609.47
529.562	609.87
530.016	594.87
530.47	615.37
530.925	611.57
531.379	613.57
531.833	627.37
532.287	617.17
532.741	625.37
533.195	623.87
533.649	632.37
534.103	642.27
534.556	626.67
535.01	630.47
535.464	630.87
535.918	633.87
536.372	636.37
536.826	639.07
537.279	616.77
537.733	628.37
538.187	628.07
538.64	631.27
539.094	636.67
539.548	646.77
540.001	639.97
540.455	638.57
540.908	644.57
541.362	637.97
541.815	656.37
542.269	666.07
542.722	659.27
543.175	678.57
543.629	671.37
544.082	684.47
544.536	696.17
544.989	680.47
545.442	694.27
545.895	699.87
546.349	692.77
546.802	684.27
547.255	698.17
547.708	704.77
548.161	708.47
548.614	720.07
549.067	718.07
549.52	719.17
549.973	707.27
550.426	700.87
550.879	690.17
551.332	698.47
551.785	703.07
552.238	700.57
552.691	707.97
553.144	723.07
553.596	737.57
554.049	743.67
554.502	781.97
554.955	788.77
555.407	787.07
555.86	790.67
556.313	784.67
556.765	773.27
557.218	768.77
557.67	763.47
558.123	756.87
558.576	752.07
559.028	758.87
559.48	765.97
559.933	753.37
560.385	731.67
560.838	703.07
561.29	675.77
561.742	670.67
562.195	657.87
562.647	651.17
563.099	669.97
563.551	660.17
564.004	684.57
564.456	660.57
564.908	652.87
565.36	645.97
565.812	636.87
566.264	616.67
566.716	631.27
567.168	622.87
567.62	627.47
568.072	602.87
568.524	601.77
568.976	582.37
569.428	578.67
569.88	566.67
570.332	585.67
570.784	581.87
571.235	585.57
571.687	595.97
572.139	606.37
572.59	610.77
573.042	606.07
573.494	606.47
573.945	600.17
574.397	589.17
574.849	593.17
575.3	588.97
575.752	581.47
576.203	579.87
576.655	586.17
577.106	575.37
577.557	560.67
578.009	568.17
578.46	574.67
578.912	562.67
579.363	560.37
579.814	561.17
580.265	564.27
580.717	571.77
581.168	574.67
581.619	579.87
582.07	593.37
582.521	571.87
582.972	562.47
583.423	579.47
583.875	581.37
584.326	595.27
584.777	625.07
585.227	699.37
585.678	784.37
586.129	852.77
586.58	921.67
587.031	991.07
587.482	1132.47
587.933	1314.67
588.384	1142.37
588.834	842.47
589.285	680.87
589.736	662.07
590.186	660.87
590.637	650.27
591.088	634.07
591.538	627.17
591.989	616.67
592.439	619.47
592.89	607.37
593.34	586.37
593.791	602.07
594.241	594.77
594.692	591.57
595.142	584.47
595.593	586.87
596.043	602.37
596.493	606.07
596.943	597.17
597.394	604.97
597.844	596.77
598.294	603.97
598.744	624.57
599.195	642.67
599.645	688.27
600.095	714.97
600.545	749.97
600.995	808.37
601.445	858.17
601.895	908.17
602.345	953.57
602.795	933.87
603.245	892.07
603.695	858.57
604.145	805.87
604.594	764.77
605.044	716.87
605.494	669.47
605.944	631.57
606.393	623.07
606.843	601.47
607.293	606.27
607.743	608.67
608.192	622.27
608.642	628.47
609.091	640.27
609.541	636.97
609.99	629.67
610.44	630.17
610.889	597.27
611.339	585.87
611.788	565.27
612.238	583.37
612.687	588.37
613.136	600.37
613.586	617.07
614.035	607.77
614.484	628.07
614.933	624.97
615.383	609.57
615.832	606.87
616.281	600.37
616.73	573.67
617.179	555.57
617.628	529.07
618.077	527.07
618.526	518.37
618.975	516.07
619.424	506.57
619.873	502.87
620.322	512.77
620.771	496.27
621.22	498.27
621.669	483.77
622.118	476.27
622.567	477.87
623.015	465.67
623.464	473.07
623.913	469.27
624.361	465.87
624.81	456.27
625.259	451.67
625.707	460.67
626.156	456.27
626.604	471.77
627.053	453.87
627.501	466.47
627.95	466.87
628.398	481.67
628.847	466.77
629.295	458.97
629.744	470.17
630.192	468.17
630.64	463.57
631.089	457.97
631.537	468.17
631.985	468.87
632.433	492.87
632.881	490.67
633.33	547.07
633.778	522.67
634.226	454.07
634.674	458.57
635.122	465.47
635.57	488.57
636.018	505.57
636.466	471.37
636.914	455.97
637.362	463.37
637.81	472.97
638.258	471.67
638.705	461.67
639.153	491.47
639.601	500.17
640.049	516.77
640.497	544.17
640.944	560.77
641.392	519.07
641.84	495.97
642.287	471.37
642.735	457.27
643.182	461.27
643.63	471.87
644.078	458.07
644.525	472.37
644.973	483.27
645.42	482.87
645.867	504.27
646.315	515.97
646.762	533.77
647.21	545.07
647.657	575.57
648.104	607.47
648.551	630.57
648.999	667.87
649.446	736.57
649.893	811.77
650.34	930.67
650.787	1107.87
651.234	1368.17
651.682	1780.77
652.129	2410.17
652.576	3487.57
653.023	5188.27
653.47	7213.77
653.917	9083.07
654.363	10684.47
654.81	12090.07
655.257	11480.37
655.704	7424.37
656.151	4355.57
656.598	2798.47
657.044	1973.57
657.491	1513.87
657.938	1204.07
658.385	1007.57
658.831	882.77
659.278	785.77
659.724	680.37
660.171	634.07
660.618	582.47
661.064	549.37
661.511	524.87
661.957	522.17
662.404	495.87
662.85	505.37
663.296	490.17
663.743	447.07
664.189	426.77
664.635	432.97
665.082	424.87
665.528	418.67
665.974	409.87
666.42	409.67
666.867	405.97
667.313	390.07
667.759	377.97
668.205	383.97
668.651	397.87
669.097	396.97
669.543	408.37
669.989	383.17
670.435	360.17
670.881	356.77
671.327	363.07
671.773	371.97
672.219	390.47
672.665	435.37
673.11	459.57
673.556	509.17
674.002	543.77
674.448	530.27
674.893	440.47
675.339	379.57
675.785	348.77
676.23	341.27
676.676	311.07
677.122	302.57
677.567	291.87
678.013	297.57
678.458	279.27
678.904	287.67
679.349	272.77
679.794	282.77
680.24	276.47
680.685	266.17
681.131	283.37
681.576	280.77
682.021	282.77
682.466	280.27
682.912	274.67
683.357	269.87
683.802	308.77
684.247	323.97
684.692	352.77
685.137	391.07
685.583	427.77
686.028	451.37
686.473	420.57
686.918	356.67
687.363	326.27
687.807	314.97
688.252	291.97
688.697	280.97
689.142	266.27
689.587	267.57
690.032	252.97
690.477	271.17
690.921	276.97
691.366	290.77
691.811	309.87
692.255	343.27
692.7	370.47
693.145	396.17
693.589	537.17
694.034	861.07
694.478	1211.87
694.923	1409.27
695.367	1862.17
695.812	969.77
696.256	397.07
696.701	296.47
697.145	269.67
697.59	260.27
698.034	251.17
698.478	255.77
698.922	257.97
699.367	259.07
699.811	272.77
700.255	281.07
700.699	302.67
701.143	335.77
701.588	372.07
702.032	409.07
702.476	415.17
702.92	388.57
703.364	388.87
703.808	490.27
704.252	791.57
704.696	1141.47
705.14	1350.67
705.584	1743.07
706.027	860.17
706.471	426.77
706.915	309.47
707.359	275.37
707.803	253.47
708.246	241.87
708.69	245.47
709.134	252.27
709.577	248.37
710.021	256.67
710.465	240.67
710.908	233.57
711.352	234.37
711.795	244.07
712.239	267.97
712.682	291.87
713.126	326.57
713.569	370.67
714.012	293.37
714.456	266.37
714.899	234.07
715.342	215.97
715.786	206.27
716.229	201.97
716.672	198.17
717.115	189.67
717.558	200.97
718.002	195.07
718.445	204.47
718.888	221.87
719.331	227.37
719.774	251.77
720.217	240.27
720.66	229.87
721.103	210.57
721.546	197.97
721.989	193.97
722.432	182.97
722.874	187.67
723.317	182.17
723.76	190.47
724.203	203.27
724.645	239.77
725.088	343.57
725.531	446.27
725.974	511.67
726.416	441.67
726.859	243.77
727.301	201.37
727.744	194.47
728.187	178.67
728.629	186.17
729.071	197.07
729.514	211.97
729.956	213.27
730.399	220.97
730.841	225.17
731.283	214.37
731.726	212.77
732.168	201.57
732.61	198.07
733.053	212.57
733.495	238.07
733.937	276.07
734.379	302.37
734.821	329.87
735.263	424.97
735.705	635.27
736.148	1199.27
736.59	2019.77
737.032	2502.47
737.474	2048.67
737.916	647.47
738.357	335.67
738.799	255.97
739.241	231.87
739.683	219.47
740.125	230.17
740.567	225.97
741.008	244.37
741.45	256.77
741.892	249.17
742.334	275.87
742.775	291.67
743.217	274.57
743.658	209.47
744.1	191.57
744.542	208.37
744.983	244.37
745.425	279.17
745.866	281.57
746.307	221.67
746.749	222.17
747.19	256.07
747.632	342.37
748.073	664.87
748.514	1431.67
748.956	2258.77
749.397	2837.67
749.838	2358.57
750.279	2432.67
750.72	1213.47
751.162	431.97
751.603	245.97
752.044	202.77
752.485	173.47
752.926	167.97
753.367	161.87
753.808	144.87
754.249	148.57
754.69	145.97
755.131	141.37
755.572	137.77
756.013	135.07
756.453	139.77
756.894	144.17
757.335	137.97
757.776	150.57
758.216	153.27
758.657	157.57
759.098	158.87
759.538	170.17
759.979	203.37
760.42	281.47
760.86	535.47
761.301	1378.57
761.741	3441.67
762.182	5351.97
762.622	3776.97
763.063	1068.47
763.503	425.17
763.943	275.07
764.384	266.97
764.824	329.37
765.264	365.77
765.705	255.17
766.145	163.87
766.585	148.97
767.025	141.27
767.465	145.27
767.906	199.67
768.346	262.47
768.786	279.77
769.226	205.57
769.666	241.77
770.106	471.07
770.546	1176.17
770.986	2143.87
771.426	1955.27
771.866	647.97
772.306	259.27
772.745	168.17
773.185	132.77
773.625	138.67
774.065	129.97
774.505	160.67
774.944	239.57
775.384	523.17
775.824	1000.67
776.263	989.07
776.703	414.87
777.142	177.67
777.582	132.27
778.021	105.27
778.461	110.47
778.9	111.67
779.34	109.17
779.779	92.37
780.219	86.87
780.658	85.17
781.097	85.87
781.537	87.37
781.976	87.87
782.415	86.37
782.855	88.37
783.294	80.07
783.733	82.27
784.172	84.07
784.611	76.07
785.05	81.67
785.489	85.07
785.928	94.77
786.367	93.97
786.806	93.57
787.245	100.57
787.684	112.47
788.123	113.97
788.562	111.97
789.001	97.97
789.44	92.57
789.879	90.37
790.317	87.57
790.756	103.17
791.195	101.67
791.634	111.97
792.072	158.17
792.511	266.37
792.95	758.57
793.388	1733.27
793.827	1614.07
794.265	551.37
794.704	215.57
795.142	150.47
795.581	123.67
796.019	109.57
796.458	93.27
796.896	102.17
797.334	96.57
797.773	114.17
798.211	168.57
798.649	330.57
799.087	786.07
799.526	1255.17
799.964	1610.37
800.402	1667.47
800.84	602.37
801.278	237.47
801.716	151.57
802.154	121.27
802.592	113.37
803.03	108.27
803.468	105.77
803.906	114.77
804.344	119.27
804.782	114.77
805.22	111.07
805.658	100.57
806.096	117.37
806.533	121.27
806.971	134.77
807.409	168.87
807.847	240.17
808.284	502.47
808.722	1444.67
809.16	2665.97
809.597	2467.27
810.035	4345.27
810.472	4934.37
810.91	1736.27
811.347	640.97
811.785	319.67
812.222	207.37
812.66	151.67
813.097	132.97
813.535	114.77
813.972	102.97
814.409	97.37
814.846	85.07
815.284	91.37
815.721	78.07
816.158	92.07
816.595	100.77
817.032	137.77
817.47	158.87
817.907	140.87
818.344	124.97
818.781	100.27
819.218	79.27
819.655	100.47
820.092	147.97
820.529	183.97
820.966	143.47
821.403	115.17
821.839	96.77
822.276	79.27
822.713	94.97
823.15	107.17
823.587	91.57
824.023	111.17
824.46	219.87
824.897	693.57
825.333	1107.97
825.77	471.07
826.206	184.97
826.643	102.37
827.08	83.17
827.516	69.47
827.953	66.47
828.389	63.37
828.825	55.97
829.262	50.47
829.698	46.37
830.135	50.27
830.571	52.47
831.007	49.37
831.443	46.67
831.88	43.87
832.316	49.67
832.752	56.07
833.188	50.27
833.624	46.97
834.06	50.67
834.497	60.97
834.933	61.07
835.369	64.37
835.805	54.37
836.241	59.17
836.677	62.87
837.112	70.67
837.548	72.67
837.984	105.27
838.42	157.17
838.856	374.77
839.292	1193.97
839.727	1917.27
840.163	876.37
840.599	714.57
841.034	1632.37
841.47	1788.87
841.906	643.57
842.341	268.97
842.777	186.37
843.212	253.47
843.648	261.37
844.083	122.87
844.519	82.97
844.954	62.77
845.39	48.77
845.825	45.37
846.261	37.77
846.696	44.47
847.131	44.47
847.566	49.07
848.002	42.07
848.437	45.27
848.872	45.77
849.307	55.27
849.742	62.07
850.177	138.57
850.613	435.97
851.048	720.97
851.483	302.87
851.918	116.67
852.353	65.87
852.788	45.67
853.223	45.47
853.657	39.57
854.092	40.57
854.527	27.47
854.962	29.77
855.397	34.97
855.832	42.97
856.266	36.57
856.701	35.17
857.136	27.07
857.57	31.37
858.005	40.57
858.44	50.47
858.874	41.07
859.309	42.77
859.743	34.97
860.178	37.27
860.612	31.97
861.047	43.77
861.481	56.17
861.915	65.17
862.35	38.07
862.784	22.47
863.218	31.67
863.653	21.27
864.087	29.07
864.521	40.97
864.955	55.27
865.39	123.37
865.824	139.67
866.258	94.87
866.692	135.97
867.126	156.97
867.56	90.17
867.994	46.97
868.428	35.47
868.862	36.67
869.296	46.57
869.73	52.77
870.164	43.37
870.598	38.27
871.031	26.17
871.465	31.77
871.899	20.97
872.333	15.57
872.766	18.27
873.2	19.97
873.634	22.07
874.067	26.47
874.501	24.97
874.935	30.17
875.368	24.87
875.802	21.17
876.235	18.97
876.669	17.57
877.102	22.27
877.535	25.87
877.969	24.17
878.402	20.77
878.836	10.87
879.269	16.17
879.702	18.47
880.135	16.07
880.569	19.17
881.002	24.67
881.435	17.97
881.868	13.07
882.301	21.67
882.734	16.47
883.167	21.87
883.601	12.47
884.034	18.57
884.467	16.77
884.899	17.77
885.332	21.67
885.765	12.37
886.198	9.27
886.631	20.57
887.064	14.67
887.497	17.27
887.929	23.37
888.362	7.47
888.795	15.37
889.228	17.87
889.66	18.97
890.093	17.37
890.526	10.47
890.958	14.37
891.391	13.27
891.823	19.07
892.256	17.97
892.688	7.87
893.121	13.87
893.553	17.57
893.985	23.17
894.418	12.37
894.85	10.67
895.282	11.57
895.715	15.77
896.147	15.77
896.579	12.47
897.011	6.67
897.444	9.77
897.876	13.77
898.308	11.57
898.74	12.37
899.172	8.47
899.604	22.97
900.036	12.77
900.468	15.47
900.9	14.57
901.332	13.57
901.764	8.87
902.196	15.77
902.628	14.27
903.06	7.17
903.491	22.67
903.923	17.47
904.355	15.37
904.787	19.67
905.218	18.87
905.65	18.57
906.082	7.17
906.513	6.07
906.945	6.57
907.376	11.57
907.808	20.77
908.239	18.77
908.671	13.57
909.102	12.57
909.534	16.77
909.965	34.27
910.397	73.67
910.828	247.57
911.259	397.17
911.691	182.37
912.122	90.47
912.553	39.17
912.984	31.37
913.415	23.97
913.847	19.27
914.278	15.67
914.709	13.37
915.14	20.17
915.571	16.97
916.002	7.87
916.433	14.97
916.864	13.87
917.295	8.17
917.726	17.97
918.157	11.87
918.587	22.57
919.018	19.97
919.449	14.57
919.88	22.27
920.311	30.97
920.741	37.07
921.172	137.97
921.603	124.77
922.033	60.27
922.464	37.47
922.895	19.07
923.325	15.47
923.756	13.27
924.186	11.87
924.617	20.57
925.047	37.67
925.478	43.47
925.908	34.47
926.338	21.97
926.769	9.77
927.199	17.67
927.629	10.77
928.06	9.97
928.49	15.17
928.92	13.57
929.35	15.67
929.78	14.77
930.21	8.57
930.641	9.57
931.071	3.97
931.501	4.77
931.931	6.07
932.361	8.37
932.791	3.87
933.221	2.17
933.651	-2.13
934.08	7.97
934.51	27.37
934.94	10.67
935.37	3.37
935.8	11.87
936.229	5.37
936.659	2.77
937.089	0.87
937.519	13.77
937.948	25.17
938.378	16.67
938.807	6.77
939.237	2.47
939.666	0.27
940.096	-7.63
940.525	0.07
940.955	1.07
941.384	4.67
941.814	0.97
942.243	-2.13
942.672	3.07
943.102	-0.83
943.531	0.67
943.96	8.87
944.39	0.17
944.819	0.97
945.248	4.17
945.677	0.47
946.106	1.47
946.535	-0.13
946.964	-0.13
947.393	6.87
947.822	3.97
948.251	-2.73
948.68	4.37
949.109	8.37
949.538	4.47
949.967	0.37
950.396	5.37
950.825	-2.13
951.254	3.87
951.682	3.27
952.111	3.07
952.54	7.17
952.969	0.17
953.397	-3.63
953.826	2.47
954.254	-3.03
954.683	-0.43
955.112	-1.53
955.54	6.57
955.969	-1.23
956.397	4.57
956.826	-0.33
957.254	4.47
957.682	-2.43
958.111	3.47
958.539	0.37
958.967	-4.93
959.396	1.67
959.824	-1.53
960.252	4.07
960.68	-10.63
961.109	-7.63
961.537	-0.83
961.965	-1.23
962.393	-2.23
962.821	-0.43
963.249	-0.23
963.677	3.27
964.105	6.97
964.533	34.47
964.961	25.27
965.389	18.27
965.817	10.47
966.245	3.37
966.672	-4.93
967.1	-13.93
967.528	-0.33
967.956	-0.53
968.383	0.27
968.811	-1.13
969.239	6.37
969.666	-1.73
970.094	0.87
970.522	5.07
970.949	7.77
971.377	-2.03
971.804	-0.43
972.232	1.27
972.659	2.57
973.087	-0.23
973.514	4.37
973.941	-8.23
974.369	7.77
974.796	0.97
975.223	0.57
975.651	-0.83
976.078	2.87
976.505	5.37
976.932	4.57
977.359	7.17
977.786	14.37
978.214	-0.43
978.641	1.27
979.068	-0.93
979.495	-1.63
979.922	-0.83
980.349	-1.33
980.776	1.07
981.202	-1.13
981.629	5.97
982.056	2.57
982.483	-1.53
982.91	3.97
983.337	-4.03
983.763	-0.73
984.19	-3.93
984.617	-2.33
985.043	-6.03
985.47	1.27
985.897	-3.13
986.323	-8.53
986.75	3.67
987.176	-1.23
987.603	0.97
988.029	1.77
988.456	-1.53
988.882	1.27
989.308	-10.73
989.735	-9.43
990.161	-0.73
990.587	-4.13
991.014	-1.53
991.44	6.87
991.866	2.87
992.292	-5.53
992.719	-0.63
993.145	1.87
993.571	-9.03
993.997	-6.63
994.423	-1.13
994.849	-2.93
995.275	-4.03
995.701	1.07
996.127	-4.83
996.553	1.17
996.979	-6.33
997.405	0.07
997.83	-4.63
998.256	-9.93
998.682	-5.43
999.108	-4.83
999.534	-3.53
999.959	-1.83
1000.385	1.17
1000.811	5.07
1001.236	-12.83
1001.662	-7.63
1002.087	-6.53
1002.513	3.77
1002.938	5.67
1003.364	-5.63
1003.789	-5.63
1004.215	6.67
1004.64	-1.53
1005.066	-1.93
1005.491	1.37
1005.916	0.57
1006.342	-0.13
1006.767	-7.13
1007.192	7.37
1007.617	2.77
1008.042	-1.63
1008.468	0.57
1008.893	-3.33
1009.318	-1.73
1009.743	-6.33
1010.168	3.77
1010.593	-1.33
1011.018	-1.43
1011.443	0.47
1011.868	2.27
1012.293	-8.83
1012.718	-4.63
1013.143	-1.53
1013.567	0.87
1013.992	-3.13
1014.417	-14.13
1014.842	3.67
1015.267	-4.03
1015.691	-3.13
1016.116	2.57
1016.541	2.47
1016.965	3.37
1017.39	4.37
1017.814	2.47
1018.239	-1.53
1018.663	-6.13
1019.088	-10.33
1019.512	0.17
1019.937	-9.43
1020.361	-3.63
1020.785	-8.23
1021.21	-10.83
1021.634	0.17
1022.058	-5.73
1022.483	5.07
1022.907	-8.43
1023.331	-8.13
1023.755	-4.33
1024.179	-5.53
1024.604	-6.03
1025.028	-0.63
1025.452	-4.73
1025.876	-2.33
1026.3	-1.13
1026.724	-9.53
1027.148	-0.23
1027.572	-4.23
1027.996	-0.03
1028.42	-3.73
1028.843	-2.53
1029.267	-1.63
1029.691	-2.53
1030.115	-4.23
1030.539	-2.03
1030.962	-3.13
1031.386	-11.83
1031.81	3.57
1032.233	-4.23
1032.657	-0.73
1033.08	-5.33
1033.504	-0.83
1033.927	-6.53
1034.351	-1.63
1034.774	-3.13
1035.198	-2.93
1035.621	-4.53
1036.045	-0.63
1036.468	4.17
1036.891	-12.63
1037.315	-12.13
1037.738	-5.03
1038.161	-2.43
1038.584	-8.23
1039.008	-4.33
1039.431	-2.43
1039.854	-0.13
1040.277	-5.33
1040.7	-10.33
1041.123	5.17
1041.546	-3.83
1041.969	-6.83
1042.392	-9.53
1042.815	-3.53
1043.238	3.07
1043.661	2.67
1044.084	-8.73
1044.507	-3.73
1044.93	-4.73
1045.352	-3.33
1045.775	-1.23
1046.198	-1.03
1046.621	-2.43
1047.043	0.17
1047.466	5.97
1047.889	0.57
1048.311	-8.43
1048.734	-6.13
1049.156	0.77
1049.579	5.17
1050.001	-2.33
1050.424	1.47
1050.846	-2.43
1051.269	-8.93
1051.691	0.37
1052.113	-6.23
1052.536	0.57
1052.958	-6.53
1053.38	-6.23
1053.802	-6.03
1054.225	4.67
1054.647	-5.03
1055.069	-6.73
1055.491	5.57
1055.913	-5.73
1056.335	-1.43
1056.757	-0.83
1057.179	-2.93
1057.601	-4.73
1058.023	-5.33
1058.445	-0.23
1058.867	-7.53
1059.289	-2.73
1059.711	-5.13
1060.133	3.07
1060.555	-4.63
1060.976	-7.13
1061.398	-2.23
1061.82	-1.03
1062.241	-8.03
1062.663	-8.93
1063.085	-4.53
1063.506	-1.03
1063.928	-1.73
1064.35	-1.03
1064.771	-11.23
1065.193	-1.03
1065.614	-8.13
1066.035	2.67
1066.457	-5.23
1066.878	1.17
1067.3	-11.33
1067.721	-2.23
1068.142	-3.73
1068.564	2.87
1068.985	-1.23
1069.406	-1.23
1069.827	0.47
1070.248	-0.03
1070.67	-7.43
1071.091	-4.43
1071.512	1.07
1071.933	-4.93
1072.354	-3.13
1072.775	-4.73
1073.196	-5.73
1073.617	-6.73
1074.038	-5.13
1074.459	-6.03
1074.88	-3.63
1075.3	0.67
1075.721	-6.73
1076.142	-1.33
1076.563	0.97
1076.983	-8.93
1077.404	-4.53
1077.825	-9.63
1078.246	-5.23
1078.666	-9.53
1079.087	-1.83
1079.507	-2.63
1079.928	4.57
1080.348	-1.63
1080.769	-2.23
1081.189	1.17
1081.61	-7.93
1082.03	-11.63
1082.451	-4.33
1082.871	-5.53
1083.291	-6.53
1083.711	-7.73
1084.132	-3.13
1084.552	-5.83
1084.972	-0.73
1085.392	-7.53
1085.813	-10.53
1086.233	-9.23
1086.653	-0.23
1087.073	0.67
1087.493	-10.13
1087.913	-13.73
1088.333	-8.53
1088.753	-5.33
1089.173	0.67
1089.593	-4.03
1090.013	-0.13
1090.433	7.97
1090.852	-4.43
1091.272	-2.73
1091.692	3.77
1092.112	-0.03
1092.531	-7.43
1092.951	-9.63
1093.371	-8.53
1093.79	-0.13
1094.21	4.57
1094.63	-3.13
1095.049	0.27
1095.469	-5.73
1095.888	-5.33
1096.308	-1.83
1096.727	4.67
1097.146	-5.33
1097.566	-4.03
1097.985	-7.83
1098.405	-2.03
1098.824	-9.33
1099.243	-5.23
1099.662	-5.43
1100.082	-6.53
1100.501	1.57
1100.92	-7.03
1101.339	-1.23
1101.758	-6.63
