Data from 20171114-ORNL-Ar_H_NY_Subt18_08-07-26-794.txt Node
Date: Tue Nov 14 08:07:26 EST 2017
User: Ender
Spectrometer: HR+D1039
Trigger mode: 0
Integration Time (sec): 2.730000E-2
Scans to average: 10
Electric dark correction enabled: true
Nonlinearity correction enabled: false
Boxcar width: 0
XAxis mode: Wavelengths
Number of Pixels in Spectrum: 2048
>>>>>Begin Spectral Data<<<<<
187.836	-4.61
188.309	-4.61
188.782	-4.61
189.255	2.29
189.728	1.89
190.201	4.39
190.674	-0.01
191.147	1.89
191.619	-11.01
192.092	0.09
192.565	6.49
193.038	4.29
193.511	2.89
193.984	3.29
194.456	-2.01
194.929	-0.31
195.402	-7.51
195.874	-2.01
196.347	-3.81
196.82	-7.41
197.292	8.49
197.765	0.09
198.237	-3.41
198.71	5.39
199.182	-2.91
199.655	3.29
200.127	2.19
200.6	-1.11
201.072	-0.51
201.544	-8.11
202.017	-3.61
202.489	-1.01
202.961	-2.71
203.433	-4.91
203.906	-9.81
204.378	-4.71
204.85	0.09
205.322	-8.91
205.794	-3.21
206.266	-6.91
206.739	-5.41
207.211	1.59
207.683	-10.61
208.155	-3.41
208.627	-5.91
209.099	-6.51
209.57	-7.31
210.042	-7.21
210.514	-4.31
210.986	-2.61
211.458	-13.41
211.93	-0.71
212.402	-0.71
212.873	-7.11
213.345	-11.11
213.817	-9.31
214.288	-2.91
214.76	-14.31
215.232	-7.51
215.703	-3.81
216.175	-2.81
216.646	-5.81
217.118	-10.01
217.589	-4.31
218.061	-3.91
218.532	-9.21
219.004	-9.51
219.475	-6.81
219.946	-0.91
220.418	-5.41
220.889	2.19
221.36	1.49
221.832	-5.11
222.303	-12.31
222.774	0.39
223.245	-8.31
223.717	-5.11
224.188	-6.01
224.659	-6.21
225.13	-7.31
225.601	-5.21
226.072	-0.31
226.543	-6.01
227.014	2.89
227.485	-5.41
227.956	-9.21
228.427	-4.11
228.898	0.99
229.369	0.49
229.839	-4.01
230.31	-10.71
230.781	-0.31
231.252	-3.61
231.722	-10.31
232.193	-6.51
232.664	-2.61
233.135	-3.41
233.605	-3.61
234.076	-7.91
234.546	1.79
235.017	2.59
235.487	0.29
235.958	-0.61
236.428	-9.51
236.899	1.29
237.369	4.29
237.84	-5.51
238.31	7.39
238.78	1.19
239.251	-7.01
239.721	0.89
240.191	-1.41
240.662	-4.21
241.132	-3.81
241.602	-10.31
242.072	-0.31
242.542	6.69
243.013	-6.31
243.483	-2.61
243.953	-1.21
244.423	-2.91
244.893	-6.71
245.363	-1.21
245.833	5.69
246.303	-7.71
246.773	3.49
247.243	-2.81
247.712	-2.21
248.182	2.19
248.652	5.59
249.122	-7.71
249.592	2.79
250.061	8.69
250.531	22.39
251.001	11.09
251.471	11.09
251.94	14.79
252.41	6.19
252.879	-5.51
253.349	6.19
253.818	3.19
254.288	2.19
254.757	5.49
255.227	1.49
255.696	-0.91
256.166	-0.41
256.635	-1.51
257.105	3.09
257.574	1.69
258.043	1.69
258.513	2.49
258.982	13.59
259.451	-0.91
259.92	9.59
260.389	3.09
260.859	3.99
261.328	8.39
261.797	11.79
262.266	6.29
262.735	7.09
263.204	-0.31
263.673	-0.21
264.142	-1.01
264.611	-3.51
265.08	-2.81
265.549	-11.11
266.018	-0.11
266.487	0.09
266.955	-8.91
267.424	-2.21
267.893	-2.21
268.362	-1.81
268.83	4.19
269.299	2.99
269.768	3.49
270.236	3.19
270.705	-3.31
271.174	-1.01
271.642	1.89
272.111	3.39
272.579	8.69
273.048	14.49
273.516	9.09
273.985	15.99
274.453	11.99
274.922	8.29
275.39	2.89
275.858	-3.11
276.327	8.29
276.795	12.29
277.263	3.59
277.731	22.29
278.2	37.09
278.668	32.89
279.136	33.39
279.604	12.19
280.072	2.69
280.54	7.19
281.008	-0.61
281.477	10.09
281.945	5.59
282.413	7.59
282.881	8.99
283.348	3.89
283.816	10.29
284.284	6.39
284.752	18.99
285.22	4.89
285.688	6.39
286.156	14.79
286.623	32.19
287.091	35.39
287.559	16.99
288.026	14.49
288.494	4.29
288.962	-0.01
289.429	0.39
289.897	8.89
290.364	6.09
290.832	9.39
291.3	8.49
291.767	12.49
292.234	15.29
292.702	8.29
293.169	9.79
293.637	13.79
294.104	8.79
294.571	-0.01
295.039	5.09
295.506	3.49
295.973	13.29
296.44	3.89
296.908	7.89
297.375	8.09
297.842	14.09
298.309	7.69
298.776	4.49
299.243	11.49
299.71	3.99
300.177	14.19
300.644	10.29
301.111	8.09
301.578	7.59
302.045	10.39
302.512	20.09
302.979	17.99
303.446	12.79
303.913	11.29
304.379	4.39
304.846	20.59
305.313	17.19
305.78	14.79
306.246	10.79
306.713	16.49
307.18	15.29
307.646	19.19
308.113	17.59
308.579	16.09
309.046	12.99
309.512	15.79
309.979	5.49
310.445	13.29
310.912	20.19
311.378	27.19
311.845	19.69
312.311	17.59
312.777	20.79
313.244	20.49
313.71	30.09
314.176	20.49
314.642	22.99
315.109	21.99
315.575	26.79
316.041	27.19
316.507	19.19
316.973	31.79
317.439	17.89
317.905	25.59
318.371	24.09
318.837	23.49
319.303	22.09
319.769	23.19
320.235	24.29
320.701	22.29
321.167	26.59
321.633	22.89
322.099	26.29
322.564	30.09
323.03	30.59
323.496	25.99
323.962	25.99
324.427	21.29
324.893	31.19
325.359	26.29
325.824	29.49
326.29	23.29
326.755	31.39
327.221	29.59
327.686	30.09
328.152	31.59
328.617	25.59
329.083	32.99
329.548	39.69
330.014	34.69
330.479	22.89
330.944	31.09
331.41	24.69
331.875	34.69
332.34	32.49
332.805	39.09
333.271	29.29
333.736	32.89
334.201	33.49
334.666	38.89
335.131	44.29
335.596	37.99
336.061	32.49
336.526	29.09
336.991	39.09
337.456	42.99
337.921	36.09
338.386	34.29
338.851	32.19
339.316	38.99
339.781	35.39
340.246	40.29
340.711	34.89
341.175	37.59
341.64	24.99
342.105	39.29
342.569	45.19
343.034	47.09
343.499	40.59
343.963	42.69
344.428	53.79
344.893	51.09
345.357	49.69
345.822	45.49
346.286	48.39
346.751	61.89
347.215	53.89
347.679	47.99
348.144	67.49
348.608	58.09
349.073	49.29
349.537	56.49
350.001	54.49
350.465	67.49
350.93	60.89
351.394	67.19
351.858	59.39
352.322	63.39
352.786	64.29
353.25	74.39
353.715	84.89
354.179	72.69
354.643	94.39
355.107	89.89
355.571	84.79
356.035	78.59
356.498	85.29
356.962	91.89
357.426	100.29
357.89	92.29
358.354	65.09
358.818	63.19
359.281	60.19
359.745	59.69
360.209	59.99
360.673	62.29
361.136	62.19
361.6	66.39
362.064	63.59
362.527	63.19
362.991	67.69
363.454	61.99
363.918	60.29
364.381	65.69
364.845	60.29
365.308	72.49
365.772	72.19
366.235	71.79
366.698	65.59
367.162	68.59
367.625	66.79
368.088	71.89
368.552	77.39
369.015	70.19
369.478	82.69
369.941	82.29
370.404	73.79
370.867	87.29
371.331	92.09
371.794	93.89
372.257	88.19
372.72	94.09
373.183	89.29
373.646	85.19
374.109	86.59
374.572	88.99
375.035	84.19
375.497	91.19
375.96	96.69
376.423	89.49
376.886	97.89
377.349	96.19
377.811	86.59
378.274	94.69
378.737	87.19
379.199	91.09
379.662	86.89
380.125	94.39
380.587	97.89
381.05	102.79
381.512	103.49
381.975	115.09
382.437	108.99
382.9	105.79
383.362	115.09
383.825	116.19
384.287	121.89
384.75	120.49
385.212	122.29
385.674	125.09
386.136	115.59
386.599	109.69
387.061	104.89
387.523	111.29
387.985	114.39
388.447	121.79
388.91	120.19
389.372	133.39
389.834	134.99
390.296	126.79
390.758	137.09
391.22	148.89
391.682	175.09
392.144	253.29
392.606	195.29
393.068	143.29
393.529	147.99
393.991	132.29
394.453	131.69
394.915	131.89
395.377	169.49
395.838	182.19
396.3	134.69
396.762	127.49
397.224	120.49
397.685	111.29
398.147	115.99
398.608	113.49
399.07	103.39
399.531	118.99
399.993	127.29
400.454	134.99
400.916	128.29
401.377	125.49
401.839	133.29
402.3	131.09
402.762	147.99
403.223	159.29
403.684	147.99
404.145	139.49
404.607	139.49
405.068	141.09
405.529	151.19
405.99	154.99
406.451	155.89
406.913	149.09
407.374	146.59
407.835	143.19
408.296	147.09
408.757	153.19
409.218	162.09
409.679	153.29
410.14	155.69
410.601	151.49
411.062	158.49
411.522	175.29
411.983	173.69
412.444	150.29
412.905	158.69
413.366	160.59
413.826	163.69
414.287	183.79
414.748	236.49
415.208	214.89
415.669	190.29
416.13	175.59
416.59	178.79
417.051	190.39
417.511	193.69
417.972	210.19
418.432	224.09
418.893	257.89
419.353	231.99
419.814	178.89
420.274	161.19
420.734	159.59
421.195	174.49
421.655	177.59
422.115	175.09
422.576	171.59
423.036	177.09
423.496	185.79
423.956	202.29
424.416	202.49
424.876	238.09
425.336	242.39
425.797	234.29
426.257	230.79
426.717	214.79
427.177	217.69
427.637	208.99
428.097	214.09
428.556	221.59
429.016	244.99
429.476	244.19
429.936	252.79
430.396	250.69
430.856	261.79
431.315	288.79
431.775	320.29
432.235	339.49
432.694	321.29
433.154	326.59
433.614	353.69
434.073	305.29
434.533	259.99
434.993	246.99
435.452	254.49
435.912	265.69
436.371	262.89
436.83	256.09
437.29	248.39
437.749	220.69
438.209	224.79
438.668	250.89
439.127	260.39
439.587	239.59
440.046	221.49
440.505	231.99
440.964	240.79
441.424	286.79
441.883	276.99
442.342	234.19
442.801	204.79
443.26	193.79
443.719	203.99
444.178	203.39
444.637	192.39
445.096	201.39
445.555	207.09
446.014	201.89
446.473	206.59
446.932	209.49
447.391	211.49
447.849	213.19
448.308	202.79
448.767	196.29
449.226	220.29
449.685	222.49
450.143	228.79
450.602	218.19
451.061	204.99
451.519	208.69
451.978	219.19
452.436	213.49
452.895	218.89
453.353	233.89
453.812	233.69
454.27	220.99
454.729	219.39
455.187	220.09
455.646	230.39
456.104	229.19
456.562	239.69
457.021	246.59
457.479	239.29
457.937	256.89
458.395	244.39
458.854	228.79
459.312	237.79
459.77	253.29
460.228	232.09
460.686	216.89
461.144	230.09
461.602	221.49
462.06	220.59
462.518	235.19
462.976	227.89
463.434	240.39
463.892	246.19
464.35	248.29
464.808	263.89
465.266	250.59
465.724	252.59
466.181	256.19
466.639	253.29
467.097	269.19
467.555	277.59
468.012	279.39
468.47	284.29
468.928	304.19
469.385	311.99
469.843	318.59
470.3	321.99
470.758	334.49
471.215	357.59
471.673	380.09
472.13	382.59
472.588	385.69
473.045	339.29
473.503	346.79
473.96	367.19
474.417	378.19
474.875	399.79
475.332	446.19
475.789	444.89
476.246	441.19
476.704	459.59
477.161	472.39
477.618	497.19
478.075	513.69
478.532	573.69
478.989	643.89
479.446	742.39
479.903	714.09
480.36	751.49
480.817	810.79
481.274	905.69
481.731	992.49
482.188	1075.49
482.645	1210.99
483.102	1310.99
483.558	1432.29
484.015	1489.89
484.472	1469.79
484.929	1420.09
485.385	1360.09
485.842	1328.79
486.299	1277.89
486.755	1206.59
487.212	1014.29
487.668	867.89
488.125	811.59
488.582	730.69
489.038	691.29
489.494	663.49
489.951	632.79
490.407	612.49
490.864	598.89
491.32	599.69
491.776	595.79
492.233	594.99
492.689	575.69
493.145	568.29
493.602	557.79
494.058	575.49
494.514	586.49
494.97	596.09
495.426	598.59
495.882	579.09
496.338	580.19
496.794	588.19
497.251	578.79
497.707	596.39
498.163	595.39
498.618	602.19
499.074	597.29
499.53	622.79
499.986	632.59
500.442	612.19
500.898	588.49
501.354	587.09
501.809	593.99
502.265	604.39
502.721	614.09
503.177	623.89
503.632	613.99
504.088	630.39
504.543	665.69
504.999	660.89
505.455	615.69
505.91	601.39
506.366	600.69
506.821	589.69
507.277	595.59
507.732	589.09
508.187	586.69
508.643	591.99
509.098	598.49
509.553	613.39
510.009	629.89
510.464	635.29
510.919	647.79
511.375	662.49
511.83	672.79
512.285	683.49
512.74	716.89
513.195	733.39
513.65	733.39
514.105	729.29
514.56	732.99
515.015	743.29
515.47	769.59
515.925	747.89
516.38	745.09
516.835	756.09
517.29	738.69
517.745	746.79
518.2	725.39
518.655	717.19
519.109	705.29
519.564	695.19
520.019	692.29
520.474	689.89
520.928	683.59
521.383	672.49
521.838	672.09
522.292	672.29
522.747	676.09
523.201	666.29
523.656	653.49
524.11	654.89
524.565	656.09
525.019	654.89
525.474	663.19
525.928	665.29
526.382	656.99
526.837	668.99
527.291	658.79
527.745	672.59
528.2	657.39
528.654	653.49
529.108	656.29
529.562	647.39
530.016	648.19
530.47	647.59
530.925	662.79
531.379	662.89
531.833	660.79
532.287	659.99
532.741	658.59
533.195	662.49
533.649	673.49
534.103	678.29
534.556	674.89
535.01	683.59
535.464	668.79
535.918	680.99
536.372	676.49
536.826	673.69
537.279	670.79
537.733	676.79
538.187	671.99
538.64	678.39
539.094	681.59
539.548	691.29
540.001	689.59
540.455	680.99
540.908	698.19
541.362	701.29
541.815	714.59
542.269	725.99
542.722	728.39
543.175	740.79
543.629	732.79
544.082	743.69
544.536	750.49
544.989	744.19
545.442	747.39
545.895	743.39
546.349	748.69
546.802	750.49
547.255	754.09
547.708	760.39
548.161	774.99
548.614	784.59
549.067	804.29
549.52	781.69
549.973	762.59
550.426	764.49
550.879	754.99
551.332	763.09
551.785	766.39
552.238	774.29
552.691	777.29
553.144	790.09
553.596	802.99
554.049	818.09
554.502	850.09
554.955	859.89
555.407	864.89
555.86	863.49
556.313	854.59
556.765	837.39
557.218	849.59
557.67	846.09
558.123	826.79
558.576	832.59
559.028	837.19
559.48	850.39
559.933	827.99
560.385	806.09
560.838	775.09
561.29	753.49
561.742	749.49
562.195	725.29
562.647	729.99
563.099	736.99
563.551	733.19
564.004	749.29
564.456	740.19
564.908	724.79
565.36	715.49
565.812	707.39
566.264	701.19
566.716	690.89
567.168	674.39
567.62	687.79
568.072	673.39
568.524	660.79
568.976	665.29
569.428	651.99
569.88	638.79
570.332	649.79
570.784	651.49
571.235	658.99
571.687	653.59
572.139	677.29
572.59	676.49
573.042	695.59
573.494	670.19
573.945	671.39
574.397	640.39
574.849	659.09
575.3	656.69
575.752	650.99
576.203	660.19
576.655	661.79
577.106	650.79
577.557	628.89
578.009	636.59
578.46	631.69
578.912	629.19
579.363	632.69
579.814	635.99
580.265	624.89
580.717	642.79
581.168	631.79
581.619	647.19
582.07	636.89
582.521	648.79
582.972	635.89
583.423	642.59
583.875	645.19
584.326	665.39
584.777	709.19
585.227	778.49
585.678	863.59
586.129	940.39
586.58	995.79
587.031	1069.49
587.482	1208.59
587.933	1365.49
588.384	1194.89
588.834	896.29
589.285	771.39
589.736	743.19
590.186	739.69
590.637	739.19
591.088	708.59
591.538	698.19
591.989	701.29
592.439	695.59
592.89	690.99
593.34	677.99
593.791	678.19
594.241	675.29
594.692	683.79
595.142	674.89
595.593	675.29
596.043	685.49
596.493	677.19
596.943	685.79
597.394	687.09
597.844	682.19
598.294	699.09
598.744	729.49
599.195	745.89
599.645	787.29
600.095	817.59
600.545	873.59
600.995	932.29
601.445	986.69
601.895	1038.89
602.345	1094.09
602.795	1064.49
603.245	1033.99
603.695	964.59
604.145	911.59
604.594	878.59
605.044	809.39
605.494	767.09
605.944	719.89
606.393	714.39
606.843	689.99
607.293	702.79
607.743	702.29
608.192	712.89
608.642	720.49
609.091	738.49
609.541	737.29
609.99	735.39
610.44	734.19
610.889	688.09
611.339	671.59
611.788	654.19
612.238	677.79
612.687	696.19
613.136	683.99
613.586	703.79
614.035	703.19
614.484	725.79
614.933	716.79
615.383	718.69
615.832	705.89
616.281	689.69
616.73	663.99
617.179	640.59
617.628	620.89
618.077	605.39
618.526	590.99
618.975	588.39
619.424	585.49
619.873	583.99
620.322	592.09
620.771	575.09
621.22	580.99
621.669	564.59
622.118	564.79
622.567	552.19
623.015	544.69
623.464	550.09
623.913	533.69
624.361	532.59
624.81	527.79
625.259	530.09
625.707	519.59
626.156	528.49
626.604	543.59
627.053	534.09
627.501	529.09
627.95	532.79
628.398	556.09
628.847	550.59
629.295	544.59
629.744	549.29
630.192	547.39
630.64	537.99
631.089	536.29
631.537	548.39
631.985	549.69
632.433	569.29
632.881	568.59
633.33	607.79
633.778	589.69
634.226	532.59
634.674	544.79
635.122	541.59
635.57	570.09
636.018	599.39
636.466	555.19
636.914	539.09
637.362	550.09
637.81	551.39
638.258	553.29
638.705	550.99
639.153	584.39
639.601	590.29
640.049	614.19
640.497	655.19
640.944	663.49
641.392	620.29
641.84	584.09
642.287	558.19
642.735	545.09
643.182	549.19
643.63	550.29
644.078	553.79
644.525	567.89
644.973	571.59
645.42	575.69
645.867	603.89
646.315	605.09
646.762	635.49
647.21	659.19
647.657	686.19
648.104	722.59
648.551	739.19
648.999	800.99
649.446	871.49
649.893	966.59
650.34	1101.39
650.787	1322.69
651.234	1666.49
651.682	2168.89
652.129	2977.59
652.576	4303.09
653.023	6345.99
653.47	8699.89
653.917	10845.19
654.363	12493.79
654.81	13803.49
655.257	13100.39
655.704	8528.09
656.151	5014.99
656.598	3252.39
657.044	2304.39
657.491	1779.79
657.938	1433.59
658.385	1193.39
658.831	1033.39
659.278	918.89
659.724	815.59
660.171	759.29
660.618	692.09
661.064	666.49
661.511	630.89
661.957	629.39
662.404	623.79
662.85	620.39
663.296	593.39
663.743	531.09
664.189	515.19
664.635	503.79
665.082	505.69
665.528	502.49
665.974	500.09
666.42	492.09
666.867	482.99
667.313	468.69
667.759	457.09
668.205	452.59
668.651	456.69
669.097	461.39
669.543	473.19
669.989	446.59
670.435	425.69
670.881	430.19
671.327	433.19
671.773	446.19
672.219	470.99
672.665	528.69
673.11	565.09
673.556	605.99
674.002	634.79
674.448	631.69
674.893	527.59
675.339	461.99
675.785	424.89
676.23	408.29
676.676	377.79
677.122	363.09
677.567	358.89
678.013	350.19
678.458	345.19
678.904	353.09
679.349	327.09
679.794	333.49
680.24	335.39
680.685	332.99
681.131	331.89
681.576	341.99
682.021	349.99
682.466	333.69
682.912	336.39
683.357	342.19
683.802	367.29
684.247	388.39
684.692	434.19
685.137	475.19
685.583	509.69
686.028	545.39
686.473	499.69
686.918	430.69
687.363	400.69
687.807	365.99
688.252	350.59
688.697	334.09
689.142	327.79
689.587	316.79
690.032	307.79
690.477	326.79
690.921	324.49
691.366	367.79
691.811	385.39
692.255	406.09
692.7	449.09
693.145	478.29
693.589	674.29
694.034	1107.89
694.478	1497.79
694.923	1680.59
695.367	2173.99
695.812	1154.59
696.256	482.89
696.701	357.19
697.145	327.29
697.59	310.59
698.034	312.59
698.478	316.69
698.922	314.19
699.367	310.89
699.811	327.69
700.255	338.89
700.699	373.69
701.143	407.19
701.588	455.69
702.032	494.09
702.476	493.19
702.92	472.49
703.364	467.89
703.808	614.39
704.252	1010.19
704.696	1421.49
705.14	1611.39
705.584	2036.29
706.027	1023.19
706.471	505.59
706.915	380.79
707.359	342.69
707.803	306.59
708.246	297.19
708.69	287.69
709.134	306.99
709.577	300.29
710.021	297.69
710.465	295.19
710.908	289.69
711.352	291.29
711.795	304.19
712.239	336.09
712.682	370.09
713.126	395.49
713.569	449.99
714.012	357.49
714.456	314.29
714.899	285.69
715.342	262.89
715.786	242.69
716.229	241.69
716.672	249.59
717.115	240.69
717.558	240.29
718.002	244.79
718.445	246.79
718.888	282.69
719.331	280.59
719.774	294.69
720.217	293.99
720.66	273.59
721.103	257.09
721.546	248.99
721.989	237.39
722.432	223.39
722.874	226.49
723.317	217.59
723.76	232.19
724.203	248.69
724.645	308.09
725.088	428.59
725.531	553.69
725.974	615.29
726.416	525.79
726.859	297.29
727.301	238.09
727.744	232.39
728.187	220.69
728.629	232.19
729.071	236.79
729.514	248.19
729.956	258.39
730.399	275.49
730.841	277.19
731.283	260.99
731.726	252.49
732.168	250.39
732.61	254.09
733.053	273.09
733.495	300.79
733.937	336.69
734.379	387.29
734.821	411.79
735.263	527.99
735.705	817.89
736.148	1559.09
736.59	2508.89
737.032	2945.99
737.474	2390.19
737.916	783.89
738.357	410.59
738.799	311.59
739.241	286.59
739.683	280.29
740.125	280.79
740.567	284.69
741.008	297.49
741.45	300.29
741.892	306.09
742.334	333.69
742.775	347.69
743.217	329.09
743.658	254.89
744.1	241.59
744.542	246.39
744.983	294.79
745.425	331.89
745.866	330.29
746.307	275.19
746.749	279.79
747.19	313.39
747.632	443.59
748.073	871.29
748.514	1822.49
748.956	2772.79
749.397	3470.39
749.838	2890.29
750.279	2853.49
750.72	1452.19
751.162	525.49
751.603	314.49
752.044	247.49
752.485	205.09
752.926	200.79
753.367	199.89
753.808	190.09
754.249	179.79
754.69	176.29
755.131	180.29
755.572	172.79
756.013	173.49
756.453	177.29
756.894	182.69
757.335	181.79
757.776	187.49
758.216	187.09
758.657	189.79
759.098	191.69
759.538	216.59
759.979	257.79
760.42	363.09
760.86	703.39
761.301	1826.39
761.741	4345.89
762.182	6222.09
762.622	4345.09
763.063	1255.99
763.503	514.19
763.943	329.49
764.384	320.79
764.824	358.89
765.264	387.79
765.705	271.49
766.145	194.79
766.585	174.09
767.025	166.89
767.465	175.39
767.906	223.09
768.346	286.39
768.786	308.19
769.226	249.09
769.666	303.89
770.106	626.19
770.546	1533.69
770.986	2562.29
771.426	2273.19
771.866	752.79
772.306	312.99
772.745	202.59
773.185	168.99
773.625	161.99
774.065	157.39
774.505	190.79
774.944	291.19
775.384	641.19
775.824	1121.39
776.263	1095.09
776.703	471.19
777.142	211.29
777.582	146.09
778.021	130.29
778.461	128.39
778.9	131.99
779.34	120.39
779.779	112.39
780.219	105.89
780.658	100.19
781.097	104.39
781.537	103.99
781.976	111.19
782.415	106.89
782.855	99.79
783.294	90.89
783.733	104.19
784.172	103.89
784.611	100.59
785.05	111.69
785.489	108.09
785.928	114.59
786.367	112.09
786.806	112.89
787.245	118.89
787.684	128.99
788.123	143.29
788.562	121.09
789.001	126.79
789.44	111.29
789.879	106.19
790.317	112.59
790.756	127.59
791.195	128.89
791.634	132.79
792.072	204.39
792.511	362.19
792.95	1004.09
793.388	2088.49
793.827	1862.39
794.265	645.99
794.704	268.89
795.142	179.69
795.581	147.59
796.019	134.59
796.458	122.89
796.896	113.09
797.334	125.19
797.773	153.29
798.211	221.79
798.649	435.79
799.087	996.09
799.526	1554.69
799.964	1970.39
800.402	1936.09
800.84	730.19
801.278	283.79
801.716	182.79
802.154	153.69
802.592	136.59
803.03	134.59
803.468	132.19
803.906	137.39
804.344	144.59
804.782	138.69
805.22	130.19
805.658	127.39
806.096	143.89
806.533	149.89
806.971	165.89
807.409	208.99
807.847	306.19
808.284	657.59
808.722	1825.89
809.16	3202.79
809.597	3069.49
810.035	5329.59
810.472	5566.39
810.91	2014.19
811.347	764.69
811.785	384.99
812.222	238.59
812.66	188.39
813.097	155.39
813.535	138.59
813.972	121.79
814.409	112.29
814.846	104.29
815.284	110.39
815.721	94.49
816.158	97.49
816.595	122.19
817.032	168.19
817.47	184.99
817.907	151.29
818.344	134.89
818.781	113.29
819.218	86.39
819.655	119.09
820.092	178.09
820.529	198.89
820.966	165.09
821.403	127.49
821.839	106.79
822.276	97.19
822.713	119.49
823.15	128.59
823.587	113.39
824.023	136.39
824.46	299.99
824.897	884.39
825.333	1313.19
825.77	560.89
826.206	218.69
826.643	132.39
827.08	100.09
827.516	78.09
827.953	75.29
828.389	80.09
828.825	65.39
829.262	67.99
829.698	62.89
830.135	65.29
830.571	58.09
831.007	58.39
831.443	62.19
831.88	56.19
832.316	55.79
832.752	60.29
833.188	63.59
833.624	59.79
834.06	66.79
834.497	62.19
834.933	61.19
835.369	70.99
835.805	66.99
836.241	70.29
836.677	80.29
837.112	89.39
837.548	97.49
837.984	127.69
838.42	191.59
838.856	494.79
839.292	1502.19
839.727	2238.49
840.163	1034.59
840.599	917.59
841.034	1995.09
841.47	2053.89
841.906	746.19
842.341	325.89
842.777	223.39
843.212	301.19
843.648	289.79
844.083	141.89
844.519	88.69
844.954	67.69
845.39	59.89
845.825	57.19
846.261	53.89
846.696	53.19
847.131	55.59
847.566	52.89
848.002	51.59
848.437	52.29
848.872	59.79
849.307	62.49
849.742	81.69
850.177	182.89
850.613	550.39
851.048	852.89
851.483	367.69
851.918	155.39
852.353	79.89
852.788	60.79
853.223	50.89
853.657	52.39
854.092	44.09
854.527	38.29
854.962	35.09
855.397	44.09
855.832	41.09
856.266	36.49
856.701	39.69
857.136	33.99
857.57	36.49
858.005	52.09
858.44	57.69
858.874	45.29
859.309	50.99
859.743	38.69
860.178	47.59
860.612	37.19
861.047	45.09
861.481	66.79
861.915	63.79
862.35	46.69
862.784	34.89
863.218	30.09
863.653	30.59
864.087	43.09
864.521	50.09
864.955	67.19
865.39	151.79
865.824	172.59
866.258	108.19
866.692	155.29
867.126	167.99
867.56	95.89
867.994	48.79
868.428	32.89
868.862	37.99
869.296	47.49
869.73	51.09
870.164	49.09
870.598	44.59
871.031	35.79
871.465	25.09
871.899	27.29
872.333	20.09
872.766	21.69
873.2	28.49
873.634	28.19
874.067	27.09
874.501	20.79
874.935	34.39
875.368	29.49
875.802	28.19
876.235	17.09
876.669	22.09
877.102	22.79
877.535	24.69
877.969	24.89
878.402	20.99
878.836	22.79
879.269	21.19
879.702	23.59
880.135	22.49
880.569	21.59
881.002	19.49
881.435	21.49
881.868	18.49
882.301	20.19
882.734	10.99
883.167	15.29
883.601	14.79
884.034	23.49
884.467	11.09
884.899	20.79
885.332	16.79
885.765	9.59
886.198	15.79
886.631	13.59
887.064	13.99
887.497	15.09
887.929	24.09
888.362	13.79
888.795	14.09
889.228	20.29
889.66	20.69
890.093	13.89
890.526	9.19
890.958	13.89
891.391	10.19
891.823	12.49
892.256	12.99
892.688	8.79
893.121	13.79
893.553	10.39
893.985	17.39
894.418	16.89
894.85	16.69
895.282	12.69
895.715	16.79
896.147	14.89
896.579	15.89
897.011	10.69
897.444	16.59
897.876	8.19
898.308	17.39
898.74	17.29
899.172	5.69
899.604	20.99
900.036	15.79
900.468	10.19
900.9	11.59
901.332	15.49
901.764	13.19
902.196	19.99
902.628	12.09
903.06	19.69
903.491	29.49
903.923	21.19
904.355	18.09
904.787	22.99
905.218	26.29
905.65	19.09
906.082	11.19
906.513	9.29
906.945	14.09
907.376	12.89
907.808	21.09
908.239	18.59
908.671	14.29
909.102	19.79
909.534	22.69
909.965	47.09
910.397	91.59
910.828	314.09
911.259	462.19
911.691	214.79
912.122	97.39
912.553	42.19
912.984	31.39
913.415	25.29
913.847	20.29
914.278	12.99
914.709	11.89
915.14	12.49
915.571	14.49
916.002	8.19
916.433	20.89
916.864	19.49
917.295	11.79
917.726	19.39
918.157	18.09
918.587	22.09
919.018	19.29
919.449	22.99
919.88	28.99
920.311	30.09
920.741	43.29
921.172	155.29
921.603	150.09
922.033	69.29
922.464	41.59
922.895	21.19
923.325	19.99
923.756	15.59
924.186	16.19
924.617	25.19
925.047	32.79
925.478	46.19
925.908	45.09
926.338	24.69
926.769	11.79
927.199	20.99
927.629	8.19
928.06	14.59
928.49	11.59
928.92	9.39
929.35	21.09
929.78	8.79
930.21	5.29
930.641	6.49
931.071	8.49
931.501	3.39
931.931	12.89
932.361	9.19
932.791	0.29
933.221	6.99
933.651	5.09
934.08	15.89
934.51	28.29
934.94	8.69
935.37	11.89
935.8	10.79
936.229	3.29
936.659	5.69
937.089	4.89
937.519	8.29
937.948	20.29
938.378	12.59
938.807	-0.31
939.237	6.59
939.666	8.69
940.096	-5.61
940.525	-0.41
940.955	-1.91
941.384	2.49
941.814	-1.31
942.243	-4.11
942.672	3.39
943.102	-8.71
943.531	-0.21
943.96	7.29
944.39	0.19
944.819	-0.11
945.248	-3.91
945.677	2.69
946.106	2.19
946.535	7.69
946.964	0.29
947.393	1.99
947.822	3.59
948.251	-2.91
948.68	0.89
949.109	5.69
949.538	9.99
949.967	0.69
950.396	1.09
950.825	-4.11
951.254	-2.91
951.682	-9.11
952.111	3.09
952.54	11.19
952.969	-6.81
953.397	-4.21
953.826	-1.91
954.254	3.59
954.683	6.29
955.112	-4.81
955.54	-0.31
955.969	2.49
956.397	3.89
956.826	-5.61
957.254	8.99
957.682	3.59
958.111	2.19
958.539	-2.01
958.967	1.49
959.396	-1.91
959.824	-0.61
960.252	2.19
960.68	-6.21
961.109	1.39
961.537	-1.31
961.965	1.19
962.393	4.39
962.821	-1.31
963.249	-5.11
963.677	4.99
964.105	7.19
964.533	42.29
964.961	38.79
965.389	18.69
965.817	6.89
966.245	1.69
966.672	-2.41
967.1	-4.91
967.528	-1.61
967.956	-3.51
968.383	-2.01
968.811	1.19
969.239	-4.61
969.666	-4.81
970.094	-3.91
970.522	-4.11
970.949	0.49
971.377	-4.21
971.804	0.09
972.232	-4.71
972.659	-5.61
973.087	-1.01
973.514	-7.71
973.941	-10.61
974.369	2.89
974.796	-0.51
975.223	-1.41
975.651	-4.51
976.078	-4.91
976.505	-5.61
976.932	5.29
977.359	12.59
977.786	5.49
978.214	7.59
978.641	1.69
979.068	-6.31
979.495	-1.81
979.922	2.59
980.349	-2.61
980.776	-0.41
981.202	-2.21
981.629	3.19
982.056	3.19
982.483	-3.81
982.91	-1.01
983.337	-10.91
983.763	-4.31
984.19	-4.91
984.617	-2.91
985.043	-3.01
985.47	-6.31
985.897	-9.31
986.323	-9.11
986.75	2.09
987.176	2.39
987.603	2.49
988.029	-5.31
988.456	-9.01
988.882	-1.31
989.308	-8.31
989.735	-2.71
990.161	1.89
990.587	-2.31
991.014	-1.51
991.44	6.59
991.866	-6.21
992.292	-7.21
992.719	-8.91
993.145	0.29
993.571	-12.71
993.997	-7.21
994.423	-7.71
994.849	-6.81
995.275	-2.81
995.701	1.89
996.127	-3.11
996.553	3.59
996.979	-9.11
997.405	-2.01
997.83	-2.41
998.256	-8.31
998.682	-7.01
999.108	-13.21
999.534	-3.51
999.959	-3.41
1000.385	-6.81
1000.811	-5.51
1001.236	-17.21
1001.662	-14.81
1002.087	-4.91
1002.513	-0.51
1002.938	2.69
1003.364	-5.61
1003.789	3.69
1004.215	1.59
1004.64	-4.51
1005.066	1.59
1005.491	-3.31
1005.916	-2.81
1006.342	-4.11
1006.767	-2.21
1007.192	-0.31
1007.617	-5.11
1008.042	-4.51
1008.468	-9.11
1008.893	-2.11
1009.318	-7.01
1009.743	-7.01
1010.168	2.69
1010.593	1.39
1011.018	-9.61
1011.443	-3.71
1011.868	3.49
1012.293	-7.21
1012.718	-6.71
1013.143	-2.71
1013.567	-0.91
1013.992	-8.01
1014.417	-15.31
1014.842	5.59
1015.267	-5.81
1015.691	-0.01
1016.116	4.69
1016.541	-6.11
1016.965	-4.21
1017.39	-0.21
1017.814	-2.81
1018.239	-0.11
1018.663	-7.41
1019.088	-7.41
1019.512	-4.61
1019.937	-6.41
1020.361	-8.61
1020.785	-12.51
1021.21	-1.71
1021.634	-0.91
1022.058	-6.41
1022.483	-4.41
1022.907	-6.11
1023.331	-0.91
1023.755	-4.01
1024.179	-3.11
1024.604	-8.01
1025.028	-4.91
1025.452	-1.61
1025.876	-5.51
1026.3	1.09
1026.724	-12.81
1027.148	-4.61
1027.572	-9.51
1027.996	-2.81
1028.42	-4.81
1028.843	-7.71
1029.267	-6.81
1029.691	2.89
1030.115	-9.31
1030.539	-11.21
1030.962	-7.61
1031.386	-15.21
1031.81	-2.71
1032.233	-8.21
1032.657	-0.61
1033.08	-2.51
1033.504	-2.01
1033.927	-8.31
1034.351	-5.01
1034.774	-6.01
1035.198	-1.01
1035.621	-7.41
1036.045	-6.31
1036.468	1.79
1036.891	-10.81
1037.315	-8.01
1037.738	-7.61
1038.161	-1.51
1038.584	-6.91
1039.008	-6.81
1039.431	-2.01
1039.854	-2.11
1040.277	-8.71
1040.7	-6.71
1041.123	2.19
1041.546	-9.11
1041.969	-5.41
1042.392	-10.91
1042.815	-6.01
1043.238	-0.01
1043.661	-2.01
1044.084	-3.51
1044.507	-9.91
1044.93	-10.01
1045.352	-8.61
1045.775	-6.51
1046.198	-5.01
1046.621	-1.41
1047.043	2.19
1047.466	8.09
1047.889	-3.21
1048.311	-6.11
1048.734	0.19
1049.156	-2.91
1049.579	0.59
1050.001	-3.41
1050.424	-0.21
1050.846	-1.41
1051.269	-6.71
1051.691	-1.31
1052.113	-2.01
1052.536	2.49
1052.958	-0.21
1053.38	-5.11
1053.802	-6.91
1054.225	5.19
1054.647	-13.01
1055.069	-10.01
1055.491	-4.71
1055.913	-10.61
1056.335	-7.61
1056.757	-7.11
1057.179	-4.11
1057.601	-4.21
1058.023	-4.61
1058.445	-3.91
1058.867	-5.61
1059.289	-2.01
1059.711	-12.81
1060.133	-5.81
1060.555	-6.61
1060.976	-10.81
1061.398	-5.21
1061.82	-9.61
1062.241	-9.01
1062.663	-9.91
1063.085	-6.31
1063.506	-1.61
1063.928	-3.11
1064.35	-2.31
1064.771	-11.81
1065.193	-1.61
1065.614	-11.91
1066.035	-5.21
1066.457	-1.81
1066.878	2.69
1067.3	-7.11
1067.721	-4.91
1068.142	-4.71
1068.564	-6.21
1068.985	-4.71
1069.406	-10.41
1069.827	-4.71
1070.248	-1.21
1070.67	-7.41
1071.091	-9.81
1071.512	-6.41
1071.933	-6.61
1072.354	-6.61
1072.775	-7.41
1073.196	-3.51
1073.617	-3.41
1074.038	-9.41
1074.459	0.29
1074.88	-5.71
1075.3	5.59
1075.721	-8.61
1076.142	2.29
1076.563	-0.31
1076.983	-8.41
1077.404	-5.11
1077.825	-8.61
1078.246	-8.51
1078.666	-15.81
1079.087	-5.41
1079.507	-13.01
1079.928	-2.11
1080.348	1.59
1080.769	-5.01
1081.189	7.89
1081.61	-2.91
1082.03	-7.21
1082.451	-12.11
1082.871	-8.21
1083.291	-7.51
1083.711	-8.81
1084.132	-8.11
1084.552	-5.51
1084.972	-2.01
1085.392	-8.61
1085.813	-11.41
1086.233	-9.11
1086.653	-4.01
1087.073	-3.11
1087.493	-9.01
1087.913	-7.21
1088.333	-4.71
1088.753	-2.01
1089.173	2.09
1089.593	-3.11
1090.013	-1.21
1090.433	-3.81
1090.852	-3.61
1091.272	-1.61
1091.692	-4.31
1092.112	-3.01
1092.531	-7.21
1092.951	-16.01
1093.371	-5.31
1093.79	2.09
1094.21	-12.11
1094.63	-14.81
1095.049	-5.51
1095.469	-2.11
1095.888	-4.81
1096.308	-0.41
1096.727	1.59
1097.146	-7.81
1097.566	-6.41
1097.985	-8.91
1098.405	-4.81
1098.824	-5.21
1099.243	-5.91
1099.662	-13.81
1100.082	-1.11
1100.501	-3.11
1100.92	-9.31
1101.339	-5.21
1101.758	-3.31
