Data from 20171114-ORNL-Ar_H_NY_Subt18_08-08-08-013.txt Node
Date: Tue Nov 14 08:08:08 EST 2017
User: Ender
Spectrometer: HR+D1039
Trigger mode: 0
Integration Time (sec): 2.730000E-2
Scans to average: 10
Electric dark correction enabled: true
Nonlinearity correction enabled: false
Boxcar width: 0
XAxis mode: Wavelengths
Number of Pixels in Spectrum: 2048
>>>>>Begin Spectral Data<<<<<
187.836	-2.17
188.309	-2.17
188.782	-2.17
189.255	-3.77
189.728	-2.17
190.201	4.12
190.674	1.52
191.147	4.62
191.619	-6.67
192.092	1.33
192.565	2.12
193.038	6.12
193.511	-1.88
193.984	-1.07
194.456	-1.47
194.929	2.93
195.402	-2.48
195.874	-1.07
196.347	0.52
196.82	-5.07
197.292	10.52
197.765	-1.87
198.237	-6.97
198.71	3.52
199.182	-6.38
199.655	2.43
200.127	-1.67
200.6	-4.27
201.072	-1.08
201.544	-1.57
202.017	-2.67
202.489	4.23
202.961	-3.47
203.433	-3.67
203.906	-8.37
204.378	-8.47
204.85	-3.17
205.322	-13.98
205.794	-4.98
206.266	-9.27
206.739	-5.88
207.211	-1.17
207.683	-7.57
208.155	-6.07
208.627	-7.97
209.099	-2.67
209.57	-11.67
210.042	-6.98
210.514	-5.27
210.986	-1.37
211.458	-8.98
211.93	0.02
212.402	1.23
212.873	-5.38
213.345	-8.97
213.817	-15.77
214.288	-6.67
214.76	-15.17
215.232	-1.17
215.703	-5.17
216.175	-1.47
216.646	-10.47
217.118	-7.48
217.589	-1.47
218.061	-5.27
218.532	-1.67
219.004	-2.38
219.475	-1.57
219.946	-5.77
220.418	-9.57
220.889	4.03
221.36	4.23
221.832	-7.57
222.303	-12.07
222.774	-0.77
223.245	-9.17
223.717	-9.38
224.188	-4.37
224.659	-5.27
225.13	-10.07
225.601	-8.77
226.072	-3.77
226.543	-5.67
227.014	0.12
227.485	-2.27
227.956	-5.37
228.427	-14.77
228.898	1.73
229.369	1.52
229.839	-7.38
230.31	-6.67
230.781	-1.97
231.252	-0.88
231.722	-8.27
232.193	-0.17
232.664	-1.67
233.135	4.62
233.605	-4.87
234.076	2.52
234.546	1.42
235.017	1.63
235.487	3.33
235.958	-1.47
236.428	-1.07
236.899	-0.47
237.369	0.43
237.84	-4.57
238.31	4.83
238.78	2.83
239.251	-4.27
239.721	3.93
240.191	-7.67
240.662	-3.07
241.132	-3.27
241.602	0.83
242.072	1.12
242.542	4.93
243.013	-1.67
243.483	1.73
243.953	3.43
244.423	1.73
244.893	-5.98
245.363	0.33
245.833	-0.07
246.303	-1.07
246.773	7.03
247.243	-1.08
247.712	0.92
248.182	13.52
248.652	-2.88
249.122	-3.27
249.592	7.33
250.061	18.53
250.531	32.23
251.001	19.03
251.471	22.73
251.94	16.42
252.41	3.73
252.879	2.23
253.349	12.33
253.818	6.73
254.288	8.73
254.757	1.13
255.227	0.83
255.696	-2.07
256.166	1.83
256.635	9.83
257.105	5.43
257.574	3.92
258.043	3.23
258.513	14.52
258.982	14.03
259.451	7.02
259.92	15.93
260.389	13.33
260.859	14.03
261.328	10.93
261.797	20.23
262.266	5.53
262.735	8.83
263.204	5.33
263.673	8.12
264.142	6.93
264.611	1.93
265.08	-1.57
265.549	-3.37
266.018	11.43
266.487	0.02
266.955	-1.17
267.424	-1.87
267.893	3.83
268.362	-2.87
268.83	-0.67
269.299	6.33
269.768	4.43
270.236	8.83
270.705	0.33
271.174	3.23
271.642	6.83
272.111	5.83
272.579	13.42
273.048	24.92
273.516	32.13
273.985	24.43
274.453	25.33
274.922	18.43
275.39	8.52
275.858	-2.77
276.327	10.73
276.795	18.83
277.263	2.52
277.731	23.12
278.2	50.83
278.668	55.73
279.136	49.03
279.604	15.13
280.072	11.23
280.54	12.83
281.008	4.12
281.477	13.93
281.945	9.33
282.413	13.43
282.881	14.43
283.348	7.13
283.816	17.52
284.284	12.12
284.752	16.52
285.22	7.83
285.688	8.73
286.156	14.83
286.623	44.43
287.091	44.83
287.559	22.62
288.026	18.93
288.494	11.12
288.962	0.93
289.429	6.92
289.897	19.93
290.364	13.83
290.832	12.53
291.3	12.23
291.767	20.33
292.234	12.12
292.702	12.73
293.169	14.93
293.637	17.53
294.104	22.73
294.571	9.62
295.039	11.62
295.506	13.93
295.973	17.62
296.44	17.63
296.908	17.13
297.375	16.33
297.842	14.43
298.309	12.43
298.776	12.23
299.243	20.83
299.71	9.93
300.177	18.93
300.644	19.83
301.111	20.03
301.578	27.83
302.045	16.73
302.512	22.73
302.979	25.23
303.446	20.02
303.913	17.83
304.379	18.23
304.846	22.43
305.313	23.62
305.78	28.73
306.246	24.12
306.713	21.42
307.18	19.13
307.646	30.52
308.113	24.52
308.579	20.02
309.046	23.73
309.512	28.23
309.979	18.12
310.445	22.83
310.912	24.83
311.378	32.83
311.845	26.13
312.311	28.83
312.777	25.93
313.244	22.33
313.71	30.62
314.176	31.93
314.642	27.83
315.109	31.93
315.575	30.83
316.041	41.23
316.507	28.73
316.973	31.02
317.439	37.12
317.905	30.83
318.371	38.62
318.837	33.13
319.303	26.02
319.769	27.53
320.235	30.23
320.701	33.02
321.167	35.52
321.633	37.93
322.099	35.62
322.564	46.43
323.03	35.52
323.496	39.13
323.962	36.73
324.427	38.12
324.893	38.33
325.359	33.33
325.824	32.43
326.29	33.62
326.755	35.33
327.221	35.92
327.686	42.93
328.152	46.03
328.617	41.73
329.083	43.12
329.548	43.12
330.014	49.83
330.479	38.62
330.944	48.92
331.41	37.23
331.875	42.73
332.34	40.13
332.805	42.62
333.271	43.12
333.736	39.33
334.201	51.83
334.666	48.33
335.131	55.93
335.596	45.42
336.061	52.33
336.526	42.12
336.991	48.33
337.456	54.23
337.921	40.02
338.386	39.73
338.851	41.73
339.316	46.43
339.781	40.33
340.246	47.63
340.711	40.62
341.175	50.62
341.64	44.23
342.105	49.63
342.569	52.52
343.034	60.52
343.499	52.73
343.963	49.83
344.428	55.23
344.893	61.33
345.357	62.33
345.822	54.12
346.286	65.83
346.751	70.83
347.215	67.43
347.679	74.63
348.144	98.12
348.608	78.43
349.073	67.73
349.537	74.23
350.001	76.73
350.465	88.93
350.93	74.73
351.394	74.63
351.858	68.63
352.322	85.03
352.786	84.93
353.25	92.93
353.715	109.83
354.179	99.02
354.643	117.63
355.107	127.62
355.571	112.03
356.035	105.23
356.498	114.02
356.962	128.33
357.426	130.12
357.89	111.93
358.354	91.43
358.818	79.43
359.281	78.63
359.745	72.13
360.209	80.13
360.673	73.83
361.136	78.63
361.6	85.02
362.064	78.63
362.527	81.33
362.991	89.23
363.454	85.43
363.918	70.12
364.381	78.12
364.845	83.02
365.308	91.73
365.772	86.43
366.235	85.62
366.698	84.23
367.162	88.33
367.625	88.52
368.088	85.12
368.552	83.62
369.015	82.63
369.478	98.43
369.941	96.23
370.404	95.83
370.867	105.93
371.331	110.33
371.794	112.23
372.257	112.73
372.72	120.23
373.183	105.23
373.646	107.23
374.109	101.53
374.572	110.62
375.035	105.83
375.497	113.52
375.96	108.83
376.423	106.33
376.886	116.23
377.349	108.43
377.811	97.63
378.274	97.93
378.737	101.83
379.199	111.73
379.662	116.03
380.125	115.83
380.587	115.43
381.05	127.53
381.512	122.52
381.975	141.02
382.437	131.73
382.9	125.52
383.362	134.62
383.825	146.13
384.287	149.53
384.75	140.43
385.212	142.12
385.674	141.92
386.136	135.93
386.599	124.83
387.061	129.73
387.523	133.03
387.985	139.42
388.447	145.83
388.91	151.23
389.372	165.03
389.834	151.33
390.296	150.33
390.758	158.33
391.22	177.23
391.682	218.32
392.144	303.93
392.606	239.12
393.068	174.13
393.529	176.12
393.991	158.43
394.453	151.23
394.915	151.02
395.377	202.02
395.838	215.73
396.3	158.23
396.762	142.43
397.224	133.93
397.685	136.92
398.147	134.33
398.608	124.43
399.07	123.73
399.531	132.13
399.993	140.43
400.454	157.62
400.916	143.23
401.377	146.73
401.839	146.62
402.3	153.23
402.762	162.43
403.223	179.73
403.684	169.92
404.145	156.62
404.607	166.53
405.068	167.33
405.529	175.63
405.99	192.93
406.451	179.02
406.913	179.12
407.374	159.53
407.835	160.93
408.296	162.93
408.757	172.33
409.218	186.23
409.679	182.23
410.14	177.83
410.601	183.93
411.062	192.23
411.522	191.33
411.983	200.32
412.444	178.13
412.905	183.93
413.366	180.53
413.826	192.12
414.287	212.23
414.748	259.13
415.208	244.92
415.669	211.53
416.13	207.92
416.59	197.92
417.051	218.73
417.511	221.62
417.972	238.23
418.432	249.23
418.893	285.93
419.353	246.73
419.814	200.93
420.274	187.12
420.734	187.12
421.195	199.33
421.655	193.33
422.115	204.42
422.576	204.12
423.036	207.53
423.496	211.12
423.956	213.62
424.416	236.92
424.876	263.23
425.336	267.72
425.797	261.33
426.257	259.33
426.717	240.33
427.177	226.02
427.637	230.33
428.097	240.42
428.556	247.23
429.016	270.82
429.476	272.23
429.936	275.93
430.396	291.02
430.856	289.03
431.315	319.72
431.775	356.22
432.235	382.63
432.694	350.92
433.154	362.83
433.614	400.83
434.073	341.83
434.533	290.33
434.993	274.93
435.452	288.93
435.912	299.53
436.371	292.93
436.83	289.62
437.29	266.33
437.749	250.23
438.209	239.93
438.668	277.63
439.127	291.02
439.587	273.33
440.046	249.73
440.505	252.12
440.964	279.33
441.424	328.53
441.883	309.62
442.342	258.93
442.801	226.02
443.26	228.82
443.719	213.63
444.178	218.93
444.637	207.33
445.096	220.62
445.555	218.93
446.014	221.53
446.473	230.83
446.932	234.12
447.391	220.93
447.849	231.42
448.308	216.23
448.767	218.62
449.226	232.23
449.685	236.02
450.143	250.82
450.602	233.12
451.061	222.63
451.519	229.23
451.978	229.32
452.436	234.73
452.895	232.62
453.353	253.23
453.812	239.62
454.27	244.23
454.729	229.73
455.187	239.63
455.646	244.23
456.104	249.83
456.562	262.12
457.021	270.52
457.479	264.13
457.937	272.33
458.395	271.33
458.854	248.73
459.312	248.13
459.77	271.73
460.228	260.03
460.686	237.73
461.144	241.93
461.602	237.62
462.06	244.73
462.518	253.03
462.976	254.22
463.434	260.43
463.892	265.02
464.35	275.33
464.808	286.43
465.266	260.23
465.724	270.93
466.181	271.63
466.639	275.32
467.097	290.43
467.555	296.13
468.012	301.82
468.47	315.33
468.928	322.42
469.385	337.43
469.843	342.02
470.3	350.62
470.758	364.73
471.215	372.63
471.673	407.63
472.13	405.42
472.588	421.33
473.045	374.83
473.503	379.03
473.96	394.52
474.417	415.43
474.875	439.53
475.332	465.73
475.789	460.42
476.246	468.62
476.704	488.12
477.161	510.63
477.618	520.43
478.075	559.62
478.532	621.33
478.989	692.52
479.446	808.12
479.903	776.62
480.36	812.32
480.817	862.33
481.274	967.43
481.731	1080.33
482.188	1182.62
482.645	1310.62
483.102	1420.32
483.558	1546.23
484.015	1601.32
484.472	1584.23
484.929	1536.13
485.385	1485.32
485.842	1449.03
486.299	1366.03
486.755	1294.62
487.212	1090.42
487.668	928.62
488.125	851.52
488.582	772.62
489.038	740.82
489.494	708.42
489.951	681.83
490.407	663.43
490.864	643.53
491.32	637.02
491.776	637.02
492.233	640.62
492.689	607.33
493.145	603.23
493.602	597.52
494.058	610.32
494.514	619.03
494.97	636.93
495.426	634.13
495.882	612.63
496.338	607.73
496.794	621.02
497.251	620.13
497.707	627.43
498.163	636.82
498.618	633.03
499.074	637.83
499.53	670.42
499.986	680.53
500.442	655.23
500.898	626.62
501.354	621.83
501.809	638.03
502.265	636.13
502.721	660.53
503.177	670.43
503.632	659.32
504.088	677.23
504.543	702.73
504.999	699.73
505.455	642.22
505.91	619.43
506.366	619.73
506.821	619.12
507.277	611.72
507.732	611.72
508.187	610.52
508.643	625.73
509.098	625.02
509.553	647.22
510.009	648.53
510.464	665.82
510.919	679.63
511.375	681.83
511.83	700.03
512.285	718.53
512.74	750.52
513.195	775.83
513.65	759.93
514.105	764.62
514.56	768.33
515.015	781.93
515.47	803.23
515.925	780.12
516.38	776.32
516.835	777.02
517.29	773.93
517.745	769.43
518.2	749.72
518.655	738.33
519.109	731.43
519.564	722.12
520.019	718.93
520.474	713.43
520.928	717.12
521.383	711.92
521.838	701.73
522.292	701.83
522.747	699.33
523.201	688.53
523.656	690.02
524.11	687.83
524.565	674.63
525.019	686.83
525.474	702.93
525.928	696.53
526.382	691.13
526.837	685.33
527.291	689.23
527.745	683.33
528.2	676.42
528.654	670.13
529.108	683.32
529.562	683.82
530.016	672.03
530.47	683.02
530.925	683.63
531.379	687.33
531.833	691.42
532.287	700.53
532.741	687.53
533.195	691.53
533.649	700.82
534.103	704.43
534.556	698.12
535.01	696.53
535.464	690.52
535.918	706.73
536.372	714.92
536.826	696.92
537.279	691.53
537.733	697.52
538.187	708.82
538.64	701.83
539.094	712.93
539.548	718.73
540.001	720.62
540.455	716.72
540.908	707.32
541.362	725.63
541.815	726.23
542.269	748.42
542.722	743.73
543.175	757.02
543.629	750.12
544.082	774.93
544.536	768.63
544.989	770.93
545.442	784.93
545.895	788.42
546.349	779.23
546.802	785.12
547.255	790.82
547.708	796.73
548.161	803.72
548.614	813.12
549.067	817.02
549.52	816.43
549.973	790.82
550.426	794.72
550.879	783.13
551.332	795.83
551.785	791.73
552.238	787.23
552.691	793.23
553.144	822.12
553.596	836.93
554.049	852.13
554.502	873.23
554.955	890.72
555.407	900.52
555.86	881.32
556.313	860.43
556.765	868.83
557.218	857.03
557.67	868.83
558.123	861.12
558.576	860.23
559.028	864.43
559.48	868.12
559.933	859.63
560.385	822.92
560.838	798.12
561.29	776.23
561.742	772.53
562.195	753.52
562.647	762.93
563.099	760.83
563.551	777.93
564.004	768.72
564.456	762.03
564.908	747.42
565.36	739.73
565.812	718.23
566.264	726.73
566.716	719.62
567.168	719.12
567.62	720.73
568.072	693.23
568.524	686.12
568.976	681.53
569.428	668.83
569.88	668.02
570.332	679.62
570.784	673.72
571.235	670.23
571.687	700.63
572.139	688.62
572.59	708.22
573.042	699.72
573.494	708.33
573.945	695.62
574.397	677.23
574.849	689.43
575.3	680.02
575.752	670.32
576.203	671.83
576.655	673.12
577.106	668.02
577.557	656.83
578.009	660.93
578.46	651.03
578.912	656.73
579.363	652.43
579.814	664.53
580.265	662.12
580.717	662.13
581.168	658.13
581.619	660.53
582.07	673.73
582.521	669.33
582.972	670.12
583.423	674.03
583.875	682.43
584.326	699.92
584.777	747.42
585.227	826.02
585.678	935.13
586.129	1027.23
586.58	1098.33
587.031	1195.03
587.482	1345.62
587.933	1551.23
588.384	1325.23
588.834	985.23
589.285	802.83
589.736	778.73
590.186	776.03
590.637	755.43
591.088	740.83
591.538	734.43
591.989	730.13
592.439	714.42
592.89	718.62
593.34	706.82
593.791	703.03
594.241	699.62
594.692	713.73
595.142	697.63
595.593	693.33
596.043	698.42
596.493	707.93
596.943	716.12
597.394	723.33
597.844	708.63
598.294	737.93
598.744	746.82
599.195	762.83
599.645	814.93
600.095	846.03
600.545	909.53
600.995	974.83
601.445	1023.72
601.895	1083.43
602.345	1136.03
602.795	1100.43
603.245	1044.23
603.695	1010.73
604.145	939.73
604.594	903.83
605.044	846.73
605.494	800.83
605.944	745.73
606.393	731.23
606.843	724.43
607.293	724.03
607.743	729.02
608.192	735.12
608.642	757.02
609.091	759.62
609.541	758.23
609.99	765.12
610.44	767.53
610.889	716.33
611.339	695.53
611.788	680.83
612.238	699.73
612.687	714.92
613.136	713.33
613.586	730.53
614.035	739.12
614.484	763.32
614.933	763.43
615.383	748.33
615.832	746.73
616.281	726.12
616.73	681.83
617.179	667.12
617.628	649.12
618.077	633.43
618.526	620.92
618.975	614.42
619.424	611.83
619.873	602.62
620.322	611.43
620.771	601.73
621.22	598.03
621.669	597.23
622.118	590.42
622.567	582.33
623.015	576.93
623.464	569.82
623.913	551.03
624.361	552.33
624.81	556.63
625.259	548.93
625.707	548.83
626.156	559.63
626.604	562.03
627.053	552.03
627.501	564.12
627.95	558.23
628.398	573.53
628.847	560.03
629.295	572.83
629.744	571.73
630.192	565.53
630.64	559.53
631.089	563.22
631.537	577.13
631.985	598.13
632.433	608.02
632.881	614.12
633.33	676.03
633.778	652.32
634.226	567.53
634.674	580.62
635.122	581.83
635.57	605.62
636.018	639.13
636.466	577.73
636.914	556.93
637.362	573.43
637.81	574.73
638.258	577.62
638.705	578.23
639.153	610.43
639.601	615.13
640.049	641.92
640.497	665.62
640.944	691.03
641.392	642.32
641.84	612.33
642.287	585.33
642.735	577.53
643.182	569.43
643.63	572.52
644.078	581.62
644.525	598.12
644.973	604.52
645.42	610.73
645.867	615.83
646.315	644.73
646.762	669.53
647.21	688.93
647.657	715.83
648.104	753.32
648.551	773.83
648.999	833.13
649.446	921.33
649.893	1017.12
650.34	1184.12
650.787	1414.62
651.234	1771.32
651.682	2311.32
652.129	3197.93
652.576	4619.33
653.023	6815.23
653.47	9308.12
653.917	11608.92
654.363	13238.03
654.81	14550.73
655.257	13882.73
655.704	9099.62
656.151	5337.12
656.598	3439.12
657.044	2444.62
657.491	1880.82
657.938	1499.63
658.385	1255.03
658.831	1091.73
659.278	961.73
659.724	856.42
660.171	786.92
660.618	724.82
661.064	685.33
661.511	669.13
661.957	659.83
662.404	648.23
662.85	650.93
663.296	626.32
663.743	565.33
664.189	543.03
664.635	535.32
665.082	524.43
665.528	523.23
665.974	525.02
666.42	507.83
666.867	507.63
667.313	491.02
667.759	466.73
668.205	481.42
668.651	495.73
669.097	495.42
669.543	508.72
669.989	477.32
670.435	457.23
670.881	444.12
671.327	452.02
671.773	470.53
672.219	489.92
672.665	544.73
673.11	588.62
673.556	627.13
674.002	667.73
674.448	652.53
674.893	535.13
675.339	475.23
675.785	434.52
676.23	419.73
676.676	390.23
677.122	377.83
677.567	369.02
678.013	364.63
678.458	359.73
678.904	361.53
679.349	347.93
679.794	353.13
680.24	349.83
680.685	348.82
681.131	354.23
681.576	355.33
682.021	346.83
682.466	346.92
682.912	341.72
683.357	347.73
683.802	379.93
684.247	413.83
684.692	450.33
685.137	493.63
685.583	532.13
686.028	551.92
686.473	523.92
686.918	441.83
687.363	412.83
687.807	386.42
688.252	369.42
688.697	346.53
689.142	330.13
689.587	339.53
690.032	319.12
690.477	341.03
690.921	347.92
691.366	385.52
691.811	401.03
692.255	422.02
692.7	455.93
693.145	507.12
693.589	712.33
694.034	1142.62
694.478	1543.22
694.923	1710.53
695.367	2208.23
695.812	1179.42
696.256	495.83
696.701	360.62
697.145	329.83
697.59	326.33
698.034	316.83
698.478	335.73
698.922	330.73
699.367	322.52
699.811	334.82
700.255	353.23
700.699	393.13
701.143	425.73
701.588	462.42
702.032	503.13
702.476	515.83
702.92	489.03
703.364	493.42
703.808	647.03
704.252	1055.22
704.696	1446.03
705.14	1642.12
705.584	2089.73
706.027	1045.22
706.471	517.92
706.915	387.62
707.359	353.63
707.803	314.72
708.246	313.23
708.69	303.73
709.134	314.52
709.577	306.13
710.021	315.92
710.465	306.83
710.908	296.02
711.352	292.02
711.795	315.42
712.239	353.02
712.682	389.03
713.126	416.72
713.569	466.02
714.012	373.13
714.456	329.23
714.899	303.63
715.342	278.33
715.786	257.83
716.229	258.62
716.672	251.23
717.115	242.02
717.558	256.83
718.002	253.62
718.445	265.63
718.888	288.03
719.331	296.53
719.774	312.93
720.217	304.43
720.66	282.92
721.103	270.42
721.546	247.62
721.989	240.12
722.432	226.13
722.874	238.03
723.317	230.83
723.76	239.23
724.203	261.03
724.645	316.33
725.088	454.53
725.531	575.03
725.974	636.22
726.416	534.83
726.859	302.12
727.301	246.13
727.744	235.23
728.187	241.53
728.629	233.53
729.071	243.02
729.514	258.82
729.956	272.03
730.399	277.63
730.841	284.62
731.283	278.33
731.726	264.33
732.168	259.02
732.61	268.22
733.053	292.12
733.495	314.53
733.937	346.23
734.379	399.62
734.821	435.43
735.263	548.53
735.705	845.52
736.148	1603.82
736.59	2569.43
737.032	2995.32
737.474	2421.72
737.916	803.33
738.357	427.23
738.799	319.23
739.241	303.02
739.683	284.33
740.125	289.63
740.567	297.02
741.008	315.53
741.45	313.73
741.892	312.23
742.334	338.83
742.775	354.92
743.217	341.72
743.658	270.73
744.1	247.53
744.542	257.23
744.983	308.23
745.425	334.73
745.866	339.43
746.307	279.33
746.749	288.73
747.19	327.93
747.632	462.12
748.073	917.12
748.514	1888.22
748.956	2836.33
749.397	3558.22
749.838	2950.12
750.279	2905.63
750.72	1460.82
751.162	534.23
751.603	315.53
752.044	249.23
752.485	218.02
752.926	208.42
753.367	198.02
753.808	195.42
754.249	184.53
754.69	184.93
755.131	180.43
755.572	176.33
756.013	182.12
756.453	184.93
756.894	191.83
757.335	187.13
757.776	196.83
758.216	195.83
758.657	194.53
759.098	202.83
759.538	221.52
759.979	263.92
760.42	373.52
760.86	728.63
761.301	1887.83
761.741	4451.62
762.182	6237.62
762.622	4382.23
763.063	1296.63
763.503	544.73
763.943	349.12
764.384	347.42
764.824	422.03
765.264	445.13
765.705	312.62
766.145	212.52
766.585	187.73
767.025	182.92
767.465	188.93
767.906	255.02
768.346	331.92
768.786	347.73
769.226	268.33
769.666	327.33
770.106	635.33
770.546	1594.22
770.986	2593.73
771.426	2304.43
771.866	782.62
772.306	326.23
772.745	217.43
773.185	176.23
773.625	169.83
774.065	168.03
774.505	205.33
774.944	333.62
775.384	751.73
775.824	1310.12
776.263	1252.62
776.703	537.62
777.142	224.33
777.582	155.62
778.021	137.03
778.461	145.33
778.9	141.43
779.34	125.33
779.779	116.13
780.219	111.03
780.658	114.03
781.097	113.93
781.537	117.33
781.976	103.62
782.415	105.23
782.855	103.83
783.294	103.63
783.733	106.83
784.172	108.73
784.611	109.52
785.05	107.73
785.489	114.83
785.928	118.33
786.367	123.03
786.806	119.33
787.245	129.02
787.684	133.62
788.123	143.83
788.562	136.23
789.001	124.73
789.44	126.93
789.879	111.02
790.317	121.33
790.756	127.23
791.195	123.93
791.634	150.13
792.072	198.13
792.511	379.43
792.95	1028.62
793.388	2118.52
793.827	1890.52
794.265	673.32
794.704	280.52
795.142	178.83
795.581	150.83
796.019	135.53
796.458	130.73
796.896	125.23
797.334	138.83
797.773	158.62
798.211	223.73
798.649	447.53
799.087	1027.43
799.526	1591.32
799.964	2005.13
800.402	1951.82
800.84	739.53
801.278	300.02
801.716	184.62
802.154	155.42
802.592	145.33
803.03	134.73
803.468	136.83
803.906	142.23
804.344	144.93
804.782	138.43
805.22	136.42
805.658	130.83
806.096	151.23
806.533	155.12
806.971	169.02
807.409	221.53
807.847	316.23
808.284	674.23
808.722	1868.82
809.16	3216.32
809.597	3137.62
810.035	5369.53
810.472	5555.73
810.91	2038.73
811.347	773.62
811.785	400.83
812.222	255.12
812.66	190.63
813.097	166.02
813.535	139.12
813.972	130.73
814.409	118.83
814.846	105.13
815.284	107.53
815.721	105.33
816.158	102.73
816.595	120.63
817.032	190.92
817.47	195.62
817.907	166.33
818.344	160.23
818.781	117.83
819.218	102.23
819.655	121.03
820.092	178.33
820.529	210.12
820.966	177.73
821.403	131.43
821.839	111.93
822.276	97.23
822.713	123.52
823.15	133.43
823.587	112.43
824.023	148.02
824.46	307.12
824.897	914.93
825.333	1328.42
825.77	565.12
826.206	228.12
826.643	138.02
827.08	99.73
827.516	85.43
827.953	83.23
828.389	73.12
828.825	70.53
829.262	65.12
829.698	68.23
830.135	57.53
830.571	62.12
831.007	65.13
831.443	65.73
831.88	59.33
832.316	63.93
832.752	69.63
833.188	67.33
833.624	66.83
834.06	69.33
834.497	65.43
834.933	73.23
835.369	71.53
835.805	64.83
836.241	65.52
836.677	75.83
837.112	90.83
837.548	106.03
837.984	129.62
838.42	198.43
838.856	509.93
839.292	1520.13
839.727	2242.73
840.163	1046.62
840.599	935.33
841.034	2025.33
841.47	2049.53
841.906	757.62
842.341	331.63
842.777	232.62
843.212	339.12
843.648	323.72
844.083	156.12
844.519	98.23
844.954	73.83
845.39	56.33
845.825	54.93
846.261	54.83
846.696	52.53
847.131	55.23
847.566	60.42
848.002	50.23
848.437	55.43
848.872	55.53
849.307	59.03
849.742	88.83
850.177	189.03
850.613	557.93
851.048	854.23
851.483	371.53
851.918	150.52
852.353	90.73
852.788	58.43
853.223	55.92
853.657	54.33
854.092	47.33
854.527	40.43
854.962	41.93
855.397	38.53
855.832	47.53
856.266	40.03
856.701	40.53
857.136	40.63
857.57	41.33
858.005	47.03
858.44	54.33
858.874	46.13
859.309	47.23
859.743	43.23
860.178	47.23
860.612	32.12
861.047	56.93
861.481	66.62
861.915	71.53
862.35	50.03
862.784	36.62
863.218	36.23
863.653	35.02
864.087	51.52
864.521	48.93
864.955	72.03
865.39	153.73
865.824	168.13
866.258	110.43
866.692	161.13
867.126	167.52
867.56	97.02
867.994	53.02
868.428	37.62
868.862	49.83
869.296	54.33
869.73	58.33
870.164	51.93
870.598	44.93
871.031	39.62
871.465	24.62
871.899	32.13
872.333	20.43
872.766	21.33
873.2	20.02
873.634	29.73
874.067	22.43
874.501	27.92
874.935	29.33
875.368	29.12
875.802	32.62
876.235	22.62
876.669	29.73
877.102	20.03
877.535	30.33
877.969	22.63
878.402	25.52
878.836	22.23
879.269	21.63
879.702	27.33
880.135	18.12
880.569	26.62
881.002	21.43
881.435	23.02
881.868	14.73
882.301	26.63
882.734	16.73
883.167	22.83
883.601	17.13
884.034	25.02
884.467	20.33
884.899	22.43
885.332	13.33
885.765	8.13
886.198	12.83
886.631	16.33
887.064	19.03
887.497	22.93
887.929	25.83
888.362	15.62
888.795	7.02
889.228	19.33
889.66	21.43
890.093	21.02
890.526	13.23
890.958	15.63
891.391	15.63
891.823	27.33
892.256	18.43
892.688	13.62
893.121	16.13
893.553	15.52
893.985	24.52
894.418	17.12
894.85	18.73
895.282	14.33
895.715	13.33
896.147	20.83
896.579	16.02
897.011	10.13
897.444	19.23
897.876	14.13
898.308	14.73
898.74	21.93
899.172	8.23
899.604	22.13
900.036	24.83
900.468	16.23
900.9	13.23
901.332	12.83
901.764	11.73
902.196	14.13
902.628	19.33
903.06	15.23
903.491	25.23
903.923	18.12
904.355	16.53
904.787	25.12
905.218	24.23
905.65	18.23
906.082	15.93
906.513	16.52
906.945	14.02
907.376	10.83
907.808	20.03
908.239	13.93
908.671	16.83
909.102	22.33
909.534	25.93
909.965	43.73
910.397	91.02
910.828	311.93
911.259	460.53
911.691	210.02
912.122	103.43
912.553	57.93
912.984	34.23
913.415	32.43
913.847	18.12
914.278	13.43
914.709	17.52
915.14	20.73
915.571	16.43
916.002	7.93
916.433	17.53
916.864	15.33
917.295	16.62
917.726	16.62
918.157	15.02
918.587	23.33
919.018	23.03
919.449	22.53
919.88	20.33
920.311	32.43
920.741	45.52
921.172	169.03
921.603	143.33
922.033	76.02
922.464	45.03
922.895	23.02
923.325	19.13
923.756	5.23
924.186	14.63
924.617	26.53
925.047	49.93
925.478	53.23
925.908	47.23
926.338	23.73
926.769	22.53
927.199	24.13
927.629	7.03
928.06	20.03
928.49	11.03
928.92	14.23
929.35	3.33
929.78	8.33
930.21	3.33
930.641	6.33
931.071	6.62
931.501	-3.77
931.931	7.23
932.361	2.33
932.791	1.53
933.221	7.53
933.651	3.53
934.08	15.33
934.51	28.12
934.94	9.53
935.37	10.23
935.8	10.43
936.229	2.02
936.659	14.23
937.089	2.53
937.519	13.62
937.948	18.73
938.378	13.13
938.807	7.12
939.237	-1.27
939.666	6.23
940.096	-3.17
940.525	5.62
940.955	-1.87
941.384	6.83
941.814	-7.98
942.243	-0.37
942.672	5.12
943.102	-3.77
943.531	4.93
943.96	2.62
944.39	5.92
944.819	0.23
945.248	9.93
945.677	-0.47
946.106	4.83
946.535	5.02
946.964	-2.47
947.393	8.12
947.822	-0.27
948.251	-3.38
948.68	0.13
949.109	4.83
949.538	5.43
949.967	-1.67
950.396	1.12
950.825	-0.27
951.254	-2.27
951.682	-10.27
952.111	1.13
952.54	5.43
952.969	-10.77
953.397	-8.27
953.826	2.93
954.254	-6.38
954.683	3.23
955.112	-2.37
955.54	3.93
955.969	1.83
956.397	2.03
956.826	-0.47
957.254	-0.27
957.682	1.02
958.111	5.83
958.539	-2.37
958.967	0.23
959.396	-6.38
959.824	-0.37
960.252	-0.98
960.68	-6.38
961.109	-2.58
961.537	1.73
961.965	-3.27
962.393	-3.07
962.821	-4.67
963.249	0.93
963.677	3.13
964.105	6.33
964.533	48.73
964.961	40.73
965.389	20.63
965.817	6.02
966.245	-0.98
966.672	-1.17
967.1	-4.67
967.528	-0.88
967.956	-1.57
968.383	-3.17
968.811	-5.17
969.239	-2.58
969.666	-9.77
970.094	1.73
970.522	-4.97
970.949	-3.48
971.377	-3.17
971.804	-4.27
972.232	3.33
972.659	-5.77
973.087	0.42
973.514	-4.17
973.941	-5.38
974.369	7.33
974.796	1.63
975.223	4.42
975.651	-2.37
976.078	3.93
976.505	-5.98
976.932	3.23
977.359	10.52
977.786	15.03
978.214	2.83
978.641	-7.48
979.068	-5.57
979.495	-5.98
979.922	4.92
980.349	-3.67
980.776	4.62
981.202	-1.88
981.629	4.73
982.056	2.12
982.483	-4.97
982.91	0.83
983.337	-4.47
983.763	6.23
984.19	-3.67
984.617	-2.07
985.043	-5.27
985.47	1.43
985.897	-3.27
986.323	-9.48
986.75	3.83
987.176	-1.57
987.603	0.83
988.029	-1.27
988.456	-2.07
988.882	-0.97
989.308	-7.17
989.735	-5.08
990.161	-0.97
990.587	-5.98
991.014	-1.97
991.44	3.12
991.866	-3.37
992.292	0.93
992.719	-2.77
993.145	1.03
993.571	-6.97
993.997	-1.77
994.423	-4.38
994.849	-7.88
995.275	-1.17
995.701	-3.98
996.127	-7.88
996.553	-2.57
996.979	-2.97
997.405	-2.47
997.83	-3.67
998.256	-4.98
998.682	-5.47
999.108	-6.48
999.534	-2.77
999.959	-5.27
1000.385	-5.17
1000.811	2.02
1001.236	-9.17
1001.662	-5.88
1002.087	-2.87
1002.513	-3.98
1002.938	2.43
1003.364	-5.77
1003.789	-2.67
1004.215	-1.97
1004.64	-1.67
1005.066	0.73
1005.491	0.63
1005.916	-1.67
1006.342	2.93
1006.767	-5.77
1007.192	0.43
1007.617	-7.07
1008.042	-7.37
1008.468	-9.67
1008.893	-3.17
1009.318	-3.38
1009.743	-3.27
1010.168	0.23
1010.593	3.73
1011.018	-11.77
1011.443	-4.67
1011.868	-1.57
1012.293	-2.77
1012.718	-9.67
1013.143	-1.98
1013.567	1.03
1013.992	-4.77
1014.417	-13.88
1014.842	-0.77
1015.267	-5.48
1015.691	-4.97
1016.116	5.73
1016.541	-0.88
1016.965	4.23
1017.39	0.93
1017.814	-3.97
1018.239	-4.17
1018.663	-8.48
1019.088	-3.77
1019.512	-2.98
1019.937	-1.17
1020.361	-6.38
1020.785	-6.77
1021.21	-5.07
1021.634	-2.27
1022.058	-2.17
1022.483	1.12
1022.907	-2.98
1023.331	-9.87
1023.755	-1.67
1024.179	-4.67
1024.604	-7.97
1025.028	-14.67
1025.452	-2.38
1025.876	-4.58
1026.3	3.02
1026.724	-7.38
1027.148	-10.77
1027.572	-5.77
1027.996	-1.97
1028.42	-0.98
1028.843	-0.77
1029.267	-12.27
1029.691	-4.77
1030.115	-6.77
1030.539	-5.17
1030.962	-12.38
1031.386	-10.27
1031.81	-3.27
1032.233	-0.17
1032.657	-4.87
1033.08	-1.38
1033.504	-9.67
1033.927	-6.47
1034.351	-1.27
1034.774	-7.27
1035.198	-2.57
1035.621	-9.47
1036.045	-7.98
1036.468	-2.07
1036.891	-7.88
1037.315	-8.77
1037.738	-9.97
1038.161	0.12
1038.584	-6.88
1039.008	-4.47
1039.431	-7.38
1039.854	-1.08
1040.277	-9.77
1040.7	-8.57
1041.123	-0.98
1041.546	-7.07
1041.969	-7.67
1042.392	-4.98
1042.815	-5.38
1043.238	-1.27
1043.661	-1.17
1044.084	-9.57
1044.507	-5.77
1044.93	-6.88
1045.352	-4.57
1045.775	-0.77
1046.198	-6.67
1046.621	-2.47
1047.043	-1.77
1047.466	1.03
1047.889	-2.88
1048.311	-5.27
1048.734	-7.17
1049.156	-2.67
1049.579	-0.38
1050.001	-3.87
1050.424	-1.48
1050.846	-6.88
1051.269	-5.17
1051.691	-12.77
1052.113	-4.77
1052.536	2.23
1052.958	-7.67
1053.38	-9.77
1053.802	-12.48
1054.225	-0.38
1054.647	-8.88
1055.069	-6.48
1055.491	-4.77
1055.913	-6.17
1056.335	-8.77
1056.757	-9.07
1057.179	-11.48
1057.601	-10.57
1058.023	-12.57
1058.445	-8.17
1058.867	1.73
1059.289	-3.48
1059.711	-13.17
1060.133	-9.67
1060.555	-6.88
1060.976	-6.88
1061.398	-8.88
1061.82	-5.38
1062.241	-5.58
1062.663	-9.67
1063.085	-2.17
1063.506	-2.87
1063.928	-8.58
1064.35	-0.77
1064.771	-8.48
1065.193	-8.38
1065.614	-6.88
1066.035	-8.77
1066.457	-2.47
1066.878	-0.17
1067.3	-3.48
1067.721	-5.27
1068.142	-9.77
1068.564	1.62
1068.985	-8.77
1069.406	-6.67
1069.827	-9.88
1070.248	-0.57
1070.67	-10.38
1071.091	-7.77
1071.512	-7.58
1071.933	-5.77
1072.354	-5.77
1072.775	-13.17
1073.196	-13.67
1073.617	-4.88
1074.038	-6.27
1074.459	-6.97
1074.88	-8.67
1075.3	0.43
1075.721	-7.88
1076.142	-7.97
1076.563	-4.98
1076.983	-12.47
1077.404	-12.57
1077.825	-8.87
1078.246	-3.27
1078.666	-7.38
1079.087	-2.77
1079.507	-12.58
1079.928	-3.08
1080.348	-5.67
1080.769	-12.98
1081.189	-1.97
1081.61	1.23
1082.03	-10.77
1082.451	-0.38
1082.871	-7.47
1083.291	-8.77
1083.711	-10.07
1084.132	-8.77
1084.552	-4.77
1084.972	-2.77
1085.392	-10.77
1085.813	-13.47
1086.233	-4.07
1086.653	-3.97
1087.073	0.93
1087.493	-8.88
1087.913	-8.27
1088.333	-3.67
1088.753	-10.38
1089.173	-5.27
1089.593	-0.37
1090.013	-0.98
1090.433	-5.57
1090.852	-4.67
1091.272	-3.17
1091.692	0.73
1092.112	0.53
1092.531	-9.67
1092.951	-12.57
1093.371	-5.08
1093.79	-1.77
1094.21	-9.07
1094.63	-10.57
1095.049	-2.07
1095.469	-1.07
1095.888	-5.27
1096.308	-3.77
1096.727	-3.17
1097.146	-5.17
1097.566	2.53
1097.985	-2.57
1098.405	2.53
1098.824	-10.38
1099.243	-2.57
1099.662	-11.98
1100.082	-5.17
1100.501	-8.98
1100.92	-12.38
1101.339	0.12
1101.758	-5.77
