Data from 20171114-ORNL-Ar_H_NY_Subt18_08-07-22-972.txt Node
Date: Tue Nov 14 08:07:22 EST 2017
User: Ender
Spectrometer: HR+D1039
Trigger mode: 0
Integration Time (sec): 2.730000E-2
Scans to average: 10
Electric dark correction enabled: true
Nonlinearity correction enabled: false
Boxcar width: 0
XAxis mode: Wavelengths
Number of Pixels in Spectrum: 2048
>>>>>Begin Spectral Data<<<<<
187.836	-1.89
188.309	-1.89
188.782	-1.89
189.255	1.31
189.728	1.31
190.201	4.91
190.674	-2.69
191.147	4.51
191.619	-1.19
192.092	3.11
192.565	7.41
193.038	-6.09
193.511	0.71
193.984	-3.29
194.456	-6.89
194.929	3.41
195.402	-2.69
195.874	-1.89
196.347	-3.39
196.82	-4.69
197.292	3.51
197.765	3.31
198.237	-2.19
198.71	3.01
199.182	-3.79
199.655	5.11
200.127	3.91
200.6	1.21
201.072	-1.99
201.544	-2.39
202.017	-1.89
202.489	-0.49
202.961	-1.59
203.433	-12.59
203.906	-2.69
204.378	-6.79
204.85	-5.39
205.322	-10.09
205.794	-1.59
206.266	-1.79
206.739	-10.59
207.211	4.01
207.683	-6.89
208.155	-2.69
208.627	-6.39
209.099	-2.29
209.57	-8.89
210.042	-8.49
210.514	-3.59
210.986	-6.69
211.458	-6.59
211.93	-4.19
212.402	3.21
212.873	-9.49
213.345	-10.39
213.817	-5.09
214.288	-0.89
214.76	-9.59
215.232	-0.29
215.703	-4.79
216.175	-6.69
216.646	-5.19
217.118	-4.89
217.589	1.71
218.061	1.21
218.532	-9.49
219.004	-0.29
219.475	-3.59
219.946	0.61
220.418	-5.49
220.889	7.71
221.36	-0.29
221.832	-6.69
222.303	-4.59
222.774	-1.19
223.245	-8.79
223.717	-9.29
224.188	-1.89
224.659	-11.79
225.13	-1.79
225.601	-2.49
226.072	-2.89
226.543	-5.69
227.014	-0.39
227.485	-2.59
227.956	-5.99
228.427	-2.99
228.898	-3.89
229.369	3.41
229.839	-7.59
230.31	-1.99
230.781	-0.49
231.252	0.81
231.722	-8.49
232.193	-2.29
232.664	0.11
233.135	-3.79
233.605	-0.39
234.076	-12.49
234.546	0.01
235.017	2.01
235.487	0.01
235.958	1.01
236.428	-7.99
236.899	2.71
237.369	-1.49
237.84	-0.79
238.31	3.21
238.78	0.71
239.251	-2.99
239.721	0.71
240.191	-3.39
240.662	-5.69
241.132	-0.39
241.602	-5.09
242.072	1.81
242.542	-2.59
243.013	0.11
243.483	-4.69
243.953	1.81
244.423	-3.69
244.893	-6.09
245.363	3.91
245.833	-0.29
246.303	-0.89
246.773	6.81
247.243	2.61
247.712	4.71
248.182	5.01
248.652	4.91
249.122	-5.19
249.592	0.41
250.061	12.01
250.531	25.01
251.001	8.11
251.471	16.41
251.94	6.91
252.41	0.71
252.879	1.61
253.349	10.61
253.818	3.61
254.288	2.21
254.757	-0.19
255.227	-1.29
255.696	-0.89
256.166	0.41
256.635	1.81
257.105	5.21
257.574	-0.19
258.043	2.01
258.513	-0.59
258.982	18.91
259.451	-4.19
259.92	12.31
260.389	7.01
260.859	11.61
261.328	5.71
261.797	14.91
262.266	7.81
262.735	8.41
263.204	-1.39
263.673	-4.19
264.142	4.01
264.611	-5.09
265.08	-6.69
265.549	-5.39
266.018	2.51
266.487	0.81
266.955	-9.99
267.424	-1.79
267.893	1.01
268.362	2.11
268.83	-2.09
269.299	10.41
269.768	0.81
270.236	12.61
270.705	6.01
271.174	2.51
271.642	2.91
272.111	0.41
272.579	5.91
273.048	9.81
273.516	22.11
273.985	15.31
274.453	7.71
274.922	9.71
275.39	11.01
275.858	2.21
276.327	5.81
276.795	15.01
277.263	1.61
277.731	17.91
278.2	37.31
278.668	41.31
279.136	34.31
279.604	11.51
280.072	7.91
280.54	4.01
281.008	6.51
281.477	4.51
281.945	6.71
282.413	8.71
282.881	9.81
283.348	-1.29
283.816	9.31
284.284	13.21
284.752	9.31
285.22	9.51
285.688	10.21
286.156	14.61
286.623	34.31
287.091	35.41
287.559	19.61
288.026	6.71
288.494	8.51
288.962	-0.99
289.429	6.91
289.897	14.11
290.364	10.21
290.832	12.61
291.3	7.31
291.767	7.51
292.234	18.11
292.702	7.51
293.169	11.71
293.637	16.31
294.104	10.81
294.571	-0.99
295.039	2.11
295.506	6.21
295.973	14.81
296.44	7.11
296.908	8.61
297.375	8.41
297.842	10.61
298.309	7.71
298.776	12.41
299.243	11.61
299.71	8.21
300.177	20.31
300.644	18.71
301.111	17.41
301.578	13.41
302.045	11.51
302.512	14.51
302.979	15.41
303.446	13.21
303.913	11.51
304.379	12.11
304.846	18.71
305.313	11.01
305.78	16.51
306.246	19.91
306.713	21.01
307.18	14.01
307.646	18.11
308.113	26.81
308.579	14.21
309.046	19.61
309.512	17.41
309.979	12.31
310.445	23.01
310.912	15.51
311.378	27.41
311.845	17.81
312.311	20.91
312.777	23.21
313.244	18.61
313.71	29.11
314.176	20.11
314.642	16.91
315.109	18.51
315.575	20.21
316.041	23.41
316.507	23.51
316.973	34.11
317.439	22.21
317.905	23.21
318.371	24.91
318.837	28.81
319.303	22.61
319.769	26.51
320.235	24.01
320.701	25.91
321.167	25.11
321.633	26.41
322.099	30.41
322.564	35.91
323.03	28.21
323.496	26.21
323.962	31.51
324.427	24.51
324.893	33.91
325.359	28.61
325.824	30.51
326.29	25.21
326.755	33.21
327.221	32.01
327.686	31.11
328.152	44.21
328.617	29.01
329.083	37.61
329.548	40.81
330.014	37.81
330.479	31.01
330.944	33.01
331.41	34.21
331.875	27.21
332.34	33.61
332.805	31.81
333.271	32.11
333.736	33.61
334.201	46.11
334.666	41.61
335.131	42.31
335.596	38.51
336.061	39.21
336.526	31.71
336.991	38.91
337.456	44.61
337.921	36.01
338.386	35.31
338.851	36.91
339.316	38.61
339.781	40.31
340.246	42.21
340.711	33.31
341.175	41.41
341.64	38.01
342.105	43.61
342.569	47.41
343.034	48.61
343.499	46.11
343.963	40.61
344.428	52.01
344.893	46.81
345.357	45.91
345.822	44.91
346.286	50.51
346.751	54.61
347.215	56.01
347.679	54.11
348.144	72.51
348.608	62.91
349.073	60.51
349.537	58.81
350.001	62.41
350.465	67.91
350.93	59.51
351.394	68.01
351.858	53.11
352.322	65.01
352.786	62.01
353.25	78.31
353.715	83.51
354.179	71.61
354.643	89.21
355.107	95.21
355.571	83.91
356.035	83.11
356.498	90.71
356.962	88.51
357.426	102.21
357.89	85.31
358.354	73.71
358.818	67.81
359.281	68.11
359.745	57.91
360.209	63.51
360.673	62.81
361.136	69.61
361.6	74.51
362.064	68.01
362.527	69.11
362.991	72.61
363.454	63.41
363.918	62.81
364.381	68.81
364.845	65.51
365.308	71.61
365.772	68.21
366.235	73.11
366.698	74.91
367.162	68.01
367.625	76.11
368.088	69.91
368.552	79.61
369.015	78.41
369.478	85.51
369.941	88.31
370.404	81.11
370.867	90.71
371.331	86.51
371.794	98.81
372.257	92.61
372.72	98.21
373.183	93.11
373.646	90.51
374.109	86.51
374.572	91.51
375.035	95.31
375.497	88.81
375.96	87.21
376.423	92.71
376.886	97.21
377.349	94.21
377.811	91.71
378.274	96.11
378.737	94.01
379.199	100.71
379.662	93.11
380.125	101.81
380.587	97.81
381.05	111.71
381.512	110.71
381.975	109.11
382.437	114.31
382.9	108.31
383.362	117.31
383.825	124.81
384.287	136.71
384.75	120.31
385.212	125.91
385.674	120.31
386.136	121.11
386.599	108.81
387.061	113.21
387.523	116.81
387.985	119.91
388.447	131.01
388.91	128.61
389.372	139.91
389.834	135.31
390.296	129.31
390.758	140.11
391.22	147.81
391.682	180.61
392.144	257.51
392.606	206.81
393.068	145.91
393.529	154.21
393.991	139.81
394.453	129.81
394.915	139.61
395.377	174.41
395.838	190.91
396.3	141.11
396.762	126.21
397.224	121.91
397.685	114.51
398.147	116.51
398.608	116.91
399.07	117.71
399.531	125.31
399.993	124.21
400.454	145.11
400.916	137.01
401.377	130.51
401.839	141.71
402.3	140.61
402.762	150.11
403.223	168.21
403.684	154.11
404.145	150.31
404.607	146.01
405.068	147.71
405.529	153.41
405.99	171.71
406.451	159.21
406.913	160.31
407.374	150.61
407.835	163.31
408.296	158.21
408.757	161.21
409.218	170.21
409.679	166.51
410.14	162.61
410.601	160.91
411.062	172.51
411.522	175.61
411.983	181.91
412.444	163.61
412.905	166.71
413.366	172.61
413.826	181.41
414.287	209.51
414.748	240.81
415.208	231.91
415.669	192.71
416.13	194.31
416.59	193.91
417.051	200.91
417.511	198.61
417.972	213.81
418.432	234.31
418.893	270.01
419.353	237.31
419.814	180.21
420.274	174.51
420.734	166.41
421.195	185.41
421.655	184.71
422.115	182.91
422.576	188.21
423.036	178.01
423.496	198.71
423.956	205.41
424.416	211.01
424.876	243.01
425.336	238.31
425.797	244.81
426.257	238.61
426.717	224.71
427.177	215.31
427.637	217.51
428.097	222.51
428.556	227.71
429.016	261.41
429.476	247.61
429.936	256.51
430.396	268.61
430.856	272.51
431.315	297.51
431.775	325.61
432.235	356.91
432.694	328.11
433.154	345.01
433.614	360.91
434.073	314.31
434.533	268.91
434.993	255.31
435.452	263.41
435.912	274.71
436.371	262.51
436.83	268.11
437.29	255.91
437.749	231.71
438.209	233.01
438.668	249.51
439.127	264.81
439.587	247.41
440.046	238.01
440.505	245.71
440.964	255.51
441.424	298.91
441.883	285.01
442.342	241.41
442.801	218.41
443.26	212.61
443.719	205.71
444.178	211.61
444.637	202.81
445.096	207.11
445.555	212.11
446.014	212.01
446.473	215.81
446.932	221.71
447.391	218.21
447.849	217.51
448.308	215.01
448.767	211.01
449.226	225.81
449.685	223.71
450.143	244.61
450.602	226.51
451.061	212.01
451.519	218.71
451.978	217.41
452.436	214.31
452.895	225.61
453.353	241.81
453.812	226.61
454.27	231.41
454.729	227.11
455.187	233.11
455.646	233.71
456.104	229.91
456.562	253.81
457.021	256.91
457.479	246.31
457.937	263.61
458.395	251.41
458.854	233.61
459.312	239.21
459.77	259.11
460.228	239.81
460.686	234.31
461.144	234.31
461.602	233.51
462.06	228.31
462.518	242.01
462.976	245.41
463.434	240.61
463.892	249.71
464.35	260.51
464.808	271.51
465.266	256.61
465.724	260.51
466.181	260.11
466.639	260.11
467.097	277.61
467.555	285.71
468.012	293.81
468.47	291.81
468.928	307.31
469.385	330.11
469.843	338.91
470.3	327.11
470.758	345.31
471.215	369.01
471.673	388.01
472.13	385.61
472.588	397.61
473.045	356.61
473.503	354.21
473.96	381.71
474.417	386.91
474.875	405.81
475.332	444.91
475.789	453.21
476.246	454.31
476.704	463.21
477.161	491.51
477.618	506.91
478.075	538.61
478.532	584.11
478.989	656.51
479.446	762.41
479.903	737.01
480.36	771.41
480.817	831.61
481.274	941.71
481.731	1039.51
482.188	1123.71
482.645	1250.21
483.102	1356.41
483.558	1500.01
484.015	1540.01
484.472	1529.01
484.929	1459.21
485.385	1417.31
485.842	1374.51
486.299	1329.71
486.755	1233.31
487.212	1048.01
487.668	894.31
488.125	812.71
488.582	745.31
489.038	719.71
489.494	685.01
489.951	657.21
490.407	639.61
490.864	624.81
491.32	606.51
491.776	613.01
492.233	617.41
492.689	586.31
493.145	585.81
493.602	583.31
494.058	585.91
494.514	602.81
494.97	614.71
495.426	620.51
495.882	600.71
496.338	580.71
496.794	596.71
497.251	585.91
497.707	609.41
498.163	605.71
498.618	609.51
499.074	616.21
499.53	647.01
499.986	647.91
500.442	622.51
500.898	609.51
501.354	596.31
501.809	608.21
502.265	618.11
502.721	629.21
503.177	645.81
503.632	647.21
504.088	648.01
504.543	679.41
504.999	682.51
505.455	634.01
505.91	601.51
506.366	602.91
506.821	612.01
507.277	592.91
507.732	595.61
508.187	601.51
508.643	606.91
509.098	613.61
509.553	631.91
510.009	639.41
510.464	639.01
510.919	668.91
511.375	666.51
511.83	681.71
512.285	696.71
512.74	734.81
513.195	753.81
513.65	744.31
514.105	745.11
514.56	751.31
515.015	767.51
515.47	778.21
515.925	757.01
516.38	757.91
516.835	772.01
517.29	761.31
517.745	753.61
518.2	739.11
518.655	722.11
519.109	719.21
519.564	710.51
520.019	706.61
520.474	691.31
520.928	697.61
521.383	695.51
521.838	686.91
522.292	686.11
522.747	684.31
523.201	679.01
523.656	677.71
524.11	679.51
524.565	673.31
525.019	671.61
525.474	667.91
525.928	676.91
526.382	678.01
526.837	673.41
527.291	672.51
527.745	676.91
528.2	678.21
528.654	678.71
529.108	666.51
529.562	671.11
530.016	674.01
530.47	661.31
530.925	667.91
531.379	681.61
531.833	672.11
532.287	678.81
532.741	679.81
533.195	673.81
533.649	687.71
534.103	691.31
534.556	676.81
535.01	680.41
535.464	680.61
535.918	686.91
536.372	701.41
536.826	693.81
537.279	681.51
537.733	692.31
538.187	692.51
538.64	686.11
539.094	704.11
539.548	705.01
540.001	694.71
540.455	709.51
540.908	704.01
541.362	724.61
541.815	724.31
542.269	736.91
542.722	731.31
543.175	739.21
543.629	747.91
544.082	760.81
544.536	765.81
544.989	758.21
545.442	769.01
545.895	770.61
546.349	773.51
546.802	765.51
547.255	776.41
547.708	792.91
548.161	794.11
548.614	790.01
549.067	804.21
549.52	792.11
549.973	779.51
550.426	775.31
550.879	767.51
551.332	772.11
551.785	783.01
552.238	785.61
552.691	790.21
553.144	806.11
553.596	815.81
554.049	824.01
554.502	859.41
554.955	877.11
555.407	871.11
555.86	856.71
556.313	876.61
556.765	850.91
557.218	854.91
557.67	853.11
558.123	837.91
558.576	844.71
559.028	851.71
559.48	853.91
559.933	850.81
560.385	811.81
560.838	775.31
561.29	759.71
561.742	762.11
562.195	734.41
562.647	735.81
563.099	753.11
563.551	760.61
564.004	759.61
564.456	743.61
564.908	748.01
565.36	722.51
565.812	706.91
566.264	702.21
566.716	693.61
567.168	696.31
567.62	709.61
568.072	685.01
568.524	676.81
568.976	672.61
569.428	654.21
569.88	654.41
570.332	664.01
570.784	668.21
571.235	666.71
571.687	675.51
572.139	685.61
572.59	683.71
573.042	692.01
573.494	684.11
573.945	679.61
574.397	652.11
574.849	675.11
575.3	669.51
575.752	659.71
576.203	655.51
576.655	667.41
577.106	655.21
577.557	642.21
578.009	645.01
578.46	642.41
578.912	650.01
579.363	640.81
579.814	649.81
580.265	646.31
580.717	651.21
581.168	647.81
581.619	656.61
582.07	663.71
582.521	648.81
582.972	661.51
583.423	655.41
583.875	663.41
584.326	687.21
584.777	726.11
585.227	803.71
585.678	889.61
586.129	989.01
586.58	1045.61
587.031	1129.61
587.482	1274.31
587.933	1463.61
588.384	1280.11
588.834	947.11
589.285	787.91
589.736	760.01
590.186	742.01
590.637	741.91
591.088	728.91
591.538	712.31
591.989	719.81
592.439	706.71
592.89	700.01
593.34	685.41
593.791	689.11
594.241	684.41
594.692	688.01
595.142	686.61
595.593	675.81
596.043	693.81
596.493	696.61
596.943	694.11
597.394	705.61
597.844	696.41
598.294	709.71
598.744	732.41
599.195	755.41
599.645	784.91
600.095	838.41
600.545	895.91
600.995	937.41
601.445	997.11
601.895	1058.71
602.345	1108.21
602.795	1084.71
603.245	1037.71
603.695	978.91
604.145	933.31
604.594	886.91
605.044	840.01
605.494	779.71
605.944	730.21
606.393	727.71
606.843	700.51
607.293	716.11
607.743	710.61
608.192	724.91
608.642	732.61
609.091	746.61
609.541	744.91
609.99	753.81
610.44	751.61
610.889	694.91
611.339	680.31
611.788	663.71
612.238	676.31
612.687	694.51
613.136	706.01
613.586	715.71
614.035	717.61
614.484	739.11
614.933	732.11
615.383	730.91
615.832	718.31
616.281	711.61
616.73	682.41
617.179	646.91
617.628	626.31
618.077	613.51
618.526	607.71
618.975	598.51
619.424	609.41
619.873	593.41
620.322	602.11
620.771	580.11
621.22	582.81
621.669	573.61
622.118	569.11
622.567	561.31
623.015	552.51
623.464	556.01
623.913	547.01
624.361	540.31
624.81	541.51
625.259	535.91
625.707	543.91
626.156	531.31
626.604	549.51
627.053	546.41
627.501	545.31
627.95	546.01
628.398	561.11
628.847	556.51
629.295	562.11
629.744	558.11
630.192	557.41
630.64	551.91
631.089	537.11
631.537	554.81
631.985	563.91
632.433	567.61
632.881	576.61
633.33	630.91
633.778	619.31
634.226	556.91
634.674	546.81
635.122	559.81
635.57	565.41
636.018	595.61
636.466	566.51
636.914	542.81
637.362	554.51
637.81	557.11
638.258	563.11
638.705	563.81
639.153	601.61
639.601	598.61
640.049	622.91
640.497	654.81
640.944	672.31
641.392	629.91
641.84	596.71
642.287	561.41
642.735	551.51
643.182	562.91
643.63	554.91
644.078	557.21
644.525	580.41
644.973	586.81
645.42	597.61
645.867	600.41
646.315	622.21
646.762	643.81
647.21	682.91
647.657	685.51
648.104	729.91
648.551	750.41
648.999	815.61
649.446	899.11
649.893	977.81
650.34	1130.91
650.787	1366.21
651.234	1693.41
651.682	2212.31
652.129	3073.41
652.576	4407.91
653.023	6515.61
653.47	8880.01
653.917	11096.31
654.363	12845.91
654.81	14139.41
655.257	13418.71
655.704	8731.91
656.151	5133.91
656.598	3320.11
657.044	2358.61
657.491	1809.81
657.938	1422.21
658.385	1201.41
658.831	1049.01
659.278	940.81
659.724	831.81
660.171	757.41
660.618	705.61
661.064	673.11
661.511	645.81
661.957	636.31
662.404	632.71
662.85	637.51
663.296	611.01
663.743	544.81
664.189	523.11
664.635	518.91
665.082	509.01
665.528	513.41
665.974	498.31
666.42	494.81
666.867	484.11
667.313	476.71
667.759	461.01
668.205	463.51
668.651	470.41
669.097	465.91
669.543	478.01
669.989	454.71
670.435	438.91
670.881	429.31
671.327	431.01
671.773	454.61
672.219	472.41
672.665	531.81
673.11	570.31
673.556	609.61
674.002	654.91
674.448	638.41
674.893	532.71
675.339	460.51
675.785	422.11
676.23	409.41
676.676	379.31
677.122	372.61
677.567	363.01
678.013	352.41
678.458	352.91
678.904	343.81
679.349	338.61
679.794	343.01
680.24	343.91
680.685	342.01
681.131	337.91
681.576	331.81
682.021	343.81
682.466	338.01
682.912	336.41
683.357	343.91
683.802	369.41
684.247	399.71
684.692	447.01
685.137	474.31
685.583	521.71
686.028	538.31
686.473	506.01
686.918	428.01
687.363	398.61
687.807	378.91
688.252	352.41
688.697	346.31
689.142	325.91
689.587	319.01
690.032	308.71
690.477	331.31
690.921	346.71
691.366	383.11
691.811	387.21
692.255	411.21
692.7	445.51
693.145	486.61
693.589	685.41
694.034	1113.91
694.478	1516.01
694.923	1685.01
695.367	2190.81
695.812	1157.11
696.256	482.81
696.701	367.01
697.145	335.81
697.59	317.11
698.034	314.61
698.478	319.11
698.922	319.51
699.367	317.31
699.811	334.51
700.255	349.51
700.699	375.21
701.143	417.91
701.588	464.61
702.032	503.81
702.476	499.01
702.92	475.41
703.364	485.11
703.808	624.71
704.252	1028.01
704.696	1429.61
705.14	1634.51
705.584	2070.51
706.027	1025.51
706.471	509.51
706.915	385.91
707.359	336.21
707.803	307.41
708.246	299.71
708.69	299.41
709.134	309.01
709.577	305.61
710.021	296.51
710.465	294.81
710.908	287.81
711.352	289.81
711.795	308.41
712.239	342.61
712.682	375.11
713.126	403.81
713.569	441.41
714.012	357.91
714.456	313.11
714.899	286.61
715.342	271.91
715.786	248.81
716.229	247.91
716.672	249.01
717.115	237.51
717.558	252.31
718.002	242.91
718.445	251.01
718.888	273.11
719.331	292.31
719.774	301.11
720.217	301.71
720.66	277.41
721.103	261.01
721.546	244.71
721.989	244.21
722.432	222.31
722.874	223.91
723.317	218.51
723.76	231.71
724.203	250.51
724.645	311.11
725.088	433.01
725.531	556.71
725.974	619.51
726.416	530.31
726.859	294.81
727.301	242.61
727.744	228.81
728.187	232.81
728.629	232.51
729.071	234.61
729.514	251.91
729.956	269.11
730.399	278.31
730.841	282.11
731.283	270.01
731.726	256.81
732.168	255.51
732.61	257.81
733.053	277.61
733.495	304.91
733.937	344.71
734.379	398.61
734.821	425.21
735.263	536.61
735.705	825.21
736.148	1560.51
736.59	2530.51
737.032	2974.81
737.474	2414.41
737.916	779.21
738.357	417.81
738.799	320.91
739.241	290.61
739.683	273.91
740.125	282.31
740.567	291.41
741.008	317.71
741.45	302.71
741.892	308.31
742.334	335.61
742.775	346.61
743.217	328.81
743.658	260.11
744.1	249.21
744.542	252.41
744.983	299.21
745.425	324.81
745.866	326.61
746.307	284.11
746.749	276.81
747.19	323.21
747.632	455.81
748.073	877.61
748.514	1854.21
748.956	2796.21
749.397	3497.51
749.838	2907.91
750.279	2886.01
750.72	1452.41
751.162	528.21
751.603	310.91
752.044	249.21
752.485	211.51
752.926	204.01
753.367	201.81
753.808	195.01
754.249	187.01
754.69	185.21
755.131	174.41
755.572	177.61
756.013	177.51
756.453	179.41
756.894	188.01
757.335	187.41
757.776	188.21
758.216	185.01
758.657	193.71
759.098	193.81
759.538	217.61
759.979	254.31
760.42	367.71
760.86	707.51
761.301	1828.11
761.741	4408.81
762.182	6281.01
762.622	4390.41
763.063	1274.81
763.503	525.11
763.943	338.41
764.384	329.51
764.824	393.91
765.264	416.91
765.705	294.41
766.145	201.11
766.585	181.11
767.025	171.61
767.465	184.81
767.906	237.71
768.346	308.01
768.786	326.61
769.226	257.81
769.666	320.21
770.106	616.81
770.546	1553.31
770.986	2592.31
771.426	2305.01
771.866	771.41
772.306	316.01
772.745	198.71
773.185	166.41
773.625	168.71
774.065	164.51
774.505	190.41
774.944	305.41
775.384	659.71
775.824	1187.81
776.263	1143.61
776.703	487.61
777.142	213.81
777.582	156.61
778.021	137.01
778.461	142.11
778.9	139.61
779.34	128.41
779.779	115.41
780.219	107.01
780.658	106.91
781.097	105.71
781.537	112.71
781.976	107.51
782.415	101.21
782.855	100.21
783.294	106.11
783.733	104.51
784.172	114.01
784.611	97.31
785.05	113.51
785.489	106.41
785.928	120.51
786.367	117.81
786.806	116.11
787.245	126.61
787.684	129.41
788.123	142.61
788.562	132.01
789.001	120.91
789.44	119.31
789.879	117.21
790.317	115.91
790.756	126.71
791.195	123.41
791.634	142.11
792.072	198.81
792.511	364.61
792.95	1017.01
793.388	2106.01
793.827	1883.91
794.265	670.31
794.704	273.71
795.142	178.01
795.581	145.01
796.019	134.91
796.458	133.21
796.896	118.21
797.334	130.51
797.773	154.41
798.211	222.51
798.649	431.91
799.087	1010.61
799.526	1571.11
799.964	1988.11
800.402	1967.31
800.84	739.71
801.278	301.51
801.716	177.31
802.154	149.71
802.592	145.31
803.03	138.61
803.468	128.91
803.906	129.71
804.344	145.81
804.782	138.51
805.22	131.51
805.658	128.81
806.096	146.71
806.533	157.11
806.971	167.51
807.409	215.71
807.847	313.91
808.284	654.31
808.722	1850.01
809.16	3228.61
809.597	3081.91
810.035	5380.11
810.472	5640.91
810.91	2022.41
811.347	779.21
811.785	394.41
812.222	248.41
812.66	185.41
813.097	157.71
813.535	135.31
813.972	127.41
814.409	117.51
814.846	107.91
815.284	107.61
815.721	98.61
816.158	99.91
816.595	115.51
817.032	172.11
817.47	190.91
817.907	157.41
818.344	143.91
818.781	105.31
819.218	97.01
819.655	124.01
820.092	183.01
820.529	204.21
820.966	168.31
821.403	125.31
821.839	106.71
822.276	100.71
822.713	116.81
823.15	129.41
823.587	108.41
824.023	144.61
824.46	293.51
824.897	887.31
825.333	1320.41
825.77	565.61
826.206	225.61
826.643	130.41
827.08	99.31
827.516	76.31
827.953	77.41
828.389	81.61
828.825	67.01
829.262	67.71
829.698	61.41
830.135	66.41
830.571	53.91
831.007	61.01
831.443	61.31
831.88	57.61
832.316	59.91
832.752	68.41
833.188	60.11
833.624	64.11
834.06	66.71
834.497	66.61
834.933	67.51
835.369	78.41
835.805	72.21
836.241	71.81
836.677	79.71
837.112	89.21
837.548	102.91
837.984	126.41
838.42	194.01
838.856	498.11
839.292	1505.51
839.727	2257.71
840.163	1045.81
840.599	926.31
841.034	2003.61
841.47	2065.11
841.906	752.61
842.341	332.31
842.777	222.81
843.212	311.21
843.648	293.11
844.083	150.71
844.519	94.21
844.954	77.11
845.39	55.61
845.825	57.21
846.261	60.91
846.696	56.61
847.131	54.31
847.566	58.61
848.002	47.11
848.437	56.71
848.872	53.51
849.307	52.01
849.742	77.41
850.177	181.71
850.613	550.41
851.048	848.61
851.483	364.21
851.918	146.61
852.353	85.01
852.788	50.11
853.223	53.41
853.657	55.31
854.092	41.41
854.527	43.51
854.962	39.61
855.397	41.91
855.832	47.91
856.266	38.71
856.701	35.01
857.136	35.61
857.57	32.71
858.005	56.11
858.44	60.01
858.874	46.61
859.309	45.71
859.743	39.01
860.178	43.21
860.612	38.51
861.047	52.21
861.481	66.61
861.915	74.51
862.35	47.61
862.784	33.41
863.218	34.21
863.653	25.41
864.087	42.11
864.521	52.21
864.955	76.41
865.39	156.61
865.824	165.61
866.258	108.41
866.692	165.81
867.126	163.41
867.56	102.81
867.994	52.91
868.428	35.11
868.862	46.11
869.296	52.31
869.73	64.41
870.164	50.61
870.598	45.31
871.031	40.11
871.465	30.01
871.899	33.01
872.333	22.81
872.766	22.81
873.2	24.11
873.634	25.81
874.067	24.61
874.501	27.31
874.935	30.11
875.368	33.11
875.802	26.11
876.235	24.81
876.669	21.21
877.102	21.51
877.535	23.51
877.969	18.91
878.402	20.11
878.836	15.81
879.269	25.01
879.702	22.61
880.135	22.71
880.569	22.91
881.002	27.41
881.435	18.71
881.868	16.41
882.301	19.71
882.734	15.11
883.167	16.51
883.601	22.31
884.034	19.11
884.467	17.01
884.899	16.31
885.332	16.91
885.765	5.71
886.198	15.01
886.631	16.01
887.064	20.01
887.497	26.21
887.929	22.41
888.362	23.01
888.795	10.21
889.228	19.61
889.66	20.41
890.093	23.41
890.526	16.51
890.958	11.21
891.391	16.91
891.823	14.01
892.256	14.81
892.688	11.81
893.121	16.61
893.553	13.11
893.985	19.61
894.418	17.81
894.85	14.61
895.282	13.71
895.715	19.41
896.147	13.91
896.579	12.41
897.011	16.01
897.444	17.41
897.876	14.41
898.308	12.11
898.74	12.21
899.172	10.71
899.604	25.91
900.036	14.51
900.468	17.71
900.9	15.71
901.332	15.61
901.764	12.11
902.196	13.91
902.628	23.31
903.06	16.71
903.491	32.11
903.923	26.31
904.355	19.51
904.787	28.81
905.218	23.91
905.65	19.21
906.082	9.01
906.513	15.41
906.945	15.51
907.376	14.91
907.808	21.11
908.239	21.21
908.671	18.11
909.102	19.61
909.534	27.41
909.965	47.71
910.397	94.91
910.828	313.51
911.259	465.01
911.691	214.11
912.122	111.11
912.553	49.01
912.984	28.11
913.415	29.91
913.847	22.81
914.278	12.51
914.709	17.51
915.14	22.11
915.571	13.11
916.002	17.01
916.433	14.71
916.864	17.01
917.295	20.01
917.726	22.51
918.157	18.01
918.587	30.21
919.018	23.51
919.449	23.31
919.88	23.71
920.311	37.21
920.741	55.21
921.172	165.81
921.603	143.91
922.033	74.51
922.464	42.71
922.895	25.41
923.325	24.21
923.756	14.21
924.186	12.21
924.617	19.71
925.047	44.61
925.478	46.31
925.908	43.61
926.338	26.01
926.769	12.41
927.199	18.41
927.629	9.11
928.06	17.51
928.49	18.41
928.92	16.01
929.35	9.01
929.78	11.21
930.21	7.21
930.641	12.41
931.071	11.01
931.501	2.61
931.931	11.41
932.361	3.61
932.791	4.61
933.221	2.51
933.651	7.71
934.08	17.51
934.51	28.01
934.94	17.91
935.37	10.31
935.8	15.91
936.229	10.01
936.659	12.71
937.089	-0.09
937.519	14.41
937.948	23.01
938.378	19.81
938.807	8.01
939.237	2.91
939.666	5.81
940.096	-3.29
940.525	6.31
940.955	4.91
941.384	2.61
941.814	-7.59
942.243	-2.59
942.672	3.71
943.102	1.91
943.531	1.31
943.96	-2.99
944.39	2.41
944.819	-1.39
945.248	4.31
945.677	-3.69
946.106	9.91
946.535	1.41
946.964	0.41
947.393	3.21
947.822	-1.79
948.251	-4.59
948.68	2.01
949.109	6.21
949.538	-2.39
949.967	-0.09
950.396	2.71
950.825	-4.29
951.254	3.01
951.682	-4.79
952.111	4.71
952.54	3.81
952.969	-3.19
953.397	-3.29
953.826	4.41
954.254	-5.29
954.683	4.21
955.112	-0.29
955.54	-3.49
955.969	-0.09
956.397	2.31
956.826	-0.49
957.254	-0.79
957.682	3.61
958.111	2.11
958.539	-0.69
958.967	1.91
959.396	0.71
959.824	3.61
960.252	-1.79
960.68	0.31
961.109	-0.89
961.537	-7.69
961.965	1.61
962.393	3.51
962.821	-4.29
963.249	1.71
963.677	7.61
964.105	2.81
964.533	43.51
964.961	39.81
965.389	20.91
965.817	13.21
966.245	-1.49
966.672	-3.29
967.1	-3.79
967.528	-4.79
967.956	-2.49
968.383	-2.29
968.811	1.31
969.239	-5.19
969.666	-3.79
970.094	0.71
970.522	-0.09
970.949	-3.19
971.377	-2.19
971.804	-2.29
972.232	-2.49
972.659	0.61
973.087	0.81
973.514	2.31
973.941	-2.09
974.369	7.21
974.796	1.01
975.223	-1.49
975.651	-0.99
976.078	5.51
976.505	-3.69
976.932	10.31
977.359	11.81
977.786	16.61
978.214	6.21
978.641	3.01
979.068	0.61
979.495	-4.89
979.922	3.01
980.349	-9.49
980.776	4.11
981.202	3.31
981.629	3.81
982.056	2.91
982.483	5.71
982.91	2.21
983.337	-12.09
983.763	4.31
984.19	-8.59
984.617	-3.29
985.043	2.21
985.47	-0.99
985.897	-6.19
986.323	-5.59
986.75	3.11
987.176	2.31
987.603	3.81
988.029	-0.59
988.456	-0.19
988.882	5.01
989.308	-5.49
989.735	-6.39
990.161	-2.79
990.587	-7.59
991.014	-1.99
991.44	9.01
991.866	-5.69
992.292	-5.49
992.719	-4.39
993.145	7.91
993.571	-9.59
993.997	-2.39
994.423	0.31
994.849	-3.39
995.275	1.11
995.701	0.51
996.127	4.41
996.553	-1.49
996.979	-5.69
997.405	2.31
997.83	-2.89
998.256	-6.09
998.682	-3.69
999.108	-8.49
999.534	-2.99
999.959	-2.19
1000.385	-3.69
1000.811	3.51
1001.236	-6.79
1001.662	-6.69
1002.087	-7.49
1002.513	0.91
1002.938	3.21
1003.364	-1.89
1003.789	1.31
1004.215	1.81
1004.64	5.51
1005.066	4.21
1005.491	1.11
1005.916	-0.79
1006.342	-3.99
1006.767	-7.99
1007.192	6.91
1007.617	-1.89
1008.042	-2.69
1008.468	-8.29
1008.893	-5.59
1009.318	0.21
1009.743	-6.89
1010.168	-0.09
1010.593	7.01
1011.018	-8.59
1011.443	1.01
1011.868	3.11
1012.293	-7.59
1012.718	-4.99
1013.143	-4.69
1013.567	-0.09
1013.992	-0.59
1014.417	-12.39
1014.842	-2.19
1015.267	-3.59
1015.691	-5.09
1016.116	7.41
1016.541	-1.59
1016.965	-1.69
1017.39	-0.19
1017.814	-3.69
1018.239	-0.89
1018.663	-12.79
1019.088	-12.29
1019.512	-4.29
1019.937	0.71
1020.361	-4.59
1020.785	-9.89
1021.21	0.61
1021.634	-3.69
1022.058	-3.09
1022.483	1.21
1022.907	-1.99
1023.331	-2.79
1023.755	-2.19
1024.179	-5.39
1024.604	1.01
1025.028	-1.69
1025.452	-0.49
1025.876	-4.89
1026.3	3.31
1026.724	-11.99
1027.148	-6.39
1027.572	-6.69
1027.996	-0.29
1028.42	2.11
1028.843	2.01
1029.267	-3.69
1029.691	-2.19
1030.115	-1.09
1030.539	-4.39
1030.962	-10.49
1031.386	-9.09
1031.81	-2.09
1032.233	-1.19
1032.657	0.11
1033.08	2.11
1033.504	-3.89
1033.927	-4.69
1034.351	-2.59
1034.774	-9.29
1035.198	-3.59
1035.621	-9.69
1036.045	-2.59
1036.468	-1.19
1036.891	-7.79
1037.315	-10.79
1037.738	-9.89
1038.161	0.91
1038.584	-9.69
1039.008	-5.19
1039.431	-3.99
1039.854	-0.99
1040.277	-13.39
1040.7	-11.19
1041.123	-0.69
1041.546	-7.69
1041.969	-2.19
1042.392	-5.59
1042.815	-1.39
1043.238	-0.19
1043.661	0.11
1044.084	-9.79
1044.507	-2.49
1044.93	-10.29
1045.352	-9.19
1045.775	-7.59
1046.198	-4.79
1046.621	1.81
1047.043	2.41
1047.466	5.91
1047.889	-1.99
1048.311	-5.29
1048.734	-3.09
1049.156	-5.09
1049.579	-2.39
1050.001	-2.99
1050.424	1.81
1050.846	-3.59
1051.269	-3.79
1051.691	0.21
1052.113	-1.69
1052.536	-1.19
1052.958	-3.89
1053.38	-2.49
1053.802	-16.79
1054.225	-1.89
1054.647	-13.99
1055.069	-7.29
1055.491	0.41
1055.913	-7.99
1056.335	2.41
1056.757	-2.59
1057.179	-2.69
1057.601	-3.99
1058.023	-1.79
1058.445	-7.09
1058.867	-0.79
1059.289	-2.39
1059.711	-11.09
1060.133	-0.69
1060.555	-9.69
1060.976	-8.79
1061.398	-3.59
1061.82	-3.29
1062.241	-4.09
1062.663	-0.99
1063.085	-6.49
1063.506	-3.59
1063.928	-3.79
1064.35	-1.29
1064.771	-11.99
1065.193	-9.09
1065.614	-7.09
1066.035	-0.89
1066.457	1.11
1066.878	4.31
1067.3	-5.29
1067.721	-4.09
1068.142	-9.99
1068.564	0.31
1068.985	-6.99
1069.406	-5.79
1069.827	3.11
1070.248	0.41
1070.67	-4.99
1071.091	-4.99
1071.512	-0.89
1071.933	-4.79
1072.354	-8.89
1072.775	-8.69
1073.196	-13.59
1073.617	-4.59
1074.038	-3.89
1074.459	-6.59
1074.88	-4.89
1075.3	0.31
1075.721	-4.89
1076.142	-1.19
1076.563	-4.59
1076.983	-14.29
1077.404	-6.89
1077.825	-5.39
1078.246	-13.59
1078.666	-10.59
1079.087	-5.09
1079.507	0.01
1079.928	-0.19
1080.348	-3.89
1080.769	-6.29
1081.189	0.51
1081.61	0.81
1082.03	-4.99
1082.451	-9.39
1082.871	-2.49
1083.291	-3.79
1083.711	-12.39
1084.132	-13.39
1084.552	-1.99
1084.972	-1.69
1085.392	-7.49
1085.813	-15.49
1086.233	-9.09
1086.653	-7.49
1087.073	-3.19
1087.493	-5.79
1087.913	-9.59
1088.333	-12.09
1088.753	-4.79
1089.173	-2.39
1089.593	-9.39
1090.013	-0.19
1090.433	-4.59
1090.852	-1.49
1091.272	-4.49
1091.692	-4.39
1092.112	-3.39
1092.531	-7.39
1092.951	-15.79
1093.371	-3.99
1093.79	-1.09
1094.21	-4.79
1094.63	-4.39
1095.049	-4.39
1095.469	-1.99
1095.888	-0.49
1096.308	1.11
1096.727	-3.59
1097.146	-8.39
1097.566	-3.09
1097.985	-8.79
1098.405	0.11
1098.824	-8.79
1099.243	-4.29
1099.662	-12.29
1100.082	-4.99
1100.501	-2.79
1100.92	-7.99
1101.339	-8.19
1101.758	-4.39
