Data from 20171114-ORNL-Ar_H_NY_Subt18_08-03-39-405.txt Node
Date: Tue Nov 14 08:03:39 EST 2017
User: Ender
Spectrometer: HR+D1039
Trigger mode: 0
Integration Time (sec): 2.730000E-2
Scans to average: 10
Electric dark correction enabled: true
Nonlinearity correction enabled: false
Boxcar width: 0
XAxis mode: Wavelengths
Number of Pixels in Spectrum: 2048
>>>>>Begin Spectral Data<<<<<
187.836	2.92
188.309	2.92
188.782	2.92
189.255	0.42
189.728	-0.58
190.201	3.12
190.674	5.52
191.147	-0.68
191.619	-6.38
192.092	-2.08
192.565	7.82
193.038	1.52
193.511	-2.08
193.984	-0.68
194.456	-1.78
194.929	-0.38
195.402	-6.48
195.874	-0.18
196.347	-0.88
196.82	-6.38
197.292	3.82
197.765	-1.08
198.237	-0.78
198.71	4.92
199.182	-1.68
199.655	4.12
200.127	2.62
200.6	-2.18
201.072	-4.58
201.544	-5.28
202.017	-2.28
202.489	3.62
202.961	-1.78
203.433	-3.38
203.906	-0.68
204.378	-8.58
204.85	-1.78
205.322	-8.58
205.794	-3.68
206.266	-1.88
206.739	-8.38
207.211	3.82
207.683	0.12
208.155	-4.08
208.627	-8.18
209.099	-4.38
209.57	-4.38
210.042	-3.78
210.514	-3.18
210.986	-0.18
211.458	-7.48
211.93	-6.08
212.402	1.62
212.873	-8.68
213.345	-8.48
213.817	-12.88
214.288	-3.08
214.76	-13.78
215.232	-2.28
215.703	-4.38
216.175	-0.58
216.646	-6.18
217.118	-10.28
217.589	-6.38
218.061	4.82
218.532	-6.88
219.004	-0.08
219.475	3.92
219.946	-3.58
220.418	-4.08
220.889	2.82
221.36	2.42
221.832	-2.48
222.303	-7.48
222.774	-0.48
223.245	-5.88
223.717	-5.78
224.188	-5.88
224.659	-2.78
225.13	-10.58
225.601	-4.08
226.072	6.42
226.543	-1.98
227.014	1.52
227.485	-0.98
227.956	-9.18
228.427	-6.88
228.898	2.32
229.369	5.72
229.839	-6.08
230.31	-5.78
230.781	8.22
231.252	-8.68
231.722	-2.98
232.193	-2.48
232.664	-7.28
233.135	-2.78
233.605	0.62
234.076	-7.58
234.546	-2.88
235.017	4.12
235.487	-2.58
235.958	-1.38
236.428	-10.38
236.899	-12.38
237.369	-1.28
237.84	-8.28
238.31	4.52
238.78	-4.88
239.251	-2.98
239.721	-2.48
240.191	-5.38
240.662	-7.68
241.132	-0.18
241.602	-5.68
242.072	-2.48
242.542	2.92
243.013	-10.88
243.483	-2.38
243.953	3.42
244.423	-4.58
244.893	-6.68
245.363	0.72
245.833	-3.88
246.303	-7.98
246.773	4.02
247.243	-4.68
247.712	3.92
248.182	-2.48
248.652	-1.18
249.122	-6.68
249.592	1.22
250.061	3.52
250.531	5.52
251.001	0.62
251.471	6.92
251.94	10.62
252.41	1.32
252.879	2.92
253.349	7.62
253.818	5.92
254.288	-1.38
254.757	1.72
255.227	-3.48
255.696	1.62
256.166	-0.48
256.635	5.42
257.105	2.12
257.574	0.12
258.043	-0.18
258.513	-4.38
258.982	-0.28
259.451	-6.48
259.92	-6.08
260.389	4.82
260.859	7.72
261.328	3.02
261.797	2.92
262.266	-2.08
262.735	8.32
263.204	-0.68
263.673	-1.08
264.142	5.62
264.611	-1.58
265.08	-3.18
265.549	1.62
266.018	2.32
266.487	-7.98
266.955	-0.58
267.424	0.12
267.893	4.02
268.362	-6.78
268.83	-5.18
269.299	1.72
269.768	6.22
270.236	1.52
270.705	-5.28
271.174	3.12
271.642	4.32
272.111	4.42
272.579	2.82
273.048	-1.28
273.516	0.72
273.985	4.12
274.453	4.52
274.922	12.52
275.39	5.22
275.858	-5.28
276.327	12.72
276.795	11.52
277.263	-1.38
277.731	4.82
278.2	5.52
278.668	5.22
279.136	8.02
279.604	-2.78
280.072	6.32
280.54	2.92
281.008	7.82
281.477	7.22
281.945	4.62
282.413	8.72
282.881	10.02
283.348	3.02
283.816	12.32
284.284	12.82
284.752	11.52
285.22	11.62
285.688	5.22
286.156	7.52
286.623	15.12
287.091	9.72
287.559	12.12
288.026	9.72
288.494	11.02
288.962	-1.48
289.429	7.52
289.897	11.02
290.364	8.22
290.832	20.32
291.3	8.92
291.767	8.52
292.234	10.22
292.702	7.12
293.169	11.02
293.637	20.92
294.104	15.02
294.571	3.02
295.039	11.32
295.506	5.52
295.973	12.62
296.44	5.92
296.908	12.12
297.375	11.12
297.842	14.52
298.309	12.62
298.776	3.32
299.243	19.52
299.71	8.12
300.177	14.72
300.644	16.72
301.111	12.72
301.578	18.22
302.045	9.12
302.512	19.32
302.979	18.42
303.446	17.62
303.913	12.32
304.379	17.42
304.846	22.52
305.313	21.02
305.78	14.22
306.246	29.02
306.713	23.42
307.18	18.32
307.646	17.72
308.113	27.22
308.579	20.12
309.046	15.12
309.512	24.22
309.979	14.52
310.445	26.12
310.912	26.62
311.378	30.22
311.845	27.72
312.311	28.22
312.777	26.32
313.244	25.52
313.71	36.92
314.176	26.22
314.642	25.92
315.109	28.22
315.575	23.12
316.041	31.42
316.507	20.62
316.973	27.22
317.439	21.52
317.905	31.82
318.371	33.52
318.837	30.52
319.303	27.02
319.769	27.62
320.235	26.72
320.701	28.62
321.167	36.22
321.633	24.82
322.099	33.22
322.564	35.12
323.03	26.62
323.496	36.02
323.962	33.02
324.427	34.12
324.893	42.42
325.359	37.52
325.824	33.42
326.29	36.62
326.755	37.02
327.221	35.52
327.686	40.12
328.152	55.12
328.617	38.92
329.083	43.12
329.548	51.62
330.014	46.12
330.479	35.22
330.944	42.12
331.41	48.92
331.875	46.72
332.34	43.82
332.805	45.62
333.271	41.92
333.736	43.62
334.201	50.62
334.666	54.42
335.131	55.02
335.596	59.02
336.061	50.12
336.526	44.42
336.991	40.52
337.456	61.92
337.921	51.32
338.386	42.92
338.851	50.12
339.316	51.52
339.781	51.72
340.246	56.22
340.711	53.72
341.175	59.32
341.64	44.82
342.105	53.12
342.569	56.82
343.034	59.82
343.499	60.22
343.963	58.32
344.428	66.32
344.893	61.12
345.357	67.82
345.822	65.42
346.286	79.62
346.751	71.92
347.215	70.82
347.679	73.72
348.144	91.82
348.608	82.22
349.073	71.92
349.537	77.92
350.001	81.62
350.465	92.32
350.93	90.22
351.394	87.22
351.858	79.02
352.322	89.72
352.786	93.72
353.25	94.82
353.715	112.72
354.179	104.12
354.643	118.22
355.107	117.62
355.571	109.12
356.035	105.42
356.498	115.52
356.962	116.12
357.426	119.02
357.89	107.82
358.354	97.62
358.818	93.32
359.281	92.52
359.745	90.02
360.209	90.82
360.673	90.92
361.136	98.32
361.6	99.72
362.064	91.12
362.527	94.12
362.991	104.22
363.454	96.02
363.918	89.92
364.381	87.32
364.845	102.12
365.308	99.92
365.772	104.82
366.235	105.22
366.698	97.62
367.162	96.22
367.625	101.62
368.088	106.72
368.552	105.82
369.015	110.52
369.478	104.42
369.941	113.72
370.404	109.72
370.867	116.42
371.331	118.02
371.794	126.12
372.257	119.42
372.72	124.92
373.183	119.02
373.646	112.62
374.109	118.22
374.572	122.62
375.035	124.22
375.497	125.32
375.96	129.82
376.423	123.82
376.886	137.72
377.349	130.32
377.811	130.62
378.274	136.42
378.737	128.82
379.199	135.12
379.662	137.72
380.125	134.02
380.587	126.92
381.05	135.62
381.512	143.22
381.975	152.82
382.437	152.52
382.9	147.82
383.362	153.72
383.825	155.22
384.287	154.62
384.75	152.22
385.212	150.92
385.674	155.02
386.136	160.52
386.599	151.92
387.061	155.02
387.523	148.22
387.985	157.42
388.447	166.82
388.91	158.82
389.372	160.82
389.834	161.92
390.296	152.72
390.758	167.02
391.22	166.92
391.682	180.22
392.144	177.42
392.606	167.62
393.068	177.72
393.529	193.62
393.991	182.52
394.453	174.92
394.915	173.12
395.377	167.22
395.838	169.62
396.3	169.22
396.762	176.92
397.224	172.62
397.685	172.02
398.147	176.62
398.608	171.82
399.07	177.12
399.531	176.42
399.993	191.12
400.454	204.72
400.916	194.12
401.377	187.02
401.839	195.02
402.3	200.82
402.762	209.12
403.223	227.32
403.684	217.32
404.145	205.82
404.607	208.82
405.068	202.82
405.529	207.32
405.99	221.42
406.451	214.02
406.913	219.92
407.374	216.92
407.835	214.42
408.296	217.62
408.757	223.92
409.218	233.32
409.679	225.72
410.14	226.92
410.601	220.32
411.062	226.62
411.522	230.32
411.983	229.92
412.444	235.02
412.905	238.82
413.366	245.52
413.826	262.92
414.287	296.32
414.748	357.42
415.208	336.12
415.669	291.42
416.13	279.52
416.59	276.92
417.051	277.72
417.511	294.82
417.972	328.32
418.432	340.22
418.893	395.72
419.353	351.02
419.814	268.42
420.274	246.92
420.734	251.22
421.195	257.62
421.655	258.62
422.115	255.92
422.576	259.52
423.036	267.42
423.496	274.42
423.956	284.92
424.416	299.42
424.876	345.72
425.336	333.22
425.797	338.22
426.257	335.42
426.717	304.42
427.177	294.12
427.637	278.42
428.097	292.62
428.556	315.72
429.016	339.82
429.476	330.92
429.936	333.42
430.396	341.32
430.856	363.82
431.315	371.42
431.775	407.52
432.235	444.72
432.694	429.52
433.154	427.52
433.614	444.22
434.073	393.12
434.533	345.52
434.993	332.42
435.452	345.02
435.912	343.12
436.371	343.32
436.83	329.92
437.29	321.62
437.749	306.02
438.209	300.82
438.668	320.92
439.127	339.12
439.587	321.42
440.046	301.62
440.505	313.32
440.964	328.62
441.424	367.62
441.883	360.82
442.342	318.02
442.801	296.42
443.26	295.62
443.719	298.52
444.178	294.22
444.637	274.42
445.096	285.42
445.555	297.32
446.014	293.12
446.473	298.02
446.932	300.92
447.391	290.22
447.849	299.32
448.308	294.62
448.767	289.12
449.226	314.32
449.685	301.92
450.143	324.32
450.602	307.72
451.061	291.92
451.519	305.62
451.978	298.62
452.436	297.62
452.895	299.82
453.353	314.62
453.812	297.72
454.27	301.12
454.729	306.22
455.187	305.72
455.646	309.72
456.104	306.52
456.562	315.12
457.021	326.02
457.479	318.62
457.937	338.22
458.395	333.32
458.854	320.82
459.312	317.02
459.77	327.12
460.228	320.82
460.686	308.22
461.144	316.32
461.602	316.52
462.06	318.12
462.518	325.32
462.976	320.92
463.434	326.92
463.892	327.72
464.35	338.92
464.808	346.62
465.266	337.22
465.724	337.02
466.181	346.02
466.639	340.02
467.097	360.22
467.555	368.02
468.012	367.82
468.47	379.92
468.928	400.42
469.385	417.22
469.843	422.82
470.3	419.52
470.758	438.42
471.215	446.72
471.673	467.12
472.13	474.42
472.588	485.32
473.045	461.32
473.503	464.92
473.96	484.12
474.417	482.82
474.875	521.82
475.332	561.22
475.789	538.92
476.246	548.52
476.704	565.82
477.161	590.62
477.618	602.42
478.075	644.72
478.532	689.72
478.989	749.52
479.446	830.32
479.903	823.02
480.36	860.22
480.817	899.92
481.274	995.22
481.731	1070.52
482.188	1153.62
482.645	1261.82
483.102	1353.52
483.558	1463.22
484.015	1518.42
484.472	1491.52
484.929	1451.12
485.385	1425.32
485.842	1390.52
486.299	1356.02
486.755	1292.22
487.212	1130.92
487.668	998.72
488.125	952.12
488.582	877.22
489.038	830.12
489.494	799.02
489.951	777.52
490.407	747.02
490.864	735.92
491.32	729.02
491.776	727.02
492.233	732.22
492.689	714.22
493.145	699.12
493.602	692.42
494.058	707.82
494.514	705.22
494.97	707.22
495.426	712.32
495.882	704.32
496.338	694.72
496.794	708.62
497.251	689.42
497.707	711.22
498.163	717.92
498.618	711.92
499.074	710.22
499.53	745.92
499.986	731.12
500.442	716.22
500.898	702.52
501.354	703.32
501.809	708.32
502.265	707.12
502.721	716.52
503.177	727.52
503.632	734.32
504.088	734.82
504.543	745.32
504.999	758.52
505.455	734.92
505.91	724.22
506.366	727.32
506.821	723.82
507.277	726.42
507.732	729.12
508.187	729.12
508.643	734.32
509.098	732.62
509.553	752.42
510.009	758.52
510.464	757.42
510.919	768.62
511.375	781.62
511.83	801.32
512.285	803.72
512.74	833.82
513.195	841.12
513.65	837.32
514.105	839.32
514.56	840.62
515.015	850.72
515.47	868.52
515.925	855.32
516.38	856.72
516.835	859.62
517.29	854.72
517.745	858.02
518.2	843.42
518.655	829.22
519.109	821.42
519.564	819.22
520.019	800.02
520.474	788.12
520.928	794.22
521.383	783.22
521.838	780.52
522.292	778.42
522.747	780.42
523.201	773.32
523.656	775.12
524.11	753.22
524.565	767.72
525.019	750.12
525.474	767.82
525.928	752.22
526.382	756.92
526.837	751.62
527.291	757.52
527.745	750.72
528.2	759.12
528.654	757.62
529.108	733.22
529.562	734.12
530.016	745.82
530.47	741.22
530.925	744.12
531.379	741.32
531.833	746.42
532.287	748.22
532.741	741.42
533.195	734.02
533.649	745.12
534.103	757.22
534.556	727.92
535.01	742.72
535.464	737.22
535.918	743.32
536.372	747.12
536.826	744.62
537.279	724.82
537.733	740.02
538.187	748.32
538.64	745.32
539.094	744.62
539.548	766.12
540.001	758.32
540.455	760.22
540.908	766.02
541.362	768.52
541.815	768.32
542.269	772.12
542.722	775.92
543.175	791.52
543.629	793.02
544.082	824.82
544.536	814.52
544.989	819.42
545.442	822.42
545.895	821.62
546.349	819.72
546.802	838.22
547.255	822.02
547.708	822.12
548.161	829.22
548.614	832.02
549.067	839.52
549.52	846.82
549.973	825.92
550.426	813.32
550.879	815.12
551.332	816.62
551.785	817.42
552.238	815.22
552.691	821.32
553.144	836.22
553.596	838.02
554.049	859.92
554.502	891.02
554.955	911.52
555.407	903.62
555.86	891.82
556.313	893.92
556.765	870.02
557.218	863.82
557.67	867.42
558.123	860.72
558.576	861.52
559.028	859.82
559.48	876.52
559.933	868.22
560.385	848.82
560.838	810.12
561.29	792.32
561.742	783.82
562.195	770.52
562.647	765.22
563.099	777.52
563.551	764.32
564.004	779.92
564.456	757.32
564.908	746.32
565.36	734.62
565.812	716.62
566.264	706.72
566.716	708.52
567.168	695.62
567.62	700.82
568.072	682.42
568.524	677.62
568.976	684.02
569.428	671.42
569.88	666.52
570.332	672.82
570.784	661.92
571.235	670.52
571.687	680.02
572.139	682.92
572.59	689.42
573.042	685.42
573.494	686.02
573.945	677.62
574.397	662.22
574.849	670.92
575.3	667.32
575.752	656.42
576.203	647.12
576.655	658.52
577.106	643.42
577.557	629.42
578.009	634.52
578.46	625.82
578.912	629.32
579.363	624.02
579.814	628.62
580.265	623.22
580.717	625.02
581.168	628.92
581.619	635.92
582.07	642.02
582.521	639.12
582.972	631.02
583.423	629.82
583.875	638.42
584.326	634.82
584.777	665.52
585.227	677.92
585.678	695.22
586.129	722.62
586.58	741.42
587.031	765.22
587.482	800.12
587.933	838.72
588.384	804.42
588.834	749.32
589.285	725.92
589.736	733.02
590.186	706.32
590.637	715.72
591.088	699.42
591.538	690.22
591.989	675.12
592.439	685.22
592.89	652.52
593.34	653.82
593.791	661.62
594.241	641.42
594.692	636.62
595.142	640.82
595.593	640.22
596.043	646.12
596.493	654.02
596.943	643.32
597.394	653.12
597.844	659.02
598.294	671.12
598.744	705.12
599.195	704.22
599.645	742.82
600.095	771.22
600.545	818.72
600.995	869.82
601.445	914.82
601.895	963.72
602.345	1012.22
602.795	993.32
603.245	968.42
603.695	912.52
604.145	881.02
604.594	825.12
605.044	784.42
605.494	731.02
605.944	682.12
606.393	660.62
606.843	652.72
607.293	660.22
607.743	656.82
608.192	647.72
608.642	673.32
609.091	677.52
609.541	675.42
609.99	667.72
610.44	666.52
610.889	642.32
611.339	619.72
611.788	605.12
612.238	617.92
612.687	630.72
613.136	616.92
613.586	623.82
614.035	618.72
614.484	628.32
614.933	636.62
615.383	624.72
615.832	626.52
616.281	616.62
616.73	596.52
617.179	577.02
617.628	558.72
618.077	557.22
618.526	560.02
618.975	551.22
619.424	536.52
619.873	539.72
620.322	530.22
620.771	529.32
621.22	529.52
621.669	514.92
622.118	510.92
622.567	503.42
623.015	490.72
623.464	498.32
623.913	494.82
624.361	481.82
624.81	477.02
625.259	484.92
625.707	481.82
626.156	482.92
626.604	490.92
627.053	488.72
627.501	481.62
627.95	482.62
628.398	504.42
628.847	493.32
629.295	490.52
629.744	490.32
630.192	497.02
630.64	477.42
631.089	470.92
631.537	460.72
631.985	451.52
632.433	456.32
632.881	447.32
633.33	457.12
633.778	449.32
634.226	447.92
634.674	459.92
635.122	458.12
635.57	465.42
636.018	477.82
636.466	482.02
636.914	472.32
637.362	489.12
637.81	489.12
638.258	489.72
638.705	489.22
639.153	518.82
639.601	521.32
640.049	548.82
640.497	565.42
640.944	586.42
641.392	539.72
641.84	523.42
642.287	489.92
642.735	476.22
643.182	477.22
643.63	475.62
644.078	473.82
644.525	482.62
644.973	483.92
645.42	489.72
645.867	511.22
646.315	530.72
646.762	538.32
647.21	560.52
647.657	553.12
648.104	594.72
648.551	593.62
648.999	638.12
649.446	690.12
649.893	737.32
650.34	836.02
650.787	974.82
651.234	1175.32
651.682	1499.02
652.129	1966.02
652.576	2727.32
653.023	3929.62
653.47	5401.82
653.917	6793.92
654.363	7983.52
654.81	9006.62
655.257	8583.62
655.704	5700.02
656.151	3462.42
656.598	2281.52
657.044	1667.82
657.491	1300.42
657.938	1063.42
658.385	898.62
658.831	792.82
659.278	723.92
659.724	640.52
660.171	608.92
660.618	539.22
661.064	530.02
661.511	505.52
661.957	491.52
662.404	478.02
662.85	490.92
663.296	475.62
663.743	442.02
664.189	447.52
664.635	438.52
665.082	429.72
665.528	428.72
665.974	418.12
666.42	412.72
666.867	409.92
667.313	390.72
667.759	387.12
668.205	376.92
668.651	373.62
669.097	375.42
669.543	375.02
669.989	379.52
670.435	377.22
670.881	369.52
671.327	375.12
671.773	390.92
672.219	397.42
672.665	447.82
673.11	477.62
673.556	510.92
674.002	557.02
674.448	546.82
674.893	470.82
675.339	399.62
675.785	365.32
676.23	349.92
676.676	330.12
677.122	321.02
677.567	317.62
678.013	316.12
678.458	301.22
678.904	298.52
679.349	286.72
679.794	293.12
680.24	292.22
680.685	286.42
681.131	286.82
681.576	290.42
682.021	290.02
682.466	286.32
682.912	288.02
683.357	288.62
683.802	319.72
684.247	337.12
684.692	361.72
685.137	399.22
685.583	441.02
686.028	474.02
686.473	425.52
686.918	371.52
687.363	346.82
687.807	329.62
688.252	305.82
688.697	295.42
689.142	278.82
689.587	262.42
690.032	270.62
690.477	282.52
690.921	295.62
691.366	311.92
691.811	332.82
692.255	348.52
692.7	374.52
693.145	416.62
693.589	551.22
694.034	888.02
694.478	1234.62
694.923	1462.52
695.367	1950.82
695.812	1022.42
696.256	421.02
696.701	305.02
697.145	282.92
697.59	267.32
698.034	259.82
698.478	270.92
698.922	264.42
699.367	263.92
699.811	279.92
700.255	285.12
700.699	304.42
701.143	335.72
701.588	388.12
702.032	424.82
702.476	419.22
702.92	404.92
703.364	402.52
703.808	503.52
704.252	810.62
704.696	1178.32
705.14	1406.02
705.584	1833.92
706.027	909.02
706.471	434.52
706.915	328.02
707.359	292.82
707.803	268.92
708.246	250.42
708.69	258.12
709.134	261.82
709.577	253.72
710.021	259.02
710.465	254.62
710.908	243.82
711.352	249.22
711.795	251.22
712.239	289.72
712.682	304.02
713.126	337.02
713.569	381.92
714.012	296.62
714.456	251.12
714.899	238.82
715.342	221.42
715.786	219.42
716.229	216.12
716.672	205.32
717.115	199.72
717.558	200.72
718.002	199.42
718.445	209.72
718.888	232.82
719.331	234.32
719.774	254.52
720.217	245.82
720.66	228.02
721.103	222.22
721.546	205.52
721.989	207.52
722.432	195.62
722.874	203.42
723.317	190.92
723.76	194.42
724.203	199.62
724.645	247.52
725.088	340.02
725.531	456.22
725.974	533.32
726.416	462.72
726.859	254.82
727.301	198.52
727.744	198.42
728.187	189.52
728.629	198.12
729.071	201.42
729.514	205.72
729.956	217.32
730.399	226.72
730.841	238.42
731.283	215.82
731.726	220.52
732.168	213.62
732.61	219.02
733.053	239.42
733.495	255.52
733.937	283.62
734.379	324.42
734.821	355.92
735.263	434.52
735.705	649.42
736.148	1221.52
736.59	2091.12
737.032	2597.82
737.474	2149.22
737.916	679.52
738.357	360.52
738.799	272.32
739.241	243.22
739.683	229.02
740.125	244.82
740.567	247.12
741.008	267.72
741.45	271.32
741.892	265.72
742.334	301.62
742.775	318.32
743.217	310.22
743.658	230.12
744.1	209.32
744.542	217.12
744.983	274.92
745.425	315.92
745.866	316.52
746.307	235.92
746.749	229.82
747.19	258.32
747.632	358.82
748.073	665.62
748.514	1445.72
748.956	2325.32
749.397	2944.02
749.838	2450.02
750.279	2544.72
750.72	1297.12
751.162	466.72
751.603	270.72
752.044	209.52
752.485	186.02
752.926	170.62
753.367	168.72
753.808	154.12
754.249	158.12
754.69	153.22
755.131	147.12
755.572	152.92
756.013	147.52
756.453	149.12
756.894	148.32
757.335	155.22
757.776	151.42
758.216	164.62
758.657	159.32
759.098	171.52
759.538	179.62
759.979	216.62
760.42	299.42
760.86	534.52
761.301	1418.72
761.741	3508.02
762.182	5615.12
762.622	4031.22
763.063	1136.62
763.503	451.42
763.943	272.52
764.384	231.02
764.824	218.62
765.264	215.12
765.705	177.02
766.145	151.32
766.585	148.42
767.025	139.02
767.465	132.82
767.906	148.42
768.346	171.42
768.786	177.32
769.226	176.42
769.666	244.42
770.106	470.02
770.546	1199.92
770.986	2210.92
771.426	2048.62
771.866	670.82
772.306	274.42
772.745	160.32
773.185	135.12
773.625	131.12
774.065	125.72
774.505	134.32
774.944	174.22
775.384	328.92
775.824	580.22
776.263	581.62
776.703	263.82
777.142	141.72
777.582	108.22
778.021	103.22
778.461	104.92
778.9	99.32
779.34	102.52
779.779	93.92
780.219	82.02
780.658	85.52
781.097	90.92
781.537	88.72
781.976	87.02
782.415	87.72
782.855	82.72
783.294	80.12
783.733	91.22
784.172	86.72
784.611	86.52
785.05	86.32
785.489	88.82
785.928	95.22
786.367	98.72
786.806	90.22
787.245	101.52
787.684	108.62
788.123	120.62
788.562	111.02
789.001	102.52
789.44	102.22
789.879	99.62
790.317	93.42
790.756	102.72
791.195	103.52
791.634	113.72
792.072	161.62
792.511	274.22
792.95	755.52
793.388	1750.42
793.827	1674.02
794.265	567.62
794.704	228.92
795.142	151.92
795.581	125.62
796.019	114.72
796.458	108.12
796.896	94.72
797.334	105.22
797.773	129.42
798.211	178.72
798.649	333.32
799.087	806.82
799.526	1296.62
799.964	1646.12
800.402	1750.32
800.84	651.12
801.278	254.32
801.716	158.32
802.154	125.32
802.592	125.22
803.03	111.32
803.468	110.12
803.906	119.52
804.344	121.72
804.782	115.72
805.22	113.02
805.658	107.72
806.096	126.32
806.533	130.22
806.971	139.42
807.409	181.72
807.847	251.02
808.284	517.42
808.722	1471.12
809.16	2786.22
809.597	2555.42
810.035	4528.82
810.472	5214.22
810.91	1859.82
811.347	687.82
811.785	344.12
812.222	216.52
812.66	164.32
813.097	137.32
813.535	119.12
813.972	105.02
814.409	97.22
814.846	87.22
815.284	90.92
815.721	80.02
816.158	86.92
816.595	94.52
817.032	136.22
817.47	176.82
817.907	130.02
818.344	89.12
818.781	81.22
819.218	83.62
819.655	110.32
820.092	179.02
820.529	214.52
820.966	160.02
821.403	114.72
821.839	88.82
822.276	80.62
822.713	111.62
823.15	120.02
823.587	99.82
824.023	119.92
824.46	223.72
824.897	708.92
825.333	1155.92
825.77	510.12
826.206	194.52
826.643	111.92
827.08	85.92
827.516	60.32
827.953	57.82
828.389	70.92
828.825	55.12
829.262	53.32
829.698	51.12
830.135	52.82
830.571	50.02
831.007	53.02
831.443	48.22
831.88	49.72
832.316	49.92
832.752	50.42
833.188	50.82
833.624	51.32
834.06	59.12
834.497	51.02
834.933	59.72
835.369	61.52
835.805	53.52
836.241	56.52
836.677	65.82
837.112	70.22
837.548	83.52
837.984	103.92
838.42	159.02
838.856	386.42
839.292	1210.22
839.727	2006.82
840.163	927.32
840.599	741.62
841.034	1664.92
841.47	1887.92
841.906	675.62
842.341	275.62
842.777	168.02
843.212	182.92
843.648	186.02
844.083	96.42
844.519	67.92
844.954	62.72
845.39	46.12
845.825	46.42
846.261	52.42
846.696	43.52
847.131	42.42
847.566	49.62
848.002	43.32
848.437	43.32
848.872	47.32
849.307	53.42
849.742	66.42
850.177	144.52
850.613	441.02
851.048	735.32
851.483	324.52
851.918	125.12
852.353	72.42
852.788	45.82
853.223	45.82
853.657	41.72
854.092	38.82
854.527	33.32
854.962	28.12
855.397	43.52
855.832	44.02
856.266	33.12
856.701	34.72
857.136	26.22
857.57	37.72
858.005	41.42
858.44	51.62
858.874	32.62
859.309	35.72
859.743	27.82
860.178	40.82
860.612	37.62
861.047	44.32
861.481	66.32
861.915	72.32
862.35	49.32
862.784	27.22
863.218	29.62
863.653	24.72
864.087	41.42
864.521	48.52
864.955	54.12
865.39	127.02
865.824	155.92
866.258	102.32
866.692	169.32
867.126	191.82
867.56	112.52
867.994	52.22
868.428	34.22
868.862	44.42
869.296	56.52
869.73	56.62
870.164	50.02
870.598	50.12
871.031	34.52
871.465	19.92
871.899	28.62
872.333	16.52
872.766	22.62
873.2	17.32
873.634	26.52
874.067	17.92
874.501	21.62
874.935	27.42
875.368	16.72
875.802	23.62
876.235	23.32
876.669	25.32
877.102	17.22
877.535	22.02
877.969	21.72
878.402	21.52
878.836	15.02
879.269	18.82
879.702	21.42
880.135	14.02
880.569	20.72
881.002	18.42
881.435	20.32
881.868	14.72
882.301	20.72
882.734	14.72
883.167	18.72
883.601	11.72
884.034	16.62
884.467	14.02
884.899	13.22
885.332	10.72
885.765	10.12
886.198	13.62
886.631	12.92
887.064	12.12
887.497	19.12
887.929	14.32
888.362	6.42
888.795	16.72
889.228	14.72
889.66	23.32
890.093	14.52
890.526	13.62
890.958	17.92
891.391	15.42
891.823	14.92
892.256	8.82
892.688	6.22
893.121	13.52
893.553	6.42
893.985	17.92
894.418	16.32
894.85	8.32
895.282	18.52
895.715	10.72
896.147	19.32
896.579	15.02
897.011	11.22
897.444	14.82
897.876	8.92
898.308	14.92
898.74	8.52
899.172	15.32
899.604	18.42
900.036	8.72
900.468	7.22
900.9	13.42
901.332	13.12
901.764	12.02
902.196	17.02
902.628	15.62
903.06	15.82
903.491	31.32
903.923	24.22
904.355	16.72
904.787	19.62
905.218	18.22
905.65	17.22
906.082	10.72
906.513	11.52
906.945	13.02
907.376	11.82
907.808	16.42
908.239	16.52
908.671	14.52
909.102	13.52
909.534	19.72
909.965	36.72
910.397	78.62
910.828	263.72
911.259	410.12
911.691	189.72
912.122	89.92
912.553	42.02
912.984	27.12
913.415	18.62
913.847	15.22
914.278	15.82
914.709	16.12
915.14	14.72
915.571	15.22
916.002	6.82
916.433	19.52
916.864	7.02
917.295	7.02
917.726	11.92
918.157	9.42
918.587	26.92
919.018	14.62
919.449	13.32
919.88	20.22
920.311	24.42
920.741	45.62
921.172	139.42
921.603	131.22
922.033	66.22
922.464	41.22
922.895	12.92
923.325	18.42
923.756	12.82
924.186	10.42
924.617	19.72
925.047	25.02
925.478	29.82
925.908	31.12
926.338	9.52
926.769	9.82
927.199	10.42
927.629	1.62
928.06	12.92
928.49	8.12
928.92	13.42
929.35	7.82
929.78	11.92
930.21	1.62
930.641	7.82
931.071	5.42
931.501	1.42
931.931	11.32
932.361	6.82
932.791	0.92
933.221	3.42
933.651	-0.08
934.08	12.62
934.51	26.22
934.94	7.12
935.37	7.82
935.8	8.22
936.229	-0.38
936.659	9.72
937.089	0.32
937.519	13.32
937.948	25.52
938.378	21.32
938.807	6.22
939.237	2.32
939.666	9.42
940.096	-7.08
940.525	-2.48
940.955	1.92
941.384	5.12
941.814	-4.88
942.243	1.42
942.672	2.12
943.102	-1.98
943.531	4.32
943.96	4.72
944.39	2.52
944.819	-0.38
945.248	3.02
945.677	3.52
946.106	9.22
946.535	6.52
946.964	11.32
947.393	8.62
947.822	4.92
948.251	-1.58
948.68	5.82
949.109	6.32
949.538	-3.08
949.967	6.52
950.396	1.42
950.825	-3.68
951.254	-0.08
951.682	-13.38
952.111	-2.88
952.54	0.62
952.969	-0.98
953.397	-5.48
953.826	4.72
954.254	-2.28
954.683	5.52
955.112	-2.88
955.54	4.92
955.969	-1.08
956.397	2.82
956.826	-5.88
957.254	4.22
957.682	1.22
958.111	-1.08
958.539	0.42
958.967	2.22
959.396	-1.08
959.824	2.42
960.252	0.62
960.68	-4.48
961.109	2.72
961.537	0.92
961.965	-1.98
962.393	-0.18
962.821	-4.88
963.249	-0.28
963.677	6.82
964.105	1.72
964.533	35.52
964.961	34.42
965.389	14.82
965.817	3.02
966.245	-0.08
966.672	-0.98
967.1	-6.58
967.528	1.22
967.956	0.72
968.383	2.32
968.811	-2.28
969.239	2.52
969.666	-1.98
970.094	-0.48
970.522	4.12
970.949	2.72
971.377	-5.38
971.804	-5.48
972.232	-0.58
972.659	-2.18
973.087	2.92
973.514	-12.28
973.941	-2.78
974.369	2.22
974.796	-4.78
975.223	-0.48
975.651	-3.88
976.078	12.22
976.505	0.72
976.932	3.92
977.359	8.12
977.786	17.92
978.214	-0.78
978.641	-4.58
979.068	-2.58
979.495	-1.88
979.922	2.02
980.349	-0.08
980.776	3.42
981.202	-7.98
981.629	9.22
982.056	2.82
982.483	-3.08
982.91	2.22
983.337	-7.88
983.763	1.32
984.19	-8.28
984.617	-2.08
985.043	-10.88
985.47	-2.88
985.897	-2.28
986.323	-9.18
986.75	2.02
987.176	-0.68
987.603	-2.38
988.029	0.22
988.456	-2.38
988.882	2.12
989.308	-3.28
989.735	-0.98
990.161	1.42
990.587	-10.28
991.014	-4.88
991.44	4.32
991.866	-3.38
992.292	-10.28
992.719	-1.58
993.145	3.42
993.571	-8.38
993.997	-7.68
994.423	-5.98
994.849	-8.18
995.275	3.42
995.701	-5.38
996.127	-8.78
996.553	-3.28
996.979	-4.08
997.405	-1.08
997.83	-4.48
998.256	-3.38
998.682	-5.08
999.108	-8.88
999.534	2.62
999.959	2.92
1000.385	-8.98
1000.811	2.12
1001.236	-5.18
1001.662	-6.28
1002.087	-6.08
1002.513	6.12
1002.938	4.22
1003.364	-6.08
1003.789	2.22
1004.215	5.32
1004.64	1.92
1005.066	0.42
1005.491	-1.98
1005.916	-3.08
1006.342	-5.08
1006.767	-6.68
1007.192	0.62
1007.617	-1.28
1008.042	-2.08
1008.468	-4.58
1008.893	-1.48
1009.318	-5.88
1009.743	-5.98
1010.168	9.72
1010.593	3.82
1011.018	-8.28
1011.443	-3.28
1011.868	-4.48
1012.293	1.92
1012.718	-9.08
1013.143	-3.38
1013.567	-6.48
1013.992	-2.08
1014.417	-8.38
1014.842	2.92
1015.267	-5.68
1015.691	-7.78
1016.116	4.02
1016.541	0.52
1016.965	1.42
1017.39	0.12
1017.814	-1.98
1018.239	-6.08
1018.663	-8.18
1019.088	-7.68
1019.512	3.42
1019.937	0.12
1020.361	-7.68
1020.785	-9.08
1021.21	0.12
1021.634	1.32
1022.058	-0.68
1022.483	2.82
1022.907	-2.78
1023.331	-4.68
1023.755	-6.38
1024.179	6.52
1024.604	-2.58
1025.028	-6.28
1025.452	-3.18
1025.876	-0.28
1026.3	-0.58
1026.724	-14.28
1027.148	-8.58
1027.572	-12.48
1027.996	-1.28
1028.42	0.32
1028.843	-4.88
1029.267	-0.18
1029.691	1.52
1030.115	-0.68
1030.539	-1.28
1030.962	-4.88
1031.386	-10.58
1031.81	0.02
1032.233	-2.58
1032.657	-4.38
1033.08	-5.78
1033.504	-4.18
1033.927	-7.98
1034.351	-1.68
1034.774	-2.58
1035.198	-5.98
1035.621	-2.18
1036.045	-8.08
1036.468	-1.88
1036.891	-8.48
1037.315	-8.58
1037.738	-14.98
1038.161	1.72
1038.584	-7.18
1039.008	-11.78
1039.431	-5.38
1039.854	-8.08
1040.277	-6.58
1040.7	-11.78
1041.123	-1.78
1041.546	-6.28
1041.969	-3.28
1042.392	-2.38
1042.815	-5.88
1043.238	-1.58
1043.661	-3.58
1044.084	-10.58
1044.507	-5.18
1044.93	-6.58
1045.352	1.12
1045.775	-6.08
1046.198	0.92
1046.621	-0.98
1047.043	0.52
1047.466	6.12
1047.889	-3.98
1048.311	-6.08
1048.734	-4.08
1049.156	-1.48
1049.579	-0.18
1050.001	-5.28
1050.424	4.82
1050.846	-7.68
1051.269	-1.48
1051.691	-4.78
1052.113	-1.38
1052.536	1.62
1052.958	2.32
1053.38	-8.88
1053.802	-9.48
1054.225	1.82
1054.647	-9.58
1055.069	-2.38
1055.491	1.92
1055.913	-9.58
1056.335	-3.58
1056.757	-3.38
1057.179	-7.48
1057.601	-10.78
1058.023	1.82
1058.445	-4.08
1058.867	-2.48
1059.289	-5.58
1059.711	-5.38
1060.133	-2.38
1060.555	-0.88
1060.976	-8.18
1061.398	-3.78
1061.82	-10.68
1062.241	-5.38
1062.663	-6.68
1063.085	-2.08
1063.506	0.62
1063.928	-2.68
1064.35	-0.28
1064.771	-11.38
1065.193	-1.68
1065.614	-15.38
1066.035	-0.28
1066.457	-0.38
1066.878	-4.58
1067.3	-7.78
1067.721	-3.58
1068.142	-3.08
1068.564	2.62
1068.985	-4.08
1069.406	-3.68
1069.827	-1.78
1070.248	-3.98
1070.67	-5.38
1071.091	-7.48
1071.512	-3.48
1071.933	-8.68
1072.354	-7.38
1072.775	-5.08
1073.196	-10.68
1073.617	-10.08
1074.038	-9.48
1074.459	-5.88
1074.88	-12.08
1075.3	-1.18
1075.721	-4.38
1076.142	-5.48
1076.563	-0.28
1076.983	-10.48
1077.404	-6.48
1077.825	-13.58
1078.246	-2.98
1078.666	-14.78
1079.087	-1.98
1079.507	-4.68
1079.928	3.32
1080.348	-1.98
1080.769	-5.78
1081.189	-0.78
1081.61	-7.58
1082.03	-4.88
1082.451	-6.48
1082.871	-6.58
1083.291	-4.58
1083.711	-8.98
1084.132	-1.68
1084.552	-1.28
1084.972	-0.98
1085.392	-12.68
1085.813	-7.18
1086.233	-11.88
1086.653	-4.18
1087.073	-0.38
1087.493	-11.38
1087.913	-7.88
1088.333	-9.38
1088.753	-2.48
1089.173	4.32
1089.593	-2.78
1090.013	-0.18
1090.433	-0.18
1090.852	-3.68
1091.272	2.12
1091.692	4.02
1092.112	-9.68
1092.531	-3.98
1092.951	-13.18
1093.371	-4.68
1093.79	1.72
1094.21	-1.08
1094.63	-2.88
1095.049	-2.28
1095.469	-1.18
1095.888	-1.58
1096.308	-0.58
1096.727	3.82
1097.146	-5.68
1097.566	-0.78
1097.985	-7.58
1098.405	-2.78
1098.824	-9.68
1099.243	-8.08
1099.662	-15.58
1100.082	-5.98
1100.501	-4.38
1100.92	-5.28
1101.339	-4.48
1101.758	-6.48
