Data from 20171114-ORNL-Ar_H_NY_Subt18_08-05-18-222.txt Node
Date: Tue Nov 14 08:05:18 EST 2017
User: Ender
Spectrometer: HR+D1039
Trigger mode: 0
Integration Time (sec): 2.730000E-2
Scans to average: 10
Electric dark correction enabled: true
Nonlinearity correction enabled: false
Boxcar width: 0
XAxis mode: Wavelengths
Number of Pixels in Spectrum: 2048
>>>>>Begin Spectral Data<<<<<
187.836	2.21
188.309	2.21
188.782	2.21
189.255	-0.09
189.728	-2.69
190.201	3.01
190.674	1.01
191.147	2.61
191.619	-5.19
192.092	-0.69
192.565	8.11
193.038	-0.89
193.511	4.31
193.984	0.81
194.456	-4.59
194.929	-1.69
195.402	-1.39
195.874	-4.79
196.347	-4.49
196.82	-12.29
197.292	5.11
197.765	1.91
198.237	-7.19
198.71	0.41
199.182	0.11
199.655	4.41
200.127	-0.29
200.6	0.21
201.072	-4.69
201.544	-3.99
202.017	-1.99
202.489	2.21
202.961	-0.19
203.433	-2.09
203.906	-6.49
204.378	-7.39
204.85	-1.79
205.322	-12.59
205.794	-4.69
206.266	-0.69
206.739	-8.99
207.211	-4.59
207.683	-6.19
208.155	-0.19
208.627	-7.89
209.099	-5.29
209.57	-10.49
210.042	-3.89
210.514	-7.49
210.986	0.51
211.458	-7.19
211.93	-0.69
212.402	3.01
212.873	-4.49
213.345	-3.39
213.817	-12.89
214.288	-6.49
214.76	-9.09
215.232	-4.79
215.703	-4.39
216.175	-6.39
216.646	-4.09
217.118	-5.79
217.589	0.91
218.061	-2.09
218.532	-6.49
219.004	-4.89
219.475	-4.09
219.946	1.41
220.418	-10.29
220.889	5.31
221.36	3.21
221.832	-3.59
222.303	-7.09
222.774	-1.49
223.245	-9.29
223.717	-5.89
224.188	-7.39
224.659	-11.19
225.13	-6.09
225.601	-2.89
226.072	2.91
226.543	0.81
227.014	-0.19
227.485	-2.99
227.956	-3.09
228.427	-0.59
228.898	8.81
229.369	3.81
229.839	-4.69
230.31	-6.09
230.781	2.91
231.252	-4.49
231.722	-3.09
232.193	-8.89
232.664	-1.89
233.135	-2.09
233.605	-1.29
234.076	-5.79
234.546	3.51
235.017	3.91
235.487	1.41
235.958	-5.29
236.428	-1.99
236.899	11.81
237.369	2.91
237.84	4.31
238.31	3.41
238.78	2.51
239.251	1.81
239.721	5.61
240.191	4.61
240.662	1.51
241.132	2.31
241.602	-0.49
242.072	-1.79
242.542	6.41
243.013	-0.49
243.483	2.21
243.953	9.71
244.423	1.41
244.893	-3.89
245.363	12.01
245.833	6.51
246.303	-0.99
246.773	5.71
247.243	1.11
247.712	5.51
248.182	15.61
248.652	6.81
249.122	-3.29
249.592	13.01
250.061	27.11
250.531	35.21
251.001	16.01
251.471	23.61
251.94	15.51
252.41	9.41
252.879	5.71
253.349	12.41
253.818	13.61
254.288	8.01
254.757	0.11
255.227	3.21
255.696	6.61
256.166	8.51
256.635	10.61
257.105	10.21
257.574	6.31
258.043	14.21
258.513	17.21
258.982	16.91
259.451	13.41
259.92	17.61
260.389	16.11
260.859	14.01
261.328	11.31
261.797	18.01
262.266	9.51
262.735	11.11
263.204	1.31
263.673	0.11
264.142	11.51
264.611	0.41
265.08	5.01
265.549	3.41
266.018	7.51
266.487	1.41
266.955	-0.59
267.424	1.61
267.893	11.01
268.362	-0.29
268.83	1.61
269.299	12.41
269.768	11.21
270.236	10.41
270.705	5.81
271.174	5.31
271.642	10.01
272.111	12.51
272.579	15.31
273.048	26.41
273.516	32.31
273.985	26.11
274.453	24.71
274.922	17.51
275.39	14.51
275.858	-0.09
276.327	16.31
276.795	22.31
277.263	16.91
277.731	29.91
278.2	59.91
278.668	58.01
279.136	54.51
279.604	25.41
280.072	16.21
280.54	12.71
281.008	12.91
281.477	15.51
281.945	12.61
282.413	13.41
282.881	19.11
283.348	11.61
283.816	17.31
284.284	19.01
284.752	23.51
285.22	11.31
285.688	15.81
286.156	20.31
286.623	48.11
287.091	53.21
287.559	32.41
288.026	20.51
288.494	22.11
288.962	12.31
289.429	11.41
289.897	22.51
290.364	20.51
290.832	19.01
291.3	16.11
291.767	12.31
292.234	29.91
292.702	14.01
293.169	18.01
293.637	23.11
294.104	21.81
294.571	9.31
295.039	12.91
295.506	19.71
295.973	7.31
296.44	18.51
296.908	24.51
297.375	20.31
297.842	23.51
298.309	25.21
298.776	19.31
299.243	20.41
299.71	12.51
300.177	27.91
300.644	23.11
301.111	20.41
301.578	24.91
302.045	15.81
302.512	22.31
302.979	24.81
303.446	25.41
303.913	19.71
304.379	25.01
304.846	29.91
305.313	26.61
305.78	26.01
306.246	30.61
306.713	27.91
307.18	28.21
307.646	28.51
308.113	35.61
308.579	27.61
309.046	29.01
309.512	28.91
309.979	14.71
310.445	26.81
310.912	30.51
311.378	40.21
311.845	32.61
312.311	30.31
312.777	35.11
313.244	38.81
313.71	40.31
314.176	36.21
314.642	36.31
315.109	29.71
315.575	40.01
316.041	40.71
316.507	29.71
316.973	35.41
317.439	34.71
317.905	39.01
318.371	41.51
318.837	38.31
319.303	39.31
319.769	37.11
320.235	33.31
320.701	38.51
321.167	36.11
321.633	34.61
322.099	39.81
322.564	48.11
323.03	46.91
323.496	43.31
323.962	49.21
324.427	34.51
324.893	47.81
325.359	41.81
325.824	47.51
326.29	41.11
326.755	40.21
327.221	40.51
327.686	42.71
328.152	50.51
328.617	43.91
329.083	51.51
329.548	56.21
330.014	49.71
330.479	47.41
330.944	49.91
331.41	46.61
331.875	46.11
332.34	46.21
332.805	46.51
333.271	53.31
333.736	49.51
334.201	54.01
334.666	54.41
335.131	56.01
335.596	59.01
336.061	55.61
336.526	48.41
336.991	52.01
337.456	53.31
337.921	52.31
338.386	47.51
338.851	49.61
339.316	48.41
339.781	51.81
340.246	55.71
340.711	40.91
341.175	54.81
341.64	51.91
342.105	55.21
342.569	56.31
343.034	65.21
343.499	60.71
343.963	53.01
344.428	69.01
344.893	65.81
345.357	66.91
345.822	56.41
346.286	72.71
346.751	77.51
347.215	76.91
347.679	79.41
348.144	100.81
348.608	81.81
349.073	75.61
349.537	82.51
350.001	89.91
350.465	90.61
350.93	81.61
351.394	76.81
351.858	73.61
352.322	87.91
352.786	85.01
353.25	101.71
353.715	105.21
354.179	107.21
354.643	123.71
355.107	130.01
355.571	113.81
356.035	106.71
356.498	118.71
356.962	130.01
357.426	130.91
357.89	120.71
358.354	98.71
358.818	92.91
359.281	83.31
359.745	82.31
360.209	78.11
360.673	74.21
361.136	89.61
361.6	80.91
362.064	91.81
362.527	82.51
362.991	97.81
363.454	85.01
363.918	79.81
364.381	84.41
364.845	86.01
365.308	85.41
365.772	86.41
366.235	90.11
366.698	89.21
367.162	91.61
367.625	93.21
368.088	96.01
368.552	89.71
369.015	92.41
369.478	98.61
369.941	106.21
370.404	96.01
370.867	109.11
371.331	108.81
371.794	118.41
372.257	111.11
372.72	118.21
373.183	110.11
373.646	109.81
374.109	101.81
374.572	105.81
375.035	108.11
375.497	114.71
375.96	110.41
376.423	107.31
376.886	117.11
377.349	115.01
377.811	104.91
378.274	100.51
378.737	112.91
379.199	110.61
379.662	113.71
380.125	126.21
380.587	120.31
381.05	118.91
381.512	132.61
381.975	142.51
382.437	139.51
382.9	137.21
383.362	133.51
383.825	148.01
384.287	149.41
384.75	142.41
385.212	144.21
385.674	138.11
386.136	140.01
386.599	138.41
387.061	132.31
387.523	132.01
387.985	135.81
388.447	141.11
388.91	139.01
389.372	161.51
389.834	153.31
390.296	143.01
390.758	152.91
391.22	159.71
391.682	206.41
392.144	289.31
392.606	233.21
393.068	168.91
393.529	167.21
393.991	161.11
394.453	152.51
394.915	155.61
395.377	188.21
395.838	212.61
396.3	158.81
396.762	142.41
397.224	131.51
397.685	132.21
398.147	132.71
398.608	130.81
399.07	128.01
399.531	135.81
399.993	146.41
400.454	156.91
400.916	144.61
401.377	151.71
401.839	149.21
402.3	154.91
402.762	164.51
403.223	178.31
403.684	169.81
404.145	165.01
404.607	161.21
405.068	164.31
405.529	173.51
405.99	186.11
406.451	178.71
406.913	177.31
407.374	164.51
407.835	168.71
408.296	172.11
408.757	173.91
409.218	192.11
409.679	175.61
410.14	172.81
410.601	177.71
411.062	175.61
411.522	187.31
411.983	193.81
412.444	176.11
412.905	184.41
413.366	184.11
413.826	202.01
414.287	214.71
414.748	260.31
415.208	250.41
415.669	216.81
416.13	212.21
416.59	202.71
417.051	220.51
417.511	222.71
417.972	232.91
418.432	248.61
418.893	293.61
419.353	249.41
419.814	202.91
420.274	180.21
420.734	187.41
421.195	194.91
421.655	192.01
422.115	193.71
422.576	189.41
423.036	199.91
423.496	206.81
423.956	222.61
424.416	233.41
424.876	273.81
425.336	261.91
425.797	262.11
426.257	260.71
426.717	242.61
427.177	231.41
427.637	218.21
428.097	228.31
428.556	250.21
429.016	273.21
429.476	266.91
429.936	280.61
430.396	280.91
430.856	289.01
431.315	323.71
431.775	349.71
432.235	382.41
432.694	355.71
433.154	373.81
433.614	395.21
434.073	337.01
434.533	289.21
434.993	267.81
435.452	282.81
435.912	299.71
436.371	297.01
436.83	287.81
437.29	266.61
437.749	243.11
438.209	251.21
438.668	263.41
439.127	286.01
439.587	271.51
440.046	255.41
440.505	260.61
440.964	281.81
441.424	321.61
441.883	308.81
442.342	262.31
442.801	225.21
443.26	213.51
443.719	226.01
444.178	215.81
444.637	215.11
445.096	224.81
445.555	233.01
446.014	223.41
446.473	228.41
446.932	226.61
447.391	223.81
447.849	234.31
448.308	215.51
448.767	226.41
449.226	230.71
449.685	236.01
450.143	243.61
450.602	233.71
451.061	228.41
451.519	228.71
451.978	236.81
452.436	232.61
452.895	232.71
453.353	251.81
453.812	242.91
454.27	240.51
454.729	241.81
455.187	238.81
455.646	244.01
456.104	245.41
456.562	265.51
457.021	270.11
457.479	258.11
457.937	267.61
458.395	265.11
458.854	255.01
459.312	251.81
459.77	273.31
460.228	261.21
460.686	242.81
461.144	254.81
461.602	244.21
462.06	240.61
462.518	253.21
462.976	257.81
463.434	259.21
463.892	267.91
464.35	276.71
464.808	287.61
465.266	274.51
465.724	268.81
466.181	281.41
466.639	276.81
467.097	292.51
467.555	300.61
468.012	301.51
468.47	313.51
468.928	332.31
469.385	345.31
469.843	354.51
470.3	344.01
470.758	362.11
471.215	385.61
471.673	412.81
472.13	416.01
472.588	420.71
473.045	368.81
473.503	385.21
473.96	404.51
474.417	400.81
474.875	433.01
475.332	479.11
475.789	465.41
476.246	468.71
476.704	496.01
477.161	503.11
477.618	525.81
478.075	568.51
478.532	621.41
478.989	699.61
479.446	818.51
479.903	779.71
480.36	819.31
480.817	870.61
481.274	966.41
481.731	1092.71
482.188	1177.81
482.645	1319.01
483.102	1426.61
483.558	1551.01
484.015	1596.61
484.472	1590.01
484.929	1540.41
485.385	1484.21
485.842	1449.61
486.299	1383.31
486.755	1310.61
487.212	1102.91
487.668	935.41
488.125	858.61
488.582	796.11
489.038	757.01
489.494	719.71
489.951	688.21
490.407	683.81
490.864	649.21
491.32	645.41
491.776	642.11
492.233	640.81
492.689	615.31
493.145	608.71
493.602	603.31
494.058	616.01
494.514	627.41
494.97	640.81
495.426	651.61
495.882	628.71
496.338	617.61
496.794	634.21
497.251	620.91
497.707	624.81
498.163	642.81
498.618	648.71
499.074	657.81
499.53	679.01
499.986	679.81
500.442	657.71
500.898	636.21
501.354	635.21
501.809	642.11
502.265	644.41
502.721	657.31
503.177	674.71
503.632	669.71
504.088	684.71
504.543	714.51
504.999	708.41
505.455	659.11
505.91	632.61
506.366	638.21
506.821	626.01
507.277	627.81
507.732	626.81
508.187	618.81
508.643	633.71
509.098	638.11
509.553	667.21
510.009	660.71
510.464	675.61
510.919	686.61
511.375	697.61
511.83	712.21
512.285	732.21
512.74	752.01
513.195	788.01
513.65	772.31
514.105	763.61
514.56	778.11
515.015	798.51
515.47	808.51
515.925	788.91
516.38	795.71
516.835	797.11
517.29	776.51
517.745	777.41
518.2	766.11
518.655	746.71
519.109	731.11
519.564	731.01
520.019	731.01
520.474	730.11
520.928	728.51
521.383	718.21
521.838	702.01
522.292	710.11
522.747	711.41
523.201	695.21
523.656	693.71
524.11	695.31
524.565	692.31
525.019	686.41
525.474	704.21
525.928	706.31
526.382	694.21
526.837	698.51
527.291	699.31
527.745	698.91
528.2	701.61
528.654	689.31
529.108	693.51
529.562	689.71
530.016	685.31
530.47	684.31
530.925	694.71
531.379	691.91
531.833	704.71
532.287	697.01
532.741	696.01
533.195	709.21
533.649	719.51
534.103	720.31
534.556	715.61
535.01	722.61
535.464	711.11
535.918	728.31
536.372	719.61
536.826	723.01
537.279	710.21
537.733	714.31
538.187	711.61
538.64	716.41
539.094	729.41
539.548	734.21
540.001	719.51
540.455	721.01
540.908	732.51
541.362	732.51
541.815	744.71
542.269	754.71
542.722	750.81
543.175	769.21
543.629	771.01
544.082	791.51
544.536	779.01
544.989	773.71
545.442	782.11
545.895	778.01
546.349	795.31
546.802	788.21
547.255	789.01
547.708	782.71
548.161	797.81
548.614	817.61
549.067	827.41
549.52	815.31
549.973	809.11
550.426	802.31
550.879	775.81
551.332	795.71
551.785	806.21
552.238	803.71
552.691	795.51
553.144	820.81
553.596	836.61
554.049	856.21
554.502	891.91
554.955	913.01
555.407	900.71
555.86	897.51
556.313	889.21
556.765	874.21
557.218	876.21
557.67	872.21
558.123	869.51
558.576	866.71
559.028	860.21
559.48	874.71
559.933	866.61
560.385	831.91
560.838	800.01
561.29	776.11
561.742	776.51
562.195	758.41
562.647	769.51
563.099	774.31
563.551	760.41
564.004	777.01
564.456	759.91
564.908	762.61
565.36	745.81
565.812	726.61
566.264	716.51
566.716	708.81
567.168	704.31
567.62	716.51
568.072	690.21
568.524	691.61
568.976	677.61
569.428	666.71
569.88	663.51
570.332	669.61
570.784	675.01
571.235	678.61
571.687	678.71
572.139	687.41
572.59	712.51
573.042	697.21
573.494	706.61
573.945	691.51
574.397	669.41
574.849	679.51
575.3	677.21
575.752	677.81
576.203	674.91
576.655	673.81
577.106	656.61
577.557	655.61
578.009	649.91
578.46	650.61
578.912	645.11
579.363	645.91
579.814	659.61
580.265	654.51
580.717	658.51
581.168	663.91
581.619	666.81
582.07	668.11
582.521	664.41
582.972	654.81
583.423	669.81
583.875	667.41
584.326	698.81
584.777	730.11
585.227	801.01
585.678	889.81
586.129	965.11
586.58	1043.51
587.031	1137.61
587.482	1293.71
587.933	1457.61
588.384	1265.41
588.834	939.51
589.285	792.01
589.736	767.61
590.186	759.71
590.637	752.21
591.088	729.41
591.538	729.01
591.989	718.41
592.439	709.41
592.89	700.11
593.34	694.61
593.791	695.21
594.241	690.81
594.692	689.31
595.142	684.01
595.593	684.61
596.043	693.61
596.493	699.81
596.943	691.41
597.394	703.51
597.844	691.71
598.294	710.71
598.744	726.21
599.195	754.71
599.645	795.71
600.095	836.51
600.545	901.21
600.995	938.91
601.445	1002.11
601.895	1060.21
602.345	1084.91
602.795	1078.91
603.245	1033.41
603.695	988.61
604.145	932.71
604.594	891.61
605.044	837.11
605.494	783.71
605.944	733.31
606.393	719.41
606.843	695.61
607.293	715.21
607.743	715.11
608.192	715.21
608.642	736.01
609.091	730.71
609.541	763.21
609.99	751.51
610.44	733.91
610.889	697.61
611.339	674.01
611.788	654.11
612.238	682.91
612.687	696.41
613.136	701.71
613.586	719.21
614.035	706.91
614.484	728.71
614.933	727.61
615.383	723.41
615.832	708.41
616.281	697.61
616.73	661.11
617.179	639.61
617.628	628.81
618.077	607.91
618.526	598.01
618.975	593.41
619.424	590.91
619.873	597.81
620.322	589.91
620.771	587.11
621.22	580.01
621.669	568.61
622.118	564.71
622.567	556.11
623.015	551.51
623.464	548.11
623.913	540.01
624.361	535.71
624.81	539.21
625.259	537.31
625.707	535.81
626.156	531.81
626.604	546.01
627.053	547.21
627.501	543.31
627.95	537.71
628.398	557.91
628.847	550.21
629.295	546.11
629.744	543.41
630.192	540.21
630.64	555.91
631.089	534.81
631.537	552.31
631.985	560.41
632.433	577.31
632.881	581.51
633.33	626.41
633.778	604.21
634.226	544.61
634.674	549.41
635.122	557.21
635.57	571.71
636.018	590.91
636.466	553.31
636.914	534.61
637.362	545.31
637.81	544.71
638.258	554.11
638.705	544.21
639.153	575.01
639.601	583.21
640.049	617.41
640.497	645.51
640.944	668.61
641.392	610.81
641.84	594.91
642.287	559.01
642.735	551.01
643.182	545.01
643.63	545.51
644.078	551.71
644.525	569.91
644.973	570.81
645.42	577.31
645.867	586.01
646.315	608.11
646.762	643.71
647.21	668.61
647.657	694.21
648.104	716.01
648.551	726.01
648.999	793.61
649.446	869.31
649.893	965.71
650.34	1100.61
650.787	1314.11
651.234	1644.41
651.682	2125.91
652.129	2922.21
652.576	4177.01
653.023	6200.21
653.47	8521.91
653.917	10703.11
654.363	12470.31
654.81	13867.21
655.257	13217.61
655.704	8633.91
656.151	5106.71
656.598	3300.81
657.044	2333.81
657.491	1776.31
657.938	1426.71
658.385	1193.01
658.831	1043.71
659.278	917.31
659.724	809.41
660.171	758.81
660.618	694.01
661.064	653.81
661.511	631.91
661.957	634.31
662.404	606.41
662.85	613.21
663.296	603.81
663.743	534.51
664.189	510.91
664.635	507.91
665.082	502.81
665.528	503.81
665.974	482.91
666.42	480.91
666.867	485.71
667.313	458.31
667.759	453.31
668.205	444.11
668.651	455.61
669.097	465.21
669.543	478.31
669.989	452.41
670.435	425.31
670.881	417.71
671.327	420.01
671.773	438.81
672.219	460.61
672.665	509.21
673.11	547.11
673.556	584.21
674.002	634.21
674.448	621.41
674.893	533.61
675.339	448.61
675.785	416.01
676.23	397.31
676.676	368.11
677.122	361.41
677.567	345.81
678.013	346.11
678.458	342.51
678.904	346.01
679.349	331.51
679.794	339.21
680.24	326.01
680.685	323.31
681.131	329.81
681.576	330.31
682.021	331.31
682.466	328.31
682.912	331.51
683.357	322.11
683.802	350.61
684.247	384.11
684.692	426.91
685.137	468.21
685.583	500.31
686.028	518.41
686.473	488.51
686.918	416.11
687.363	388.51
687.807	373.01
688.252	345.21
688.697	330.51
689.142	314.31
689.587	316.31
690.032	305.01
690.477	315.31
690.921	332.71
691.366	358.41
691.811	378.31
692.255	405.01
692.7	431.41
693.145	468.41
693.589	630.11
694.034	1037.21
694.478	1427.71
694.923	1648.51
695.367	2152.91
695.812	1134.71
696.256	466.71
696.701	351.71
697.145	321.81
697.59	313.31
698.034	307.21
698.478	308.71
698.922	310.71
699.367	305.11
699.811	322.51
700.255	334.81
700.699	359.81
701.143	392.71
701.588	445.81
702.032	481.81
702.476	478.51
702.92	462.11
703.364	454.81
703.808	584.31
704.252	950.51
704.696	1343.71
705.14	1560.51
705.584	2014.01
706.027	1008.11
706.471	486.61
706.915	370.21
707.359	327.71
707.803	307.61
708.246	291.51
708.69	291.21
709.134	290.51
709.577	291.51
710.021	295.81
710.465	284.51
710.908	283.51
711.352	278.51
711.795	295.71
712.239	326.51
712.682	361.01
713.126	391.01
713.569	435.41
714.012	346.81
714.456	310.51
714.899	282.81
715.342	249.21
715.786	237.81
716.229	241.41
716.672	239.71
717.115	228.91
717.558	240.01
718.002	232.61
718.445	244.51
718.888	266.71
719.331	283.31
719.774	293.21
720.217	281.01
720.66	261.71
721.103	241.81
721.546	239.11
721.989	236.51
722.432	214.61
722.874	217.31
723.317	212.61
723.76	221.01
724.203	235.61
724.645	286.51
725.088	413.61
725.531	528.21
725.974	604.71
726.416	513.61
726.859	279.31
727.301	233.01
727.744	222.01
728.187	221.31
728.629	223.31
729.071	222.71
729.514	237.51
729.956	254.41
730.399	265.21
730.841	270.31
731.283	259.91
731.726	251.21
732.168	231.71
732.61	247.51
733.053	265.21
733.495	295.51
733.937	319.01
734.379	371.31
734.821	398.51
735.263	497.41
735.705	758.61
736.148	1438.61
736.59	2389.31
737.032	2881.91
737.474	2339.51
737.916	752.91
738.357	404.21
738.799	305.31
739.241	274.01
739.683	267.51
740.125	278.41
740.567	273.11
741.008	293.71
741.45	297.01
741.892	293.41
742.334	324.11
742.775	336.61
743.217	326.11
743.658	249.91
744.1	240.21
744.542	240.51
744.983	289.51
745.425	324.21
745.866	326.41
746.307	266.31
746.749	257.31
747.19	301.01
747.632	419.01
748.073	790.41
748.514	1696.01
748.956	2648.01
749.397	3303.91
749.838	2746.21
750.279	2792.91
750.72	1399.31
751.162	510.31
751.603	300.71
752.044	235.91
752.485	206.81
752.926	198.11
753.367	187.21
753.808	188.01
754.249	183.41
754.69	177.91
755.131	174.81
755.572	169.91
756.013	167.61
756.453	172.11
756.894	180.31
757.335	181.01
757.776	186.21
758.216	179.61
758.657	181.11
759.098	180.91
759.538	210.81
759.979	247.61
760.42	343.81
760.86	635.51
761.301	1628.31
761.741	4032.91
762.182	6083.71
762.622	4298.81
763.063	1225.01
763.503	500.31
763.943	324.41
764.384	308.91
764.824	376.01
765.264	404.51
765.705	282.51
766.145	197.11
766.585	175.11
767.025	166.71
767.465	167.81
767.906	221.71
768.346	300.71
768.786	312.91
769.226	240.91
769.666	292.41
770.106	558.71
770.546	1394.51
770.986	2474.21
771.426	2236.51
771.866	741.91
772.306	301.21
772.745	192.01
773.185	168.71
773.625	158.21
774.065	148.61
774.505	182.01
774.944	279.61
775.384	619.61
775.824	1140.91
776.263	1141.01
776.703	477.21
777.142	206.31
777.582	150.51
778.021	129.51
778.461	128.71
778.9	135.71
779.34	125.91
779.779	105.31
780.219	108.91
780.658	98.51
781.097	107.81
781.537	101.11
781.976	101.61
782.415	102.51
782.855	94.51
783.294	96.71
783.733	102.51
784.172	102.71
784.611	97.61
785.05	103.31
785.489	107.21
785.928	112.61
786.367	117.71
786.806	110.41
787.245	116.71
787.684	125.91
788.123	140.61
788.562	129.11
789.001	117.91
789.44	114.91
789.879	111.11
790.317	109.91
790.756	118.81
791.195	116.31
791.634	135.01
792.072	186.71
792.511	327.51
792.95	904.31
793.388	1987.81
793.827	1834.81
794.265	626.71
794.704	265.91
795.142	167.71
795.581	141.21
796.019	120.31
796.458	117.11
796.896	112.81
797.334	122.01
797.773	140.41
798.211	194.01
798.649	396.21
799.087	929.51
799.526	1470.01
799.964	1852.11
800.402	1895.11
800.84	702.41
801.278	281.11
801.716	171.81
802.154	141.51
802.592	140.21
803.03	133.31
803.468	125.01
803.906	128.31
804.344	133.31
804.782	132.71
805.22	123.01
805.658	123.81
806.096	141.41
806.533	142.01
806.971	166.01
807.409	202.61
807.847	286.01
808.284	593.51
808.722	1696.41
809.16	3064.91
809.597	2851.41
810.035	4981.31
810.472	5503.21
810.91	1965.71
811.347	733.81
811.785	378.01
812.222	239.91
812.66	181.61
813.097	158.31
813.535	129.31
813.972	122.11
814.409	112.01
814.846	95.91
815.284	107.21
815.721	97.21
816.158	97.91
816.595	111.41
817.032	162.81
817.47	187.91
817.907	169.01
818.344	132.01
818.781	102.81
819.218	93.71
819.655	110.71
820.092	176.71
820.529	206.11
820.966	168.71
821.403	126.01
821.839	104.11
822.276	95.21
822.713	115.91
823.15	125.41
823.587	110.11
824.023	131.91
824.46	263.31
824.897	820.01
825.333	1275.21
825.77	546.71
826.206	215.91
826.643	123.61
827.08	89.81
827.516	77.51
827.953	73.41
828.389	76.41
828.825	61.11
829.262	65.71
829.698	59.01
830.135	60.51
830.571	56.61
831.007	60.81
831.443	60.41
831.88	59.01
832.316	56.51
832.752	57.21
833.188	57.81
833.624	57.21
834.06	63.41
834.497	63.51
834.933	68.61
835.369	66.31
835.805	65.81
836.241	67.41
836.677	74.21
837.112	81.81
837.548	92.21
837.984	118.41
838.42	178.21
838.856	446.21
839.292	1381.81
839.727	2182.31
840.163	993.91
840.599	839.71
841.034	1883.81
841.47	2009.01
841.906	728.81
842.341	310.51
842.777	216.91
843.212	299.01
843.648	300.11
844.083	144.31
844.519	88.61
844.954	68.41
845.39	48.11
845.825	49.01
846.261	52.81
846.696	52.31
847.131	51.81
847.566	55.61
848.002	43.61
848.437	54.91
848.872	55.01
849.307	56.51
849.742	76.61
850.177	163.21
850.613	508.61
851.048	817.71
851.483	365.41
851.918	140.81
852.353	74.01
852.788	56.51
853.223	50.61
853.657	42.61
854.092	39.41
854.527	39.81
854.962	35.91
855.397	39.41
855.832	52.01
856.266	39.81
856.701	40.61
857.136	33.61
857.57	37.81
858.005	46.11
858.44	58.21
858.874	41.81
859.309	49.61
859.743	41.61
860.178	43.81
860.612	38.71
861.047	54.91
861.481	67.61
861.915	69.41
862.35	50.11
862.784	31.41
863.218	33.91
863.653	32.91
864.087	46.11
864.521	47.01
864.955	60.91
865.39	139.91
865.824	169.51
866.258	108.91
866.692	152.61
867.126	171.31
867.56	101.21
867.994	52.71
868.428	34.71
868.862	41.91
869.296	52.51
869.73	51.31
870.164	46.51
870.598	48.21
871.031	29.41
871.465	28.01
871.899	31.11
872.333	19.91
872.766	23.61
873.2	19.61
873.634	28.51
874.067	24.41
874.501	26.01
874.935	30.51
875.368	21.81
875.802	26.71
876.235	19.61
876.669	28.91
877.102	18.71
877.535	30.31
877.969	20.61
878.402	27.81
878.836	20.01
879.269	23.71
879.702	26.51
880.135	22.01
880.569	25.01
881.002	26.61
881.435	28.41
881.868	16.61
882.301	28.81
882.734	19.81
883.167	23.61
883.601	15.81
884.034	20.81
884.467	12.91
884.899	18.81
885.332	20.01
885.765	9.81
886.198	13.91
886.631	19.81
887.064	19.81
887.497	19.31
887.929	21.91
888.362	13.11
888.795	16.61
889.228	10.91
889.66	20.11
890.093	18.91
890.526	17.61
890.958	19.41
891.391	15.81
891.823	16.21
892.256	11.51
892.688	17.01
893.121	17.91
893.553	15.51
893.985	23.51
894.418	18.71
894.85	17.31
895.282	14.01
895.715	16.51
896.147	15.11
896.579	13.91
897.011	16.01
897.444	14.81
897.876	14.71
898.308	14.11
898.74	13.71
899.172	15.11
899.604	18.31
900.036	18.81
900.468	16.61
900.9	17.31
901.332	14.91
901.764	16.81
902.196	17.11
902.628	16.71
903.06	13.01
903.491	30.81
903.923	23.71
904.355	22.41
904.787	24.81
905.218	22.31
905.65	22.11
906.082	9.11
906.513	4.71
906.945	15.91
907.376	11.11
907.808	19.41
908.239	16.21
908.671	13.51
909.102	21.31
909.534	27.71
909.965	47.41
910.397	84.71
910.828	286.11
911.259	449.31
911.691	210.81
912.122	99.21
912.553	46.01
912.984	33.21
913.415	27.91
913.847	23.41
914.278	9.81
914.709	13.81
915.14	18.61
915.571	14.41
916.002	10.81
916.433	18.21
916.864	16.21
917.295	11.71
917.726	21.51
918.157	14.41
918.587	21.41
919.018	18.11
919.449	21.51
919.88	17.41
920.311	34.51
920.741	44.31
921.172	156.81
921.603	135.91
922.033	73.31
922.464	45.11
922.895	20.31
923.325	16.31
923.756	16.61
924.186	12.81
924.617	24.91
925.047	38.71
925.478	50.01
925.908	41.61
926.338	21.91
926.769	16.81
927.199	22.21
927.629	7.41
928.06	16.51
928.49	13.51
928.92	11.11
929.35	8.91
929.78	8.21
930.21	7.21
930.641	6.91
931.071	15.21
931.501	-1.19
931.931	8.31
932.361	8.61
932.791	6.41
933.221	8.91
933.651	7.21
934.08	16.71
934.51	30.01
934.94	11.01
935.37	8.21
935.8	10.91
936.229	6.91
936.659	12.91
937.089	-0.49
937.519	16.31
937.948	17.51
938.378	13.51
938.807	8.81
939.237	3.81
939.666	10.51
940.096	-3.19
940.525	-1.49
940.955	6.71
941.384	6.11
941.814	-8.19
942.243	-5.09
942.672	2.01
943.102	-3.79
943.531	1.21
943.96	6.91
944.39	3.51
944.819	0.51
945.248	3.01
945.677	7.21
946.106	2.91
946.535	0.01
946.964	-1.89
947.393	7.91
947.822	0.41
948.251	-3.69
948.68	1.81
949.109	5.01
949.538	8.31
949.967	1.51
950.396	2.81
950.825	-0.69
951.254	7.01
951.682	-3.79
952.111	4.01
952.54	5.61
952.969	-1.99
953.397	-9.39
953.826	-1.79
954.254	-6.19
954.683	5.51
955.112	-2.99
955.54	-1.69
955.969	1.21
956.397	2.11
956.826	-3.59
957.254	4.31
957.682	5.61
958.111	0.91
958.539	-1.49
958.967	5.01
959.396	-2.29
959.824	2.61
960.252	4.61
960.68	-2.19
961.109	-2.59
961.537	-2.69
961.965	0.81
962.393	-0.29
962.821	-0.09
963.249	3.31
963.677	6.51
964.105	8.01
964.533	40.21
964.961	42.11
965.389	22.21
965.817	4.91
966.245	0.71
966.672	-3.09
967.1	-6.39
967.528	0.91
967.956	-3.59
968.383	0.81
968.811	-3.69
969.239	-4.99
969.666	0.61
970.094	-1.89
970.522	0.01
970.949	-4.39
971.377	-3.99
971.804	-2.39
972.232	6.51
972.659	-0.39
973.087	0.21
973.514	-0.09
973.941	-3.69
974.369	-0.39
974.796	-4.19
975.223	5.71
975.651	-3.69
976.078	3.91
976.505	-3.49
976.932	0.31
977.359	11.41
977.786	14.71
978.214	5.01
978.641	-1.79
979.068	-3.09
979.495	-7.49
979.922	-3.89
980.349	-5.29
980.776	1.11
981.202	0.51
981.629	8.91
982.056	1.11
982.483	-4.79
982.91	0.11
983.337	-4.79
983.763	1.81
984.19	-13.29
984.617	-6.49
985.043	-5.39
985.47	-2.89
985.897	-3.59
986.323	-9.19
986.75	6.61
987.176	1.51
987.603	2.21
988.029	-0.29
988.456	-1.89
988.882	-2.09
989.308	-7.69
989.735	0.81
990.161	0.41
990.587	-5.49
991.014	3.01
991.44	6.71
991.866	-1.59
992.292	-8.69
992.719	-1.69
993.145	4.21
993.571	-10.19
993.997	-0.19
994.423	1.01
994.849	-0.49
995.275	1.71
995.701	4.31
996.127	-5.39
996.553	-4.19
996.979	3.11
997.405	2.11
997.83	-5.39
998.256	1.81
998.682	-3.09
999.108	-2.39
999.534	-1.99
999.959	-2.29
1000.385	-5.49
1000.811	-0.49
1001.236	-9.19
1001.662	-2.09
1002.087	-8.09
1002.513	-2.49
1002.938	5.91
1003.364	0.71
1003.789	1.11
1004.215	1.01
1004.64	-4.69
1005.066	-0.59
1005.491	-0.69
1005.916	-2.29
1006.342	-3.49
1006.767	-8.49
1007.192	3.21
1007.617	-4.59
1008.042	-3.99
1008.468	-6.39
1008.893	-1.09
1009.318	-2.89
1009.743	-3.39
1010.168	5.21
1010.593	0.51
1011.018	-7.19
1011.443	-4.59
1011.868	3.51
1012.293	-5.49
1012.718	-5.39
1013.143	-1.39
1013.567	1.51
1013.992	1.91
1014.417	-13.29
1014.842	1.21
1015.267	-5.29
1015.691	-4.99
1016.116	7.31
1016.541	-0.09
1016.965	2.51
1017.39	-3.49
1017.814	0.41
1018.239	2.81
1018.663	-2.69
1019.088	-7.29
1019.512	-2.19
1019.937	-0.29
1020.361	-0.79
1020.785	-9.49
1021.21	-5.59
1021.634	-5.69
1022.058	-0.49
1022.483	7.71
1022.907	-5.29
1023.331	-4.99
1023.755	-4.99
1024.179	1.31
1024.604	-1.09
1025.028	-6.39
1025.452	-5.09
1025.876	1.71
1026.3	0.41
1026.724	-11.69
1027.148	-8.49
1027.572	-6.09
1027.996	-3.69
1028.42	-0.59
1028.843	-2.89
1029.267	-6.79
1029.691	1.11
1030.115	-8.69
1030.539	-7.09
1030.962	-6.09
1031.386	-8.29
1031.81	2.71
1032.233	0.31
1032.657	-5.59
1033.08	-2.29
1033.504	-1.59
1033.927	-3.69
1034.351	-1.99
1034.774	-4.49
1035.198	-4.49
1035.621	-7.69
1036.045	-6.99
1036.468	1.61
1036.891	-5.99
1037.315	-10.09
1037.738	-8.09
1038.161	-0.79
1038.584	-11.79
1039.008	-1.79
1039.431	-0.59
1039.854	-4.29
1040.277	-6.99
1040.7	-9.69
1041.123	0.41
1041.546	-8.49
1041.969	-11.19
1042.392	-5.19
1042.815	-4.29
1043.238	-6.29
1043.661	2.31
1044.084	-8.59
1044.507	-6.19
1044.93	-9.29
1045.352	-3.19
1045.775	-0.09
1046.198	2.81
1046.621	-2.49
1047.043	-0.79
1047.466	6.61
1047.889	-2.29
1048.311	-8.79
1048.734	-5.49
1049.156	-5.79
1049.579	-0.89
1050.001	1.01
1050.424	-0.79
1050.846	-2.99
1051.269	1.81
1051.691	-7.59
1052.113	-4.29
1052.536	-5.69
1052.958	2.41
1053.38	-3.79
1053.802	-10.49
1054.225	-0.79
1054.647	-9.89
1055.069	-1.49
1055.491	1.41
1055.913	-9.59
1056.335	-3.19
1056.757	-3.69
1057.179	-10.79
1057.601	-8.79
1058.023	-2.49
1058.445	-2.19
1058.867	-5.09
1059.289	-4.89
1059.711	-8.29
1060.133	-2.69
1060.555	-4.19
1060.976	-5.29
1061.398	-7.09
1061.82	-10.39
1062.241	-6.69
1062.663	-8.09
1063.085	-5.79
1063.506	6.11
1063.928	-2.29
1064.35	-2.59
1064.771	-10.69
1065.193	-5.09
1065.614	-10.79
1066.035	1.51
1066.457	-6.69
1066.878	4.51
1067.3	-2.59
1067.721	-1.29
1068.142	3.21
1068.564	-3.69
1068.985	-1.69
1069.406	-9.19
1069.827	-2.89
1070.248	-4.19
1070.67	-6.39
1071.091	-4.79
1071.512	-5.89
1071.933	-2.89
1072.354	-7.89
1072.775	-5.69
1073.196	-5.89
1073.617	-0.99
1074.038	-4.39
1074.459	-1.49
1074.88	-2.79
1075.3	-4.69
1075.721	-4.09
1076.142	-0.09
1076.563	0.61
1076.983	-12.19
1077.404	-9.39
1077.825	-4.09
1078.246	-5.39
1078.666	-5.79
1079.087	-1.49
1079.507	-9.89
1079.928	-3.69
1080.348	5.31
1080.769	-8.89
1081.189	-1.49
1081.61	1.01
1082.03	-6.49
1082.451	-3.79
1082.871	-4.79
1083.291	-8.19
1083.711	-7.69
1084.132	-5.09
1084.552	-4.09
1084.972	-3.39
1085.392	-7.09
1085.813	-19.99
1086.233	-5.69
1086.653	-8.39
1087.073	-0.39
1087.493	-8.09
1087.913	-7.89
1088.333	-5.19
1088.753	-2.79
1089.173	1.11
1089.593	-4.79
1090.013	1.71
1090.433	-1.19
1090.852	2.51
1091.272	-5.39
1091.692	-0.29
1092.112	-4.19
1092.531	-4.29
1092.951	-13.19
1093.371	-3.19
1093.79	0.31
1094.21	-8.39
1094.63	-5.69
1095.049	-6.79
1095.469	-9.89
1095.888	-1.29
1096.308	3.01
1096.727	1.81
1097.146	-4.79
1097.566	0.81
1097.985	-8.99
1098.405	-1.39
1098.824	-4.69
1099.243	-4.49
1099.662	-6.29
1100.082	-1.89
1100.501	0.91
1100.92	-4.99
1101.339	-5.59
1101.758	-9.19
