Data from 20171114-ORNL-Ar_H_NY_Subt18_08-07-33-073.txt Node
Date: Tue Nov 14 08:07:33 EST 2017
User: Ender
Spectrometer: HR+D1039
Trigger mode: 0
Integration Time (sec): 2.730000E-2
Scans to average: 10
Electric dark correction enabled: true
Nonlinearity correction enabled: false
Boxcar width: 0
XAxis mode: Wavelengths
Number of Pixels in Spectrum: 2048
>>>>>Begin Spectral Data<<<<<
187.836	-5.83
188.309	-5.83
188.782	-5.83
189.255	-1.03
189.728	2.87
190.201	5.67
190.674	1.17
191.147	2.47
191.619	-6.33
192.092	0.27
192.565	3.77
193.038	-2.03
193.511	4.17
193.984	0.57
194.456	-1.23
194.929	-1.63
195.402	-3.43
195.874	0.57
196.347	-0.13
196.82	-2.33
197.292	5.37
197.765	-5.83
198.237	-3.23
198.71	1.27
199.182	0.87
199.655	4.67
200.127	5.67
200.6	-1.73
201.072	-0.43
201.544	-2.03
202.017	-0.73
202.489	6.77
202.961	1.27
203.433	0.27
203.906	0.07
204.378	-5.33
204.85	-3.33
205.322	-9.43
205.794	0.57
206.266	-1.43
206.739	-6.93
207.211	1.07
207.683	-4.23
208.155	-1.23
208.627	-5.33
209.099	-1.53
209.57	-8.43
210.042	1.97
210.514	-8.53
210.986	-0.63
211.458	-8.23
211.93	-2.83
212.402	-1.73
212.873	-1.13
213.345	-9.43
213.817	-7.03
214.288	-2.93
214.76	-5.93
215.232	-4.73
215.703	0.47
216.175	-5.03
216.646	-5.73
217.118	-1.03
217.589	-4.83
218.061	1.37
218.532	-0.93
219.004	-0.63
219.475	-2.53
219.946	-0.83
220.418	-4.43
220.889	5.27
221.36	-1.33
221.832	-9.83
222.303	-7.33
222.774	-0.13
223.245	-7.03
223.717	-5.93
224.188	0.57
224.659	-3.33
225.13	-2.63
225.601	3.47
226.072	1.67
226.543	-4.13
227.014	0.07
227.485	-2.03
227.956	-0.23
228.427	2.17
228.898	1.07
229.369	1.07
229.839	0.07
230.31	-4.23
230.781	1.77
231.252	-3.93
231.722	1.27
232.193	-8.13
232.664	3.57
233.135	0.17
233.605	-0.83
234.076	-1.83
234.546	2.97
235.017	7.27
235.487	1.97
235.958	0.87
236.428	-3.83
236.899	3.37
237.369	-1.63
237.84	-0.13
238.31	1.97
238.78	2.97
239.251	0.27
239.721	3.57
240.191	-0.63
240.662	-1.23
241.132	-2.43
241.602	-0.93
242.072	-1.03
242.542	6.37
243.013	0.07
243.483	3.27
243.953	6.27
244.423	-4.13
244.893	-0.93
245.363	4.67
245.833	2.47
246.303	-5.93
246.773	5.07
247.243	3.17
247.712	8.17
248.182	11.17
248.652	8.37
249.122	-0.13
249.592	9.27
250.061	16.27
250.531	28.47
251.001	15.67
251.471	20.77
251.94	15.77
252.41	4.27
252.879	-4.13
253.349	14.37
253.818	14.67
254.288	3.87
254.757	1.07
255.227	1.27
255.696	-1.53
256.166	8.87
256.635	8.17
257.105	9.07
257.574	4.67
258.043	6.87
258.513	5.17
258.982	14.17
259.451	6.67
259.92	11.77
260.389	11.37
260.859	13.37
261.328	5.87
261.797	13.17
262.266	5.27
262.735	9.47
263.204	-0.93
263.673	2.17
264.142	5.67
264.611	-1.03
265.08	-2.03
265.549	-0.23
266.018	2.97
266.487	-2.23
266.955	-2.83
267.424	-2.03
267.893	6.47
268.362	3.87
268.83	-1.73
269.299	11.07
269.768	5.77
270.236	4.47
270.705	-1.53
271.174	3.07
271.642	5.87
272.111	8.07
272.579	15.97
273.048	19.17
273.516	22.57
273.985	21.97
274.453	20.67
274.922	17.47
275.39	10.17
275.858	0.67
276.327	6.17
276.795	22.57
277.263	10.07
277.731	22.67
278.2	49.07
278.668	46.47
279.136	44.77
279.604	11.67
280.072	10.57
280.54	11.47
281.008	6.27
281.477	9.67
281.945	6.37
282.413	9.97
282.881	11.47
283.348	5.57
283.816	13.67
284.284	12.97
284.752	15.27
285.22	11.37
285.688	11.47
286.156	14.17
286.623	35.07
287.091	44.67
287.559	22.27
288.026	12.97
288.494	9.07
288.962	2.17
289.429	2.97
289.897	19.77
290.364	9.97
290.832	17.17
291.3	11.67
291.767	16.97
292.234	10.77
292.702	9.47
293.169	6.37
293.637	13.37
294.104	14.17
294.571	3.57
295.039	13.97
295.506	10.37
295.973	14.27
296.44	14.37
296.908	18.27
297.375	11.77
297.842	13.27
298.309	18.47
298.776	13.97
299.243	16.87
299.71	10.07
300.177	17.37
300.644	17.67
301.111	19.27
301.578	17.87
302.045	4.87
302.512	14.07
302.979	24.77
303.446	20.47
303.913	16.37
304.379	12.67
304.846	22.37
305.313	18.37
305.78	19.67
306.246	18.07
306.713	25.97
307.18	23.37
307.646	22.07
308.113	21.77
308.579	17.87
309.046	19.07
309.512	26.47
309.979	12.07
310.445	21.27
310.912	20.67
311.378	28.07
311.845	28.47
312.311	27.77
312.777	27.07
313.244	28.27
313.71	35.47
314.176	29.47
314.642	22.57
315.109	20.87
315.575	32.37
316.041	33.17
316.507	32.17
316.973	24.87
317.439	27.77
317.905	29.87
318.371	24.27
318.837	27.87
319.303	31.87
319.769	29.37
320.235	30.27
320.701	33.27
321.167	31.07
321.633	30.97
322.099	35.07
322.564	40.67
323.03	34.97
323.496	29.27
323.962	26.17
324.427	27.07
324.893	37.77
325.359	27.77
325.824	30.57
326.29	27.27
326.755	34.77
327.221	35.87
327.686	36.87
328.152	37.87
328.617	37.87
329.083	36.97
329.548	44.17
330.014	37.97
330.479	32.17
330.944	34.67
331.41	40.77
331.875	34.57
332.34	33.37
332.805	42.87
333.271	40.47
333.736	36.47
334.201	49.47
334.666	44.87
335.131	51.57
335.596	45.17
336.061	47.17
336.526	37.97
336.991	39.87
337.456	48.67
337.921	49.77
338.386	38.77
338.851	36.37
339.316	43.57
339.781	47.27
340.246	46.57
340.711	44.57
341.175	42.67
341.64	38.67
342.105	42.77
342.569	47.77
343.034	50.77
343.499	48.97
343.963	45.07
344.428	57.47
344.893	55.77
345.357	55.77
345.822	45.27
346.286	60.27
346.751	63.87
347.215	55.57
347.679	55.67
348.144	74.17
348.608	60.97
349.073	60.57
349.537	65.07
350.001	61.87
350.465	79.67
350.93	70.77
351.394	69.57
351.858	65.47
352.322	73.17
352.786	73.27
353.25	83.27
353.715	92.07
354.179	84.57
354.643	96.07
355.107	101.67
355.571	87.47
356.035	86.57
356.498	103.87
356.962	98.97
357.426	114.67
357.89	99.57
358.354	80.77
358.818	76.27
359.281	71.37
359.745	59.67
360.209	64.07
360.673	65.37
361.136	70.77
361.6	78.37
362.064	72.37
362.527	70.27
362.991	75.67
363.454	68.27
363.918	61.87
364.381	69.37
364.845	70.17
365.308	71.17
365.772	72.87
366.235	74.17
366.698	72.57
367.162	78.77
367.625	74.27
368.088	81.17
368.552	75.47
369.015	76.77
369.478	82.07
369.941	88.57
370.404	83.67
370.867	95.97
371.331	93.37
371.794	99.37
372.257	98.27
372.72	100.57
373.183	99.27
373.646	93.57
374.109	91.37
374.572	96.87
375.035	102.07
375.497	93.57
375.96	95.97
376.423	91.57
376.886	96.87
377.349	102.17
377.811	90.17
378.274	92.77
378.737	98.67
379.199	98.37
379.662	95.97
380.125	105.17
380.587	105.27
381.05	109.77
381.512	121.47
381.975	121.97
382.437	119.77
382.9	118.37
383.362	120.07
383.825	132.47
384.287	132.27
384.75	129.37
385.212	125.37
385.674	124.57
386.136	123.37
386.599	119.77
387.061	119.47
387.523	127.37
387.985	124.97
388.447	136.47
388.91	130.37
389.372	151.97
389.834	140.77
390.296	130.47
390.758	144.07
391.22	152.37
391.682	194.67
392.144	273.67
392.606	216.77
393.068	150.27
393.529	153.17
393.991	139.67
394.453	138.87
394.915	147.57
395.377	172.07
395.838	199.27
396.3	142.37
396.762	130.07
397.224	123.57
397.685	120.17
398.147	122.07
398.608	118.17
399.07	116.87
399.531	120.87
399.993	135.17
400.454	134.37
400.916	138.47
401.377	133.27
401.839	137.57
402.3	138.77
402.762	152.47
403.223	164.67
403.684	159.27
404.145	148.17
404.607	155.47
405.068	156.17
405.529	151.67
405.99	172.37
406.451	164.37
406.913	162.17
407.374	147.47
407.835	152.87
408.296	156.77
408.757	156.87
409.218	179.47
409.679	161.97
410.14	161.57
410.601	163.37
411.062	172.37
411.522	186.97
411.983	174.17
412.444	160.77
412.905	168.77
413.366	167.37
413.826	178.57
414.287	205.47
414.748	240.07
415.208	233.97
415.669	201.17
416.13	193.07
416.59	188.47
417.051	201.37
417.511	202.47
417.972	220.37
418.432	234.87
418.893	263.17
419.353	241.07
419.814	187.87
420.274	171.97
420.734	167.07
421.195	187.57
421.655	190.77
422.115	185.47
422.576	178.87
423.036	188.07
423.496	198.37
423.956	203.77
424.416	214.57
424.876	249.57
425.336	248.07
425.797	246.67
426.257	237.37
426.717	224.17
427.177	226.97
427.637	212.97
428.097	221.77
428.556	229.27
429.016	256.47
429.476	248.37
429.936	256.97
430.396	262.07
430.856	270.37
431.315	298.87
431.775	334.77
432.235	351.47
432.694	329.07
433.154	340.37
433.614	363.97
434.073	316.67
434.533	269.17
434.993	257.67
435.452	262.27
435.912	276.57
436.371	272.27
436.83	270.07
437.29	256.17
437.749	232.87
438.209	231.57
438.668	252.47
439.127	269.37
439.587	252.27
440.046	237.07
440.505	243.47
440.964	261.47
441.424	299.47
441.883	291.07
442.342	249.17
442.801	214.07
443.26	213.77
443.719	212.07
444.178	210.07
444.637	200.07
445.096	211.87
445.555	210.37
446.014	212.57
446.473	221.97
446.932	217.47
447.391	215.37
447.849	220.47
448.308	209.17
448.767	211.07
449.226	225.27
449.685	223.47
450.143	235.57
450.602	236.67
451.061	223.77
451.519	222.37
451.978	218.87
452.436	220.27
452.895	230.67
453.353	238.17
453.812	229.77
454.27	227.37
454.729	230.77
455.187	235.97
455.646	235.07
456.104	232.17
456.562	255.17
457.021	252.47
457.479	242.87
457.937	260.77
458.395	249.97
458.854	234.97
459.312	247.87
459.77	256.67
460.228	243.77
460.686	234.27
461.144	241.07
461.602	234.47
462.06	235.07
462.518	244.77
462.976	247.77
463.434	254.87
463.892	246.67
464.35	262.07
464.808	278.47
465.266	254.77
465.724	259.77
466.181	258.97
466.639	262.67
467.097	272.27
467.555	290.37
468.012	289.87
468.47	296.07
468.928	320.37
469.385	328.67
469.843	335.77
470.3	331.97
470.758	346.77
471.215	370.87
471.673	388.27
472.13	382.77
472.588	394.67
473.045	358.27
473.503	365.07
473.96	380.97
474.417	392.37
474.875	421.17
475.332	460.97
475.789	444.37
476.246	452.17
476.704	470.27
477.161	484.97
477.618	497.77
478.075	542.17
478.532	579.17
478.989	654.07
479.446	765.37
479.903	741.37
480.36	775.07
480.817	839.37
481.274	934.57
481.731	1031.17
482.188	1118.17
482.645	1251.37
483.102	1340.77
483.558	1487.57
484.015	1529.67
484.472	1516.67
484.929	1454.47
485.385	1405.57
485.842	1368.17
486.299	1305.17
486.755	1247.67
487.212	1056.27
487.668	893.77
488.125	827.17
488.582	754.27
489.038	726.27
489.494	678.57
489.951	660.37
490.407	649.77
490.864	626.67
491.32	617.27
491.776	614.57
492.233	626.97
492.689	604.47
493.145	587.67
493.602	582.97
494.058	594.37
494.514	587.87
494.97	618.47
495.426	627.57
495.882	600.57
496.338	591.47
496.794	610.07
497.251	599.67
497.707	620.07
498.163	615.67
498.618	616.27
499.074	622.57
499.53	654.97
499.986	656.27
500.442	630.67
500.898	608.87
501.354	605.47
501.809	618.57
502.265	619.97
502.721	643.27
503.177	653.17
503.632	650.57
504.088	666.77
504.543	702.07
504.999	683.37
505.455	635.07
505.91	611.27
506.366	610.97
506.821	614.17
507.277	605.27
507.732	602.37
508.187	617.97
508.643	613.97
509.098	616.17
509.553	630.87
510.009	652.87
510.464	649.87
510.919	673.17
511.375	679.07
511.83	685.27
512.285	699.07
512.74	734.57
513.195	764.67
513.65	747.07
514.105	747.47
514.56	747.27
515.015	776.97
515.47	780.77
515.925	778.67
516.38	763.77
516.835	775.17
517.29	768.67
517.745	756.47
518.2	743.17
518.655	724.37
519.109	732.27
519.564	724.47
520.019	713.17
520.474	706.47
520.928	698.77
521.383	704.37
521.838	710.17
522.292	703.57
522.747	692.27
523.201	688.37
523.656	676.97
524.11	684.17
524.565	680.07
525.019	671.87
525.474	685.47
525.928	685.97
526.382	671.27
526.837	685.27
527.291	686.07
527.745	674.27
528.2	674.57
528.654	677.67
529.108	674.77
529.562	674.57
530.016	679.07
530.47	679.47
530.925	685.57
531.379	677.77
531.833	689.87
532.287	691.77
532.741	689.27
533.195	693.97
533.649	688.97
534.103	699.67
534.556	691.97
535.01	699.47
535.464	694.17
535.918	711.87
536.372	702.07
536.826	709.57
537.279	690.97
537.733	705.97
538.187	708.27
538.64	701.07
539.094	710.87
539.548	717.17
540.001	707.27
540.455	705.97
540.908	712.27
541.362	722.07
541.815	734.47
542.269	748.87
542.722	752.17
543.175	754.17
543.629	756.07
544.082	771.17
544.536	780.27
544.989	767.47
545.442	780.67
545.895	772.77
546.349	777.17
546.802	777.27
547.255	780.27
547.708	806.47
548.161	793.77
548.614	812.17
549.067	815.47
549.52	801.47
549.973	791.77
550.426	794.27
550.879	786.97
551.332	798.47
551.785	800.27
552.238	789.37
552.691	807.47
553.144	819.37
553.596	832.57
554.049	842.97
554.502	877.17
554.955	899.37
555.407	900.27
555.86	889.97
556.313	879.17
556.765	866.37
557.218	864.57
557.67	867.37
558.123	862.77
558.576	863.47
559.028	863.27
559.48	868.07
559.933	863.27
560.385	822.07
560.838	796.97
561.29	780.57
561.742	780.57
562.195	766.47
562.647	759.77
563.099	770.17
563.551	765.97
564.004	767.07
564.456	767.97
564.908	746.37
565.36	734.77
565.812	728.77
566.264	717.67
566.716	717.47
567.168	709.17
567.62	716.27
568.072	698.67
568.524	687.67
568.976	682.07
569.428	676.87
569.88	666.57
570.332	675.47
570.784	674.47
571.235	675.27
571.687	686.07
572.139	695.37
572.59	703.27
573.042	707.17
573.494	702.57
573.945	700.57
574.397	684.77
574.849	679.37
575.3	686.17
575.752	678.87
576.203	662.67
576.655	673.17
577.106	664.77
577.557	663.77
578.009	670.47
578.46	658.17
578.912	654.77
579.363	659.47
579.814	655.97
580.265	656.07
580.717	668.87
581.168	671.37
581.619	670.17
582.07	672.17
582.521	663.47
582.972	659.67
583.423	675.57
583.875	673.77
584.326	692.27
584.777	736.57
585.227	819.47
585.678	911.87
586.129	989.07
586.58	1052.67
587.031	1145.37
587.482	1284.77
587.933	1467.87
588.384	1277.77
588.834	955.37
589.285	799.57
589.736	774.77
590.186	770.67
590.637	757.47
591.088	737.67
591.538	739.57
591.989	734.37
592.439	724.27
592.89	709.07
593.34	712.27
593.791	698.27
594.241	698.37
594.692	706.27
595.142	693.67
595.593	693.47
596.043	702.87
596.493	710.67
596.943	718.37
597.394	723.27
597.844	704.67
598.294	733.87
598.744	750.27
599.195	773.47
599.645	804.57
600.095	844.97
600.545	921.57
600.995	959.37
601.445	1014.77
601.895	1086.17
602.345	1135.37
602.795	1101.17
603.245	1053.77
603.695	999.47
604.145	947.77
604.594	898.77
605.044	846.97
605.494	799.77
605.944	751.87
606.393	738.07
606.843	728.37
607.293	722.27
607.743	728.67
608.192	745.47
608.642	761.77
609.091	763.17
609.541	766.27
609.99	764.57
610.44	762.47
610.889	727.97
611.339	696.67
611.788	680.87
612.238	706.77
612.687	724.57
613.136	712.17
613.586	727.07
614.035	733.07
614.484	750.07
614.933	745.27
615.383	751.57
615.832	737.97
616.281	729.77
616.73	688.57
617.179	654.97
617.628	644.27
618.077	626.17
618.526	626.47
618.975	619.87
619.424	623.87
619.873	605.77
620.322	613.27
620.771	609.67
621.22	597.97
621.669	589.57
622.118	587.87
622.567	582.27
623.015	565.77
623.464	578.27
623.913	558.27
624.361	556.07
624.81	549.47
625.259	552.37
625.707	543.87
626.156	554.27
626.604	564.07
627.053	559.47
627.501	567.27
627.95	564.67
628.398	588.17
628.847	566.97
629.295	572.97
629.744	571.97
630.192	561.37
630.64	576.77
631.089	559.37
631.537	580.77
631.985	592.67
632.433	591.77
632.881	611.87
633.33	661.87
633.778	639.27
634.226	579.57
634.674	569.37
635.122	585.27
635.57	594.07
636.018	629.67
636.466	572.27
636.914	559.57
637.362	582.57
637.81	581.17
638.258	574.87
638.705	570.87
639.153	608.37
639.601	609.27
640.049	637.87
640.497	668.77
640.944	694.97
641.392	645.57
641.84	614.07
642.287	584.17
642.735	569.57
643.182	563.77
643.63	578.47
644.078	580.77
644.525	597.97
644.973	592.67
645.42	608.37
645.867	621.07
646.315	637.37
646.762	662.87
647.21	695.97
647.657	709.17
648.104	751.67
648.551	771.47
648.999	837.67
649.446	926.27
649.893	1000.47
650.34	1156.97
650.787	1394.47
651.234	1732.97
651.682	2258.67
652.129	3101.37
652.576	4481.67
653.023	6599.57
653.47	9013.67
653.917	11182.37
654.363	12871.87
654.81	14192.17
655.257	13506.87
655.704	8854.37
656.151	5243.17
656.598	3389.57
657.044	2400.17
657.491	1851.17
657.938	1493.37
658.385	1249.77
658.831	1070.67
659.278	958.57
659.724	852.47
660.171	781.37
660.618	715.07
661.064	688.27
661.511	661.17
661.957	646.37
662.404	644.97
662.85	642.97
663.296	617.07
663.743	563.37
664.189	546.07
664.635	537.47
665.082	531.67
665.528	527.27
665.974	516.37
666.42	508.47
666.867	502.87
667.313	486.97
667.759	479.27
668.205	476.07
668.651	484.57
669.097	486.37
669.543	490.57
669.989	473.37
670.435	446.37
670.881	440.07
671.327	447.17
671.773	471.57
672.219	491.27
672.665	540.17
673.11	576.87
673.556	626.77
674.002	666.37
674.448	646.67
674.893	553.37
675.339	475.47
675.785	442.27
676.23	418.37
676.676	391.77
677.122	385.77
677.567	371.37
678.013	364.87
678.458	358.17
678.904	367.77
679.349	344.07
679.794	355.37
680.24	350.47
680.685	353.77
681.131	349.97
681.576	353.57
682.021	348.47
682.466	346.17
682.912	344.07
683.357	354.17
683.802	383.27
684.247	410.07
684.692	454.27
685.137	491.47
685.583	532.57
686.028	561.27
686.473	509.67
686.918	443.07
687.363	422.87
687.807	387.87
688.252	368.97
688.697	362.77
689.142	337.87
689.587	328.97
690.032	329.07
690.477	341.97
690.921	360.27
691.366	387.67
691.811	402.27
692.255	427.27
692.7	453.67
693.145	506.37
693.589	709.17
694.034	1122.17
694.478	1540.87
694.923	1723.27
695.367	2253.67
695.812	1191.07
696.256	491.07
696.701	373.57
697.145	341.67
697.59	332.77
698.034	314.37
698.478	338.97
698.922	322.57
699.367	323.47
699.811	334.17
700.255	352.57
700.699	389.27
701.143	429.97
701.588	481.17
702.032	511.47
702.476	511.57
702.92	493.67
703.364	490.37
703.808	643.77
704.252	1047.37
704.696	1454.37
705.14	1654.07
705.584	2102.37
706.027	1054.87
706.471	520.97
706.915	396.37
707.359	353.07
707.803	319.07
708.246	309.57
708.69	310.27
709.134	315.37
709.577	312.77
710.021	315.57
710.465	305.07
710.908	302.97
711.352	298.27
711.795	320.77
712.239	350.67
712.682	383.07
713.126	417.57
713.569	466.37
714.012	369.17
714.456	323.97
714.899	306.17
715.342	274.17
715.786	265.07
716.229	255.17
716.672	248.17
717.115	249.27
717.558	247.57
718.002	255.57
718.445	268.67
718.888	275.67
719.331	296.17
719.774	303.77
720.217	307.47
720.66	285.67
721.103	266.17
721.546	256.27
721.989	249.97
722.432	233.17
722.874	243.37
723.317	231.27
723.76	241.37
724.203	266.07
724.645	323.47
725.088	441.67
725.531	569.87
725.974	634.67
726.416	542.27
726.859	308.27
727.301	245.07
727.744	239.87
728.187	243.67
728.629	245.47
729.071	242.07
729.514	265.27
729.956	268.27
730.399	291.47
730.841	288.77
731.283	264.17
731.726	262.57
732.168	259.57
732.61	265.17
733.053	294.27
733.495	314.47
733.937	354.17
734.379	397.67
734.821	440.57
735.263	544.47
735.705	853.47
736.148	1612.77
736.59	2579.47
737.032	3031.37
737.474	2446.47
737.916	813.77
738.357	424.87
738.799	332.87
739.241	298.27
739.683	287.77
740.125	295.97
740.567	300.57
741.008	318.07
741.45	313.17
741.892	316.47
742.334	340.37
742.775	362.47
743.217	338.27
743.658	274.17
744.1	254.07
744.542	262.77
744.983	310.97
745.425	347.47
745.866	342.57
746.307	286.47
746.749	280.47
747.19	334.07
747.632	458.27
748.073	910.57
748.514	1900.97
748.956	2833.67
749.397	3557.77
749.838	2970.77
750.279	2925.77
750.72	1485.77
751.162	549.67
751.603	312.07
752.044	255.27
752.485	231.17
752.926	219.27
753.367	203.87
753.808	199.67
754.249	197.27
754.69	194.67
755.131	190.87
755.572	182.07
756.013	185.17
756.453	181.67
756.894	190.27
757.335	198.17
757.776	194.07
758.216	197.87
758.657	203.67
759.098	205.97
759.538	232.27
759.979	272.27
760.42	382.47
760.86	724.37
761.301	1868.37
761.741	4468.07
762.182	6344.07
762.622	4450.67
763.063	1303.57
763.503	545.37
763.943	352.77
764.384	343.77
764.824	404.47
765.264	427.47
765.705	303.97
766.145	207.17
766.585	189.37
767.025	177.47
767.465	181.27
767.906	245.37
768.346	307.57
768.786	331.07
769.226	266.87
769.666	326.97
770.106	638.27
770.546	1583.77
770.986	2633.47
771.426	2315.57
771.866	785.57
772.306	325.97
772.745	211.07
773.185	177.17
773.625	166.17
774.065	168.97
774.505	192.97
774.944	312.97
775.384	670.27
775.824	1193.17
776.263	1162.27
776.703	487.27
777.142	217.57
777.582	150.87
778.021	142.07
778.461	137.37
778.9	147.17
779.34	130.67
779.779	117.27
780.219	117.07
780.658	114.97
781.097	106.17
781.537	113.47
781.976	113.07
782.415	111.17
782.855	115.57
783.294	112.77
783.733	105.47
784.172	119.17
784.611	106.37
785.05	110.77
785.489	111.37
785.928	121.87
786.367	118.97
786.806	122.27
787.245	132.17
787.684	136.87
788.123	152.27
788.562	137.57
789.001	127.07
789.44	124.27
789.879	119.57
790.317	122.57
790.756	136.27
791.195	127.67
791.634	150.67
792.072	206.47
792.511	377.77
792.95	1034.97
793.388	2139.47
793.827	1911.37
794.265	678.67
794.704	280.47
795.142	176.97
795.581	150.97
796.019	137.97
796.458	133.27
796.896	122.17
797.334	127.87
797.773	161.17
798.211	217.57
798.649	450.57
799.087	1025.07
799.526	1602.47
799.964	2012.97
800.402	1989.77
800.84	746.37
801.278	298.17
801.716	186.57
802.154	152.37
802.592	147.97
803.03	147.47
803.468	138.67
803.906	146.27
804.344	150.37
804.782	142.97
805.22	136.47
805.658	131.67
806.096	146.07
806.533	159.47
806.971	177.17
807.409	217.47
807.847	316.47
808.284	685.37
808.722	1888.17
809.16	3272.67
809.597	3141.77
810.035	5422.37
810.472	5659.87
810.91	2064.07
811.347	788.17
811.785	403.97
812.222	254.67
812.66	191.17
813.097	164.27
813.535	140.57
813.972	129.67
814.409	116.67
814.846	108.07
815.284	113.87
815.721	103.47
816.158	108.57
816.595	124.57
817.032	188.07
817.47	200.67
817.907	163.27
818.344	149.97
818.781	120.27
819.218	103.07
819.655	122.07
820.092	192.87
820.529	210.87
820.966	174.17
821.403	124.37
821.839	104.07
822.276	102.07
822.713	132.17
823.15	134.27
823.587	115.87
824.023	153.67
824.46	310.67
824.897	917.37
825.333	1338.67
825.77	574.87
826.206	228.17
826.643	134.27
827.08	105.17
827.516	85.27
827.953	80.97
828.389	81.27
828.825	75.87
829.262	69.67
829.698	67.07
830.135	65.77
830.571	63.07
831.007	64.17
831.443	63.97
831.88	56.57
832.316	61.77
832.752	71.57
833.188	66.97
833.624	64.17
834.06	72.27
834.497	70.67
834.933	72.67
835.369	82.47
835.805	72.67
836.241	88.17
836.677	86.67
837.112	88.57
837.548	112.27
837.984	137.07
838.42	209.17
838.856	510.17
839.292	1524.17
839.727	2288.37
840.163	1062.27
840.599	943.77
841.034	2036.37
841.47	2089.07
841.906	770.77
842.341	334.67
842.777	236.77
843.212	316.97
843.648	308.27
844.083	146.47
844.519	102.37
844.954	83.07
845.39	62.77
845.825	57.77
846.261	61.17
846.696	62.77
847.131	54.57
847.566	60.27
848.002	56.57
848.437	57.47
848.872	63.07
849.307	65.87
849.742	85.47
850.177	180.77
850.613	557.97
851.048	858.37
851.483	382.47
851.918	159.77
852.353	83.97
852.788	57.07
853.223	57.37
853.657	56.07
854.092	50.57
854.527	45.57
854.962	40.27
855.397	44.57
855.832	51.07
856.266	41.67
856.701	45.07
857.136	44.27
857.57	40.67
858.005	52.17
858.44	65.37
858.874	49.57
859.309	61.77
859.743	39.97
860.178	46.17
860.612	40.77
861.047	51.77
861.481	70.47
861.915	69.77
862.35	58.77
862.784	39.27
863.218	42.07
863.653	32.47
864.087	45.07
864.521	60.17
864.955	74.97
865.39	157.47
865.824	174.57
866.258	114.57
866.692	156.17
867.126	172.57
867.56	109.77
867.994	48.67
868.428	42.77
868.862	50.37
869.296	55.97
869.73	54.57
870.164	51.97
870.598	48.67
871.031	40.97
871.465	31.47
871.899	28.57
872.333	25.37
872.766	26.97
873.2	23.77
873.634	35.67
874.067	24.07
874.501	29.07
874.935	36.27
875.368	31.87
875.802	36.17
876.235	29.07
876.669	24.27
877.102	28.57
877.535	26.87
877.969	26.17
878.402	26.47
878.836	22.17
879.269	24.17
879.702	29.67
880.135	23.37
880.569	23.87
881.002	27.37
881.435	25.97
881.868	15.27
882.301	21.67
882.734	20.67
883.167	26.57
883.601	22.57
884.034	22.77
884.467	15.17
884.899	20.47
885.332	17.37
885.765	19.57
886.198	21.17
886.631	21.67
887.064	19.37
887.497	21.27
887.929	27.27
888.362	19.17
888.795	15.77
889.228	16.87
889.66	22.97
890.093	17.57
890.526	19.07
890.958	13.77
891.391	19.37
891.823	21.97
892.256	14.77
892.688	21.07
893.121	16.37
893.553	22.37
893.985	28.47
894.418	23.07
894.85	14.27
895.282	20.87
895.715	15.17
896.147	17.07
896.579	19.07
897.011	17.57
897.444	22.57
897.876	11.57
898.308	22.57
898.74	17.87
899.172	13.27
899.604	24.07
900.036	19.47
900.468	11.07
900.9	16.67
901.332	23.37
901.764	16.07
902.196	23.57
902.628	20.07
903.06	20.37
903.491	33.37
903.923	22.37
904.355	24.67
904.787	22.97
905.218	21.87
905.65	22.77
906.082	14.97
906.513	14.97
906.945	14.17
907.376	14.27
907.808	21.87
908.239	21.67
908.671	20.77
909.102	24.17
909.534	30.67
909.965	53.27
910.397	94.27
910.828	324.47
911.259	477.37
911.691	217.67
912.122	109.97
912.553	53.57
912.984	36.17
913.415	24.77
913.847	29.67
914.278	17.67
914.709	16.47
915.14	19.27
915.571	16.57
916.002	14.17
916.433	17.77
916.864	11.47
917.295	16.57
917.726	21.87
918.157	12.07
918.587	31.17
919.018	26.67
919.449	22.17
919.88	26.47
920.311	32.87
920.741	45.17
921.172	169.37
921.603	152.87
922.033	73.07
922.464	50.37
922.895	24.07
923.325	22.47
923.756	16.47
924.186	17.07
924.617	27.87
925.047	42.37
925.478	59.67
925.908	41.47
926.338	26.57
926.769	19.77
927.199	17.07
927.629	10.57
928.06	18.37
928.49	18.07
928.92	10.07
929.35	10.77
929.78	13.07
930.21	5.17
930.641	9.27
931.071	14.57
931.501	10.97
931.931	5.37
932.361	5.27
932.791	-0.83
933.221	9.37
933.651	5.57
934.08	21.67
934.51	32.27
934.94	9.47
935.37	7.17
935.8	17.57
936.229	11.87
936.659	12.07
937.089	4.77
937.519	15.97
937.948	21.07
938.378	13.97
938.807	14.17
939.237	4.37
939.666	12.97
940.096	-2.43
940.525	7.37
940.955	2.17
941.384	5.27
941.814	3.57
942.243	-2.93
942.672	6.17
943.102	-5.03
943.531	0.47
943.96	5.77
944.39	5.67
944.819	1.07
945.248	1.27
945.677	5.57
946.106	10.37
946.535	10.07
946.964	3.47
947.393	7.37
947.822	3.27
948.251	-5.13
948.68	3.77
949.109	9.27
949.538	4.57
949.967	-1.83
950.396	8.87
950.825	0.77
951.254	2.07
951.682	-5.43
952.111	8.57
952.54	5.67
952.969	-3.73
953.397	-0.53
953.826	2.87
954.254	-3.03
954.683	1.07
955.112	-1.13
955.54	4.07
955.969	4.67
956.397	0.37
956.826	-2.43
957.254	7.07
957.682	5.27
958.111	3.67
958.539	-0.93
958.967	5.77
959.396	0.67
959.824	-2.03
960.252	3.77
960.68	-1.03
961.109	-1.43
961.537	-3.63
961.965	3.97
962.393	0.27
962.821	-6.43
963.249	6.47
963.677	11.07
964.105	8.77
964.533	45.87
964.961	36.67
965.389	23.27
965.817	10.27
966.245	7.57
966.672	2.67
967.1	-6.43
967.528	2.67
967.956	-0.33
968.383	0.27
968.811	1.47
969.239	-6.43
969.666	-1.13
970.094	0.97
970.522	5.07
970.949	-2.23
971.377	-0.63
971.804	-0.23
972.232	-3.03
972.659	-0.93
973.087	-0.53
973.514	-0.13
973.941	-5.73
974.369	10.47
974.796	3.57
975.223	3.37
975.651	3.97
976.078	-1.13
976.505	0.27
976.932	4.27
977.359	15.47
977.786	15.67
978.214	2.37
978.641	-1.83
979.068	-2.13
979.495	-0.13
979.922	-0.33
980.349	-3.63
980.776	5.67
981.202	5.47
981.629	2.97
982.056	1.97
982.483	-4.23
982.91	0.97
983.337	-5.83
983.763	4.57
984.19	-5.23
984.617	-7.83
985.043	-3.63
985.47	3.67
985.897	1.37
986.323	-2.63
986.75	3.47
987.176	-2.43
987.603	1.07
988.029	-1.73
988.456	0.57
988.882	1.87
989.308	-9.03
989.735	-9.23
990.161	-2.73
990.587	-0.73
991.014	-1.83
991.44	14.87
991.866	-3.13
992.292	-6.23
992.719	-1.93
993.145	4.07
993.571	-6.03
993.997	-8.23
994.423	-3.33
994.849	-6.13
995.275	1.77
995.701	-2.23
996.127	0.37
996.553	3.67
996.979	2.37
997.405	4.27
997.83	0.47
998.256	-1.43
998.682	-4.53
999.108	-1.83
999.534	2.27
999.959	1.47
1000.385	-0.43
1000.811	1.77
1001.236	-5.53
1001.662	-6.13
1002.087	1.67
1002.513	2.37
1002.938	7.17
1003.364	-4.13
1003.789	-0.03
1004.215	2.67
1004.64	-1.73
1005.066	3.07
1005.491	2.87
1005.916	-0.03
1006.342	-1.83
1006.767	-4.73
1007.192	0.67
1007.617	-0.23
1008.042	-3.03
1008.468	-1.53
1008.893	-0.53
1009.318	-0.93
1009.743	3.37
1010.168	1.67
1010.593	-0.93
1011.018	-9.73
1011.443	-0.93
1011.868	4.57
1012.293	-1.93
1012.718	-0.43
1013.143	-0.23
1013.567	2.47
1013.992	-0.73
1014.417	-11.83
1014.842	1.37
1015.267	-8.03
1015.691	-4.13
1016.116	8.57
1016.541	-2.73
1016.965	-1.63
1017.39	2.97
1017.814	-2.93
1018.239	6.47
1018.663	-8.53
1019.088	-7.83
1019.512	-1.73
1019.937	-1.03
1020.361	-7.23
1020.785	-11.73
1021.21	-3.13
1021.634	0.77
1022.058	2.27
1022.483	5.07
1022.907	-1.43
1023.331	-2.63
1023.755	-0.63
1024.179	-4.03
1024.604	-9.83
1025.028	-0.33
1025.452	-5.43
1025.876	-4.93
1026.3	6.97
1026.724	-6.73
1027.148	-4.33
1027.572	-4.03
1027.996	1.37
1028.42	0.37
1028.843	4.87
1029.267	-1.73
1029.691	2.97
1030.115	-3.43
1030.539	-2.83
1030.962	-7.33
1031.386	-4.03
1031.81	-0.73
1032.233	0.67
1032.657	1.57
1033.08	-3.73
1033.504	0.17
1033.927	-1.83
1034.351	-1.53
1034.774	-7.53
1035.198	3.67
1035.621	-0.63
1036.045	-7.93
1036.468	2.17
1036.891	-10.93
1037.315	-5.63
1037.738	-11.23
1038.161	-0.73
1038.584	-3.63
1039.008	-4.33
1039.431	1.47
1039.854	0.67
1040.277	-1.03
1040.7	-4.83
1041.123	1.27
1041.546	-7.13
1041.969	0.47
1042.392	-2.63
1042.815	0.37
1043.238	4.67
1043.661	5.67
1044.084	0.47
1044.507	-4.63
1044.93	-7.43
1045.352	-9.03
1045.775	-4.73
1046.198	-3.43
1046.621	-1.13
1047.043	-2.13
1047.466	8.47
1047.889	-4.23
1048.311	-4.53
1048.734	-4.53
1049.156	-2.23
1049.579	-1.83
1050.001	-1.03
1050.424	7.97
1050.846	-2.73
1051.269	0.47
1051.691	-9.13
1052.113	-2.13
1052.536	4.87
1052.958	-4.83
1053.38	2.97
1053.802	-7.63
1054.225	2.77
1054.647	-7.23
1055.069	-8.83
1055.491	3.87
1055.913	-2.23
1056.335	2.27
1056.757	-3.63
1057.179	-2.93
1057.601	-7.93
1058.023	-5.63
1058.445	-9.33
1058.867	-5.83
1059.289	-1.13
1059.711	-10.43
1060.133	-2.63
1060.555	-3.03
1060.976	-1.43
1061.398	-5.13
1061.82	-5.33
1062.241	-0.43
1062.663	-7.53
1063.085	-2.63
1063.506	-2.83
1063.928	-0.43
1064.35	-3.33
1064.771	-9.03
1065.193	-4.93
1065.614	-7.83
1066.035	-1.43
1066.457	-3.23
1066.878	-2.03
1067.3	-2.73
1067.721	-4.43
1068.142	-3.03
1068.564	-2.43
1068.985	-6.93
1069.406	1.67
1069.827	-0.73
1070.248	-1.73
1070.67	-8.23
1071.091	-5.23
1071.512	-6.13
1071.933	-8.93
1072.354	-1.53
1072.775	-0.03
1073.196	-3.13
1073.617	-5.03
1074.038	-8.23
1074.459	-3.93
1074.88	-9.03
1075.3	4.07
1075.721	-5.33
1076.142	-0.23
1076.563	-2.63
1076.983	-6.03
1077.404	-7.23
1077.825	-8.03
1078.246	-3.93
1078.666	-11.03
1079.087	-6.53
1079.507	-6.73
1079.928	4.27
1080.348	2.27
1080.769	0.27
1081.189	3.17
1081.61	-2.23
1082.03	-5.13
1082.451	-0.03
1082.871	-4.03
1083.291	-6.23
1083.711	-4.93
1084.132	-5.63
1084.552	-1.83
1084.972	-0.63
1085.392	-11.73
1085.813	-3.13
1086.233	-7.13
1086.653	-9.13
1087.073	-0.73
1087.493	-9.83
1087.913	-8.23
1088.333	0.37
1088.753	-5.93
1089.173	0.37
1089.593	-2.03
1090.013	-1.13
1090.433	4.97
1090.852	-1.83
1091.272	-1.13
1091.692	-4.33
1092.112	0.07
1092.531	-5.13
1092.951	-7.13
1093.371	-2.43
1093.79	-0.33
1094.21	-1.13
1094.63	-7.13
1095.049	-5.43
1095.469	-5.13
1095.888	-5.23
1096.308	4.17
1096.727	5.17
1097.146	-2.13
1097.566	3.97
1097.985	-8.43
1098.405	0.07
1098.824	-3.93
1099.243	-8.03
1099.662	-6.93
1100.082	-7.63
1100.501	2.47
1100.92	0.37
1101.339	-0.63
1101.758	-12.13
