Data from 20171114-ORNL-Ar_H_NY_Subt18_08-06-27-285.txt Node
Date: Tue Nov 14 08:06:27 EST 2017
User: Ender
Spectrometer: HR+D1039
Trigger mode: 0
Integration Time (sec): 2.730000E-2
Scans to average: 10
Electric dark correction enabled: true
Nonlinearity correction enabled: false
Boxcar width: 0
XAxis mode: Wavelengths
Number of Pixels in Spectrum: 2048
>>>>>Begin Spectral Data<<<<<
187.836	-4.81
188.309	-4.81
188.782	-4.81
189.255	0.89
189.728	1.69
190.201	4.89
190.674	0.09
191.147	5.09
191.619	-8.51
192.092	0.39
192.565	1.19
193.038	-4.61
193.511	1.19
193.984	0.79
194.456	3.19
194.929	3.39
195.402	-2.01
195.874	-2.91
196.347	-3.81
196.82	-6.21
197.292	3.19
197.765	1.69
198.237	-7.11
198.71	3.59
199.182	-2.31
199.655	5.29
200.127	3.69
200.6	-0.81
201.072	-0.51
201.544	2.09
202.017	0.19
202.489	7.29
202.961	5.39
203.433	0.49
203.906	-3.61
204.378	-2.11
204.85	-5.61
205.322	-2.71
205.794	1.89
206.266	-4.91
206.739	-15.41
207.211	1.69
207.683	-9.51
208.155	-12.41
208.627	-1.21
209.099	0.99
209.57	-8.11
210.042	-6.11
210.514	0.29
210.986	-0.61
211.458	-8.81
211.93	1.19
212.402	-0.61
212.873	-3.71
213.345	-4.11
213.817	-11.21
214.288	-2.61
214.76	-12.41
215.232	0.59
215.703	-3.71
216.175	-1.21
216.646	-6.91
217.118	-3.71
217.589	-0.61
218.061	0.09
218.532	-11.21
219.004	-1.21
219.475	-4.01
219.946	-4.51
220.418	-4.71
220.889	7.89
221.36	3.19
221.832	-3.31
222.303	-3.21
222.774	1.79
223.245	-14.11
223.717	-5.31
224.188	-2.21
224.659	-10.31
225.13	-1.41
225.601	-2.91
226.072	4.99
226.543	0.19
227.014	-5.61
227.485	-2.91
227.956	-4.71
228.427	0.19
228.898	2.39
229.369	7.99
229.839	-2.61
230.31	-5.21
230.781	5.89
231.252	-0.71
231.722	-4.01
232.193	-0.01
232.664	3.59
233.135	3.29
233.605	3.39
234.076	-8.71
234.546	3.89
235.017	5.79
235.487	2.39
235.958	3.99
236.428	1.99
236.899	5.09
237.369	5.19
237.84	1.39
238.31	9.39
238.78	7.69
239.251	8.29
239.721	4.09
240.191	4.19
240.662	1.19
241.132	5.09
241.602	-1.71
242.072	-0.21
242.542	7.59
243.013	-0.61
243.483	4.69
243.953	8.19
244.423	-1.01
244.893	-1.11
245.363	6.89
245.833	4.59
246.303	-1.61
246.773	10.49
247.243	6.19
247.712	6.59
248.182	7.69
248.652	9.39
249.122	3.49
249.592	17.39
250.061	14.39
250.531	34.09
251.001	16.69
251.471	16.19
251.94	20.49
252.41	7.99
252.879	5.09
253.349	11.89
253.818	10.39
254.288	-0.51
254.757	9.59
255.227	5.19
255.696	5.39
256.166	9.09
256.635	5.29
257.105	8.49
257.574	9.39
258.043	10.59
258.513	11.39
258.982	18.79
259.451	8.89
259.92	13.29
260.389	7.49
260.859	14.29
261.328	12.69
261.797	18.99
262.266	5.29
262.735	13.59
263.204	7.19
263.673	2.09
264.142	11.59
264.611	2.69
265.08	6.29
265.549	-1.31
266.018	4.99
266.487	4.29
266.955	-4.01
267.424	2.89
267.893	8.89
268.362	3.79
268.83	3.19
269.299	21.19
269.768	5.39
270.236	4.59
270.705	2.09
271.174	9.59
271.642	9.79
272.111	12.59
272.579	21.79
273.048	28.69
273.516	26.19
273.985	26.59
274.453	28.49
274.922	22.79
275.39	13.89
275.858	9.69
276.327	17.19
276.795	17.49
277.263	11.89
277.731	32.89
278.2	55.39
278.668	59.89
279.136	49.49
279.604	24.19
280.072	18.29
280.54	13.39
281.008	4.79
281.477	15.89
281.945	17.79
282.413	14.99
282.881	21.49
283.348	14.79
283.816	18.79
284.284	18.09
284.752	22.19
285.22	18.49
285.688	19.09
286.156	22.89
286.623	44.99
287.091	57.49
287.559	31.49
288.026	19.29
288.494	15.99
288.962	11.69
289.429	8.69
289.897	13.89
290.364	13.39
290.832	17.89
291.3	14.39
291.767	23.79
292.234	25.89
292.702	16.29
293.169	18.19
293.637	33.29
294.104	27.69
294.571	13.99
295.039	6.69
295.506	17.39
295.973	16.09
296.44	13.89
296.908	18.89
297.375	16.79
297.842	20.49
298.309	21.29
298.776	19.99
299.243	21.69
299.71	10.49
300.177	25.19
300.644	22.09
301.111	23.19
301.578	25.29
302.045	18.89
302.512	28.89
302.979	23.29
303.446	28.19
303.913	22.59
304.379	19.39
304.846	34.59
305.313	33.79
305.78	28.99
306.246	32.49
306.713	25.89
307.18	31.59
307.646	23.59
308.113	28.79
308.579	26.59
309.046	29.59
309.512	27.39
309.979	21.59
310.445	32.39
310.912	38.69
311.378	40.19
311.845	30.89
312.311	28.19
312.777	34.69
313.244	38.89
313.71	44.79
314.176	43.49
314.642	36.49
315.109	30.49
315.575	39.79
316.041	44.69
316.507	35.69
316.973	38.59
317.439	36.69
317.905	32.69
318.371	38.59
318.837	35.29
319.303	33.99
319.769	37.89
320.235	39.19
320.701	36.89
321.167	36.29
321.633	34.69
322.099	38.89
322.564	42.69
323.03	49.09
323.496	42.79
323.962	44.99
324.427	37.79
324.893	46.49
325.359	41.19
325.824	36.39
326.29	41.49
326.755	40.29
327.221	43.69
327.686	42.99
328.152	46.19
328.617	43.99
329.083	43.29
329.548	49.79
330.014	45.59
330.479	39.39
330.944	47.39
331.41	49.99
331.875	49.79
332.34	51.69
332.805	46.19
333.271	51.19
333.736	46.39
334.201	56.89
334.666	51.49
335.131	55.39
335.596	56.39
336.061	51.69
336.526	46.69
336.991	47.19
337.456	62.59
337.921	46.49
338.386	45.19
338.851	45.19
339.316	49.59
339.781	48.29
340.246	51.39
340.711	44.49
341.175	52.59
341.64	47.79
342.105	55.79
342.569	62.69
343.034	59.09
343.499	58.49
343.963	52.89
344.428	66.29
344.893	63.19
345.357	60.69
345.822	66.59
346.286	71.19
346.751	77.89
347.215	66.39
347.679	85.09
348.144	102.69
348.608	82.99
349.073	71.39
349.537	78.09
350.001	82.79
350.465	91.19
350.93	94.49
351.394	79.69
351.858	76.39
352.322	84.19
352.786	83.99
353.25	99.59
353.715	119.39
354.179	102.29
354.643	126.59
355.107	131.79
355.571	110.49
356.035	110.79
356.498	120.19
356.962	129.09
357.426	137.79
357.89	116.89
358.354	96.09
358.818	85.29
359.281	81.09
359.745	75.59
360.209	80.59
360.673	79.69
361.136	82.59
361.6	84.79
362.064	85.39
362.527	85.89
362.991	87.79
363.454	82.49
363.918	80.49
364.381	80.39
364.845	79.09
365.308	88.39
365.772	91.49
366.235	85.99
366.698	84.69
367.162	91.99
367.625	85.59
368.088	90.59
368.552	93.39
369.015	92.09
369.478	97.49
369.941	100.89
370.404	97.29
370.867	106.39
371.331	112.89
371.794	124.19
372.257	124.99
372.72	122.59
373.183	112.29
373.646	101.59
374.109	110.09
374.572	111.99
375.035	115.59
375.497	111.59
375.96	110.99
376.423	108.69
376.886	118.29
377.349	114.09
377.811	105.79
378.274	105.99
378.737	119.89
379.199	115.19
379.662	118.29
380.125	122.29
380.587	122.49
381.05	127.29
381.512	134.29
381.975	141.29
382.437	139.19
382.9	138.19
383.362	135.79
383.825	147.99
384.287	153.09
384.75	140.19
385.212	143.99
385.674	143.49
386.136	143.49
386.599	123.89
387.061	136.59
387.523	135.29
387.985	135.29
388.447	149.19
388.91	151.29
389.372	161.39
389.834	155.89
390.296	148.89
390.758	162.29
391.22	172.29
391.682	213.59
392.144	307.49
392.606	241.59
393.068	177.09
393.529	171.09
393.991	155.89
394.453	155.79
394.915	158.99
395.377	197.39
395.838	223.39
396.3	160.19
396.762	146.69
397.224	139.29
397.685	130.19
398.147	133.39
398.608	132.99
399.07	129.39
399.531	138.69
399.993	152.39
400.454	158.69
400.916	143.79
401.377	146.89
401.839	158.19
402.3	152.59
402.762	175.69
403.223	189.69
403.684	178.69
404.145	166.59
404.607	166.69
405.068	174.79
405.529	174.79
405.99	196.39
406.451	183.39
406.913	178.69
407.374	173.79
407.835	168.79
408.296	173.79
408.757	179.29
409.218	194.59
409.679	184.99
410.14	174.39
410.601	185.19
411.062	185.59
411.522	194.59
411.983	194.49
412.444	176.99
412.905	183.69
413.366	189.89
413.826	197.69
414.287	226.19
414.748	266.29
415.208	257.29
415.669	213.49
416.13	208.69
416.59	210.89
417.051	211.19
417.511	221.69
417.972	240.09
418.432	252.79
418.893	287.09
419.353	256.39
419.814	202.99
420.274	184.59
420.734	181.59
421.195	207.49
421.655	205.09
422.115	200.79
422.576	195.49
423.036	199.39
423.496	212.49
423.956	222.09
424.416	244.39
424.876	273.69
425.336	261.49
425.797	272.59
426.257	264.19
426.717	252.49
427.177	244.19
427.637	231.19
428.097	246.29
428.556	249.69
429.016	276.49
429.476	267.09
429.936	288.09
430.396	290.89
430.856	296.09
431.315	325.59
431.775	364.59
432.235	388.79
432.694	365.69
433.154	376.39
433.614	403.49
434.073	351.69
434.533	298.89
434.993	279.99
435.452	285.29
435.912	306.49
436.371	298.19
436.83	293.49
437.29	280.79
437.749	260.39
438.209	251.49
438.668	283.59
439.127	294.29
439.587	268.79
440.046	254.89
440.505	259.39
440.964	290.69
441.424	338.09
441.883	322.29
442.342	264.39
442.801	231.79
443.26	222.79
443.719	223.59
444.178	224.79
444.637	215.79
445.096	235.69
445.555	234.49
446.014	228.29
446.473	235.59
446.932	234.29
447.391	233.79
447.849	242.99
448.308	225.89
448.767	222.79
449.226	241.79
449.685	237.19
450.143	256.59
450.602	242.79
451.061	229.29
451.519	239.99
451.978	235.79
452.436	244.59
452.895	247.29
453.353	259.79
453.812	252.19
454.27	244.59
454.729	242.49
455.187	243.29
455.646	253.89
456.104	263.99
456.562	272.09
457.021	275.99
457.479	269.89
457.937	280.79
458.395	267.89
458.854	256.99
459.312	263.79
459.77	284.79
460.228	260.69
460.686	248.29
461.144	260.29
461.602	250.19
462.06	246.09
462.518	256.79
462.976	263.69
463.434	272.59
463.892	272.89
464.35	288.89
464.808	296.89
465.266	278.39
465.724	278.09
466.181	277.89
466.639	276.69
467.097	298.19
467.555	315.49
468.012	310.29
468.47	315.99
468.928	334.39
469.385	347.99
469.843	353.99
470.3	359.59
470.758	375.59
471.215	389.19
471.673	421.89
472.13	413.19
472.588	427.69
473.045	385.19
473.503	382.69
473.96	409.49
474.417	415.89
474.875	445.79
475.332	493.69
475.789	478.49
476.246	478.79
476.704	502.79
477.161	517.29
477.618	537.89
478.075	574.99
478.532	637.89
478.989	717.09
479.446	836.29
479.903	794.99
480.36	832.29
480.817	897.29
481.274	993.79
481.731	1103.19
482.188	1197.19
482.645	1336.59
483.102	1445.89
483.558	1575.09
484.015	1645.89
484.472	1614.59
484.929	1561.69
485.385	1516.59
485.842	1478.89
486.299	1411.89
486.755	1333.79
487.212	1116.19
487.668	961.59
488.125	875.69
488.582	789.59
489.038	770.69
489.494	733.09
489.951	703.89
490.407	683.29
490.864	673.19
491.32	669.19
491.776	665.89
492.233	668.99
492.689	628.29
493.145	623.19
493.602	623.49
494.058	623.29
494.514	626.09
494.97	664.09
495.426	671.79
495.882	644.19
496.338	635.39
496.794	649.99
497.251	632.39
497.707	659.79
498.163	652.69
498.618	670.79
499.074	669.29
499.53	698.49
499.986	701.69
500.442	668.89
500.898	652.79
501.354	639.49
501.809	656.49
502.265	667.19
502.721	674.39
503.177	691.99
503.632	685.39
504.088	693.49
504.543	726.69
504.999	731.39
505.455	677.89
505.91	644.19
506.366	649.99
506.821	646.59
507.277	645.29
507.732	636.19
508.187	642.09
508.643	658.09
509.098	651.49
509.553	681.99
510.009	679.19
510.464	692.69
510.919	699.49
511.375	714.79
511.83	734.89
512.285	747.39
512.74	779.59
513.195	812.49
513.65	791.39
514.105	789.89
514.56	797.79
515.015	816.89
515.47	835.39
515.925	813.79
516.38	807.19
516.835	822.79
517.29	804.19
517.745	801.09
518.2	795.59
518.655	777.79
519.109	756.59
519.564	759.89
520.019	763.49
520.474	739.29
520.928	742.29
521.383	742.69
521.838	739.39
522.292	724.99
522.747	728.19
523.201	722.49
523.656	713.79
524.11	709.59
524.565	714.59
525.019	715.19
525.474	724.99
525.928	714.79
526.382	723.69
526.837	725.19
527.291	727.19
527.745	721.29
528.2	714.69
528.654	718.89
529.108	707.49
529.562	709.89
530.016	715.79
530.47	717.39
530.925	713.69
531.379	720.99
531.833	737.59
532.287	722.99
532.741	721.69
533.195	724.29
533.649	741.39
534.103	740.19
534.556	733.59
535.01	733.29
535.464	720.89
535.918	739.89
536.372	737.89
536.826	739.89
537.279	732.79
537.733	730.19
538.187	736.09
538.64	739.59
539.094	743.29
539.548	751.39
540.001	743.89
540.455	763.69
540.908	762.39
541.362	768.29
541.815	773.29
542.269	780.49
542.722	778.49
543.175	798.29
543.629	791.09
544.082	798.29
544.536	794.79
544.989	806.19
545.442	814.89
545.895	812.99
546.349	808.89
546.802	807.09
547.255	817.79
547.708	822.79
548.161	833.49
548.614	842.49
549.067	863.39
549.52	846.49
549.973	826.59
550.426	835.79
550.879	821.69
551.332	819.59
551.785	832.89
552.238	831.59
552.691	832.69
553.144	868.49
553.596	876.39
554.049	888.99
554.502	913.09
554.955	946.99
555.407	929.39
555.86	927.19
556.313	915.89
556.765	904.99
557.218	904.69
557.67	909.29
558.123	904.29
558.576	894.89
559.028	908.09
559.48	904.99
559.933	898.49
560.385	864.79
560.838	836.19
561.29	796.69
561.742	801.89
562.195	784.49
562.647	785.89
563.099	798.69
563.551	793.49
564.004	800.69
564.456	793.79
564.908	779.99
565.36	771.29
565.812	760.29
566.264	749.99
566.716	744.99
567.168	738.09
567.62	738.79
568.072	721.79
568.524	717.09
568.976	716.69
569.428	697.89
569.88	691.39
570.332	705.79
570.784	707.19
571.235	707.49
571.687	720.19
572.139	719.69
572.59	733.39
573.042	727.59
573.494	731.59
573.945	730.49
574.397	705.79
574.849	707.59
575.3	710.79
575.752	704.39
576.203	696.89
576.655	699.89
577.106	687.29
577.557	686.79
578.009	679.99
578.46	680.69
578.912	685.89
579.363	689.09
579.814	684.49
580.265	687.89
580.717	689.89
581.168	689.59
581.619	694.79
582.07	699.29
582.521	701.19
582.972	697.29
583.423	693.89
583.875	704.69
584.326	717.99
584.777	769.49
585.227	832.09
585.678	936.89
586.129	1019.19
586.58	1099.99
587.031	1174.79
587.482	1336.99
587.933	1524.89
588.384	1317.49
588.834	993.19
589.285	828.19
589.736	810.79
590.186	794.49
590.637	791.59
591.088	767.49
591.538	761.29
591.989	747.79
592.439	741.29
592.89	749.09
593.34	729.49
593.791	736.49
594.241	713.09
594.692	728.29
595.142	713.09
595.593	725.19
596.043	724.79
596.493	732.89
596.943	733.89
597.394	737.69
597.844	731.79
598.294	747.09
598.744	762.09
599.195	802.39
599.645	837.89
600.095	890.09
600.545	936.69
600.995	980.19
601.445	1039.79
601.895	1114.59
602.345	1161.79
602.795	1142.29
603.245	1082.29
603.695	1046.39
604.145	980.29
604.594	933.49
605.044	880.19
605.494	828.99
605.944	779.39
606.393	763.69
606.843	738.09
607.293	756.29
607.743	753.79
608.192	767.89
608.642	778.89
609.091	788.79
609.541	797.09
609.99	783.79
610.44	789.09
610.889	737.99
611.339	727.19
611.788	710.39
612.238	725.89
612.687	731.59
613.136	735.49
613.586	757.79
614.035	755.19
614.484	775.79
614.933	773.69
615.383	764.09
615.832	769.29
616.281	743.39
616.73	710.89
617.179	687.89
617.628	668.69
618.077	655.19
618.526	639.99
618.975	632.79
619.424	620.99
619.873	631.89
620.322	634.09
620.771	619.29
621.22	618.69
621.669	610.69
622.118	607.69
622.567	602.69
623.015	592.29
623.464	587.29
623.913	576.89
624.361	564.59
624.81	557.09
625.259	567.19
625.707	568.19
626.156	571.69
626.604	584.99
627.053	573.89
627.501	574.19
627.95	586.49
628.398	590.99
628.847	579.39
629.295	585.39
629.744	585.29
630.192	590.69
630.64	587.19
631.089	583.09
631.537	595.29
631.985	601.09
632.433	610.39
632.881	619.79
633.33	667.79
633.778	654.29
634.226	587.89
634.674	582.09
635.122	598.49
635.57	619.69
636.018	640.99
636.466	593.39
636.914	577.19
637.362	580.89
637.81	591.89
638.258	594.29
638.705	596.99
639.153	625.59
639.601	638.09
640.049	658.79
640.497	691.19
640.944	709.89
641.392	650.69
641.84	625.79
642.287	599.39
642.735	586.69
643.182	590.79
643.63	581.59
644.078	590.29
644.525	596.09
644.973	603.29
645.42	620.49
645.867	641.79
646.315	656.59
646.762	675.99
647.21	707.09
647.657	733.09
648.104	773.29
648.551	794.19
648.999	854.69
649.446	935.59
649.893	1031.29
650.34	1184.89
650.787	1421.39
651.234	1764.29
651.682	2306.49
652.129	3160.69
652.576	4573.39
653.023	6732.49
653.47	9256.29
653.917	11552.09
654.363	13288.79
654.81	14680.79
655.257	13966.49
655.704	9137.89
656.151	5432.19
656.598	3510.29
657.044	2483.39
657.491	1899.79
657.938	1530.79
658.385	1280.39
658.831	1103.19
659.278	989.99
659.724	867.29
660.171	804.39
660.618	737.89
661.064	700.29
661.511	688.49
661.957	672.39
662.404	658.79
662.85	671.39
663.296	653.19
663.743	569.19
664.189	546.49
664.635	548.19
665.082	538.69
665.528	536.29
665.974	532.79
666.42	521.39
666.867	525.09
667.313	498.69
667.759	494.09
668.205	492.89
668.651	496.29
669.097	500.59
669.543	512.39
669.989	474.69
670.435	459.69
670.881	458.69
671.327	458.89
671.773	479.59
672.219	503.59
672.665	547.69
673.11	589.79
673.556	630.79
674.002	687.99
674.448	677.09
674.893	563.59
675.339	485.49
675.785	439.79
676.23	431.29
676.676	412.29
677.122	390.19
677.567	387.59
678.013	375.09
678.458	370.69
678.904	375.99
679.349	350.29
679.794	361.89
680.24	358.89
680.685	353.89
681.131	358.09
681.576	365.09
682.021	366.79
682.466	353.79
682.912	347.69
683.357	358.09
683.802	386.59
684.247	416.19
684.692	464.39
685.137	510.39
685.583	546.99
686.028	575.89
686.473	528.49
686.918	447.69
687.363	427.99
687.807	395.89
688.252	367.79
688.697	366.69
689.142	344.09
689.587	338.39
690.032	328.89
690.477	351.09
690.921	356.79
691.366	396.09
691.811	403.59
692.255	441.39
692.7	466.09
693.145	520.39
693.589	710.39
694.034	1149.39
694.478	1545.59
694.923	1767.79
695.367	2295.69
695.812	1197.89
696.256	507.19
696.701	379.29
697.145	346.29
697.59	335.29
698.034	329.89
698.478	336.19
698.922	332.79
699.367	329.89
699.811	349.29
700.255	357.99
700.699	390.99
701.143	438.99
701.588	490.29
702.032	524.29
702.476	523.99
702.92	498.59
703.364	497.99
703.808	650.49
704.252	1039.69
704.696	1465.49
705.14	1688.59
705.584	2164.19
706.027	1078.99
706.471	531.99
706.915	408.09
707.359	361.39
707.803	330.89
708.246	320.89
708.69	315.59
709.134	318.69
709.577	309.59
710.021	324.29
710.465	309.09
710.908	305.19
711.352	306.39
711.795	319.49
712.239	356.69
712.682	394.99
713.126	430.49
713.569	470.49
714.012	369.39
714.456	325.39
714.899	304.89
715.342	275.89
715.786	268.19
716.229	263.29
716.672	265.49
717.115	253.39
717.558	253.69
718.002	255.79
718.445	267.49
718.888	296.19
719.331	300.09
719.774	317.29
720.217	310.49
720.66	296.49
721.103	269.59
721.546	259.29
721.989	255.89
722.432	242.89
722.874	250.19
723.317	231.19
723.76	240.69
724.203	262.89
724.645	324.99
725.088	455.79
725.531	582.99
725.974	655.49
726.416	547.39
726.859	310.49
727.301	256.29
727.744	252.59
728.187	235.19
728.629	239.79
729.071	245.49
729.514	263.39
729.956	281.99
730.399	291.99
730.841	298.49
731.283	276.69
731.726	272.79
732.168	264.49
732.61	277.99
733.053	287.89
733.495	317.49
733.937	356.89
734.379	403.59
734.821	448.39
735.263	546.99
735.705	838.19
736.148	1587.79
736.59	2604.09
737.032	3098.79
737.474	2503.99
737.916	816.09
738.357	433.09
738.799	346.49
739.241	302.09
739.683	291.59
740.125	297.79
740.567	307.09
741.008	322.89
741.45	325.59
741.892	327.89
742.334	358.69
742.775	361.79
743.217	342.49
743.658	271.79
744.1	263.19
744.542	264.59
744.983	318.29
745.425	347.69
745.866	348.39
746.307	285.19
746.749	281.59
747.19	321.09
747.632	457.39
748.073	891.99
748.514	1868.39
748.956	2869.49
749.397	3622.79
749.838	2999.59
750.279	2997.39
750.72	1506.89
751.162	547.99
751.603	335.69
752.044	251.69
752.485	221.09
752.926	215.29
753.367	209.99
753.808	199.19
754.249	191.69
754.69	196.79
755.131	187.89
755.572	182.29
756.013	185.59
756.453	183.09
756.894	186.79
757.335	195.29
757.776	198.79
758.216	197.99
758.657	196.89
759.098	203.79
759.538	228.89
759.979	265.49
760.42	374.59
760.86	707.89
761.301	1830.39
761.741	4467.49
762.182	6510.49
762.622	4566.99
763.063	1319.89
763.503	546.09
763.943	353.89
764.384	344.39
764.824	405.89
765.264	438.99
765.705	314.39
766.145	217.59
766.585	189.39
767.025	186.39
767.465	190.99
767.906	242.19
768.346	333.29
768.786	353.19
769.226	271.09
769.666	323.69
770.106	625.99
770.546	1560.39
770.986	2688.39
771.426	2368.59
771.866	801.99
772.306	335.29
772.745	218.09
773.185	176.39
773.625	173.19
774.065	170.09
774.505	198.39
774.944	315.49
775.384	681.49
775.824	1239.09
776.263	1208.69
776.703	517.69
777.142	226.39
777.582	163.39
778.021	142.69
778.461	145.39
778.9	147.49
779.34	138.39
779.779	119.69
780.219	120.09
780.658	112.89
781.097	117.59
781.537	122.39
781.976	111.29
782.415	104.69
782.855	105.19
783.294	104.99
783.733	108.39
784.172	113.09
784.611	107.59
785.05	114.69
785.489	117.59
785.928	120.59
786.367	124.99
786.806	120.09
787.245	131.79
787.684	140.89
788.123	151.89
788.562	129.39
789.001	130.99
789.44	119.09
789.879	122.49
790.317	126.39
790.756	134.09
791.195	122.29
791.634	140.49
792.072	213.39
792.511	375.19
792.95	1000.79
793.388	2157.39
793.827	1961.49
794.265	676.69
794.704	287.99
795.142	189.39
795.581	151.49
796.019	145.39
796.458	135.19
796.896	124.89
797.334	132.39
797.773	161.29
798.211	221.89
798.649	436.19
799.087	1025.09
799.526	1595.79
799.964	2022.39
800.402	2037.99
800.84	756.59
801.278	299.59
801.716	196.39
802.154	156.19
802.592	148.29
803.03	140.99
803.468	135.69
803.906	147.79
804.344	153.59
804.782	142.69
805.22	140.89
805.658	133.29
806.096	154.99
806.533	163.19
806.971	181.29
807.409	222.99
807.847	312.09
808.284	660.69
808.722	1873.39
809.16	3307.69
809.597	3128.29
810.035	5436.39
810.472	5780.69
810.91	2091.69
811.347	800.29
811.785	408.29
812.222	256.39
812.66	199.39
813.097	164.39
813.535	140.49
813.972	136.79
814.409	125.29
814.846	109.39
815.284	111.79
815.721	104.49
816.158	109.59
816.595	124.69
817.032	176.69
817.47	200.19
817.907	177.99
818.344	158.99
818.781	117.99
819.218	116.79
819.655	129.39
820.092	189.19
820.529	218.49
820.966	185.49
821.403	137.19
821.839	105.69
822.276	107.49
822.713	129.79
823.15	140.49
823.587	119.79
824.023	148.39
824.46	298.49
824.897	891.99
825.333	1369.79
825.77	584.99
826.206	229.89
826.643	133.79
827.08	101.29
827.516	90.19
827.953	78.89
828.389	79.89
828.825	65.89
829.262	73.49
829.698	66.99
830.135	67.99
830.571	61.79
831.007	66.89
831.443	68.89
831.88	68.79
832.316	66.79
832.752	69.79
833.188	69.59
833.624	61.39
834.06	73.69
834.497	69.49
834.933	69.39
835.369	73.09
835.805	68.99
836.241	79.59
836.677	84.59
837.112	86.49
837.548	107.39
837.984	141.49
838.42	204.99
838.856	493.39
839.292	1512.59
839.727	2315.89
840.163	1077.39
840.599	934.89
841.034	2050.89
841.47	2145.79
841.906	782.89
842.341	346.79
842.777	236.59
843.212	314.79
843.648	310.79
844.083	148.89
844.519	100.39
844.954	80.49
845.39	60.29
845.825	57.39
846.261	58.69
846.696	61.39
847.131	58.19
847.566	60.29
848.002	56.49
848.437	60.19
848.872	62.89
849.307	63.89
849.742	88.89
850.177	183.69
850.613	551.99
851.048	886.59
851.483	380.99
851.918	151.59
852.353	81.19
852.788	69.39
853.223	63.79
853.657	58.39
854.092	47.69
854.527	45.49
854.962	43.59
855.397	40.49
855.832	49.19
856.266	46.09
856.701	42.59
857.136	38.09
857.57	43.29
858.005	51.79
858.44	59.09
858.874	48.29
859.309	52.09
859.743	45.69
860.178	47.49
860.612	43.29
861.047	53.59
861.481	70.09
861.915	78.09
862.35	51.59
862.784	32.59
863.218	40.59
863.653	35.89
864.087	42.99
864.521	56.99
864.955	69.59
865.39	156.89
865.824	166.49
866.258	114.99
866.692	168.59
867.126	181.49
867.56	105.79
867.994	55.59
868.428	38.99
868.862	44.19
869.296	57.59
869.73	61.59
870.164	53.09
870.598	49.89
871.031	38.89
871.465	30.29
871.899	34.09
872.333	27.59
872.766	24.19
873.2	30.09
873.634	34.89
874.067	26.59
874.501	30.59
874.935	35.19
875.368	34.49
875.802	34.59
876.235	24.19
876.669	27.39
877.102	25.59
877.535	28.79
877.969	24.89
878.402	25.79
878.836	18.09
879.269	22.89
879.702	28.09
880.135	27.79
880.569	24.59
881.002	30.19
881.435	22.39
881.868	21.39
882.301	25.89
882.734	19.89
883.167	22.89
883.601	25.49
884.034	21.69
884.467	19.99
884.899	17.29
885.332	16.69
885.765	18.59
886.198	23.69
886.631	18.59
887.064	22.69
887.497	26.29
887.929	21.19
888.362	12.59
888.795	15.09
889.228	23.59
889.66	29.39
890.093	20.89
890.526	17.69
890.958	14.49
891.391	21.89
891.823	25.09
892.256	16.29
892.688	17.89
893.121	16.69
893.553	20.39
893.985	15.59
894.418	20.19
894.85	10.29
895.282	19.29
895.715	22.99
896.147	13.89
896.579	18.69
897.011	13.79
897.444	23.19
897.876	16.89
898.308	17.89
898.74	18.79
899.172	19.99
899.604	26.09
900.036	19.79
900.468	15.69
900.9	11.39
901.332	22.19
901.764	15.79
902.196	23.19
902.628	21.39
903.06	20.99
903.491	25.29
903.923	24.19
904.355	24.29
904.787	27.09
905.218	22.09
905.65	18.89
906.082	15.29
906.513	14.39
906.945	17.79
907.376	15.99
907.808	19.79
908.239	26.09
908.671	18.79
909.102	21.69
909.534	26.19
909.965	47.69
910.397	93.59
910.828	321.69
911.259	483.19
911.691	216.69
912.122	110.09
912.553	51.59
912.984	29.79
913.415	26.09
913.847	21.49
914.278	19.09
914.709	14.29
915.14	23.29
915.571	16.79
916.002	15.09
916.433	20.29
916.864	21.19
917.295	11.39
917.726	19.99
918.157	19.19
918.587	32.29
919.018	25.09
919.449	22.79
919.88	27.79
920.311	32.79
920.741	51.89
921.172	166.29
921.603	159.99
922.033	66.19
922.464	38.89
922.895	19.09
923.325	26.59
923.756	20.99
924.186	19.29
924.617	35.39
925.047	43.99
925.478	50.49
925.908	46.19
926.338	23.79
926.769	24.49
927.199	19.99
927.629	10.49
928.06	20.19
928.49	20.39
928.92	9.89
929.35	14.59
929.78	11.29
930.21	11.49
930.641	14.99
931.071	16.39
931.501	8.19
931.931	13.69
932.361	3.69
932.791	4.19
933.221	5.49
933.651	5.79
934.08	15.69
934.51	28.79
934.94	10.99
935.37	8.69
935.8	17.79
936.229	12.99
936.659	9.59
937.089	6.89
937.519	12.29
937.948	24.39
938.378	12.19
938.807	4.89
939.237	2.49
939.666	3.69
940.096	-6.21
940.525	4.99
940.955	3.69
941.384	5.29
941.814	-2.81
942.243	-4.71
942.672	0.39
943.102	3.19
943.531	2.19
943.96	2.39
944.39	1.09
944.819	5.59
945.248	7.39
945.677	3.59
946.106	3.69
946.535	7.79
946.964	4.49
947.393	3.59
947.822	3.89
948.251	-0.71
948.68	5.69
949.109	7.99
949.538	7.89
949.967	-4.41
950.396	4.49
950.825	3.59
951.254	5.69
951.682	-6.11
952.111	5.29
952.54	1.29
952.969	0.39
953.397	0.19
953.826	2.49
954.254	-0.31
954.683	1.09
955.112	-1.31
955.54	-0.81
955.969	4.49
956.397	0.89
956.826	0.19
957.254	1.39
957.682	-3.51
958.111	10.09
958.539	1.49
958.967	3.99
959.396	1.09
959.824	2.49
960.252	0.29
960.68	-1.81
961.109	-2.31
961.537	-2.91
961.965	0.89
962.393	1.69
962.821	2.29
963.249	1.39
963.677	3.49
964.105	6.09
964.533	42.59
964.961	41.09
965.389	21.59
965.817	11.29
966.245	2.39
966.672	-1.21
967.1	-7.91
967.528	0.59
967.956	-3.81
968.383	-1.51
968.811	0.29
969.239	-2.91
969.666	-3.21
970.094	2.69
970.522	0.69
970.949	2.69
971.377	-2.01
971.804	-1.11
972.232	-2.81
972.659	1.79
973.087	-6.71
973.514	-0.91
973.941	-2.31
974.369	4.89
974.796	7.79
975.223	4.09
975.651	0.89
976.078	0.89
976.505	-2.41
976.932	3.19
977.359	17.29
977.786	16.39
978.214	2.99
978.641	3.19
979.068	-2.21
979.495	3.19
979.922	-4.61
980.349	-2.71
980.776	5.39
981.202	1.79
981.629	7.09
982.056	6.09
982.483	-0.81
982.91	5.09
983.337	-4.91
983.763	3.19
984.19	-2.91
984.617	-1.11
985.043	1.69
985.47	0.19
985.897	0.69
986.323	-3.41
986.75	13.09
987.176	-1.21
987.603	-5.91
988.029	-0.61
988.456	3.09
988.882	5.69
989.308	-5.31
989.735	-3.91
990.161	1.59
990.587	-1.61
991.014	-0.51
991.44	10.09
991.866	-1.71
992.292	1.09
992.719	-2.61
993.145	1.19
993.571	-5.11
993.997	-2.21
994.423	0.59
994.849	-3.01
995.275	5.69
995.701	2.19
996.127	-1.41
996.553	2.59
996.979	-0.21
997.405	-1.21
997.83	-7.41
998.256	-4.41
998.682	-0.11
999.108	-5.81
999.534	-2.21
999.959	1.89
1000.385	-1.01
1000.811	1.09
1001.236	0.09
1001.662	-6.31
1002.087	-8.41
1002.513	3.09
1002.938	-0.31
1003.364	-7.91
1003.789	-0.31
1004.215	6.09
1004.64	-2.21
1005.066	4.59
1005.491	-0.91
1005.916	-0.91
1006.342	-6.21
1006.767	-7.61
1007.192	3.49
1007.617	-8.01
1008.042	-7.01
1008.468	-6.21
1008.893	2.69
1009.318	-1.01
1009.743	-3.71
1010.168	9.49
1010.593	2.29
1011.018	-6.91
1011.443	0.89
1011.868	3.09
1012.293	-2.31
1012.718	-4.31
1013.143	3.59
1013.567	-4.01
1013.992	1.09
1014.417	-13.91
1014.842	3.59
1015.267	-3.41
1015.691	-0.61
1016.116	3.69
1016.541	-3.91
1016.965	4.49
1017.39	2.49
1017.814	-3.61
1018.239	3.59
1018.663	-7.21
1019.088	-9.21
1019.512	-1.11
1019.937	1.49
1020.361	-0.11
1020.785	-3.51
1021.21	-1.31
1021.634	-3.11
1022.058	-5.51
1022.483	2.69
1022.907	-3.01
1023.331	-3.01
1023.755	0.99
1024.179	-1.61
1024.604	-14.61
1025.028	-9.11
1025.452	-2.31
1025.876	0.79
1026.3	-4.61
1026.724	-8.11
1027.148	1.09
1027.572	-9.21
1027.996	-2.61
1028.42	-5.01
1028.843	-5.01
1029.267	0.89
1029.691	-4.41
1030.115	-11.11
1030.539	-3.41
1030.962	-8.71
1031.386	-9.61
1031.81	2.59
1032.233	-1.01
1032.657	-1.01
1033.08	-6.21
1033.504	-2.41
1033.927	-8.61
1034.351	-5.41
1034.774	-2.01
1035.198	-1.11
1035.621	-5.11
1036.045	-6.71
1036.468	5.69
1036.891	-9.01
1037.315	-9.11
1037.738	-8.81
1038.161	-0.01
1038.584	-7.71
1039.008	-2.41
1039.431	-1.71
1039.854	-0.71
1040.277	-10.91
1040.7	-10.71
1041.123	1.39
1041.546	-8.01
1041.969	0.19
1042.392	-5.31
1042.815	-2.51
1043.238	-2.21
1043.661	-1.21
1044.084	0.19
1044.507	-1.81
1044.93	-1.01
1045.352	-2.31
1045.775	-2.81
1046.198	-2.11
1046.621	0.69
1047.043	0.69
1047.466	7.59
1047.889	-2.71
1048.311	-2.41
1048.734	-1.91
1049.156	1.69
1049.579	-1.91
1050.001	-1.61
1050.424	2.39
1050.846	1.29
1051.269	-2.21
1051.691	-8.21
1052.113	-8.71
1052.536	-3.51
1052.958	-4.01
1053.38	1.99
1053.802	-14.31
1054.225	3.29
1054.647	-2.91
1055.069	-4.31
1055.491	4.59
1055.913	-11.81
1056.335	-3.81
1056.757	-1.91
1057.179	-8.31
1057.601	-6.71
1058.023	-3.11
1058.445	-6.51
1058.867	-4.81
1059.289	-4.41
1059.711	-8.41
1060.133	-0.81
1060.555	-2.11
1060.976	-8.01
1061.398	-0.11
1061.82	-3.71
1062.241	-3.91
1062.663	-6.21
1063.085	-1.61
1063.506	0.39
1063.928	0.89
1064.35	1.89
1064.771	-10.81
1065.193	-3.61
1065.614	-8.31
1066.035	-4.21
1066.457	-2.81
1066.878	3.29
1067.3	-3.91
1067.721	-0.81
1068.142	-2.51
1068.564	-7.51
1068.985	-7.11
1069.406	-3.21
1069.827	-2.61
1070.248	-4.61
1070.67	-0.11
1071.091	-3.71
1071.512	0.19
1071.933	-1.71
1072.354	1.99
1072.775	-8.61
1073.196	-7.91
1073.617	-1.11
1074.038	-2.81
1074.459	1.19
1074.88	-7.11
1075.3	3.69
1075.721	-9.21
1076.142	2.29
1076.563	-1.11
1076.983	-5.21
1077.404	-2.91
1077.825	-12.31
1078.246	-7.41
1078.666	-5.81
1079.087	-1.61
1079.507	-6.81
1079.928	-1.11
1080.348	2.29
1080.769	-4.41
1081.189	-0.71
1081.61	4.59
1082.03	-3.01
1082.451	-3.11
1082.871	-1.61
1083.291	-4.81
1083.711	-11.61
1084.132	-3.01
1084.552	-5.21
1084.972	-4.01
1085.392	-2.61
1085.813	-9.71
1086.233	-4.41
1086.653	1.69
1087.073	-6.91
1087.493	-12.01
1087.913	-9.11
1088.333	-8.21
1088.753	-4.01
1089.173	3.49
1089.593	2.99
1090.013	2.79
1090.433	-4.61
1090.852	-2.71
1091.272	-3.71
1091.692	-2.11
1092.112	1.39
1092.531	-4.71
1092.951	-10.11
1093.371	-2.61
1093.79	2.39
1094.21	0.59
1094.63	-2.71
1095.049	-7.01
1095.469	2.69
1095.888	0.39
1096.308	2.49
1096.727	9.19
1097.146	-7.31
1097.566	6.09
1097.985	-6.21
1098.405	1.19
1098.824	-3.81
1099.243	-6.21
1099.662	-9.61
1100.082	-2.31
1100.501	-2.21
1100.92	-7.51
1101.339	-2.41
1101.758	-8.31
