Data from 20171114-ORNL-Ar_H_NY_Subt18_08-04-46-011.txt Node
Date: Tue Nov 14 08:04:46 EST 2017
User: Ender
Spectrometer: HR+D1039
Trigger mode: 0
Integration Time (sec): 2.730000E-2
Scans to average: 10
Electric dark correction enabled: true
Nonlinearity correction enabled: false
Boxcar width: 0
XAxis mode: Wavelengths
Number of Pixels in Spectrum: 2048
>>>>>Begin Spectral Data<<<<<
187.836	-8.71
188.309	-8.71
188.782	-8.71
189.255	6.29
189.728	-1.61
190.201	5.99
190.674	0.59
191.147	1.09
191.619	-12.31
192.092	6.99
192.565	5.59
193.038	-1.21
193.511	1.69
193.984	1.89
194.456	-3.01
194.929	-2.21
195.402	-1.71
195.874	0.59
196.347	-6.11
196.82	-3.71
197.292	6.19
197.765	0.79
198.237	-4.51
198.71	1.59
199.182	0.59
199.655	6.59
200.127	1.89
200.6	3.69
201.072	-9.11
201.544	-1.01
202.017	-3.51
202.489	2.99
202.961	-0.41
203.433	-5.21
203.906	-2.71
204.378	-3.61
204.85	0.59
205.322	-3.01
205.794	-0.21
206.266	0.59
206.739	-6.81
207.211	5.39
207.683	-6.81
208.155	-6.01
208.627	2.09
209.099	1.19
209.57	-9.81
210.042	-6.01
210.514	-1.51
210.986	7.29
211.458	-5.71
211.93	-1.61
212.402	4.09
212.873	-6.41
213.345	-2.51
213.817	-10.31
214.288	-0.51
214.76	-1.91
215.232	-0.71
215.703	5.99
216.175	-1.01
216.646	0.09
217.118	-12.61
217.589	-4.71
218.061	-2.61
218.532	-5.51
219.004	-0.31
219.475	-6.21
219.946	-0.81
220.418	-7.21
220.889	3.79
221.36	1.39
221.832	-4.71
222.303	0.59
222.774	4.29
223.245	-6.41
223.717	-4.01
224.188	1.89
224.659	-2.41
225.13	-1.61
225.601	1.59
226.072	8.09
226.543	-0.11
227.014	0.89
227.485	0.99
227.956	-1.61
228.427	-1.51
228.898	2.39
229.369	4.49
229.839	-2.11
230.31	-0.51
230.781	5.79
231.252	-2.21
231.722	0.59
232.193	3.59
232.664	7.09
233.135	4.99
233.605	0.19
234.076	-4.81
234.546	6.69
235.017	3.49
235.487	4.79
235.958	0.29
236.428	-0.41
236.899	12.59
237.369	5.69
237.84	0.29
238.31	8.99
238.78	0.99
239.251	0.59
239.721	6.69
240.191	2.89
240.662	1.99
241.132	2.59
241.602	-3.51
242.072	3.89
242.542	9.49
243.013	-2.41
243.483	-2.01
243.953	3.29
244.423	2.59
244.893	7.79
245.363	8.19
245.833	3.89
246.303	4.39
246.773	9.19
247.243	6.89
247.712	1.69
248.182	10.39
248.652	14.19
249.122	8.09
249.592	16.39
250.061	23.89
250.531	34.49
251.001	23.79
251.471	27.49
251.94	24.89
252.41	13.79
252.879	3.69
253.349	12.49
253.818	9.09
254.288	10.29
254.757	6.99
255.227	1.39
255.696	8.69
256.166	8.39
256.635	10.29
257.105	10.29
257.574	10.79
258.043	12.59
258.513	10.69
258.982	19.79
259.451	11.69
259.92	23.29
260.389	16.19
260.859	22.39
261.328	15.29
261.797	23.59
262.266	9.69
262.735	8.09
263.204	9.89
263.673	4.59
264.142	6.79
264.611	1.89
265.08	2.19
265.549	4.29
266.018	11.19
266.487	0.69
266.955	4.19
267.424	2.69
267.893	1.39
268.362	8.39
268.83	8.89
269.299	11.69
269.768	6.69
270.236	10.99
270.705	11.29
271.174	11.29
271.642	15.69
272.111	9.99
272.579	20.99
273.048	27.59
273.516	33.99
273.985	30.09
274.453	26.29
274.922	21.29
275.39	12.59
275.858	7.09
276.327	13.79
276.795	25.69
277.263	11.39
277.731	37.89
278.2	58.89
278.668	61.09
279.136	49.89
279.604	24.29
280.072	23.79
280.54	23.39
281.008	11.49
281.477	16.49
281.945	19.29
282.413	15.19
282.881	21.49
283.348	10.59
283.816	22.29
284.284	19.19
284.752	24.29
285.22	14.09
285.688	24.09
286.156	22.99
286.623	47.89
287.091	60.39
287.559	32.19
288.026	22.79
288.494	19.69
288.962	11.09
289.429	17.59
289.897	22.09
290.364	16.29
290.832	24.49
291.3	23.59
291.767	24.79
292.234	27.49
292.702	16.49
293.169	20.99
293.637	23.59
294.104	20.89
294.571	16.69
295.039	14.59
295.506	17.99
295.973	17.39
296.44	21.29
296.908	18.39
297.375	18.59
297.842	23.19
298.309	24.69
298.776	15.09
299.243	21.19
299.71	16.69
300.177	27.89
300.644	30.39
301.111	26.49
301.578	28.89
302.045	27.09
302.512	30.29
302.979	27.59
303.446	27.39
303.913	24.09
304.379	24.49
304.846	36.59
305.313	28.09
305.78	29.59
306.246	29.29
306.713	31.99
307.18	24.99
307.646	27.59
308.113	33.09
308.579	30.39
309.046	31.69
309.512	24.59
309.979	17.79
310.445	30.79
310.912	32.49
311.378	37.29
311.845	31.89
312.311	35.09
312.777	30.99
313.244	33.99
313.71	35.69
314.176	40.49
314.642	33.69
315.109	35.79
315.575	38.79
316.041	40.89
316.507	36.69
316.973	46.29
317.439	38.59
317.905	39.19
318.371	39.79
318.837	36.79
319.303	39.79
319.769	40.29
320.235	38.19
320.701	41.39
321.167	40.59
321.633	37.79
322.099	41.29
322.564	55.99
323.03	37.69
323.496	38.59
323.962	41.99
324.427	44.49
324.893	45.99
325.359	39.19
325.824	44.79
326.29	41.19
326.755	44.19
327.221	44.89
327.686	46.19
328.152	51.79
328.617	43.69
329.083	51.79
329.548	55.99
330.014	48.39
330.479	40.59
330.944	47.29
331.41	39.69
331.875	50.39
332.34	45.69
332.805	48.69
333.271	48.09
333.736	45.49
334.201	57.69
334.666	55.59
335.131	58.89
335.596	46.99
336.061	52.49
336.526	38.29
336.991	46.59
337.456	62.89
337.921	47.99
338.386	49.99
338.851	48.99
339.316	54.09
339.781	48.99
340.246	60.59
340.711	49.29
341.175	48.89
341.64	50.09
342.105	51.79
342.569	57.49
343.034	59.49
343.499	57.69
343.963	54.59
344.428	74.49
344.893	56.99
345.357	68.99
345.822	71.09
346.286	68.99
346.751	77.39
347.215	71.09
347.679	77.59
348.144	98.39
348.608	93.19
349.073	68.89
349.537	74.89
350.001	83.79
350.465	88.09
350.93	82.89
351.394	80.59
351.858	71.89
352.322	91.49
352.786	91.09
353.25	101.39
353.715	106.49
354.179	99.79
354.643	119.79
355.107	123.89
355.571	102.99
356.035	103.79
356.498	108.09
356.962	118.09
357.426	129.49
357.89	117.69
358.354	88.09
358.818	87.49
359.281	77.39
359.745	73.99
360.209	80.89
360.673	74.79
361.136	76.19
361.6	82.49
362.064	78.09
362.527	79.49
362.991	86.79
363.454	85.49
363.918	72.79
364.381	78.19
364.845	77.59
365.308	89.09
365.772	83.09
366.235	83.69
366.698	83.89
367.162	87.09
367.625	88.09
368.088	84.89
368.552	89.99
369.015	86.09
369.478	98.59
369.941	100.19
370.404	98.49
370.867	98.59
371.331	103.79
371.794	109.29
372.257	111.19
372.72	117.59
373.183	106.59
373.646	105.39
374.109	102.59
374.572	105.99
375.035	103.69
375.497	104.39
375.96	106.39
376.423	101.49
376.886	110.79
377.349	109.79
377.811	96.59
378.274	102.59
378.737	105.69
379.199	110.79
379.662	111.89
380.125	105.69
380.587	112.09
381.05	116.19
381.512	121.89
381.975	131.09
382.437	127.29
382.9	120.09
383.362	122.49
383.825	135.49
384.287	137.89
384.75	138.59
385.212	129.69
385.674	130.29
386.136	135.59
386.599	118.99
387.061	128.99
387.523	113.89
387.985	131.89
388.447	142.29
388.91	132.79
389.372	155.09
389.834	147.39
390.296	139.39
390.758	146.19
391.22	160.99
391.682	193.49
392.144	285.39
392.606	217.89
393.068	158.39
393.529	161.09
393.991	148.89
394.453	141.99
394.915	144.19
395.377	180.99
395.838	197.69
396.3	150.59
396.762	141.19
397.224	131.59
397.685	123.59
398.147	123.09
398.608	119.79
399.07	125.79
399.531	128.09
399.993	132.69
400.454	145.09
400.916	140.49
401.377	144.59
401.839	145.89
402.3	138.29
402.762	160.59
403.223	169.69
403.684	165.39
404.145	156.59
404.607	151.99
405.068	153.39
405.529	170.99
405.99	174.79
406.451	175.79
406.913	160.89
407.374	160.09
407.835	151.59
408.296	157.69
408.757	163.49
409.218	175.69
409.679	169.69
410.14	169.59
410.601	166.89
411.062	174.99
411.522	186.39
411.983	178.89
412.444	166.69
412.905	173.29
413.366	176.89
413.826	189.49
414.287	208.09
414.748	247.49
415.208	223.79
415.669	198.09
416.13	197.89
416.59	193.59
417.051	207.59
417.511	204.19
417.972	228.49
418.432	228.59
418.893	270.59
419.353	236.59
419.814	185.89
420.274	174.09
420.734	168.69
421.195	190.79
421.655	181.89
422.115	182.39
422.576	183.39
423.036	187.59
423.496	197.49
423.956	207.79
424.416	215.09
424.876	247.29
425.336	251.99
425.797	245.29
426.257	242.89
426.717	223.29
427.177	218.49
427.637	203.89
428.097	223.99
428.556	238.49
429.016	253.69
429.476	249.29
429.936	261.69
430.396	260.79
430.856	269.69
431.315	292.89
431.775	333.69
432.235	352.39
432.694	333.39
433.154	343.09
433.614	363.29
434.073	314.29
434.533	272.59
434.993	253.09
435.452	268.59
435.912	272.09
436.371	268.39
436.83	268.99
437.29	251.69
437.749	233.49
438.209	233.19
438.668	257.39
439.127	270.79
439.587	246.69
440.046	239.59
440.505	245.59
440.964	265.59
441.424	300.39
441.883	292.19
442.342	239.69
442.801	211.59
443.26	204.29
443.719	207.49
444.178	207.59
444.637	200.49
445.096	208.69
445.555	210.19
446.014	210.99
446.473	208.69
446.932	219.49
447.391	215.29
447.849	213.49
448.308	205.89
448.767	211.89
449.226	225.29
449.685	227.39
450.143	235.59
450.602	224.39
451.061	208.29
451.519	221.89
451.978	221.49
452.436	218.99
452.895	227.79
453.353	238.39
453.812	228.99
454.27	225.19
454.729	224.59
455.187	223.39
455.646	232.39
456.104	237.39
456.562	232.19
457.021	256.69
457.479	242.69
457.937	255.89
458.395	250.79
458.854	228.09
459.312	242.99
459.77	253.99
460.228	242.79
460.686	232.69
461.144	231.99
461.602	230.19
462.06	223.49
462.518	238.49
462.976	239.49
463.434	240.69
463.892	249.09
464.35	259.29
464.808	274.39
465.266	257.69
465.724	262.89
466.181	266.49
466.639	253.19
467.097	268.89
467.555	283.29
468.012	288.59
468.47	294.59
468.928	312.79
469.385	330.59
469.843	325.89
470.3	325.19
470.758	345.49
471.215	363.29
471.673	383.09
472.13	386.49
472.588	390.69
473.045	348.59
473.503	357.99
473.96	378.09
474.417	372.19
474.875	407.19
475.332	440.89
475.789	433.79
476.246	431.89
476.704	458.99
477.161	480.39
477.618	490.59
478.075	520.29
478.532	581.19
478.989	650.39
479.446	760.29
479.903	732.99
480.36	764.69
480.817	811.49
481.274	926.49
481.731	1028.29
482.188	1104.69
482.645	1243.09
483.102	1324.49
483.558	1464.09
484.015	1510.69
484.472	1494.19
484.929	1441.49
485.385	1402.09
485.842	1371.19
486.299	1297.79
486.755	1216.39
487.212	1040.49
487.668	872.59
488.125	802.79
488.582	741.79
489.038	713.29
489.494	672.09
489.951	654.89
490.407	632.29
490.864	621.19
491.32	605.89
491.776	610.49
492.233	596.49
492.689	573.49
493.145	559.59
493.602	559.69
494.058	581.79
494.514	573.19
494.97	599.59
495.426	615.19
495.882	591.49
496.338	576.29
496.794	593.59
497.251	589.09
497.707	605.09
498.163	606.29
498.618	616.89
499.074	614.69
499.53	632.09
499.986	636.99
500.442	613.39
500.898	602.99
501.354	595.49
501.809	600.69
502.265	605.19
502.721	628.19
503.177	643.99
503.632	630.19
504.088	652.29
504.543	674.79
504.999	670.29
505.455	622.29
505.91	600.69
506.366	602.69
506.821	589.69
507.277	604.59
507.732	590.69
508.187	590.29
508.643	597.49
509.098	601.99
509.553	613.99
510.009	623.59
510.464	627.29
510.919	646.19
511.375	662.99
511.83	665.19
512.285	683.99
512.74	721.29
513.195	740.49
513.65	737.69
514.105	732.89
514.56	734.89
515.015	754.39
515.47	774.79
515.925	748.49
516.38	753.99
516.835	754.69
517.29	745.89
517.745	735.89
518.2	721.49
518.655	711.59
519.109	703.29
519.564	705.79
520.019	692.09
520.474	690.89
520.928	688.19
521.383	675.99
521.838	674.29
522.292	676.29
522.747	674.59
523.201	655.49
523.656	654.39
524.11	643.79
524.565	647.19
525.019	646.19
525.474	664.29
525.928	662.19
526.382	657.89
526.837	654.29
527.291	662.99
527.745	658.89
528.2	658.39
528.654	647.79
529.108	646.19
529.562	653.79
530.016	650.99
530.47	647.49
530.925	647.59
531.379	664.69
531.833	664.49
532.287	655.89
532.741	658.99
533.195	672.79
533.649	677.69
534.103	676.39
534.556	668.39
535.01	667.19
535.464	664.99
535.918	685.09
536.372	685.59
536.826	677.59
537.279	655.79
537.733	667.09
538.187	665.79
538.64	683.79
539.094	683.49
539.548	685.49
540.001	668.29
540.455	677.79
540.908	684.99
541.362	687.19
541.815	698.79
542.269	709.39
542.722	709.79
543.175	722.29
543.629	722.39
544.082	726.59
544.536	735.39
544.989	735.19
545.442	744.19
545.895	736.59
546.349	732.49
546.802	735.19
547.255	746.99
547.708	753.19
548.161	760.59
548.614	758.19
549.067	784.99
549.52	773.89
549.973	764.29
550.426	750.69
550.879	741.79
551.332	742.79
551.785	760.09
552.238	756.59
552.691	766.19
553.144	768.49
553.596	795.19
554.049	801.79
554.502	833.69
554.955	861.69
555.407	857.29
555.86	848.79
556.313	832.09
556.765	824.19
557.218	834.09
557.67	831.39
558.123	819.19
558.576	813.49
559.028	818.49
559.48	813.59
559.933	819.19
560.385	782.59
560.838	742.39
561.29	727.39
561.742	719.99
562.195	711.09
562.647	712.39
563.099	707.69
563.551	717.39
564.004	738.29
564.456	714.39
564.908	711.59
565.36	692.89
565.812	671.89
566.264	670.69
566.716	673.89
567.168	662.39
567.62	676.79
568.072	660.89
568.524	640.09
568.976	636.19
569.428	610.89
569.88	618.09
570.332	630.19
570.784	625.29
571.235	632.19
571.687	637.59
572.139	639.99
572.59	661.99
573.042	661.09
573.494	655.79
573.945	651.49
574.397	640.39
574.849	636.29
575.3	638.99
575.752	630.89
576.203	631.59
576.655	645.19
577.106	620.39
577.557	617.19
578.009	620.79
578.46	614.19
578.912	611.69
579.363	608.39
579.814	617.79
580.265	614.49
580.717	622.29
581.168	622.79
581.619	625.59
582.07	625.69
582.521	630.79
582.972	619.99
583.423	626.49
583.875	622.19
584.326	642.99
584.777	672.19
585.227	760.59
585.678	828.49
586.129	928.19
586.58	992.69
587.031	1073.49
587.482	1229.09
587.933	1403.59
588.384	1209.89
588.834	892.19
589.285	729.19
589.736	719.89
590.186	708.29
590.637	696.29
591.088	674.79
591.538	673.19
591.989	665.69
592.439	664.19
592.89	657.09
593.34	648.89
593.791	643.29
594.241	644.59
594.692	645.79
595.142	646.99
595.593	631.49
596.043	643.39
596.493	660.19
596.943	647.39
597.394	663.89
597.844	647.89
598.294	657.39
598.744	683.19
599.195	700.89
599.645	747.49
600.095	780.69
600.545	823.59
600.995	865.79
601.445	936.59
601.895	993.59
602.345	1034.59
602.795	1011.29
603.245	964.69
603.695	913.39
604.145	863.29
604.594	826.69
605.044	777.29
605.494	731.39
605.944	678.09
606.393	674.99
606.843	660.49
607.293	666.39
607.743	659.99
608.192	666.79
608.642	686.89
609.091	690.49
609.541	696.49
609.99	688.89
610.44	683.29
610.889	649.59
611.339	627.59
611.788	624.09
612.238	624.99
612.687	652.89
613.136	647.99
613.586	666.19
614.035	668.29
614.484	688.49
614.933	681.69
615.383	683.39
615.832	671.09
616.281	648.69
616.73	622.59
617.179	605.19
617.628	584.79
618.077	568.89
618.526	563.29
618.975	548.69
619.424	551.89
619.873	549.59
620.322	551.59
620.771	535.49
621.22	539.09
621.669	537.79
622.118	526.69
622.567	525.39
623.015	507.39
623.464	514.99
623.913	503.19
624.361	491.79
624.81	495.39
625.259	495.09
625.707	505.59
626.156	498.29
626.604	501.59
627.053	500.59
627.501	497.99
627.95	502.29
628.398	513.59
628.847	509.89
629.295	507.99
629.744	514.89
630.192	511.19
630.64	506.99
631.089	505.19
631.537	523.09
631.985	517.39
632.433	531.49
632.881	537.19
633.33	579.89
633.778	564.49
634.226	505.69
634.674	498.29
635.122	514.09
635.57	542.49
636.018	560.09
636.466	515.19
636.914	492.19
637.362	514.19
637.81	520.99
638.258	511.29
638.705	508.29
639.153	540.29
639.601	543.59
640.049	569.89
640.497	605.79
640.944	617.49
641.392	578.69
641.84	546.79
642.287	516.19
642.735	509.89
643.182	515.39
643.63	506.69
644.078	510.79
644.525	521.29
644.973	526.29
645.42	529.59
645.867	550.19
646.315	565.89
646.762	588.89
647.21	619.39
647.657	638.19
648.104	676.89
648.551	685.49
648.999	732.69
649.446	800.49
649.893	888.59
650.34	1017.09
650.787	1228.39
651.234	1520.69
651.682	1958.79
652.129	2675.89
652.576	3851.49
653.023	5704.39
653.47	7861.09
653.917	9977.49
654.363	11644.29
654.81	13010.79
655.257	12402.19
655.704	8056.49
656.151	4718.19
656.598	3055.89
657.044	2157.09
657.491	1656.19
657.938	1322.99
658.385	1108.69
658.831	958.99
659.278	856.69
659.724	757.79
660.171	697.69
660.618	639.59
661.064	611.39
661.511	588.29
661.957	571.19
662.404	561.29
662.85	561.19
663.296	550.79
663.743	492.09
664.189	465.59
664.635	472.29
665.082	461.79
665.528	465.89
665.974	451.29
666.42	451.89
666.867	451.29
667.313	436.19
667.759	427.89
668.205	412.59
668.651	423.29
669.097	422.29
669.543	444.09
669.989	424.39
670.435	389.39
670.881	401.19
671.327	384.39
671.773	411.09
672.219	429.09
672.665	478.09
673.11	500.09
673.556	538.99
674.002	588.19
674.448	580.29
674.893	481.99
675.339	411.69
675.785	380.89
676.23	365.29
676.676	345.49
677.122	340.69
677.567	319.19
678.013	318.09
678.458	323.99
678.904	314.89
679.349	302.59
679.794	305.69
680.24	302.39
680.685	309.99
681.131	302.29
681.576	304.39
682.021	310.89
682.466	302.69
682.912	297.19
683.357	301.99
683.802	330.69
684.247	361.09
684.692	393.79
685.137	431.89
685.583	470.09
686.028	496.29
686.473	451.99
686.918	386.99
687.363	368.69
687.807	345.59
688.252	314.89
688.697	307.99
689.142	295.39
689.587	295.99
690.032	280.39
690.477	294.99
690.921	308.69
691.366	327.89
691.811	351.99
692.255	371.49
692.7	400.69
693.145	427.19
693.589	585.49
694.034	951.39
694.478	1321.09
694.923	1527.29
695.367	2017.59
695.812	1043.69
696.256	435.19
696.701	320.09
697.145	295.59
697.59	290.39
698.034	276.09
698.478	293.09
698.922	277.39
699.367	285.69
699.811	294.29
700.255	312.49
700.699	342.39
701.143	365.09
701.588	416.79
702.032	446.79
702.476	449.69
702.92	429.89
703.364	424.99
703.808	537.19
704.252	866.29
704.696	1235.59
705.14	1461.09
705.584	1876.39
706.027	930.49
706.471	456.49
706.915	341.39
707.359	302.39
707.803	275.59
708.246	262.19
708.69	264.49
709.134	268.69
709.577	270.89
710.021	272.59
710.465	266.79
710.908	256.09
711.352	258.19
711.795	268.69
712.239	301.59
712.682	334.69
713.126	362.19
713.569	404.89
714.012	323.19
714.456	284.09
714.899	262.39
715.342	233.69
715.786	231.49
716.229	222.89
716.672	222.29
717.115	216.49
717.558	216.39
718.002	215.69
718.445	228.89
718.888	243.29
719.331	251.59
719.774	267.89
720.217	266.29
720.66	250.59
721.103	232.09
721.546	224.09
721.989	215.89
722.432	193.59
722.874	205.39
723.317	198.79
723.76	206.69
724.203	218.09
724.645	281.19
725.088	383.19
725.531	492.89
725.974	560.99
726.416	478.49
726.859	262.49
727.301	209.69
727.744	198.09
728.187	199.79
728.629	212.39
729.071	211.09
729.514	216.59
729.956	237.09
730.399	242.79
730.841	247.09
731.283	239.59
731.726	228.69
732.168	226.79
732.61	227.89
733.053	242.99
733.495	272.29
733.937	299.39
734.379	348.19
734.821	369.39
735.263	462.39
735.705	703.49
736.148	1313.99
736.59	2194.99
737.032	2688.59
737.474	2199.09
737.916	695.99
738.357	370.59
738.799	287.29
739.241	260.69
739.683	248.19
740.125	251.89
740.567	257.99
741.008	277.19
741.45	276.39
741.892	273.89
742.334	305.09
742.775	313.69
743.217	293.79
743.658	231.49
744.1	221.49
744.542	226.09
744.983	274.49
745.425	298.39
745.866	303.09
746.307	248.29
746.749	244.79
747.19	280.59
747.632	382.79
748.073	716.29
748.514	1558.19
748.956	2461.79
749.397	3059.79
749.838	2547.29
750.279	2607.19
750.72	1307.39
751.162	471.19
751.603	277.79
752.044	217.09
752.485	186.79
752.926	181.09
753.367	174.49
753.808	161.09
754.249	163.49
754.69	153.29
755.131	153.89
755.572	153.19
756.013	156.29
756.453	164.29
756.894	168.79
757.335	160.59
757.776	166.19
758.216	167.49
758.657	166.59
759.098	171.79
759.538	201.39
759.979	227.89
760.42	306.99
760.86	594.49
761.301	1503.29
761.741	3752.99
762.182	5679.99
762.622	3990.49
763.063	1140.99
763.503	467.59
763.943	298.59
764.384	280.99
764.824	348.29
765.264	383.69
765.705	268.69
766.145	183.49
766.585	160.39
767.025	149.29
767.465	157.89
767.906	204.39
768.346	279.79
768.786	289.59
769.226	226.79
769.666	271.79
770.106	510.89
770.546	1301.49
770.986	2299.29
771.426	2097.89
771.866	692.29
772.306	289.89
772.745	185.39
773.185	152.79
773.625	146.69
774.065	141.89
774.505	165.19
774.944	262.99
775.384	575.19
775.824	1084.59
776.263	1072.99
776.703	450.59
777.142	192.79
777.582	140.69
778.021	121.79
778.461	115.49
778.9	123.19
779.34	114.89
779.779	102.39
780.219	98.19
780.658	98.09
781.097	96.59
781.537	98.49
781.976	95.39
782.415	88.89
782.855	86.19
783.294	95.69
783.733	93.69
784.172	94.49
784.611	83.99
785.05	97.19
785.489	89.49
785.928	101.39
786.367	102.09
786.806	101.49
787.245	110.39
787.684	121.29
788.123	125.69
788.562	117.09
789.001	116.39
789.44	103.39
789.879	97.79
790.317	98.29
790.756	110.89
791.195	111.79
791.634	123.59
792.072	173.09
792.511	301.99
792.95	822.59
793.388	1851.89
793.827	1713.69
794.265	583.19
794.704	243.09
795.142	159.19
795.581	137.19
796.019	121.69
796.458	107.69
796.896	104.19
797.334	117.39
797.773	129.89
798.211	186.29
798.649	358.59
799.087	857.69
799.526	1371.79
799.964	1715.29
800.402	1792.99
800.84	658.59
801.278	262.39
801.716	161.09
802.154	137.69
802.592	130.79
803.03	117.99
803.468	118.69
803.906	126.69
804.344	128.19
804.782	116.49
805.22	113.39
805.658	111.09
806.096	124.49
806.533	135.29
806.971	148.09
807.409	184.69
807.847	257.89
808.284	553.99
808.722	1550.29
809.16	2864.69
809.597	2639.89
810.035	4657.69
810.472	5179.99
810.91	1823.39
811.347	687.59
811.785	347.29
812.222	224.59
812.66	168.29
813.097	140.79
813.535	119.19
813.972	107.79
814.409	97.89
814.846	92.59
815.284	101.79
815.721	90.29
816.158	95.29
816.595	107.09
817.032	156.39
817.47	174.49
817.907	141.99
818.344	129.59
818.781	103.29
819.218	91.29
819.655	102.69
820.092	166.19
820.529	194.69
820.966	157.59
821.403	116.39
821.839	89.89
822.276	83.99
822.713	102.59
823.15	119.69
823.587	99.19
824.023	131.49
824.46	246.79
824.897	761.59
825.333	1196.89
825.77	517.59
826.206	201.89
826.643	122.09
827.08	87.09
827.516	71.29
827.953	63.79
828.389	66.79
828.825	67.09
829.262	58.79
829.698	53.99
830.135	57.19
830.571	46.99
831.007	50.19
831.443	55.39
831.88	57.29
832.316	62.49
832.752	59.19
833.188	52.19
833.624	56.39
834.06	55.39
834.497	59.99
834.933	63.39
835.369	61.99
835.805	59.29
836.241	68.59
836.677	70.09
837.112	78.29
837.548	86.89
837.984	111.99
838.42	167.29
838.856	411.99
839.292	1286.29
839.727	2025.29
840.163	931.29
840.599	769.89
841.034	1752.19
841.47	1889.69
841.906	686.59
842.341	292.29
842.777	199.09
843.212	278.69
843.648	277.89
844.083	136.09
844.519	82.59
844.954	64.79
845.39	51.89
845.825	44.19
846.261	52.39
846.696	41.99
847.131	44.49
847.566	53.49
848.002	43.69
848.437	46.49
848.872	56.19
849.307	58.19
849.742	64.69
850.177	147.79
850.613	473.79
851.048	772.89
851.483	330.49
851.918	128.29
852.353	76.09
852.788	51.09
853.223	48.99
853.657	44.49
854.092	47.69
854.527	38.49
854.962	32.79
855.397	40.79
855.832	48.09
856.266	36.99
856.701	35.79
857.136	35.59
857.57	31.79
858.005	40.79
858.44	51.49
858.874	39.69
859.309	41.59
859.743	36.89
860.178	45.19
860.612	36.69
861.047	46.59
861.481	59.19
861.915	58.09
862.35	42.29
862.784	30.79
863.218	32.79
863.653	32.99
864.087	37.59
864.521	47.59
864.955	59.49
865.39	136.79
865.824	154.39
866.258	90.39
866.692	146.29
867.126	158.19
867.56	89.69
867.994	46.79
868.428	35.89
868.862	43.49
869.296	48.79
869.73	55.59
870.164	48.79
870.598	41.29
871.031	33.69
871.465	29.79
871.899	33.19
872.333	20.59
872.766	26.29
873.2	19.09
873.634	28.89
874.067	20.89
874.501	21.79
874.935	26.49
875.368	29.59
875.802	27.99
876.235	28.99
876.669	23.09
877.102	20.49
877.535	27.09
877.969	16.89
878.402	21.09
878.836	14.09
879.269	24.59
879.702	29.09
880.135	18.79
880.569	20.19
881.002	31.49
881.435	26.29
881.868	10.69
882.301	22.49
882.734	10.09
883.167	22.89
883.601	18.79
884.034	23.49
884.467	8.89
884.899	20.89
885.332	17.99
885.765	13.89
886.198	12.39
886.631	18.49
887.064	14.19
887.497	18.09
887.929	19.59
888.362	11.89
888.795	11.59
889.228	22.59
889.66	22.09
890.093	22.39
890.526	17.19
890.958	11.89
891.391	13.49
891.823	23.49
892.256	14.99
892.688	9.39
893.121	23.89
893.553	13.79
893.985	16.09
894.418	14.69
894.85	12.19
895.282	13.69
895.715	18.59
896.147	13.49
896.579	15.09
897.011	14.99
897.444	13.59
897.876	8.49
898.308	17.99
898.74	17.29
899.172	17.19
899.604	20.59
900.036	17.09
900.468	10.49
900.9	10.99
901.332	11.89
901.764	17.09
902.196	13.29
902.628	17.29
903.06	11.49
903.491	27.79
903.923	22.69
904.355	18.49
904.787	25.59
905.218	20.39
905.65	16.89
906.082	11.39
906.513	15.29
906.945	14.59
907.376	11.89
907.808	16.19
908.239	21.69
908.671	20.69
909.102	18.59
909.534	22.69
909.965	41.29
910.397	80.19
910.828	266.39
911.259	425.49
911.691	193.49
912.122	92.39
912.553	46.39
912.984	27.39
913.415	23.69
913.847	20.19
914.278	10.39
914.709	13.59
915.14	22.09
915.571	14.29
916.002	13.09
916.433	16.69
916.864	15.89
917.295	14.19
917.726	14.99
918.157	11.89
918.587	19.99
919.018	20.99
919.449	18.99
919.88	23.89
920.311	28.79
920.741	37.49
921.172	139.19
921.603	133.19
922.033	60.79
922.464	35.39
922.895	22.89
923.325	17.29
923.756	13.89
924.186	14.09
924.617	19.49
925.047	35.59
925.478	46.29
925.908	42.89
926.338	23.39
926.769	16.89
927.199	21.49
927.629	6.59
928.06	18.29
928.49	11.79
928.92	16.19
929.35	12.69
929.78	10.49
930.21	4.19
930.641	5.99
931.071	7.79
931.501	3.59
931.931	7.19
932.361	9.59
932.791	3.89
933.221	7.79
933.651	7.39
934.08	11.99
934.51	29.59
934.94	10.69
935.37	6.79
935.8	6.39
936.229	10.39
936.659	10.79
937.089	2.19
937.519	12.29
937.948	21.59
938.378	12.09
938.807	1.39
939.237	4.19
939.666	7.89
940.096	-3.01
940.525	0.69
940.955	2.79
941.384	5.09
941.814	-6.01
942.243	4.69
942.672	2.69
943.102	0.79
943.531	6.29
943.96	2.29
944.39	4.99
944.819	-1.61
945.248	4.39
945.677	6.99
946.106	2.19
946.535	2.79
946.964	3.89
947.393	0.19
947.822	-1.91
948.251	-2.21
948.68	5.79
949.109	8.09
949.538	6.49
949.967	1.39
950.396	-4.41
950.825	-3.71
951.254	2.79
951.682	-2.71
952.111	9.19
952.54	7.39
952.969	-2.21
953.397	-2.51
953.826	3.39
954.254	-3.31
954.683	0.29
955.112	-0.11
955.54	4.79
955.969	0.89
956.397	0.39
956.826	6.09
957.254	11.09
957.682	8.19
958.111	6.29
958.539	3.19
958.967	-1.11
959.396	4.29
959.824	-0.41
960.252	1.19
960.68	-4.51
961.109	1.59
961.537	-2.91
961.965	2.69
962.393	-0.51
962.821	-6.01
963.249	4.69
963.677	8.79
964.105	8.69
964.533	41.69
964.961	40.19
965.389	18.79
965.817	5.29
966.245	4.29
966.672	-2.81
967.1	-4.51
967.528	0.19
967.956	2.29
968.383	-0.01
968.811	0.79
969.239	-3.91
969.666	2.69
970.094	2.19
970.522	3.49
970.949	2.49
971.377	-1.51
971.804	-1.01
972.232	-3.81
972.659	-2.11
973.087	-2.41
973.514	-2.01
973.941	0.39
974.369	3.39
974.796	3.69
975.223	1.99
975.651	-1.81
976.078	-1.21
976.505	5.79
976.932	0.39
977.359	15.79
977.786	12.99
978.214	-2.21
978.641	-3.61
979.068	-7.41
979.495	-2.81
979.922	3.09
980.349	-0.41
980.776	7.79
981.202	2.69
981.629	5.49
982.056	2.99
982.483	0.29
982.91	0.69
983.337	-2.41
983.763	5.69
984.19	-6.81
984.617	-0.71
985.043	-2.61
985.47	-3.41
985.897	-4.91
986.323	-3.21
986.75	6.29
987.176	-2.41
987.603	5.09
988.029	-0.21
988.456	-0.81
988.882	-1.51
989.308	-0.21
989.735	-5.91
990.161	7.19
990.587	-6.31
991.014	3.69
991.44	9.19
991.866	3.79
992.292	-3.61
992.719	-5.81
993.145	0.69
993.571	-5.41
993.997	-2.41
994.423	-1.41
994.849	-7.61
995.275	4.49
995.701	2.39
996.127	-0.71
996.553	4.59
996.979	-3.61
997.405	1.19
997.83	-1.31
998.256	-3.81
998.682	-1.41
999.108	-0.81
999.534	4.49
999.959	-4.11
1000.385	-0.71
1000.811	0.79
1001.236	-6.31
1001.662	-8.21
1002.087	-8.11
1002.513	4.59
1002.938	-1.01
1003.364	-5.41
1003.789	1.19
1004.215	3.89
1004.64	1.29
1005.066	0.69
1005.491	5.79
1005.916	-5.61
1006.342	-1.71
1006.767	-6.01
1007.192	5.09
1007.617	1.89
1008.042	-3.01
1008.468	-6.91
1008.893	-7.21
1009.318	-2.51
1009.743	-1.01
1010.168	11.49
1010.593	-3.51
1011.018	-2.31
1011.443	2.29
1011.868	5.29
1012.293	-3.21
1012.718	-3.41
1013.143	5.29
1013.567	-2.31
1013.992	1.39
1014.417	-6.91
1014.842	6.49
1015.267	-2.51
1015.691	-2.51
1016.116	4.19
1016.541	5.09
1016.965	4.89
1017.39	7.19
1017.814	3.69
1018.239	-0.61
1018.663	-1.81
1019.088	-12.31
1019.512	5.09
1019.937	3.79
1020.361	5.19
1020.785	-2.11
1021.21	-1.41
1021.634	0.19
1022.058	1.59
1022.483	6.89
1022.907	-3.11
1023.331	-0.61
1023.755	-9.11
1024.179	2.09
1024.604	-9.61
1025.028	-4.91
1025.452	-1.91
1025.876	-1.81
1026.3	4.39
1026.724	-11.31
1027.148	-4.71
1027.572	-3.21
1027.996	-1.21
1028.42	1.89
1028.843	-2.41
1029.267	-4.61
1029.691	1.99
1030.115	1.39
1030.539	-8.61
1030.962	-5.31
1031.386	-5.91
1031.81	-0.71
1032.233	-0.61
1032.657	-1.01
1033.08	3.59
1033.504	-6.81
1033.927	-2.01
1034.351	-0.11
1034.774	-0.81
1035.198	-2.61
1035.621	-2.91
1036.045	-6.61
1036.468	4.59
1036.891	-4.81
1037.315	-5.41
1037.738	-10.01
1038.161	-3.51
1038.584	-2.81
1039.008	0.19
1039.431	-0.01
1039.854	-1.81
1040.277	-6.41
1040.7	-4.61
1041.123	1.99
1041.546	-1.41
1041.969	0.09
1042.392	-2.71
1042.815	-5.11
1043.238	-0.71
1043.661	3.39
1044.084	-5.41
1044.507	-2.51
1044.93	-1.81
1045.352	-10.61
1045.775	-1.81
1046.198	-0.81
1046.621	2.09
1047.043	5.29
1047.466	7.79
1047.889	-3.61
1048.311	-3.51
1048.734	0.29
1049.156	-0.11
1049.579	3.39
1050.001	-8.11
1050.424	-0.11
1050.846	-2.41
1051.269	-3.51
1051.691	-0.31
1052.113	-4.01
1052.536	3.09
1052.958	-0.41
1053.38	-2.91
1053.802	-8.41
1054.225	2.29
1054.647	-6.41
1055.069	-7.91
1055.491	1.59
1055.913	-9.01
1056.335	3.59
1056.757	-6.31
1057.179	-4.81
1057.601	-6.91
1058.023	-3.61
1058.445	-7.51
1058.867	-3.21
1059.289	-5.51
1059.711	-5.61
1060.133	-1.61
1060.555	-2.01
1060.976	-3.21
1061.398	-2.81
1061.82	-6.61
1062.241	1.89
1062.663	-3.41
1063.085	-5.01
1063.506	2.49
1063.928	-1.71
1064.35	-1.51
1064.771	-12.71
1065.193	-1.91
1065.614	-6.81
1066.035	0.29
1066.457	0.49
1066.878	3.79
1067.3	-0.01
1067.721	-3.51
1068.142	-3.21
1068.564	-2.31
1068.985	-0.31
1069.406	0.19
1069.827	1.19
1070.248	-3.51
1070.67	-3.61
1071.091	-3.01
1071.512	-6.11
1071.933	-6.71
1072.354	-3.41
1072.775	-6.71
1073.196	-7.41
1073.617	-2.61
1074.038	-3.21
1074.459	-2.91
1074.88	-10.71
1075.3	4.89
1075.721	-2.71
1076.142	0.09
1076.563	-3.21
1076.983	-11.81
1077.404	-3.21
1077.825	-5.71
1078.246	1.49
1078.666	-6.01
1079.087	-0.81
1079.507	-7.21
1079.928	4.29
1080.348	1.19
1080.769	-8.91
1081.189	2.99
1081.61	0.19
1082.03	0.39
1082.451	-6.31
1082.871	4.09
1083.291	-6.51
1083.711	-10.21
1084.132	2.29
1084.552	-3.21
1084.972	4.09
1085.392	-9.71
1085.813	-4.51
1086.233	-1.41
1086.653	-2.11
1087.073	4.19
1087.493	-8.31
1087.913	-8.81
1088.333	-3.91
1088.753	-1.11
1089.173	0.39
1089.593	-3.01
1090.013	0.09
1090.433	5.19
1090.852	-5.11
1091.272	1.59
1091.692	0.09
1092.112	-3.01
1092.531	-8.41
1092.951	-12.31
1093.371	-3.01
1093.79	3.79
1094.21	-1.81
1094.63	-4.01
1095.049	1.69
1095.469	2.89
1095.888	-0.01
1096.308	3.79
1096.727	4.89
1097.146	-3.01
1097.566	1.79
1097.985	-0.31
1098.405	0.79
1098.824	-2.11
1099.243	-0.61
1099.662	-0.71
1100.082	1.09
1100.501	-3.41
1100.92	-2.61
1101.339	-1.41
1101.758	-6.71
