Data from 20171114-ORNL-Ar_H_NY_Subt18_08-06-08-450.txt Node
Date: Tue Nov 14 08:06:08 EST 2017
User: Ender
Spectrometer: HR+D1039
Trigger mode: 0
Integration Time (sec): 2.730000E-2
Scans to average: 10
Electric dark correction enabled: true
Nonlinearity correction enabled: false
Boxcar width: 0
XAxis mode: Wavelengths
Number of Pixels in Spectrum: 2048
>>>>>Begin Spectral Data<<<<<
187.836	-7.02
188.309	-7.02
188.782	-7.02
189.255	-0.12
189.728	1.98
190.201	7.38
190.674	-2.82
191.147	5.78
191.619	-5.62
192.092	0.08
192.565	5.88
193.038	1.38
193.511	-4.92
193.984	-2.12
194.456	-0.32
194.929	3.08
195.402	-1.12
195.874	-1.52
196.347	6.38
196.82	-7.82
197.292	2.78
197.765	-1.12
198.237	-2.62
198.71	0.58
199.182	-4.42
199.655	0.28
200.127	1.38
200.6	-3.22
201.072	-9.42
201.544	-3.52
202.017	-0.92
202.489	0.68
202.961	1.18
203.433	-3.42
203.906	-4.42
204.378	-8.12
204.85	-8.92
205.322	-9.22
205.794	0.08
206.266	-3.72
206.739	-10.52
207.211	3.38
207.683	-8.92
208.155	-0.32
208.627	-8.12
209.099	-4.32
209.57	-15.22
210.042	-3.12
210.514	-5.22
210.986	-1.22
211.458	-9.52
211.93	-2.32
212.402	1.68
212.873	-6.52
213.345	-12.62
213.817	-8.72
214.288	-4.52
214.76	-15.22
215.232	-5.42
215.703	-6.12
216.175	-1.32
216.646	5.68
217.118	-1.42
217.589	-8.62
218.061	-9.42
218.532	-5.02
219.004	-2.32
219.475	-6.52
219.946	-1.32
220.418	-4.92
220.889	4.28
221.36	1.58
221.832	-5.02
222.303	-4.22
222.774	2.58
223.245	-13.72
223.717	-5.72
224.188	-10.22
224.659	-9.92
225.13	-0.92
225.601	2.18
226.072	4.38
226.543	-5.22
227.014	0.78
227.485	-3.92
227.956	-5.02
228.427	-6.32
228.898	-5.22
229.369	3.48
229.839	1.28
230.31	-4.92
230.781	-5.32
231.252	-0.02
231.722	-3.82
232.193	-8.72
232.664	-4.32
233.135	2.08
233.605	-1.62
234.076	-7.12
234.546	4.78
235.017	3.88
235.487	1.38
235.958	-0.72
236.428	-5.52
236.899	4.68
237.369	7.48
237.84	-0.12
238.31	4.28
238.78	7.58
239.251	-1.32
239.721	5.58
240.191	6.68
240.662	1.88
241.132	-0.42
241.602	2.28
242.072	3.18
242.542	0.08
243.013	1.28
243.483	4.18
243.953	3.88
244.423	-4.82
244.893	-1.92
245.363	-0.32
245.833	2.08
246.303	-8.72
246.773	5.58
247.243	6.48
247.712	2.38
248.182	6.38
248.652	-0.22
249.122	-3.02
249.592	9.78
250.061	30.58
250.531	35.68
251.001	15.18
251.471	22.98
251.94	22.18
252.41	4.98
252.879	-4.72
253.349	17.88
253.818	7.68
254.288	14.28
254.757	0.88
255.227	0.78
255.696	4.18
256.166	8.38
256.635	7.28
257.105	6.48
257.574	2.08
258.043	10.38
258.513	13.38
258.982	20.38
259.451	11.28
259.92	15.68
260.389	14.48
260.859	21.78
261.328	9.08
261.797	22.28
262.266	7.18
262.735	17.68
263.204	6.78
263.673	6.68
264.142	7.98
264.611	-0.62
265.08	-0.12
265.549	-2.62
266.018	2.38
266.487	-2.02
266.955	-0.72
267.424	-0.62
267.893	5.38
268.362	1.98
268.83	2.18
269.299	13.08
269.768	8.48
270.236	2.38
270.705	-0.12
271.174	5.88
271.642	5.68
272.111	11.18
272.579	19.48
273.048	22.58
273.516	27.88
273.985	30.18
274.453	23.88
274.922	19.98
275.39	6.98
275.858	3.78
276.327	18.18
276.795	18.98
277.263	10.48
277.731	29.18
278.2	57.98
278.668	65.98
279.136	50.08
279.604	24.48
280.072	13.98
280.54	8.18
281.008	14.38
281.477	16.78
281.945	18.58
282.413	10.88
282.881	19.08
283.348	5.98
283.816	22.28
284.284	13.08
284.752	26.18
285.22	16.28
285.688	17.68
286.156	22.58
286.623	46.38
287.091	57.88
287.559	30.88
288.026	18.88
288.494	18.78
288.962	7.08
289.429	8.58
289.897	16.78
290.364	13.08
290.832	13.68
291.3	17.48
291.767	18.18
292.234	23.08
292.702	17.88
293.169	14.88
293.637	21.68
294.104	15.88
294.571	10.98
295.039	12.68
295.506	13.28
295.973	19.38
296.44	16.98
296.908	21.58
297.375	17.48
297.842	19.78
298.309	15.98
298.776	14.18
299.243	19.58
299.71	17.08
300.177	27.78
300.644	21.48
301.111	21.98
301.578	29.08
302.045	21.08
302.512	23.58
302.979	27.38
303.446	18.98
303.913	24.38
304.379	12.78
304.846	27.98
305.313	27.38
305.78	24.18
306.246	22.38
306.713	27.28
307.18	23.78
307.646	28.88
308.113	28.08
308.579	27.18
309.046	24.38
309.512	26.68
309.979	21.68
310.445	25.68
310.912	34.18
311.378	34.38
311.845	31.28
312.311	34.58
312.777	32.28
313.244	32.78
313.71	36.78
314.176	26.38
314.642	29.88
315.109	32.78
315.575	37.28
316.041	43.58
316.507	29.68
316.973	41.88
317.439	34.08
317.905	40.48
318.371	45.58
318.837	33.78
319.303	31.38
319.769	32.28
320.235	35.48
320.701	38.98
321.167	39.28
321.633	36.48
322.099	43.88
322.564	46.28
323.03	38.18
323.496	46.28
323.962	40.58
324.427	39.18
324.893	42.28
325.359	37.28
325.824	37.48
326.29	32.08
326.755	49.48
327.221	42.98
327.686	41.98
328.152	46.38
328.617	44.68
329.083	46.88
329.548	53.98
330.014	49.98
330.479	44.48
330.944	43.28
331.41	49.68
331.875	47.78
332.34	40.88
332.805	49.08
333.271	41.38
333.736	45.28
334.201	56.08
334.666	54.08
335.131	55.08
335.596	51.38
336.061	50.58
336.526	44.68
336.991	43.58
337.456	62.48
337.921	50.78
338.386	43.58
338.851	43.98
339.316	55.88
339.781	51.78
340.246	54.18
340.711	49.48
341.175	56.68
341.64	46.18
342.105	60.58
342.569	56.18
343.034	55.78
343.499	59.48
343.963	56.48
344.428	66.88
344.893	57.98
345.357	66.08
345.822	63.48
346.286	63.58
346.751	74.88
347.215	66.28
347.679	78.58
348.144	101.98
348.608	90.28
349.073	75.28
349.537	75.18
350.001	79.68
350.465	89.88
350.93	84.78
351.394	76.88
351.858	72.08
352.322	90.28
352.786	86.18
353.25	104.98
353.715	109.38
354.179	97.88
354.643	124.18
355.107	130.48
355.571	111.28
356.035	108.48
356.498	119.68
356.962	124.18
357.426	136.48
357.89	121.78
358.354	92.88
358.818	83.58
359.281	78.48
359.745	76.08
360.209	80.78
360.673	72.08
361.136	80.88
361.6	80.68
362.064	92.18
362.527	83.68
362.991	84.18
363.454	79.38
363.918	77.58
364.381	80.78
364.845	81.68
365.308	94.48
365.772	87.48
366.235	82.88
366.698	80.48
367.162	93.68
367.625	92.28
368.088	90.08
368.552	87.78
369.015	90.18
369.478	98.68
369.941	101.78
370.404	96.58
370.867	102.28
371.331	112.38
371.794	112.28
372.257	112.28
372.72	118.58
373.183	112.88
373.646	102.78
374.109	99.38
374.572	108.38
375.035	111.78
375.497	111.38
375.96	108.78
376.423	104.78
376.886	110.68
377.349	110.68
377.811	102.38
378.274	103.78
378.737	107.48
379.199	115.48
379.662	110.08
380.125	118.18
380.587	131.38
381.05	126.08
381.512	122.68
381.975	139.28
382.437	129.78
382.9	129.38
383.362	138.98
383.825	145.58
384.287	146.28
384.75	147.18
385.212	139.18
385.674	144.98
386.136	136.58
386.599	128.58
387.061	134.68
387.523	130.98
387.985	138.38
388.447	149.28
388.91	149.78
389.372	164.28
389.834	155.98
390.296	150.08
390.758	162.58
391.22	177.18
391.682	209.38
392.144	302.28
392.606	233.98
393.068	175.88
393.529	176.48
393.991	158.98
394.453	150.88
394.915	156.98
395.377	197.48
395.838	219.28
396.3	159.08
396.762	143.08
397.224	138.98
397.685	128.88
398.147	131.68
398.608	129.28
399.07	129.98
399.531	135.08
399.993	143.48
400.454	157.68
400.916	150.58
401.377	148.98
401.839	155.88
402.3	159.58
402.762	167.38
403.223	182.88
403.684	174.08
404.145	158.38
404.607	164.58
405.068	164.68
405.529	182.18
405.99	192.68
406.451	174.88
406.913	178.58
407.374	167.28
407.835	166.48
408.296	162.48
408.757	172.68
409.218	193.88
409.679	180.28
410.14	178.38
410.601	184.58
411.062	184.18
411.522	194.58
411.983	200.88
412.444	180.38
412.905	193.48
413.366	187.88
413.826	202.38
414.287	219.48
414.748	263.68
415.208	246.98
415.669	211.38
416.13	200.38
416.59	201.88
417.051	214.58
417.511	219.68
417.972	243.08
418.432	250.78
418.893	291.78
419.353	254.58
419.814	198.08
420.274	184.88
420.734	184.98
421.195	206.98
421.655	199.28
422.115	197.58
422.576	200.38
423.036	201.98
423.496	207.68
423.956	219.48
424.416	233.58
424.876	265.98
425.336	268.58
425.797	267.68
426.257	269.18
426.717	243.58
427.177	242.88
427.637	227.18
428.097	235.38
428.556	255.28
429.016	271.78
429.476	272.88
429.936	282.48
430.396	282.58
430.856	297.38
431.315	331.08
431.775	363.48
432.235	396.38
432.694	361.48
433.154	371.58
433.614	401.98
434.073	348.38
434.533	300.68
434.993	273.98
435.452	295.38
435.912	306.98
436.371	291.18
436.83	288.98
437.29	278.08
437.749	252.98
438.209	252.58
438.668	279.98
439.127	294.58
439.587	268.58
440.046	255.28
440.505	263.28
440.964	275.38
441.424	327.18
441.883	328.08
442.342	257.18
442.801	233.68
443.26	213.18
443.719	226.38
444.178	224.18
444.637	208.78
445.096	222.68
445.555	234.48
446.014	224.98
446.473	223.68
446.932	235.98
447.391	225.08
447.849	230.28
448.308	228.08
448.767	228.98
449.226	238.98
449.685	239.28
450.143	252.98
450.602	236.68
451.061	228.38
451.519	236.78
451.978	231.58
452.436	240.08
452.895	243.48
453.353	257.78
453.812	243.88
454.27	234.58
454.729	240.68
455.187	245.68
455.646	250.28
456.104	253.08
456.562	265.88
457.021	278.78
457.479	268.28
457.937	282.68
458.395	265.38
458.854	242.68
459.312	263.98
459.77	275.58
460.228	260.18
460.686	247.38
461.144	249.38
461.602	244.68
462.06	248.08
462.518	255.38
462.976	257.58
463.434	267.38
463.892	264.48
464.35	283.98
464.808	284.88
465.266	275.08
465.724	265.18
466.181	277.48
466.639	267.38
467.097	300.38
467.555	312.28
468.012	308.38
468.47	318.38
468.928	336.48
469.385	355.48
469.843	351.08
470.3	357.78
470.758	376.08
471.215	394.48
471.673	420.88
472.13	407.18
472.588	432.98
473.045	377.18
473.503	384.78
473.96	401.08
474.417	405.08
474.875	439.88
475.332	484.98
475.789	471.08
476.246	476.88
476.704	496.18
477.161	519.78
477.618	536.18
478.075	570.68
478.532	623.98
478.989	697.68
479.446	825.98
479.903	791.08
480.36	834.18
480.817	894.68
481.274	991.98
481.731	1103.28
482.188	1196.68
482.645	1333.38
483.102	1445.68
483.558	1581.58
484.015	1627.08
484.472	1619.58
484.929	1553.08
485.385	1502.88
485.842	1460.88
486.299	1397.28
486.755	1332.88
487.212	1119.98
487.668	955.48
488.125	873.78
488.582	801.88
489.038	767.58
489.494	719.88
489.951	698.88
490.407	680.28
490.864	665.58
491.32	649.68
491.776	656.18
492.233	659.88
492.689	629.68
493.145	621.48
493.602	614.58
494.058	627.58
494.514	630.48
494.97	653.88
495.426	659.28
495.882	639.38
496.338	626.38
496.794	643.98
497.251	635.88
497.707	647.38
498.163	653.78
498.618	654.18
499.074	660.58
499.53	701.98
499.986	696.38
500.442	668.68
500.898	640.68
501.354	634.18
501.809	646.38
502.265	659.38
502.721	676.98
503.177	688.38
503.632	676.78
504.088	686.58
504.543	725.68
504.999	730.58
505.455	669.98
505.91	647.08
506.366	657.68
506.821	638.08
507.277	634.38
507.732	639.08
508.187	635.98
508.643	640.68
509.098	639.78
509.553	671.88
510.009	674.58
510.464	678.68
510.919	698.58
511.375	710.58
511.83	720.18
512.285	743.88
512.74	781.38
513.195	804.38
513.65	793.88
514.105	780.38
514.56	797.08
515.015	811.18
515.47	819.98
515.925	805.78
516.38	805.18
516.835	812.08
517.29	799.88
517.745	787.98
518.2	777.28
518.655	762.48
519.109	761.18
519.564	752.88
520.019	740.18
520.474	745.28
520.928	737.58
521.383	739.28
521.838	725.18
522.292	720.38
522.747	726.78
523.201	714.18
523.656	712.28
524.11	703.68
524.565	710.88
525.019	703.48
525.474	708.08
525.928	713.28
526.382	709.48
526.837	703.28
527.291	710.68
527.745	707.98
528.2	710.28
528.654	699.58
529.108	701.08
529.562	702.28
530.016	695.98
530.47	701.68
530.925	705.28
531.379	716.08
531.833	718.48
532.287	705.88
532.741	711.88
533.195	718.78
533.649	731.68
534.103	739.18
534.556	722.68
535.01	721.38
535.464	720.88
535.918	740.08
536.372	730.58
536.826	734.28
537.279	715.28
537.733	723.28
538.187	731.58
538.64	737.68
539.094	734.78
539.548	736.58
540.001	741.28
540.455	737.28
540.908	737.98
541.362	741.48
541.815	752.08
542.269	767.98
542.722	767.88
543.175	783.08
543.629	779.28
544.082	800.98
544.536	795.88
544.989	800.18
545.442	799.28
545.895	802.98
546.349	794.78
546.802	802.58
547.255	796.88
547.708	824.28
548.161	832.28
548.614	829.28
549.067	842.98
549.52	828.28
549.973	824.28
550.426	817.58
550.879	798.88
551.332	803.68
551.785	820.08
552.238	824.98
552.691	835.68
553.144	838.08
553.596	863.18
554.049	877.38
554.502	903.68
554.955	922.38
555.407	914.38
555.86	909.68
556.313	907.58
556.765	893.68
557.218	893.68
557.67	895.08
558.123	899.08
558.576	882.68
559.028	892.38
559.48	898.48
559.933	893.78
560.385	851.38
560.838	810.38
561.29	788.38
561.742	789.38
562.195	783.98
562.647	774.48
563.099	782.98
563.551	786.58
564.004	794.48
564.456	792.08
564.908	774.18
565.36	760.18
565.812	736.98
566.264	732.68
566.716	733.88
567.168	725.48
567.62	732.28
568.072	717.48
568.524	708.28
568.976	704.68
569.428	676.08
569.88	674.48
570.332	694.48
570.784	691.18
571.235	697.98
571.687	707.58
572.139	725.48
572.59	718.08
573.042	730.58
573.494	720.28
573.945	714.48
574.397	694.78
574.849	692.18
575.3	700.48
575.752	695.58
576.203	691.28
576.655	693.08
577.106	679.98
577.557	671.78
578.009	676.48
578.46	671.28
578.912	670.28
579.363	669.48
579.814	676.28
580.265	672.38
580.717	679.28
581.168	670.48
581.619	679.18
582.07	681.98
582.521	678.08
582.972	677.88
583.423	691.58
583.875	685.28
584.326	702.08
584.777	756.88
585.227	839.68
585.678	930.68
586.129	1017.78
586.58	1099.48
587.031	1167.28
587.482	1340.98
587.933	1522.88
588.384	1319.88
588.834	992.78
589.285	809.38
589.736	784.98
590.186	779.58
590.637	781.68
591.088	754.78
591.538	741.48
591.989	738.28
592.439	736.28
592.89	724.88
593.34	718.18
593.791	712.68
594.241	703.38
594.692	714.78
595.142	710.18
595.593	710.08
596.043	726.38
596.493	731.48
596.943	726.68
597.394	728.78
597.844	725.48
598.294	736.58
598.744	757.58
599.195	778.18
599.645	829.18
600.095	863.08
600.545	917.38
600.995	971.68
601.445	1033.38
601.895	1087.08
602.345	1149.48
602.795	1128.98
603.245	1073.48
603.695	1020.18
604.145	955.18
604.594	915.28
605.044	860.68
605.494	800.88
605.944	757.08
606.393	744.48
606.843	737.28
607.293	736.18
607.743	740.58
608.192	742.68
608.642	769.38
609.091	779.18
609.541	786.78
609.99	765.78
610.44	771.48
610.889	721.68
611.339	713.18
611.788	691.38
612.238	700.88
612.687	719.98
613.136	724.08
613.586	739.48
614.035	745.28
614.484	762.88
614.933	769.48
615.383	762.98
615.832	743.18
616.281	725.68
616.73	682.88
617.179	673.68
617.628	653.38
618.077	629.98
618.526	634.78
618.975	625.98
619.424	619.48
619.873	613.98
620.322	617.78
620.771	609.78
621.22	607.98
621.669	603.18
622.118	584.88
622.567	583.58
623.015	577.38
623.464	575.08
623.913	563.38
624.361	551.58
624.81	555.18
625.259	552.48
625.707	555.88
626.156	559.38
626.604	577.48
627.053	568.38
627.501	572.38
627.95	567.78
628.398	569.18
628.847	579.28
629.295	566.68
629.744	580.38
630.192	569.48
630.64	573.08
631.089	560.68
631.537	590.48
631.985	592.98
632.433	607.38
632.881	612.88
633.33	664.88
633.778	649.28
634.226	566.78
634.674	578.18
635.122	589.58
635.57	615.58
636.018	630.48
636.466	585.18
636.914	557.78
637.362	571.98
637.81	568.58
638.258	581.58
638.705	579.48
639.153	607.68
639.601	608.98
640.049	649.28
640.497	678.08
640.944	689.78
641.392	650.38
641.84	627.58
642.287	588.78
642.735	563.58
643.182	573.18
643.63	571.38
644.078	574.88
644.525	588.18
644.973	590.38
645.42	605.78
645.867	622.38
646.315	637.78
646.762	656.38
647.21	690.58
647.657	716.28
648.104	749.58
648.551	773.28
648.999	839.38
649.446	914.88
649.893	1001.88
650.34	1167.28
650.787	1392.48
651.234	1730.28
651.682	2266.88
652.129	3088.88
652.576	4467.58
653.023	6592.18
653.47	9079.38
653.917	11357.38
654.363	13122.18
654.81	14514.68
655.257	13832.38
655.704	9040.18
656.151	5324.38
656.598	3460.68
657.044	2444.78
657.491	1876.08
657.938	1493.48
658.385	1239.58
658.831	1086.18
659.278	962.98
659.724	858.48
660.171	791.18
660.618	716.28
661.064	691.78
661.511	670.68
661.957	654.98
662.404	644.08
662.85	659.88
663.296	629.58
663.743	562.38
664.189	529.98
664.635	530.38
665.082	524.28
665.528	527.68
665.974	526.68
666.42	500.28
666.867	502.78
667.313	490.18
667.759	482.58
668.205	476.88
668.651	483.78
669.097	485.48
669.543	502.08
669.989	468.38
670.435	445.68
670.881	444.18
671.327	446.38
671.773	465.98
672.219	482.68
672.665	540.18
673.11	571.78
673.556	619.98
674.002	667.38
674.448	645.78
674.893	555.98
675.339	479.28
675.785	434.88
676.23	415.38
676.676	389.48
677.122	384.78
677.567	375.38
678.013	365.28
678.458	359.68
678.904	352.08
679.349	337.38
679.794	354.98
680.24	350.28
680.685	346.88
681.131	349.08
681.576	349.18
682.021	353.88
682.466	343.28
682.912	344.38
683.357	341.58
683.802	381.18
684.247	401.18
684.692	455.88
685.137	485.58
685.583	523.38
686.028	564.58
686.473	512.88
686.918	443.38
687.363	412.98
687.807	398.08
688.252	361.28
688.697	352.58
689.142	332.88
689.587	323.08
690.032	323.08
690.477	332.08
690.921	351.28
691.366	381.28
691.811	399.88
692.255	427.98
692.7	457.88
693.145	494.98
693.589	688.98
694.034	1105.98
694.478	1508.48
694.923	1714.88
695.367	2235.38
695.812	1183.18
696.256	504.08
696.701	363.78
697.145	332.98
697.59	322.58
698.034	316.88
698.478	324.98
698.922	318.18
699.367	322.18
699.811	341.28
700.255	345.58
700.699	384.78
701.143	422.88
701.588	470.28
702.032	511.08
702.476	507.88
702.92	479.78
703.364	480.58
703.808	625.18
704.252	1019.18
704.696	1433.28
705.14	1665.88
705.584	2113.38
706.027	1046.78
706.471	518.18
706.915	394.88
707.359	345.58
707.803	313.28
708.246	301.78
708.69	304.28
709.134	307.28
709.577	302.98
710.021	310.08
710.465	299.78
710.908	292.98
711.352	290.58
711.795	310.78
712.239	342.48
712.682	389.08
713.126	414.48
713.569	460.88
714.012	366.88
714.456	327.98
714.899	297.38
715.342	270.18
715.786	260.08
716.229	264.28
716.672	253.78
717.115	245.08
717.558	245.78
718.002	253.08
718.445	253.28
718.888	282.58
719.331	284.48
719.774	302.18
720.217	299.48
720.66	280.98
721.103	262.38
721.546	249.08
721.989	246.78
722.432	228.58
722.874	236.78
723.317	226.88
723.76	237.48
724.203	255.38
724.645	312.98
725.088	432.48
725.531	563.28
725.974	629.68
726.416	534.18
726.859	301.28
727.301	241.88
727.744	235.58
728.187	227.08
728.629	238.58
729.071	236.88
729.514	259.28
729.956	270.38
730.399	285.08
730.841	285.78
731.283	272.48
731.726	259.98
732.168	253.68
732.61	263.78
733.053	276.08
733.495	307.78
733.937	345.18
734.379	390.08
734.821	432.18
735.263	519.48
735.705	815.38
736.148	1518.48
736.59	2507.08
737.032	3002.68
737.474	2422.28
737.916	790.48
738.357	418.78
738.799	320.68
739.241	291.48
739.683	282.58
740.125	290.88
740.567	284.78
741.008	306.88
741.45	304.28
741.892	301.98
742.334	342.88
742.775	350.88
743.217	343.88
743.658	267.48
744.1	243.38
744.542	258.08
744.983	297.98
745.425	330.58
745.866	338.88
746.307	282.98
746.749	272.98
747.19	318.08
747.632	438.98
748.073	856.58
748.514	1818.58
748.956	2777.68
749.397	3511.08
749.838	2910.78
750.279	2914.78
750.72	1462.48
751.162	532.48
751.603	313.28
752.044	247.98
752.485	213.88
752.926	208.08
753.367	200.48
753.808	193.48
754.249	188.08
754.69	188.28
755.131	178.78
755.572	176.88
756.013	172.68
756.453	182.18
756.894	185.38
757.335	188.18
757.776	190.78
758.216	197.28
758.657	196.88
759.098	200.88
759.538	222.28
759.979	268.58
760.42	370.68
760.86	691.38
761.301	1764.88
761.741	4275.88
762.182	6334.48
762.622	4455.38
763.063	1276.68
763.503	531.18
763.943	340.18
764.384	335.18
764.824	402.08
765.264	430.38
765.705	299.68
766.145	207.08
766.585	180.98
767.025	177.58
767.465	177.88
767.906	232.78
768.346	319.38
768.786	338.98
769.226	264.68
769.666	312.38
770.106	599.48
770.546	1508.78
770.986	2591.78
771.426	2334.08
771.866	778.68
772.306	323.08
772.745	204.38
773.185	169.78
773.625	163.48
774.065	162.98
774.505	200.88
774.944	303.78
775.384	668.58
775.824	1221.38
776.263	1201.48
776.703	505.78
777.142	224.18
777.582	156.78
778.021	133.38
778.461	131.68
778.9	136.08
779.34	126.58
779.779	116.08
780.219	110.28
780.658	104.18
781.097	113.78
781.537	110.68
781.976	105.88
782.415	100.08
782.855	106.08
783.294	103.08
783.733	102.28
784.172	101.18
784.611	99.68
785.05	109.48
785.489	103.78
785.928	117.48
786.367	114.78
786.806	117.48
787.245	125.38
787.684	132.18
788.123	142.08
788.562	128.38
789.001	123.88
789.44	121.58
789.879	119.68
790.317	117.98
790.756	129.38
791.195	130.38
791.634	147.98
792.072	195.98
792.511	355.88
792.95	973.48
793.388	2087.58
793.827	1914.88
794.265	662.48
794.704	272.78
795.142	179.58
795.581	151.28
796.019	137.38
796.458	121.68
796.896	117.08
797.334	125.58
797.773	151.38
798.211	216.08
798.649	421.68
799.087	999.48
799.526	1551.08
799.964	1958.48
800.402	1993.88
800.84	742.68
801.278	292.38
801.716	183.68
802.154	146.78
802.592	141.88
803.03	130.58
803.468	136.98
803.906	139.38
804.344	145.98
804.782	137.48
805.22	133.48
805.658	124.48
806.096	145.58
806.533	152.48
806.971	164.78
807.409	210.88
807.847	302.88
808.284	637.78
808.722	1803.58
809.16	3213.48
809.597	3030.68
810.035	5285.78
810.472	5691.98
810.91	2045.68
811.347	780.48
811.785	394.68
812.222	255.18
812.66	189.28
813.097	166.38
813.535	139.38
813.972	131.08
814.409	112.78
814.846	103.38
815.284	107.88
815.721	95.78
816.158	105.48
816.595	116.58
817.032	172.58
817.47	189.48
817.907	168.58
818.344	155.18
818.781	116.38
819.218	100.28
819.655	114.88
820.092	172.48
820.529	207.28
820.966	170.78
821.403	133.58
821.839	107.88
822.276	102.98
822.713	118.78
823.15	131.98
823.587	109.08
824.023	148.38
824.46	288.98
824.897	866.98
825.333	1322.08
825.77	567.68
826.206	228.98
826.643	128.78
827.08	98.68
827.516	77.78
827.953	77.48
828.389	81.58
828.825	66.38
829.262	67.08
829.698	56.88
830.135	58.98
830.571	55.78
831.007	63.58
831.443	57.98
831.88	58.88
832.316	63.28
832.752	65.68
833.188	63.78
833.624	58.08
834.06	65.98
834.497	66.38
834.933	69.58
835.369	67.68
835.805	71.28
836.241	74.18
836.677	76.88
837.112	89.08
837.548	96.48
837.984	133.68
838.42	191.08
838.856	480.58
839.292	1474.18
839.727	2265.98
840.163	1063.58
840.599	897.48
841.034	1977.78
841.47	2089.78
841.906	749.48
842.341	326.08
842.777	223.48
843.212	316.08
843.648	313.98
844.083	147.38
844.519	93.58
844.954	78.78
845.39	53.28
845.825	54.58
846.261	56.68
846.696	61.18
847.131	54.08
847.566	60.48
848.002	52.68
848.437	56.88
848.872	61.78
849.307	58.58
849.742	83.98
850.177	172.08
850.613	537.08
851.048	872.28
851.483	372.08
851.918	149.08
852.353	84.88
852.788	61.08
853.223	60.88
853.657	59.08
854.092	48.68
854.527	38.88
854.962	36.28
855.397	44.48
855.832	44.98
856.266	41.68
856.701	35.28
857.136	38.18
857.57	39.78
858.005	43.48
858.44	56.48
858.874	41.48
859.309	52.88
859.743	38.78
860.178	44.68
860.612	35.78
861.047	51.78
861.481	65.38
861.915	67.28
862.35	47.58
862.784	26.18
863.218	40.58
863.653	29.78
864.087	44.68
864.521	50.18
864.955	65.08
865.39	153.98
865.824	177.58
866.258	114.48
866.692	156.78
867.126	171.28
867.56	103.68
867.994	50.88
868.428	39.38
868.862	44.48
869.296	49.28
869.73	56.28
870.164	48.28
870.598	45.08
871.031	32.78
871.465	28.28
871.899	30.68
872.333	24.98
872.766	21.68
873.2	18.98
873.634	30.18
874.067	26.08
874.501	25.88
874.935	33.58
875.368	28.68
875.802	25.98
876.235	22.28
876.669	22.68
877.102	23.78
877.535	25.68
877.969	22.68
878.402	23.38
878.836	20.58
879.269	22.98
879.702	24.88
880.135	22.08
880.569	16.38
881.002	29.08
881.435	18.18
881.868	10.38
882.301	21.48
882.734	17.08
883.167	20.38
883.601	21.78
884.034	25.18
884.467	12.98
884.899	16.28
885.332	18.68
885.765	19.38
886.198	14.38
886.631	23.08
887.064	20.08
887.497	25.48
887.929	26.48
888.362	16.38
888.795	13.88
889.228	20.48
889.66	19.88
890.093	16.88
890.526	14.28
890.958	16.28
891.391	18.28
891.823	17.38
892.256	18.98
892.688	10.58
893.121	12.78
893.553	12.88
893.985	25.88
894.418	19.48
894.85	14.38
895.282	10.88
895.715	15.88
896.147	14.88
896.579	17.58
897.011	12.38
897.444	18.18
897.876	14.38
898.308	17.88
898.74	15.98
899.172	12.38
899.604	21.48
900.036	17.98
900.468	19.28
900.9	18.48
901.332	17.98
901.764	17.08
902.196	18.18
902.628	14.38
903.06	14.48
903.491	29.78
903.923	22.68
904.355	22.88
904.787	24.38
905.218	14.98
905.65	22.68
906.082	9.88
906.513	7.08
906.945	15.38
907.376	10.58
907.808	18.08
908.239	17.88
908.671	19.58
909.102	13.58
909.534	26.58
909.965	42.78
910.397	94.48
910.828	308.08
911.259	456.68
911.691	210.68
912.122	104.58
912.553	48.28
912.984	30.98
913.415	21.78
913.847	19.68
914.278	12.78
914.709	20.18
915.14	14.18
915.571	17.28
916.002	9.38
916.433	19.58
916.864	20.78
917.295	14.78
917.726	22.58
918.157	21.68
918.587	33.08
919.018	16.78
919.449	20.88
919.88	19.78
920.311	25.88
920.741	45.68
921.172	159.08
921.603	145.18
922.033	65.98
922.464	43.08
922.895	21.08
923.325	20.68
923.756	11.18
924.186	11.98
924.617	26.48
925.047	36.88
925.478	51.98
925.908	42.68
926.338	19.78
926.769	14.08
927.199	23.78
927.629	11.68
928.06	14.68
928.49	16.28
928.92	10.88
929.35	12.38
929.78	8.38
930.21	9.38
930.641	4.68
931.071	12.98
931.501	0.58
931.931	9.38
932.361	2.78
932.791	0.18
933.221	7.08
933.651	1.48
934.08	15.18
934.51	21.48
934.94	12.68
935.37	10.68
935.8	14.68
936.229	4.58
936.659	8.48
937.089	-0.12
937.519	14.48
937.948	19.08
938.378	18.68
938.807	1.18
939.237	1.18
939.666	8.38
940.096	-7.62
940.525	1.88
940.955	-2.22
941.384	4.18
941.814	-2.12
942.243	-5.02
942.672	-0.52
943.102	-6.82
943.531	0.08
943.96	7.58
944.39	-0.02
944.819	-2.82
945.248	-0.02
945.677	-2.62
946.106	4.48
946.535	9.68
946.964	1.18
947.393	5.18
947.822	2.58
948.251	-1.82
948.68	4.98
949.109	11.48
949.538	6.68
949.967	-1.02
950.396	3.48
950.825	-4.32
951.254	1.18
951.682	-9.52
952.111	2.28
952.54	1.18
952.969	-3.02
953.397	-4.12
953.826	3.08
954.254	-0.82
954.683	-0.82
955.112	-5.52
955.54	4.98
955.969	3.38
956.397	-3.02
956.826	-1.42
957.254	4.68
957.682	1.98
958.111	6.58
958.539	-3.52
958.967	3.28
959.396	-4.42
959.824	3.88
960.252	1.48
960.68	-6.22
961.109	-1.72
961.537	-7.42
961.965	-1.62
962.393	2.38
962.821	-2.72
963.249	-0.62
963.677	4.18
964.105	2.08
964.533	39.38
964.961	34.08
965.389	18.08
965.817	6.68
966.245	-0.52
966.672	5.48
967.1	-6.52
967.528	-0.72
967.956	-6.42
968.383	-1.52
968.811	-1.02
969.239	5.18
969.666	-3.72
970.094	7.68
970.522	2.48
970.949	1.38
971.377	-8.12
971.804	-3.82
972.232	1.98
972.659	-5.72
973.087	-6.42
973.514	-5.62
973.941	-9.12
974.369	2.88
974.796	-1.22
975.223	5.08
975.651	-6.82
976.078	3.08
976.505	1.58
976.932	3.98
977.359	16.48
977.786	12.48
978.214	3.08
978.641	-4.32
979.068	-4.32
979.495	-11.82
979.922	-1.72
980.349	-1.32
980.776	4.18
981.202	-3.32
981.629	3.88
982.056	5.98
982.483	-0.02
982.91	0.08
983.337	-7.52
983.763	5.98
984.19	-4.22
984.617	-2.82
985.043	-8.22
985.47	-1.42
985.897	-3.22
986.323	-8.22
986.75	6.48
987.176	-1.42
987.603	-2.42
988.029	-2.82
988.456	-5.32
988.882	2.58
989.308	-9.72
989.735	-3.42
990.161	0.58
990.587	-3.82
991.014	-3.12
991.44	6.48
991.866	-2.52
992.292	-2.62
992.719	-8.02
993.145	0.08
993.571	-5.82
993.997	-3.02
994.423	-6.12
994.849	3.28
995.275	-1.12
995.701	2.28
996.127	-4.52
996.553	-0.92
996.979	-5.62
997.405	-2.42
997.83	-1.72
998.256	-5.22
998.682	-3.02
999.108	-9.92
999.534	0.88
999.959	-3.92
1000.385	-6.22
1000.811	5.78
1001.236	-10.62
1001.662	-11.62
1002.087	-7.82
1002.513	-1.72
1002.938	1.08
1003.364	-5.92
1003.789	-1.92
1004.215	2.98
1004.64	2.98
1005.066	-0.52
1005.491	-2.82
1005.916	3.08
1006.342	-4.72
1006.767	-5.62
1007.192	3.58
1007.617	-5.32
1008.042	-11.42
1008.468	-7.22
1008.893	-0.22
1009.318	-3.12
1009.743	-2.12
1010.168	-0.62
1010.593	3.48
1011.018	-6.42
1011.443	-2.12
1011.868	-3.12
1012.293	-2.82
1012.718	-5.52
1013.143	-3.22
1013.567	1.08
1013.992	3.08
1014.417	-8.52
1014.842	-6.02
1015.267	-10.02
1015.691	-4.62
1016.116	5.58
1016.541	-2.92
1016.965	-0.52
1017.39	0.08
1017.814	0.88
1018.239	-1.02
1018.663	-11.72
1019.088	-15.12
1019.512	-5.42
1019.937	-3.82
1020.361	-0.12
1020.785	-16.02
1021.21	-5.32
1021.634	-4.22
1022.058	1.68
1022.483	3.48
1022.907	-1.32
1023.331	-1.72
1023.755	-6.52
1024.179	-2.02
1024.604	-1.22
1025.028	-6.02
1025.452	-8.92
1025.876	-1.92
1026.3	1.38
1026.724	-8.72
1027.148	-7.92
1027.572	-10.02
1027.996	-10.62
1028.42	0.38
1028.843	-6.02
1029.267	-1.32
1029.691	-4.12
1030.115	-6.72
1030.539	-8.32
1030.962	-6.72
1031.386	-10.82
1031.81	-5.02
1032.233	1.58
1032.657	3.28
1033.08	1.58
1033.504	-3.32
1033.927	-7.92
1034.351	-0.22
1034.774	-5.82
1035.198	4.48
1035.621	-6.62
1036.045	-7.02
1036.468	-4.82
1036.891	-10.02
1037.315	-10.52
1037.738	-14.52
1038.161	4.28
1038.584	-9.32
1039.008	-6.42
1039.431	-5.12
1039.854	-2.02
1040.277	-8.82
1040.7	-14.72
1041.123	2.08
1041.546	-6.22
1041.969	-10.42
1042.392	-5.92
1042.815	1.58
1043.238	-4.42
1043.661	-1.02
1044.084	-8.42
1044.507	-6.62
1044.93	-9.62
1045.352	-8.72
1045.775	1.28
1046.198	-8.62
1046.621	2.58
1047.043	1.98
1047.466	5.78
1047.889	-2.62
1048.311	-2.12
1048.734	-0.22
1049.156	-7.22
1049.579	-3.62
1050.001	-3.82
1050.424	-0.12
1050.846	-2.02
1051.269	0.48
1051.691	-10.42
1052.113	-3.62
1052.536	2.08
1052.958	-6.42
1053.38	-1.12
1053.802	-12.22
1054.225	-4.52
1054.647	-9.12
1055.069	-0.22
1055.491	-3.32
1055.913	-7.32
1056.335	-4.32
1056.757	-9.32
1057.179	-11.72
1057.601	-7.62
1058.023	-5.82
1058.445	-5.72
1058.867	-8.42
1059.289	-2.92
1059.711	-10.42
1060.133	-5.62
1060.555	-4.32
1060.976	-3.42
1061.398	-6.92
1061.82	-4.52
1062.241	-2.82
1062.663	-7.42
1063.085	-7.42
1063.506	0.18
1063.928	-3.82
1064.35	-0.42
1064.771	-11.52
1065.193	-4.32
1065.614	-10.92
1066.035	-2.92
1066.457	-3.32
1066.878	1.98
1067.3	-4.62
1067.721	-6.02
1068.142	-9.22
1068.564	-5.42
1068.985	-5.92
1069.406	-4.82
1069.827	-1.72
1070.248	-2.62
1070.67	-11.52
1071.091	-5.02
1071.512	-3.92
1071.933	-8.22
1072.354	-7.62
1072.775	-7.02
1073.196	-8.52
1073.617	-4.22
1074.038	-6.42
1074.459	-6.42
1074.88	-7.52
1075.3	1.58
1075.721	-8.82
1076.142	-0.82
1076.563	-1.32
1076.983	-7.42
1077.404	-5.42
1077.825	-9.92
1078.246	-2.12
1078.666	-11.42
1079.087	-6.62
1079.507	-7.52
1079.928	-3.32
1080.348	-0.32
1080.769	-3.12
1081.189	-1.22
1081.61	0.18
1082.03	-9.72
1082.451	-7.42
1082.871	-7.42
1083.291	-9.02
1083.711	-9.92
1084.132	-10.52
1084.552	-3.82
1084.972	-0.42
1085.392	-13.72
1085.813	-6.62
1086.233	-7.82
1086.653	-3.22
1087.073	-7.82
1087.493	-7.82
1087.913	-9.52
1088.333	-10.32
1088.753	-6.42
1089.173	2.28
1089.593	-3.72
1090.013	1.58
1090.433	2.98
1090.852	-3.62
1091.272	0.98
1091.692	-1.52
1092.112	-2.92
1092.531	-8.02
1092.951	-12.52
1093.371	-2.82
1093.79	2.78
1094.21	-3.22
1094.63	-4.92
1095.049	-8.82
1095.469	-7.92
1095.888	-5.72
1096.308	-0.52
1096.727	6.58
1097.146	-3.92
1097.566	-4.52
1097.985	-7.22
1098.405	-7.52
1098.824	-7.92
1099.243	-7.12
1099.662	-4.42
1100.082	-6.22
1100.501	-2.62
1100.92	-9.22
1101.339	-4.72
1101.758	-6.32
