Data from 20171114-ORNL-Ar_H_NY_Subt18_08-05-48-796.txt Node
Date: Tue Nov 14 08:05:48 EST 2017
User: Ender
Spectrometer: HR+D1039
Trigger mode: 0
Integration Time (sec): 2.730000E-2
Scans to average: 10
Electric dark correction enabled: true
Nonlinearity correction enabled: false
Boxcar width: 0
XAxis mode: Wavelengths
Number of Pixels in Spectrum: 2048
>>>>>Begin Spectral Data<<<<<
187.836	-4.53
188.309	-4.53
188.782	-4.53
189.255	1.37
189.728	-2.03
190.201	5.07
190.674	-4.23
191.147	2.37
191.619	-3.33
192.092	2.97
192.565	7.17
193.038	-1.13
193.511	1.17
193.984	1.37
194.456	-2.13
194.929	-3.93
195.402	-0.43
195.874	0.27
196.347	0.87
196.82	-2.63
197.292	7.27
197.765	-0.63
198.237	-6.83
198.71	5.57
199.182	-0.63
199.655	6.67
200.127	6.27
200.6	-0.43
201.072	-3.33
201.544	-3.03
202.017	-2.93
202.489	4.67
202.961	-4.43
203.433	-3.43
203.906	-5.23
204.378	-9.03
204.85	-4.73
205.322	-10.13
205.794	6.67
206.266	-4.03
206.739	-7.83
207.211	2.47
207.683	-6.03
208.155	-6.43
208.627	-9.03
209.099	-3.63
209.57	-7.33
210.042	-6.73
210.514	-5.53
210.986	1.07
211.458	-5.23
211.93	3.57
212.402	1.47
212.873	-4.53
213.345	-3.73
213.817	-9.13
214.288	-3.03
214.76	-9.93
215.232	2.47
215.703	2.47
216.175	-1.93
216.646	-3.23
217.118	-9.63
217.589	-0.43
218.061	2.97
218.532	-7.23
219.004	-1.03
219.475	-1.43
219.946	-4.23
220.418	-9.33
220.889	3.87
221.36	2.37
221.832	0.27
222.303	-1.93
222.774	1.87
223.245	-8.83
223.717	-9.33
224.188	-5.63
224.659	-5.33
225.13	-0.03
225.601	-1.83
226.072	0.87
226.543	2.67
227.014	-2.73
227.485	-0.13
227.956	-5.53
228.427	4.17
228.898	2.77
229.369	6.47
229.839	-5.03
230.31	-9.13
230.781	3.57
231.252	-4.13
231.722	-4.13
232.193	3.17
232.664	3.27
233.135	7.57
233.605	3.27
234.076	-4.93
234.546	3.27
235.017	9.77
235.487	1.17
235.958	-2.23
236.428	-2.73
236.899	5.47
237.369	5.67
237.84	-3.43
238.31	10.17
238.78	-1.93
239.251	-5.03
239.721	9.87
240.191	6.97
240.662	1.27
241.132	1.77
241.602	-4.33
242.072	2.07
242.542	6.07
243.013	5.67
243.483	8.07
243.953	2.17
244.423	-1.43
244.893	-4.33
245.363	3.57
245.833	5.27
246.303	1.97
246.773	10.07
247.243	2.17
247.712	-0.43
248.182	9.17
248.652	11.37
249.122	-0.23
249.592	10.37
250.061	18.57
250.531	35.27
251.001	16.77
251.471	22.37
251.94	25.97
252.41	9.67
252.879	-2.33
253.349	10.67
253.818	14.07
254.288	10.57
254.757	2.87
255.227	12.37
255.696	3.77
256.166	10.77
256.635	13.97
257.105	11.97
257.574	10.07
258.043	14.17
258.513	12.67
258.982	12.07
259.451	6.17
259.92	18.57
260.389	12.67
260.859	17.67
261.328	13.47
261.797	17.27
262.266	11.77
262.735	11.07
263.204	3.57
263.673	0.97
264.142	5.57
264.611	-5.33
265.08	-3.83
265.549	1.97
266.018	1.87
266.487	0.37
266.955	2.97
267.424	6.87
267.893	8.67
268.362	5.87
268.83	3.77
269.299	11.97
269.768	13.87
270.236	4.37
270.705	7.17
271.174	10.77
271.642	15.47
272.111	14.17
272.579	22.57
273.048	24.97
273.516	31.37
273.985	27.17
274.453	28.67
274.922	19.27
275.39	16.17
275.858	6.27
276.327	14.57
276.795	23.07
277.263	14.47
277.731	32.87
278.2	54.57
278.668	60.07
279.136	50.17
279.604	19.77
280.072	21.67
280.54	16.07
281.008	14.87
281.477	13.97
281.945	14.87
282.413	19.17
282.881	19.57
283.348	9.47
283.816	23.47
284.284	18.57
284.752	17.07
285.22	12.47
285.688	18.97
286.156	23.17
286.623	43.17
287.091	58.67
287.559	30.27
288.026	18.17
288.494	16.27
288.962	8.97
289.429	10.97
289.897	19.57
290.364	23.27
290.832	16.17
291.3	17.07
291.767	15.97
292.234	22.67
292.702	20.47
293.169	20.77
293.637	22.87
294.104	21.17
294.571	11.97
295.039	12.87
295.506	13.37
295.973	20.97
296.44	20.07
296.908	19.47
297.375	20.77
297.842	19.97
298.309	20.97
298.776	17.37
299.243	23.27
299.71	17.77
300.177	26.67
300.644	24.57
301.111	24.17
301.578	26.97
302.045	24.67
302.512	19.97
302.979	27.37
303.446	22.67
303.913	26.07
304.379	26.27
304.846	31.37
305.313	27.57
305.78	27.87
306.246	27.47
306.713	27.87
307.18	28.67
307.646	30.77
308.113	33.57
308.579	28.57
309.046	26.57
309.512	29.07
309.979	20.57
310.445	35.17
310.912	36.67
311.378	39.27
311.845	29.57
312.311	33.27
312.777	34.37
313.244	34.37
313.71	38.17
314.176	28.27
314.642	34.77
315.109	36.87
315.575	44.57
316.041	41.47
316.507	36.67
316.973	46.57
317.439	41.37
317.905	40.67
318.371	37.77
318.837	31.77
319.303	40.37
319.769	35.37
320.235	38.17
320.701	39.57
321.167	38.17
321.633	32.87
322.099	39.97
322.564	45.77
323.03	38.17
323.496	44.47
323.962	44.77
324.427	42.57
324.893	48.37
325.359	42.27
325.824	45.67
326.29	42.07
326.755	42.57
327.221	45.27
327.686	42.87
328.152	46.77
328.617	42.97
329.083	46.67
329.548	57.77
330.014	50.57
330.479	41.37
330.944	47.77
331.41	47.67
331.875	51.67
332.34	48.47
332.805	48.27
333.271	47.97
333.736	53.27
334.201	59.27
334.666	56.17
335.131	53.97
335.596	49.27
336.061	49.47
336.526	45.47
336.991	49.77
337.456	60.57
337.921	48.07
338.386	48.97
338.851	47.47
339.316	50.67
339.781	48.27
340.246	52.77
340.711	55.67
341.175	51.67
341.64	45.87
342.105	57.07
342.569	60.67
343.034	61.67
343.499	57.07
343.963	52.67
344.428	69.07
344.893	63.47
345.357	68.77
345.822	60.77
346.286	72.57
346.751	71.87
347.215	72.57
347.679	87.47
348.144	104.37
348.608	81.77
349.073	75.97
349.537	78.07
350.001	89.87
350.465	94.87
350.93	87.97
351.394	83.17
351.858	74.97
352.322	92.47
352.786	86.27
353.25	104.67
353.715	114.27
354.179	101.67
354.643	127.97
355.107	132.47
355.571	109.57
356.035	108.77
356.498	123.57
356.962	129.17
357.426	129.67
357.89	122.57
358.354	97.57
358.818	90.37
359.281	81.57
359.745	82.67
360.209	81.97
360.673	73.57
361.136	81.97
361.6	87.17
362.064	83.97
362.527	94.87
362.991	95.17
363.454	85.57
363.918	80.97
364.381	89.27
364.845	86.37
365.308	99.07
365.772	92.57
366.235	88.07
366.698	82.67
367.162	90.07
367.625	91.27
368.088	101.47
368.552	88.17
369.015	96.27
369.478	100.77
369.941	102.47
370.404	95.77
370.867	103.27
371.331	113.37
371.794	118.57
372.257	117.97
372.72	111.37
373.183	108.07
373.646	106.67
374.109	106.37
374.572	111.87
375.035	111.97
375.497	111.07
375.96	106.67
376.423	106.87
376.886	115.27
377.349	114.37
377.811	101.97
378.274	112.67
378.737	112.67
379.199	114.57
379.662	124.07
380.125	121.77
380.587	118.97
381.05	122.47
381.512	131.67
381.975	142.27
382.437	132.97
382.9	123.77
383.362	137.47
383.825	145.97
384.287	149.27
384.75	140.17
385.212	144.27
385.674	144.37
386.136	145.27
386.599	130.47
387.061	135.77
387.523	130.47
387.985	133.67
388.447	154.77
388.91	148.57
389.372	161.97
389.834	154.77
390.296	147.17
390.758	162.37
391.22	175.67
391.682	205.17
392.144	299.17
392.606	227.77
393.068	167.37
393.529	168.77
393.991	161.67
394.453	148.57
394.915	162.57
395.377	189.37
395.838	215.87
396.3	156.77
396.762	139.47
397.224	139.67
397.685	129.87
398.147	136.87
398.608	137.57
399.07	130.87
399.531	138.77
399.993	139.77
400.454	149.47
400.916	146.27
401.377	145.17
401.839	155.47
402.3	153.07
402.762	175.17
403.223	187.77
403.684	173.17
404.145	163.17
404.607	163.97
405.068	163.77
405.529	169.87
405.99	185.07
406.451	176.87
406.913	175.67
407.374	159.37
407.835	167.27
408.296	165.17
408.757	167.67
409.218	189.07
409.679	181.97
410.14	177.67
410.601	175.57
411.062	183.97
411.522	189.17
411.983	194.27
412.444	178.77
412.905	184.57
413.366	185.37
413.826	192.77
414.287	218.47
414.748	268.77
415.208	250.57
415.669	218.67
416.13	205.57
416.59	211.67
417.051	216.97
417.511	225.97
417.972	238.97
418.432	253.07
418.893	290.97
419.353	252.17
419.814	193.17
420.274	185.67
420.734	187.17
421.195	198.47
421.655	205.77
422.115	197.07
422.576	200.07
423.036	203.87
423.496	207.77
423.956	216.57
424.416	229.67
424.876	268.97
425.336	261.07
425.797	271.87
426.257	262.17
426.717	245.87
427.177	237.87
427.637	223.27
428.097	231.47
428.556	252.77
429.016	276.37
429.476	275.97
429.936	279.87
430.396	280.17
430.856	292.37
431.315	327.77
431.775	349.27
432.235	377.07
432.694	354.87
433.154	366.07
433.614	396.77
434.073	347.57
434.533	286.67
434.993	274.07
435.452	288.27
435.912	300.17
436.371	293.07
436.83	288.17
437.29	273.97
437.749	250.47
438.209	244.37
438.668	274.97
439.127	292.97
439.587	272.77
440.046	256.97
440.505	270.27
440.964	287.87
441.424	327.37
441.883	313.47
442.342	261.17
442.801	225.07
443.26	225.07
443.719	218.37
444.178	224.47
444.637	213.77
445.096	224.07
445.555	235.97
446.014	223.47
446.473	233.37
446.932	230.37
447.391	228.37
447.849	233.87
448.308	220.77
448.767	225.37
449.226	235.47
449.685	238.77
450.143	255.77
450.602	242.47
451.061	232.17
451.519	235.87
451.978	239.67
452.436	238.37
452.895	240.47
453.353	255.27
453.812	243.97
454.27	244.17
454.729	243.97
455.187	244.87
455.646	255.57
456.104	253.27
456.562	266.07
457.021	269.57
457.479	270.17
457.937	277.07
458.395	265.07
458.854	249.87
459.312	263.47
459.77	277.17
460.228	256.47
460.686	245.87
461.144	261.77
461.602	242.17
462.06	244.57
462.518	259.67
462.976	261.47
463.434	269.27
463.892	264.17
464.35	284.47
464.808	291.97
465.266	270.27
465.724	275.87
466.181	282.17
466.639	274.57
467.097	287.97
467.555	309.27
468.012	306.17
468.47	314.17
468.928	329.07
469.385	338.97
469.843	359.47
470.3	353.17
470.758	365.77
471.215	393.97
471.673	411.07
472.13	412.47
472.588	425.67
473.045	377.17
473.503	386.47
473.96	402.27
474.417	411.87
474.875	439.07
475.332	481.27
475.789	463.57
476.246	470.27
476.704	489.17
477.161	521.57
477.618	534.57
478.075	567.47
478.532	630.67
478.989	696.37
479.446	816.07
479.903	787.57
480.36	820.27
480.817	868.17
481.274	993.87
481.731	1080.97
482.188	1189.57
482.645	1317.47
483.102	1426.47
483.558	1571.47
484.015	1624.57
484.472	1593.07
484.929	1539.07
485.385	1491.27
485.842	1460.97
486.299	1375.77
486.755	1317.37
487.212	1116.97
487.668	938.67
488.125	857.57
488.582	795.27
489.038	759.87
489.494	725.87
489.951	711.37
490.407	670.37
490.864	652.57
491.32	661.47
491.776	653.27
492.233	652.67
492.689	627.57
493.145	615.57
493.602	607.07
494.058	617.67
494.514	623.37
494.97	656.47
495.426	649.47
495.882	622.87
496.338	627.87
496.794	638.67
497.251	627.17
497.707	645.77
498.163	647.57
498.618	654.47
499.074	661.77
499.53	694.57
499.986	695.27
500.442	656.37
500.898	635.77
501.354	624.37
501.809	643.47
502.265	654.07
502.721	663.47
503.177	669.67
503.632	671.37
504.088	689.07
504.543	732.97
504.999	721.67
505.455	667.27
505.91	637.17
506.366	646.37
506.821	641.57
507.277	637.47
507.732	641.27
508.187	626.07
508.643	643.97
509.098	638.27
509.553	667.07
510.009	675.07
510.464	671.77
510.919	704.67
511.375	709.37
511.83	715.97
512.285	733.47
512.74	759.67
513.195	795.77
513.65	784.67
514.105	779.57
514.56	782.67
515.015	792.87
515.47	816.57
515.925	801.87
516.38	780.87
516.835	806.57
517.29	790.77
517.745	791.67
518.2	774.97
518.655	759.57
519.109	751.17
519.564	741.77
520.019	742.87
520.474	733.17
520.928	740.57
521.383	722.87
521.838	716.47
522.292	734.17
522.747	719.27
523.201	720.67
523.656	707.77
524.11	703.77
524.565	702.67
525.019	697.37
525.474	709.77
525.928	716.87
526.382	705.67
526.837	707.47
527.291	712.37
527.745	705.77
528.2	698.57
528.654	696.17
529.108	700.17
529.562	700.17
530.016	700.27
530.47	690.27
530.925	711.17
531.379	697.87
531.833	712.77
532.287	722.17
532.741	706.27
533.195	725.77
533.649	717.47
534.103	727.17
534.556	718.37
535.01	718.07
535.464	719.97
535.918	735.17
536.372	736.47
536.826	725.57
537.279	713.77
537.733	721.77
538.187	723.07
538.64	724.77
539.094	737.27
539.548	737.57
540.001	729.17
540.455	728.27
540.908	741.87
541.362	742.37
541.815	744.27
542.269	764.57
542.722	760.07
543.175	772.97
543.629	771.77
544.082	786.47
544.536	788.47
544.989	792.27
545.442	802.87
545.895	792.27
546.349	785.87
546.802	789.47
547.255	796.87
547.708	804.07
548.161	822.37
548.614	832.17
549.067	841.67
549.52	820.07
549.973	817.07
550.426	819.47
550.879	803.77
551.332	810.47
551.785	820.57
552.238	805.87
552.691	824.67
553.144	836.97
553.596	855.07
554.049	880.47
554.502	900.47
554.955	921.67
555.407	919.47
555.86	914.37
556.313	895.87
556.765	883.37
557.218	881.07
557.67	893.37
558.123	880.17
558.576	878.27
559.028	876.37
559.48	896.37
559.933	881.67
560.385	838.77
560.838	812.17
561.29	786.67
561.742	773.37
562.195	770.67
562.647	766.17
563.099	773.87
563.551	778.47
564.004	781.97
564.456	780.57
564.908	769.47
565.36	762.27
565.812	729.07
566.264	721.07
566.716	732.87
567.168	716.97
567.62	725.27
568.072	707.67
568.524	692.77
568.976	694.77
569.428	679.47
569.88	678.47
570.332	687.87
570.784	680.67
571.235	697.77
571.687	694.27
572.139	708.27
572.59	714.97
573.042	710.27
573.494	712.07
573.945	699.97
574.397	693.17
574.849	695.17
575.3	697.07
575.752	690.27
576.203	683.37
576.655	693.77
577.106	675.17
577.557	665.77
578.009	672.37
578.46	662.47
578.912	654.87
579.363	668.77
579.814	665.17
580.265	669.87
580.717	675.67
581.168	663.47
581.619	677.57
582.07	681.47
582.521	684.77
582.972	674.37
583.423	676.27
583.875	689.17
584.326	702.17
584.777	736.37
585.227	818.97
585.678	903.37
586.129	982.37
586.58	1046.17
587.031	1134.87
587.482	1270.87
587.933	1452.47
588.384	1273.77
588.834	973.37
589.285	800.07
589.736	780.07
590.186	777.27
590.637	762.17
591.088	750.87
591.538	734.07
591.989	728.67
592.439	721.87
592.89	717.57
593.34	712.07
593.791	713.27
594.241	702.07
594.692	703.47
595.142	697.57
595.593	695.17
596.043	708.67
596.493	707.47
596.943	716.87
597.394	719.77
597.844	713.17
598.294	719.37
598.744	746.47
599.195	762.17
599.645	813.47
600.095	839.57
600.545	899.57
600.995	963.47
601.445	1016.67
601.895	1091.27
602.345	1127.37
602.795	1108.87
603.245	1060.97
603.695	1000.37
604.145	955.27
604.594	913.27
605.044	853.87
605.494	795.47
605.944	754.37
606.393	744.37
606.843	730.27
607.293	735.17
607.743	726.97
608.192	738.87
608.642	750.47
609.091	764.27
609.541	771.47
609.99	768.97
610.44	775.07
610.889	721.57
611.339	702.27
611.788	677.57
612.238	695.57
612.687	707.37
613.136	716.37
613.586	736.87
614.035	727.77
614.484	737.97
614.933	756.47
615.383	744.87
615.832	735.57
616.281	723.57
616.73	686.37
617.179	662.87
617.628	648.47
618.077	640.17
618.526	619.47
618.975	612.87
619.424	603.97
619.873	612.57
620.322	617.57
620.771	593.17
621.22	600.27
621.669	600.67
622.118	586.67
622.567	579.57
623.015	565.57
623.464	567.17
623.913	551.57
624.361	554.97
624.81	550.77
625.259	548.37
625.707	545.17
626.156	551.37
626.604	560.07
627.053	565.27
627.501	557.57
627.95	565.47
628.398	572.97
628.847	565.27
629.295	562.17
629.744	566.57
630.192	568.57
630.64	570.67
631.089	562.27
631.537	574.37
631.985	575.17
632.433	586.57
632.881	598.67
633.33	649.77
633.778	626.57
634.226	562.27
634.674	556.37
635.122	565.47
635.57	581.97
636.018	616.07
636.466	572.47
636.914	553.47
637.362	559.17
637.81	580.87
638.258	578.57
638.705	571.77
639.153	603.27
639.601	613.67
640.049	634.67
640.497	668.37
640.944	684.27
641.392	643.57
641.84	596.37
642.287	579.57
642.735	565.47
643.182	567.77
643.63	571.57
644.078	578.47
644.525	579.27
644.973	589.97
645.42	586.27
645.867	621.57
646.315	629.77
646.762	650.77
647.21	689.27
647.657	700.57
648.104	740.37
648.551	760.87
648.999	822.77
649.446	914.57
649.893	991.07
650.34	1132.47
650.787	1369.27
651.234	1702.87
651.682	2205.67
652.129	3022.07
652.576	4372.47
653.023	6425.67
653.47	8836.57
653.917	11067.17
654.363	12811.87
654.81	14235.77
655.257	13551.17
655.704	8839.27
656.151	5225.47
656.598	3388.97
657.044	2388.27
657.491	1834.77
657.938	1474.17
658.385	1231.17
658.831	1069.87
659.278	960.27
659.724	856.87
660.171	773.17
660.618	707.37
661.064	681.77
661.511	653.87
661.957	650.67
662.404	634.87
662.85	641.67
663.296	624.67
663.743	550.77
664.189	535.37
664.635	526.97
665.082	515.27
665.528	521.97
665.974	509.17
666.42	503.67
666.867	496.57
667.313	488.47
667.759	472.17
668.205	464.87
668.651	477.97
669.097	472.47
669.543	491.57
669.989	462.77
670.435	440.67
670.881	440.67
671.327	444.37
671.773	464.37
672.219	478.57
672.665	529.67
673.11	571.27
673.556	612.27
674.002	655.37
674.448	640.77
674.893	536.67
675.339	465.67
675.785	432.37
676.23	409.57
676.676	383.27
677.122	371.47
677.567	366.77
678.013	364.77
678.458	354.67
678.904	352.37
679.349	343.27
679.794	343.17
680.24	339.77
680.685	336.47
681.131	342.27
681.576	342.27
682.021	351.17
682.466	343.57
682.912	341.17
683.357	348.07
683.802	371.17
684.247	402.37
684.692	432.47
685.137	481.77
685.583	525.57
686.028	552.97
686.473	504.97
686.918	436.57
687.363	408.97
687.807	382.67
688.252	363.67
688.697	347.37
689.142	327.67
689.587	328.07
690.032	319.17
690.477	335.57
690.921	347.37
691.366	367.07
691.811	388.77
692.255	419.27
692.7	451.07
693.145	484.77
693.589	672.37
694.034	1079.77
694.478	1491.67
694.923	1691.07
695.367	2220.77
695.812	1161.57
696.256	490.17
696.701	365.17
697.145	335.37
697.59	319.87
698.034	321.57
698.478	323.07
698.922	317.57
699.367	319.07
699.811	331.37
700.255	346.37
700.699	374.57
701.143	408.67
701.588	456.07
702.032	505.67
702.476	496.77
702.92	484.57
703.364	479.07
703.808	608.77
704.252	998.67
704.696	1402.07
705.14	1618.57
705.584	2063.87
706.027	1026.07
706.471	508.17
706.915	391.37
707.359	341.07
707.803	307.27
708.246	298.87
708.69	312.27
709.134	315.77
709.577	304.07
710.021	303.27
710.465	295.47
710.908	298.67
711.352	291.67
711.795	298.87
712.239	342.57
712.682	363.87
713.126	406.47
713.569	452.77
714.012	364.37
714.456	315.47
714.899	295.97
715.342	270.77
715.786	253.07
716.229	252.27
716.672	255.57
717.115	244.17
717.558	247.57
718.002	243.47
718.445	260.07
718.888	279.47
719.331	285.57
719.774	303.67
720.217	293.07
720.66	280.07
721.103	255.77
721.546	248.57
721.989	243.97
722.432	229.27
722.874	232.67
723.317	217.57
723.76	234.17
724.203	250.07
724.645	307.37
725.088	429.97
725.531	543.87
725.974	630.97
726.416	531.77
726.859	308.17
727.301	239.77
727.744	229.77
728.187	225.87
728.629	231.67
729.071	238.57
729.514	255.27
729.956	265.07
730.399	275.27
730.841	270.97
731.283	268.17
731.726	254.77
732.168	250.37
732.61	258.97
733.053	281.77
733.495	304.17
733.937	338.87
734.379	378.17
734.821	413.57
735.263	515.17
735.705	790.67
736.148	1490.87
736.59	2471.57
737.032	2970.37
737.474	2410.17
737.916	783.67
738.357	416.27
738.799	316.07
739.241	285.97
739.683	275.37
740.125	278.47
740.567	284.77
741.008	303.57
741.45	309.77
741.892	313.57
742.334	338.67
742.775	351.17
743.217	334.87
743.658	266.97
744.1	247.87
744.542	256.77
744.983	303.17
745.425	329.97
745.866	334.47
746.307	274.97
746.749	275.77
747.19	310.27
747.632	433.57
748.073	828.07
748.514	1767.77
748.956	2735.07
749.397	3445.97
749.838	2843.27
750.279	2874.67
750.72	1453.27
751.162	523.67
751.603	312.67
752.044	251.37
752.485	213.07
752.926	200.57
753.367	192.07
753.808	193.87
754.249	184.37
754.69	180.07
755.131	175.27
755.572	175.87
756.013	171.77
756.453	171.27
756.894	178.67
757.335	183.67
757.776	188.37
758.216	186.97
758.657	188.97
759.098	196.97
759.538	218.97
759.979	252.97
760.42	362.17
760.86	657.17
761.301	1718.47
761.741	4188.07
762.182	6226.17
762.622	4396.27
763.063	1255.87
763.503	523.67
763.943	328.97
764.384	321.87
764.824	380.87
765.264	414.67
765.705	289.37
766.145	201.37
766.585	179.37
767.025	167.27
767.465	178.67
767.906	228.37
768.346	297.97
768.786	316.57
769.226	247.67
769.666	308.17
770.106	586.87
770.546	1457.67
770.986	2559.67
771.426	2311.67
771.866	770.17
772.306	316.37
772.745	202.67
773.185	162.67
773.625	167.17
774.065	164.87
774.505	186.27
774.944	294.57
775.384	642.87
775.824	1188.17
776.263	1152.77
776.703	492.07
777.142	213.37
777.582	158.77
778.021	131.27
778.461	135.67
778.9	131.67
779.34	129.67
779.779	112.57
780.219	112.37
780.658	103.27
781.097	109.97
781.537	115.47
781.976	108.37
782.415	106.87
782.855	102.67
783.294	102.07
783.733	100.87
784.172	106.77
784.611	105.97
785.05	107.67
785.489	113.87
785.928	118.27
786.367	111.87
786.806	119.97
787.245	125.57
787.684	131.97
788.123	148.27
788.562	121.97
789.001	125.07
789.44	119.17
789.879	109.37
790.317	113.97
790.756	126.87
791.195	127.77
791.634	144.17
792.072	201.07
792.511	350.47
792.95	953.17
793.388	2049.37
793.827	1883.07
794.265	651.27
794.704	269.67
795.142	180.67
795.581	148.47
796.019	128.97
796.458	115.57
796.896	119.27
797.334	130.57
797.773	147.97
798.211	207.07
798.649	412.07
799.087	963.17
799.526	1528.97
799.964	1922.17
800.402	1958.37
800.84	729.77
801.278	289.07
801.716	182.47
802.154	147.27
802.592	138.27
803.03	142.97
803.468	130.27
803.906	138.67
804.344	139.67
804.782	133.17
805.22	132.07
805.658	129.17
806.096	141.47
806.533	144.27
806.971	170.57
807.409	209.97
807.847	303.07
808.284	620.67
808.722	1761.47
809.16	3159.27
809.597	2972.27
810.035	5185.57
810.472	5618.87
810.91	2034.47
811.347	757.17
811.785	390.67
812.222	250.57
812.66	192.67
813.097	160.77
813.535	133.27
813.972	126.77
814.409	110.97
814.846	112.37
815.284	113.67
815.721	102.87
816.158	100.17
816.595	119.67
817.032	174.07
817.47	198.07
817.907	167.57
818.344	147.07
818.781	121.07
819.218	97.27
819.655	129.37
820.092	175.87
820.529	207.27
820.966	168.07
821.403	126.27
821.839	112.57
822.276	97.07
822.713	122.37
823.15	133.67
823.587	111.47
824.023	137.17
824.46	282.57
824.897	851.37
825.333	1311.27
825.77	560.57
826.206	223.27
826.643	129.47
827.08	94.67
827.516	89.37
827.953	69.17
828.389	82.57
828.825	71.37
829.262	67.67
829.698	57.67
830.135	66.47
830.571	61.57
831.007	64.07
831.443	57.67
831.88	59.67
832.316	59.07
832.752	61.97
833.188	67.97
833.624	64.17
834.06	67.57
834.497	62.67
834.933	70.37
835.369	74.37
835.805	65.57
836.241	81.47
836.677	85.67
837.112	96.87
837.548	105.77
837.984	125.77
838.42	195.17
838.856	461.47
839.292	1436.77
839.727	2230.77
840.163	1031.47
840.599	866.97
841.034	1932.57
841.47	2078.87
841.906	752.47
842.341	321.47
842.777	229.57
843.212	294.97
843.648	300.27
844.083	151.17
844.519	96.57
844.954	72.97
845.39	61.57
845.825	57.47
846.261	58.17
846.696	52.97
847.131	52.67
847.566	58.67
848.002	48.57
848.437	53.27
848.872	60.27
849.307	52.87
849.742	79.27
850.177	170.87
850.613	523.07
851.048	855.87
851.483	368.07
851.918	152.07
852.353	82.77
852.788	57.57
853.223	52.17
853.657	53.07
854.092	46.87
854.527	41.57
854.962	42.67
855.397	45.67
855.832	51.17
856.266	47.37
856.701	48.17
857.136	36.97
857.57	43.97
858.005	50.37
858.44	57.27
858.874	43.57
859.309	51.27
859.743	41.67
860.178	45.37
860.612	37.77
861.047	52.67
861.481	67.57
861.915	68.67
862.35	52.47
862.784	29.77
863.218	33.87
863.653	36.17
864.087	47.27
864.521	51.67
864.955	70.97
865.39	154.77
865.824	176.87
866.258	116.77
866.692	160.47
867.126	169.77
867.56	104.67
867.994	59.07
868.428	37.67
868.862	50.37
869.296	57.27
869.73	61.97
870.164	53.57
870.598	50.77
871.031	38.27
871.465	31.57
871.899	31.97
872.333	25.27
872.766	27.87
873.2	24.77
873.634	23.87
874.067	29.97
874.501	27.77
874.935	36.47
875.368	32.47
875.802	28.67
876.235	26.57
876.669	26.47
877.102	22.17
877.535	23.77
877.969	22.27
878.402	21.37
878.836	19.07
879.269	22.97
879.702	31.87
880.135	24.27
880.569	19.07
881.002	26.27
881.435	16.17
881.868	19.97
882.301	19.27
882.734	15.97
883.167	22.87
883.601	18.27
884.034	21.87
884.467	13.37
884.899	19.17
885.332	18.77
885.765	15.27
886.198	15.47
886.631	20.57
887.064	20.27
887.497	22.67
887.929	20.77
888.362	17.97
888.795	13.37
889.228	16.07
889.66	24.17
890.093	19.77
890.526	16.07
890.958	19.97
891.391	16.97
891.823	20.57
892.256	12.57
892.688	15.87
893.121	21.17
893.553	17.17
893.985	24.57
894.418	20.97
894.85	16.57
895.282	18.67
895.715	16.27
896.147	20.37
896.579	19.97
897.011	10.67
897.444	18.37
897.876	14.57
898.308	23.07
898.74	11.87
899.172	6.87
899.604	26.87
900.036	26.97
900.468	11.47
900.9	13.87
901.332	18.47
901.764	17.57
902.196	21.47
902.628	19.67
903.06	20.27
903.491	29.87
903.923	19.37
904.355	24.87
904.787	23.47
905.218	26.47
905.65	17.17
906.082	17.47
906.513	18.67
906.945	12.47
907.376	15.57
907.808	19.47
908.239	25.07
908.671	21.07
909.102	19.77
909.534	25.77
909.965	47.87
910.397	89.27
910.828	299.77
911.259	460.57
911.691	214.27
912.122	102.97
912.553	54.77
912.984	37.07
913.415	26.27
913.847	25.87
914.278	15.67
914.709	19.57
915.14	16.17
915.571	19.87
916.002	17.17
916.433	19.37
916.864	17.97
917.295	12.77
917.726	19.47
918.157	11.17
918.587	27.47
919.018	17.17
919.449	25.07
919.88	26.27
920.311	31.47
920.741	50.87
921.172	160.67
921.603	147.27
922.033	63.57
922.464	46.77
922.895	27.27
923.325	22.47
923.756	17.37
924.186	17.37
924.617	27.07
925.047	42.87
925.478	55.27
925.908	48.87
926.338	22.07
926.769	19.27
927.199	20.97
927.629	9.57
928.06	18.67
928.49	15.07
928.92	16.27
929.35	11.87
929.78	12.27
930.21	13.37
930.641	6.77
931.071	12.07
931.501	7.17
931.931	10.27
932.361	7.57
932.791	3.07
933.221	10.97
933.651	-0.63
934.08	13.57
934.51	28.47
934.94	10.17
935.37	9.57
935.8	11.67
936.229	7.87
936.659	9.77
937.089	-1.43
937.519	7.87
937.948	24.07
938.378	17.67
938.807	8.67
939.237	4.07
939.666	9.17
940.096	-9.23
940.525	8.07
940.955	2.77
941.384	4.37
941.814	-7.73
942.243	2.77
942.672	1.97
943.102	-0.13
943.531	4.37
943.96	8.27
944.39	0.37
944.819	3.77
945.248	8.57
945.677	5.97
946.106	4.57
946.535	8.57
946.964	2.87
947.393	7.17
947.822	2.37
948.251	-2.03
948.68	8.27
949.109	7.37
949.538	7.37
949.967	4.47
950.396	4.17
950.825	-0.83
951.254	0.27
951.682	-5.43
952.111	-0.43
952.54	2.07
952.969	-2.83
953.397	-3.13
953.826	3.67
954.254	-4.93
954.683	2.57
955.112	-4.13
955.54	-3.23
955.969	7.17
956.397	3.47
956.826	-0.93
957.254	6.07
957.682	3.77
958.111	10.17
958.539	3.87
958.967	2.17
959.396	-2.53
959.824	3.37
960.252	-3.53
960.68	-2.43
961.109	2.47
961.537	-2.43
961.965	-1.33
962.393	-1.43
962.821	2.07
963.249	-3.23
963.677	1.27
964.105	9.17
964.533	44.17
964.961	38.47
965.389	18.57
965.817	4.27
966.245	2.27
966.672	4.17
967.1	-1.23
967.528	3.87
967.956	-4.83
968.383	0.57
968.811	0.97
969.239	0.47
969.666	-7.43
970.094	5.17
970.522	9.67
970.949	-2.03
971.377	-10.13
971.804	1.77
972.232	-7.63
972.659	-1.03
973.087	-3.03
973.514	-1.63
973.941	-6.33
974.369	4.47
974.796	2.17
975.223	-2.13
975.651	-5.53
976.078	-0.93
976.505	3.17
976.932	1.67
977.359	13.07
977.786	13.97
978.214	3.47
978.641	-4.03
979.068	-6.13
979.495	-3.73
979.922	-2.83
980.349	-2.03
980.776	6.37
981.202	-0.93
981.629	6.77
982.056	7.87
982.483	-1.13
982.91	2.47
983.337	-1.03
983.763	2.57
984.19	-5.93
984.617	-1.53
985.043	-6.83
985.47	1.47
985.897	-4.93
986.323	0.37
986.75	4.37
987.176	-0.13
987.603	-2.53
988.029	-7.03
988.456	-2.93
988.882	4.07
989.308	-9.53
989.735	-3.23
990.161	5.07
990.587	1.27
991.014	2.67
991.44	8.27
991.866	3.67
992.292	-3.73
992.719	4.57
993.145	4.97
993.571	-2.03
993.997	-1.23
994.423	-1.83
994.849	-2.33
995.275	0.97
995.701	0.47
996.127	-2.13
996.553	-3.53
996.979	0.37
997.405	-2.33
997.83	-3.63
998.256	-2.43
998.682	-4.83
999.108	-8.23
999.534	2.47
999.959	-2.73
1000.385	-3.63
1000.811	-3.73
1001.236	-1.23
1001.662	-2.93
1002.087	-4.33
1002.513	1.87
1002.938	6.97
1003.364	-6.73
1003.789	2.87
1004.215	4.57
1004.64	2.07
1005.066	4.07
1005.491	4.67
1005.916	-3.13
1006.342	3.17
1006.767	-3.63
1007.192	8.87
1007.617	-8.23
1008.042	-9.13
1008.468	-8.03
1008.893	-4.53
1009.318	-1.53
1009.743	-6.33
1010.168	5.57
1010.593	3.77
1011.018	-8.13
1011.443	2.07
1011.868	7.87
1012.293	-4.13
1012.718	-9.33
1013.143	-2.33
1013.567	9.67
1013.992	3.67
1014.417	-12.73
1014.842	-0.73
1015.267	-7.83
1015.691	-2.13
1016.116	1.67
1016.541	3.47
1016.965	3.27
1017.39	0.87
1017.814	0.07
1018.239	5.57
1018.663	-1.63
1019.088	-9.43
1019.512	-4.33
1019.937	-0.83
1020.361	-5.23
1020.785	-8.43
1021.21	-1.23
1021.634	-0.83
1022.058	-3.63
1022.483	5.87
1022.907	-5.23
1023.331	-0.63
1023.755	-1.33
1024.179	3.27
1024.604	-7.03
1025.028	-2.43
1025.452	-10.63
1025.876	-0.23
1026.3	2.57
1026.724	-12.13
1027.148	-3.43
1027.572	-3.93
1027.996	-4.73
1028.42	-5.23
1028.843	-4.03
1029.267	-2.23
1029.691	-4.23
1030.115	-4.23
1030.539	-11.33
1030.962	-6.33
1031.386	-9.43
1031.81	-5.03
1032.233	3.27
1032.657	-7.23
1033.08	-1.93
1033.504	-5.33
1033.927	-2.03
1034.351	-1.93
1034.774	1.77
1035.198	3.97
1035.621	-0.43
1036.045	-5.83
1036.468	1.17
1036.891	-4.63
1037.315	-6.73
1037.738	-11.53
1038.161	2.47
1038.584	-1.53
1039.008	-6.43
1039.431	0.97
1039.854	-3.03
1040.277	-9.23
1040.7	-8.13
1041.123	7.07
1041.546	-4.93
1041.969	-3.23
1042.392	-4.63
1042.815	-0.43
1043.238	5.27
1043.661	-1.23
1044.084	-5.03
1044.507	-7.03
1044.93	-4.23
1045.352	-6.43
1045.775	3.77
1046.198	-3.33
1046.621	-1.53
1047.043	4.07
1047.466	5.27
1047.889	-7.23
1048.311	-5.53
1048.734	-4.93
1049.156	-1.43
1049.579	-0.53
1050.001	4.67
1050.424	2.67
1050.846	0.27
1051.269	-4.63
1051.691	-7.43
1052.113	-1.13
1052.536	-0.83
1052.958	-1.13
1053.38	1.27
1053.802	-6.43
1054.225	3.27
1054.647	-7.73
1055.069	-3.23
1055.491	7.27
1055.913	-7.83
1056.335	7.87
1056.757	-3.23
1057.179	-3.53
1057.601	-5.83
1058.023	-1.43
1058.445	0.77
1058.867	-1.03
1059.289	-2.83
1059.711	-5.73
1060.133	4.57
1060.555	-2.43
1060.976	-4.83
1061.398	1.37
1061.82	-3.53
1062.241	-4.03
1062.663	-6.93
1063.085	-7.83
1063.506	-1.93
1063.928	-0.63
1064.35	-2.93
1064.771	-4.63
1065.193	-0.73
1065.614	-12.93
1066.035	-5.73
1066.457	-7.13
1066.878	4.57
1067.3	-1.53
1067.721	1.77
1068.142	-6.03
1068.564	0.37
1068.985	-4.63
1069.406	-3.93
1069.827	-4.43
1070.248	6.67
1070.67	-0.73
1071.091	-6.33
1071.512	-4.33
1071.933	-7.03
1072.354	-3.73
1072.775	-8.03
1073.196	-2.93
1073.617	-5.63
1074.038	-6.43
1074.459	0.47
1074.88	-7.93
1075.3	5.57
1075.721	-3.23
1076.142	3.17
1076.563	-3.53
1076.983	-4.53
1077.404	-4.53
1077.825	-9.43
1078.246	-5.43
1078.666	-6.83
1079.087	-2.93
1079.507	-4.93
1079.928	-3.13
1080.348	0.67
1080.769	-3.93
1081.189	0.17
1081.61	-1.43
1082.03	-7.33
1082.451	-8.33
1082.871	-3.73
1083.291	-4.53
1083.711	-11.53
1084.132	-4.93
1084.552	-3.93
1084.972	-0.03
1085.392	-8.73
1085.813	-5.83
1086.233	-7.73
1086.653	-5.83
1087.073	-5.43
1087.493	-5.33
1087.913	-6.53
1088.333	-7.43
1088.753	-3.83
1089.173	-0.53
1089.593	-0.33
1090.013	6.77
1090.433	3.27
1090.852	-6.83
1091.272	-0.63
1091.692	-5.03
1092.112	-1.63
1092.531	-2.23
1092.951	-11.23
1093.371	0.37
1093.79	2.97
1094.21	-1.03
1094.63	-4.03
1095.049	-1.43
1095.469	-4.63
1095.888	-1.63
1096.308	-0.83
1096.727	1.67
1097.146	-7.33
1097.566	-0.83
1097.985	0.67
1098.405	4.87
1098.824	-0.33
1099.243	2.87
1099.662	-4.33
1100.082	-6.33
1100.501	0.07
1100.92	-3.93
1101.339	-0.63
1101.758	-2.13
