Data from 20171114-ORNL-Ar_H_NY_Subt18_08-05-55-074.txt Node
Date: Tue Nov 14 08:05:55 EST 2017
User: Ender
Spectrometer: HR+D1039
Trigger mode: 0
Integration Time (sec): 2.730000E-2
Scans to average: 10
Electric dark correction enabled: true
Nonlinearity correction enabled: false
Boxcar width: 0
XAxis mode: Wavelengths
Number of Pixels in Spectrum: 2048
>>>>>Begin Spectral Data<<<<<
187.836	-3.48
188.309	-3.48
188.782	-3.48
189.255	-0.08
189.728	-0.58
190.201	9.22
190.674	-0.88
191.147	3.72
191.619	-8.88
192.092	1.92
192.565	1.22
193.038	-1.28
193.511	-3.08
193.984	4.92
194.456	-0.88
194.929	-1.08
195.402	-2.88
195.874	2.12
196.347	1.82
196.82	-9.18
197.292	7.32
197.765	-0.18
198.237	-9.78
198.71	3.72
199.182	-4.18
199.655	-2.98
200.127	1.12
200.6	-0.78
201.072	-2.18
201.544	-5.48
202.017	-6.08
202.489	4.82
202.961	2.72
203.433	-0.68
203.906	-5.88
204.378	-7.18
204.85	2.02
205.322	-8.48
205.794	-0.28
206.266	0.32
206.739	-8.48
207.211	7.52
207.683	-9.68
208.155	-5.48
208.627	-9.78
209.099	-2.28
209.57	-9.48
210.042	-9.38
210.514	-6.58
210.986	-0.38
211.458	-8.58
211.93	3.12
212.402	4.02
212.873	-5.48
213.345	-9.68
213.817	-10.08
214.288	-7.48
214.76	-14.08
215.232	-2.38
215.703	-4.88
216.175	-0.58
216.646	-10.28
217.118	-11.18
217.589	-2.28
218.061	-3.78
218.532	-5.08
219.004	-3.98
219.475	-4.58
219.946	2.62
220.418	-6.88
220.889	8.42
221.36	0.62
221.832	-0.08
222.303	-8.88
222.774	1.62
223.245	-15.18
223.717	-7.78
224.188	-3.48
224.659	-1.38
225.13	-4.38
225.601	-6.48
226.072	-1.28
226.543	0.52
227.014	2.32
227.485	-4.78
227.956	-5.28
228.427	-2.78
228.898	1.32
229.369	4.92
229.839	-1.68
230.31	-8.48
230.781	3.62
231.252	1.82
231.722	-5.48
232.193	1.32
232.664	-1.68
233.135	4.72
233.605	-1.08
234.076	-1.28
234.546	-2.98
235.017	2.22
235.487	-0.78
235.958	-3.38
236.428	-6.18
236.899	-1.08
237.369	3.52
237.84	-0.68
238.31	7.72
238.78	5.02
239.251	0.72
239.721	5.02
240.191	2.42
240.662	1.02
241.132	-0.98
241.602	-3.48
242.072	4.42
242.542	7.92
243.013	3.82
243.483	14.92
243.953	4.52
244.423	-2.58
244.893	-4.18
245.363	-1.88
245.833	3.82
246.303	-3.58
246.773	7.82
247.243	0.22
247.712	6.32
248.182	6.82
248.652	4.02
249.122	4.12
249.592	16.22
250.061	23.02
250.531	31.72
251.001	16.02
251.471	22.22
251.94	14.22
252.41	6.42
252.879	1.62
253.349	13.12
253.818	4.32
254.288	3.42
254.757	4.02
255.227	2.72
255.696	9.42
256.166	0.62
256.635	2.82
257.105	4.52
257.574	8.82
258.043	9.12
258.513	8.42
258.982	17.92
259.451	8.22
259.92	14.92
260.389	13.72
260.859	22.22
261.328	10.72
261.797	22.12
262.266	10.82
262.735	13.82
263.204	4.02
263.673	1.72
264.142	8.12
264.611	-3.08
265.08	-0.58
265.549	-2.18
266.018	1.82
266.487	-0.38
266.955	1.52
267.424	2.02
267.893	9.22
268.362	2.62
268.83	9.42
269.299	12.02
269.768	2.32
270.236	7.82
270.705	5.12
271.174	15.82
271.642	8.52
272.111	6.62
272.579	15.72
273.048	23.42
273.516	31.62
273.985	30.12
274.453	28.22
274.922	18.32
275.39	12.52
275.858	1.62
276.327	12.42
276.795	20.02
277.263	18.12
277.731	37.72
278.2	59.62
278.668	66.22
279.136	49.42
279.604	24.82
280.072	13.62
280.54	14.52
281.008	17.22
281.477	19.82
281.945	20.22
282.413	17.22
282.881	15.52
283.348	11.52
283.816	12.42
284.284	10.82
284.752	22.62
285.22	12.82
285.688	7.42
286.156	19.02
286.623	45.02
287.091	54.92
287.559	33.52
288.026	24.72
288.494	21.02
288.962	9.72
289.429	8.82
289.897	15.22
290.364	14.02
290.832	19.72
291.3	17.72
291.767	21.82
292.234	25.82
292.702	13.52
293.169	20.92
293.637	22.82
294.104	20.92
294.571	8.22
295.039	11.62
295.506	19.42
295.973	14.52
296.44	13.82
296.908	22.92
297.375	23.62
297.842	20.72
298.309	18.52
298.776	11.52
299.243	17.72
299.71	16.12
300.177	21.82
300.644	22.82
301.111	19.62
301.578	27.22
302.045	16.72
302.512	25.42
302.979	28.32
303.446	23.72
303.913	16.22
304.379	18.52
304.846	27.62
305.313	23.92
305.78	22.22
306.246	25.92
306.713	31.62
307.18	33.32
307.646	34.42
308.113	35.02
308.579	25.82
309.046	29.82
309.512	26.12
309.979	17.82
310.445	28.12
310.912	29.32
311.378	33.32
311.845	29.02
312.311	30.52
312.777	36.62
313.244	32.62
313.71	36.62
314.176	35.12
314.642	31.72
315.109	34.82
315.575	35.32
316.041	39.82
316.507	32.72
316.973	37.92
317.439	34.42
317.905	44.92
318.371	35.92
318.837	38.92
319.303	34.92
319.769	40.62
320.235	39.22
320.701	39.12
321.167	38.62
321.633	39.32
322.099	37.72
322.564	46.92
323.03	46.52
323.496	40.12
323.962	41.32
324.427	34.12
324.893	47.42
325.359	40.92
325.824	35.72
326.29	44.62
326.755	42.42
327.221	38.82
327.686	45.42
328.152	49.22
328.617	48.52
329.083	50.82
329.548	46.92
330.014	49.12
330.479	39.62
330.944	44.62
331.41	42.62
331.875	45.42
332.34	42.82
332.805	45.42
333.271	56.32
333.736	43.82
334.201	57.02
334.666	44.82
335.131	58.92
335.596	44.32
336.061	60.32
336.526	43.92
336.991	51.22
337.456	57.22
337.921	52.52
338.386	47.92
338.851	48.62
339.316	47.32
339.781	44.82
340.246	53.62
340.711	43.92
341.175	48.52
341.64	51.82
342.105	44.92
342.569	54.92
343.034	60.32
343.499	64.42
343.963	47.72
344.428	66.12
344.893	54.12
345.357	63.22
345.822	66.42
346.286	72.72
346.751	75.52
347.215	69.32
347.679	76.72
348.144	97.62
348.608	84.82
349.073	74.12
349.537	78.42
350.001	78.62
350.465	95.12
350.93	83.32
351.394	85.72
351.858	73.42
352.322	87.52
352.786	88.22
353.25	100.62
353.715	111.62
354.179	100.22
354.643	119.72
355.107	134.52
355.571	115.62
356.035	103.02
356.498	117.72
356.962	128.52
357.426	132.62
357.89	119.22
358.354	96.22
358.818	85.62
359.281	82.72
359.745	86.52
360.209	77.62
360.673	73.62
361.136	81.62
361.6	90.42
362.064	94.12
362.527	87.72
362.991	97.42
363.454	89.12
363.918	80.02
364.381	89.02
364.845	87.02
365.308	88.52
365.772	87.32
366.235	82.72
366.698	83.22
367.162	90.72
367.625	88.12
368.088	87.02
368.552	91.72
369.015	87.22
369.478	96.32
369.941	100.02
370.404	103.82
370.867	112.82
371.331	110.52
371.794	116.22
372.257	119.92
372.72	116.62
373.183	114.02
373.646	102.92
374.109	106.42
374.572	114.42
375.035	107.72
375.497	115.42
375.96	108.72
376.423	108.52
376.886	122.92
377.349	112.02
377.811	106.42
378.274	106.22
378.737	108.02
379.199	112.42
379.662	116.52
380.125	119.92
380.587	120.72
381.05	125.52
381.512	136.72
381.975	145.72
382.437	131.62
382.9	130.02
383.362	135.32
383.825	148.02
384.287	152.32
384.75	144.62
385.212	140.72
385.674	146.12
386.136	138.72
386.599	128.92
387.061	133.62
387.523	132.72
387.985	133.42
388.447	152.72
388.91	149.62
389.372	164.72
389.834	155.32
390.296	150.92
390.758	151.22
391.22	168.72
391.682	209.62
392.144	308.22
392.606	233.22
393.068	170.02
393.529	168.42
393.991	150.12
394.453	144.62
394.915	160.42
395.377	190.52
395.838	215.72
396.3	159.22
396.762	136.92
397.224	133.02
397.685	134.92
398.147	138.42
398.608	132.02
399.07	123.72
399.531	138.72
399.993	143.32
400.454	159.02
400.916	152.52
401.377	148.52
401.839	156.62
402.3	162.92
402.762	169.52
403.223	183.82
403.684	180.92
404.145	163.92
404.607	165.22
405.068	165.12
405.529	181.12
405.99	191.62
406.451	177.72
406.913	175.92
407.374	165.92
407.835	169.92
408.296	168.72
408.757	181.92
409.218	192.62
409.679	181.62
410.14	183.22
410.601	187.02
411.062	189.92
411.522	194.02
411.983	193.52
412.444	175.32
412.905	186.52
413.366	185.32
413.826	194.52
414.287	216.82
414.748	266.32
415.208	255.52
415.669	215.82
416.13	213.22
416.59	206.92
417.051	214.12
417.511	221.62
417.972	241.52
418.432	246.62
418.893	290.22
419.353	259.72
419.814	194.92
420.274	190.22
420.734	184.82
421.195	198.32
421.655	199.32
422.115	195.82
422.576	196.42
423.036	201.52
423.496	212.02
423.956	221.02
424.416	231.12
424.876	268.42
425.336	260.12
425.797	262.42
426.257	257.52
426.717	236.82
427.177	240.12
427.637	221.92
428.097	240.22
428.556	245.22
429.016	275.12
429.476	264.82
429.936	282.52
430.396	284.22
430.856	297.42
431.315	321.92
431.775	358.62
432.235	391.82
432.694	364.52
433.154	365.42
433.614	397.92
434.073	350.62
434.533	288.82
434.993	278.72
435.452	291.12
435.912	303.72
436.371	297.92
436.83	287.32
437.29	278.52
437.749	251.72
438.209	253.42
438.668	277.82
439.127	289.32
439.587	266.02
440.046	253.62
440.505	265.92
440.964	285.92
441.424	335.32
441.883	324.92
442.342	265.32
442.801	231.82
443.26	224.62
443.719	231.02
444.178	218.12
444.637	212.42
445.096	225.42
445.555	227.52
446.014	224.32
446.473	227.92
446.932	230.72
447.391	231.12
447.849	239.12
448.308	219.02
448.767	230.32
449.226	239.02
449.685	238.52
450.143	253.02
450.602	234.12
451.061	233.42
451.519	242.02
451.978	240.32
452.436	241.72
452.895	251.42
453.353	263.82
453.812	248.22
454.27	241.72
454.729	243.82
455.187	239.12
455.646	246.62
456.104	252.72
456.562	261.02
457.021	281.32
457.479	261.72
457.937	282.12
458.395	267.32
458.854	248.22
459.312	257.72
459.77	287.72
460.228	259.32
460.686	248.62
461.144	254.42
461.602	250.82
462.06	246.82
462.518	252.82
462.976	256.42
463.434	270.42
463.892	265.02
464.35	281.92
464.808	288.92
465.266	275.22
465.724	279.42
466.181	271.02
466.639	279.52
467.097	294.92
467.555	312.22
468.012	305.42
468.47	318.02
468.928	330.92
469.385	343.12
469.843	349.42
470.3	358.72
470.758	368.12
471.215	399.52
471.673	415.92
472.13	416.42
472.588	430.42
473.045	382.12
473.503	395.32
473.96	404.92
474.417	410.82
474.875	439.52
475.332	484.82
475.789	464.12
476.246	477.62
476.704	491.12
477.161	520.82
477.618	539.92
478.075	565.22
478.532	641.02
478.989	712.92
479.446	826.72
479.903	801.32
480.36	827.52
480.817	892.22
481.274	992.52
481.731	1100.02
482.188	1192.82
482.645	1341.12
483.102	1445.52
483.558	1582.12
484.015	1629.02
484.472	1611.82
484.929	1560.22
485.385	1508.72
485.842	1472.22
486.299	1391.52
486.755	1338.02
487.212	1120.72
487.668	948.72
488.125	868.92
488.582	792.72
489.038	760.62
489.494	740.32
489.951	708.22
490.407	684.92
490.864	658.82
491.32	654.72
491.776	658.22
492.233	666.52
492.689	620.82
493.145	629.92
493.602	607.82
494.058	623.42
494.514	628.32
494.97	656.42
495.426	665.02
495.882	649.62
496.338	629.32
496.794	645.22
497.251	645.52
497.707	653.22
498.163	653.22
498.618	657.42
499.074	665.92
499.53	694.22
499.986	698.72
500.442	665.82
500.898	653.62
501.354	635.02
501.809	649.32
502.265	664.02
502.721	675.72
503.177	682.52
503.632	670.62
504.088	693.62
504.543	728.22
504.999	729.02
505.455	671.82
505.91	649.82
506.366	647.82
506.821	638.52
507.277	636.92
507.732	635.32
508.187	640.12
508.643	644.12
509.098	647.62
509.553	672.52
510.009	674.82
510.464	684.52
510.919	712.32
511.375	712.02
511.83	725.32
512.285	751.12
512.74	770.92
513.195	804.02
513.65	791.82
514.105	786.52
514.56	779.02
515.015	808.22
515.47	826.12
515.925	811.82
516.38	806.02
516.835	812.12
517.29	803.32
517.745	794.02
518.2	781.02
518.655	774.12
519.109	758.52
519.564	748.22
520.019	748.92
520.474	736.12
520.928	734.12
521.383	733.82
521.838	721.82
522.292	730.02
522.747	724.62
523.201	715.62
523.656	714.62
524.11	707.12
524.565	708.52
525.019	707.12
525.474	721.42
525.928	717.82
526.382	716.62
526.837	717.12
527.291	712.22
527.745	710.42
528.2	724.52
528.654	707.72
529.108	700.02
529.562	704.02
530.016	696.02
530.47	706.32
530.925	703.42
531.379	699.42
531.833	721.32
532.287	719.82
532.741	718.02
533.195	729.92
533.649	728.52
534.103	742.02
534.556	718.32
535.01	724.92
535.464	721.42
535.918	729.62
536.372	739.62
536.826	734.22
537.279	718.32
537.733	729.92
538.187	732.42
538.64	728.62
539.094	749.12
539.548	738.82
540.001	744.62
540.455	740.32
540.908	751.92
541.362	751.12
541.815	750.82
542.269	761.92
542.722	773.52
543.175	790.72
543.629	795.62
544.082	801.32
544.536	804.02
544.989	800.62
545.442	800.12
545.895	797.02
546.349	807.02
546.802	808.72
547.255	802.72
547.708	820.42
548.161	833.32
548.614	842.32
549.067	839.62
549.52	838.22
549.973	829.22
550.426	818.02
550.879	811.42
551.332	809.42
551.785	817.62
552.238	823.12
552.691	825.52
553.144	851.92
553.596	863.52
554.049	886.12
554.502	916.42
554.955	928.12
555.407	918.02
555.86	906.72
556.313	904.72
556.765	893.32
557.218	906.22
557.67	892.22
558.123	894.32
558.576	895.92
559.028	892.82
559.48	902.22
559.933	890.72
560.385	855.62
560.838	815.02
561.29	793.82
561.742	798.32
562.195	768.02
562.647	781.72
563.099	787.12
563.551	786.42
564.004	799.32
564.456	788.92
564.908	780.72
565.36	750.82
565.812	736.32
566.264	739.82
566.716	728.02
567.168	720.02
567.62	731.22
568.072	718.12
568.524	702.92
568.976	701.62
569.428	687.72
569.88	683.72
570.332	692.02
570.784	698.52
571.235	691.22
571.687	702.12
572.139	713.62
572.59	713.32
573.042	718.52
573.494	722.52
573.945	710.22
574.397	693.02
574.849	705.42
575.3	705.12
575.752	689.52
576.203	695.62
576.655	689.22
577.106	682.62
577.557	675.42
578.009	676.52
578.46	673.82
578.912	670.52
579.363	658.42
579.814	670.32
580.265	672.62
580.717	672.72
581.168	674.12
581.619	689.82
582.07	685.62
582.521	684.42
582.972	677.82
583.423	690.32
583.875	695.62
584.326	704.82
584.777	763.72
585.227	834.02
585.678	923.02
586.129	1016.42
586.58	1091.02
587.031	1175.12
587.482	1345.12
587.933	1537.32
588.384	1334.32
588.834	984.92
589.285	804.22
589.736	786.42
590.186	781.72
590.637	775.92
591.088	750.82
591.538	748.62
591.989	742.62
592.439	736.72
592.89	738.32
593.34	715.32
593.791	718.62
594.241	712.92
594.692	713.42
595.142	698.62
595.593	718.72
596.043	713.32
596.493	722.42
596.943	717.42
597.394	731.62
597.844	724.02
598.294	744.32
598.744	761.62
599.195	773.82
599.645	820.42
600.095	865.52
600.545	919.52
600.995	972.52
601.445	1030.32
601.895	1097.22
602.345	1140.22
602.795	1122.82
603.245	1066.42
603.695	1013.72
604.145	948.42
604.594	916.02
605.044	867.52
605.494	805.52
605.944	760.02
606.393	742.72
606.843	738.72
607.293	736.12
607.743	732.82
608.192	752.72
608.642	757.62
609.091	776.02
609.541	774.22
609.99	774.02
610.44	766.72
610.889	730.02
611.339	705.52
611.788	698.62
612.238	703.62
612.687	717.32
613.136	722.22
613.586	750.72
614.035	732.82
614.484	759.32
614.933	755.82
615.383	742.32
615.832	742.22
616.281	730.72
616.73	696.12
617.179	672.42
617.628	654.42
618.077	636.52
618.526	621.52
618.975	623.02
619.424	614.12
619.873	613.52
620.322	617.62
620.771	605.52
621.22	602.42
621.669	614.82
622.118	584.52
622.567	579.22
623.015	577.42
623.464	580.32
623.913	569.62
624.361	559.02
624.81	555.92
625.259	549.42
625.707	556.22
626.156	562.62
626.604	569.52
627.053	553.62
627.501	559.12
627.95	565.52
628.398	580.72
628.847	577.52
629.295	563.62
629.744	586.42
630.192	564.62
630.64	566.82
631.089	566.72
631.537	580.92
631.985	583.62
632.433	595.12
632.881	608.22
633.33	648.82
633.778	646.42
634.226	568.32
634.674	571.32
635.122	571.42
635.57	612.32
636.018	629.22
636.466	588.32
636.914	563.32
637.362	566.72
637.81	574.02
638.258	580.82
638.705	581.12
639.153	615.32
639.601	613.02
640.049	636.52
640.497	674.22
640.944	696.72
641.392	640.12
641.84	616.52
642.287	583.82
642.735	573.42
643.182	570.62
643.63	572.12
644.078	569.22
644.525	588.82
644.973	600.32
645.42	598.02
645.867	621.02
646.315	642.12
646.762	655.92
647.21	690.12
647.657	706.62
648.104	753.02
648.551	777.02
648.999	833.02
649.446	923.62
649.893	1003.02
650.34	1151.02
650.787	1381.52
651.234	1717.52
651.682	2239.02
652.129	3084.02
652.576	4408.52
653.023	6560.22
653.47	8991.72
653.917	11261.22
654.363	13037.52
654.81	14443.52
655.257	13797.72
655.704	8986.12
656.151	5307.22
656.598	3434.52
657.044	2432.82
657.491	1873.42
657.938	1488.72
658.385	1257.12
658.831	1082.42
659.278	958.92
659.724	860.12
660.171	790.62
660.618	722.62
661.064	692.12
661.511	661.32
661.957	647.32
662.404	632.22
662.85	654.32
663.296	623.32
663.743	551.22
664.189	539.62
664.635	532.92
665.082	522.62
665.528	521.42
665.974	506.92
666.42	502.02
666.867	506.22
667.313	480.32
667.759	479.12
668.205	474.02
668.651	482.82
669.097	481.42
669.543	500.32
669.989	467.72
670.435	451.82
670.881	447.62
671.327	452.42
671.773	462.42
672.219	481.12
672.665	537.92
673.11	579.92
673.556	621.22
674.002	659.52
674.448	647.82
674.893	534.92
675.339	471.62
675.785	432.62
676.23	406.82
676.676	380.32
677.122	378.72
677.567	365.32
678.013	364.82
678.458	348.62
678.904	358.12
679.349	346.62
679.794	355.02
680.24	343.42
680.685	340.72
681.131	345.92
681.576	344.42
682.021	352.42
682.466	342.42
682.912	341.72
683.357	340.12
683.802	373.82
684.247	404.32
684.692	443.62
685.137	484.92
685.583	522.12
686.028	559.22
686.473	518.22
686.918	444.52
687.363	416.42
687.807	392.32
688.252	350.42
688.697	359.02
689.142	335.32
689.587	326.52
690.032	319.62
690.477	334.02
690.921	348.42
691.366	367.52
691.811	406.72
692.255	419.72
692.7	450.62
693.145	488.92
693.589	686.52
694.034	1106.02
694.478	1502.12
694.923	1717.82
695.367	2242.52
695.812	1170.22
696.256	489.32
696.701	371.42
697.145	335.22
697.59	326.42
698.034	310.72
698.478	318.52
698.922	317.62
699.367	318.02
699.811	338.92
700.255	348.82
700.699	381.52
701.143	421.12
701.588	463.62
702.032	503.22
702.476	511.32
702.92	480.92
703.364	487.72
703.808	615.52
704.252	1007.92
704.696	1421.42
705.14	1645.32
705.584	2100.62
706.027	1054.12
706.471	512.22
706.915	389.72
707.359	347.92
707.803	314.22
708.246	306.02
708.69	304.42
709.134	308.22
709.577	302.72
710.021	308.32
710.465	295.92
710.908	299.52
711.352	291.92
711.795	307.62
712.239	344.02
712.682	375.12
713.126	414.92
713.569	467.22
714.012	364.32
714.456	317.62
714.899	300.02
715.342	274.02
715.786	262.72
716.229	254.72
716.672	256.92
717.115	241.52
717.558	255.22
718.002	246.52
718.445	258.22
718.888	280.52
719.331	291.22
719.774	302.72
720.217	296.32
720.66	280.02
721.103	259.42
721.546	250.42
721.989	243.12
722.432	234.02
722.874	238.32
723.317	225.12
723.76	233.22
724.203	249.32
724.645	306.02
725.088	430.42
725.531	557.62
725.974	639.12
726.416	533.02
726.859	302.12
727.301	245.92
727.744	240.32
728.187	232.72
728.629	241.92
729.071	235.92
729.514	258.92
729.956	274.92
730.399	285.12
730.841	280.82
731.283	266.02
731.726	261.32
732.168	254.42
732.61	262.32
733.053	284.32
733.495	310.22
733.937	344.12
734.379	387.02
734.821	430.02
735.263	528.02
735.705	808.22
736.148	1518.42
736.59	2499.82
737.032	3003.62
737.474	2446.92
737.916	786.82
738.357	418.82
738.799	323.02
739.241	289.92
739.683	279.52
740.125	292.02
740.567	294.52
741.008	305.82
741.45	306.52
741.892	311.62
742.334	340.52
742.775	352.32
743.217	329.92
743.658	260.12
744.1	248.02
744.542	257.22
744.983	307.62
745.425	336.72
745.866	345.12
746.307	275.02
746.749	275.62
747.19	321.72
747.632	442.12
748.073	846.22
748.514	1789.32
748.956	2781.12
749.397	3473.32
749.838	2892.52
750.279	2907.22
750.72	1461.02
751.162	531.82
751.603	311.82
752.044	243.62
752.485	213.32
752.926	204.12
753.367	197.12
753.808	190.82
754.249	193.52
754.69	181.92
755.131	184.72
755.572	182.12
756.013	163.62
756.453	180.32
756.894	178.92
757.335	187.72
757.776	187.02
758.216	196.52
758.657	193.72
759.098	195.72
759.538	217.22
759.979	254.02
760.42	369.52
760.86	672.32
761.301	1751.22
761.741	4249.42
762.182	6302.82
762.622	4450.52
763.063	1268.02
763.503	533.62
763.943	341.12
764.384	336.72
764.824	405.02
765.264	438.62
765.705	308.42
766.145	217.72
766.585	180.12
767.025	175.72
767.465	182.02
767.906	241.62
768.346	313.22
768.786	343.82
769.226	265.72
769.666	310.12
770.106	597.62
770.546	1502.42
770.986	2579.52
771.426	2335.82
771.866	779.42
772.306	317.62
772.745	204.42
773.185	166.32
773.625	162.22
774.065	162.32
774.505	191.32
774.944	303.72
775.384	644.62
775.824	1200.92
776.263	1174.52
776.703	499.12
777.142	216.22
777.582	149.72
778.021	132.02
778.461	128.82
778.9	139.52
779.34	129.92
779.779	114.62
780.219	107.32
780.658	106.62
781.097	110.72
781.537	109.12
781.976	105.82
782.415	106.52
782.855	109.22
783.294	99.42
783.733	107.22
784.172	110.12
784.611	102.62
785.05	107.92
785.489	112.92
785.928	118.72
786.367	120.32
786.806	121.42
787.245	127.92
787.684	131.32
788.123	144.32
788.562	135.42
789.001	120.32
789.44	122.42
789.879	119.92
790.317	115.72
790.756	127.82
791.195	126.02
791.634	141.42
792.072	192.72
792.511	351.82
792.95	963.02
793.388	2092.22
793.827	1910.92
794.265	655.22
794.704	265.82
795.142	176.82
795.581	145.72
796.019	134.72
796.458	129.52
796.896	116.22
797.334	129.12
797.773	148.32
798.211	203.22
798.649	421.22
799.087	981.82
799.526	1553.72
799.964	1951.82
800.402	1971.42
800.84	740.12
801.278	295.92
801.716	179.32
802.154	151.02
802.592	142.22
803.03	131.62
803.468	137.62
803.906	134.72
804.344	147.42
804.782	141.42
805.22	125.12
805.658	124.92
806.096	147.12
806.533	145.32
806.971	172.82
807.409	210.32
807.847	297.32
808.284	632.72
808.722	1798.92
809.16	3201.02
809.597	3007.42
810.035	5254.42
810.472	5694.62
810.91	2028.62
811.347	775.32
811.785	389.32
812.222	241.52
812.66	190.72
813.097	162.02
813.535	131.72
813.972	121.42
814.409	116.12
814.846	102.82
815.284	112.52
815.721	97.32
816.158	102.42
816.595	117.32
817.032	175.12
817.47	192.72
817.907	172.22
818.344	155.92
818.781	111.72
819.218	101.52
819.655	118.92
820.092	174.02
820.529	204.82
820.966	169.52
821.403	137.02
821.839	106.22
822.276	101.42
822.713	111.22
823.15	131.22
823.587	111.12
824.023	140.02
824.46	280.62
824.897	858.62
825.333	1323.92
825.77	564.72
826.206	229.72
826.643	129.12
827.08	95.72
827.516	81.52
827.953	85.42
828.389	83.42
828.825	68.22
829.262	64.92
829.698	58.02
830.135	62.72
830.571	62.72
831.007	63.42
831.443	64.52
831.88	64.92
832.316	67.92
832.752	61.02
833.188	59.42
833.624	56.32
834.06	59.92
834.497	57.22
834.933	66.92
835.369	75.92
835.805	65.42
836.241	74.32
836.677	75.82
837.112	87.02
837.548	107.12
837.984	130.72
838.42	190.82
838.856	471.32
839.292	1454.52
839.727	2265.92
840.163	1048.72
840.599	889.12
841.034	1959.52
841.47	2083.12
841.906	755.02
842.341	327.92
842.777	229.52
843.212	314.22
843.648	312.22
844.083	150.32
844.519	96.52
844.954	77.42
845.39	53.52
845.825	59.72
846.261	56.82
846.696	54.62
847.131	48.12
847.566	56.72
848.002	46.22
848.437	55.92
848.872	51.82
849.307	57.82
849.742	82.92
850.177	172.12
850.613	545.92
851.048	869.42
851.483	373.52
851.918	153.02
852.353	80.92
852.788	55.12
853.223	58.42
853.657	47.82
854.092	48.32
854.527	35.32
854.962	42.12
855.397	40.12
855.832	50.32
856.266	42.62
856.701	37.32
857.136	34.42
857.57	36.12
858.005	46.82
858.44	53.62
858.874	37.62
859.309	53.52
859.743	36.92
860.178	50.22
860.612	46.12
861.047	52.02
861.481	67.22
861.915	72.42
862.35	50.02
862.784	27.02
863.218	41.32
863.653	32.32
864.087	50.12
864.521	52.42
864.955	71.62
865.39	154.12
865.824	176.92
866.258	111.02
866.692	155.82
867.126	170.42
867.56	95.82
867.994	52.42
868.428	36.32
868.862	46.42
869.296	49.72
869.73	54.72
870.164	50.22
870.598	41.72
871.031	38.02
871.465	27.12
871.899	30.42
872.333	21.52
872.766	27.22
873.2	22.62
873.634	32.32
874.067	26.22
874.501	24.92
874.935	34.52
875.368	28.02
875.802	32.32
876.235	27.22
876.669	26.92
877.102	21.62
877.535	21.82
877.969	21.82
878.402	21.52
878.836	20.92
879.269	22.82
879.702	17.12
880.135	19.72
880.569	25.52
881.002	20.32
881.435	24.12
881.868	15.62
882.301	20.42
882.734	18.82
883.167	23.42
883.601	19.02
884.034	26.82
884.467	13.62
884.899	19.92
885.332	18.42
885.765	15.52
886.198	12.72
886.631	13.72
887.064	17.72
887.497	22.52
887.929	28.42
888.362	16.42
888.795	12.72
889.228	14.42
889.66	23.72
890.093	20.62
890.526	20.32
890.958	11.42
891.391	19.92
891.823	21.52
892.256	17.02
892.688	20.42
893.121	11.32
893.553	13.12
893.985	24.82
894.418	22.72
894.85	12.22
895.282	17.42
895.715	10.72
896.147	16.22
896.579	11.02
897.011	15.92
897.444	16.92
897.876	13.82
898.308	18.62
898.74	14.12
899.172	16.22
899.604	25.72
900.036	20.32
900.468	13.82
900.9	19.62
901.332	16.62
901.764	11.52
902.196	22.22
902.628	18.72
903.06	17.22
903.491	27.62
903.923	22.82
904.355	20.12
904.787	22.52
905.218	21.12
905.65	16.42
906.082	14.92
906.513	14.12
906.945	17.42
907.376	19.92
907.808	23.42
908.239	19.72
908.671	15.32
909.102	20.02
909.534	26.42
909.965	47.02
910.397	89.72
910.828	294.52
911.259	474.52
911.691	218.92
912.122	98.22
912.553	57.92
912.984	38.62
913.415	28.32
913.847	24.22
914.278	10.92
914.709	20.52
915.14	13.12
915.571	13.82
916.002	12.62
916.433	23.72
916.864	14.02
917.295	6.92
917.726	17.92
918.157	11.62
918.587	30.02
919.018	19.72
919.449	23.32
919.88	24.22
920.311	32.62
920.741	43.42
921.172	163.22
921.603	148.52
922.033	75.52
922.464	46.82
922.895	19.62
923.325	20.52
923.756	15.82
924.186	17.72
924.617	24.42
925.047	39.62
925.478	53.92
925.908	42.72
926.338	27.02
926.769	22.92
927.199	23.82
927.629	11.22
928.06	15.22
928.49	15.82
928.92	14.22
929.35	9.62
929.78	10.52
930.21	15.22
930.641	12.92
931.071	7.72
931.501	0.12
931.931	14.22
932.361	7.52
932.791	4.32
933.221	8.42
933.651	1.52
934.08	14.82
934.51	30.52
934.94	15.32
935.37	7.12
935.8	11.62
936.229	5.12
936.659	14.22
937.089	3.32
937.519	20.12
937.948	19.82
938.378	20.02
938.807	6.12
939.237	8.12
939.666	8.32
940.096	-3.88
940.525	0.52
940.955	-0.28
941.384	3.72
941.814	-4.18
942.243	5.32
942.672	7.02
943.102	1.82
943.531	1.62
943.96	-0.38
944.39	3.32
944.819	-3.38
945.248	5.32
945.677	2.12
946.106	2.22
946.535	7.02
946.964	1.02
947.393	5.72
947.822	-1.58
948.251	-5.28
948.68	7.32
949.109	3.22
949.538	4.42
949.967	-1.08
950.396	-0.68
950.825	-2.58
951.254	3.02
951.682	-5.48
952.111	5.72
952.54	-1.68
952.969	-5.88
953.397	-5.78
953.826	1.42
954.254	-2.38
954.683	8.92
955.112	-0.08
955.54	1.42
955.969	4.72
956.397	6.12
956.826	9.02
957.254	4.52
957.682	-2.08
958.111	5.72
958.539	-3.08
958.967	1.92
959.396	-1.68
959.824	3.52
960.252	-0.28
960.68	-2.68
961.109	-2.08
961.537	-5.78
961.965	-0.78
962.393	2.42
962.821	0.12
963.249	-5.18
963.677	4.82
964.105	0.02
964.533	44.52
964.961	43.72
965.389	22.32
965.817	9.82
966.245	1.82
966.672	-1.68
967.1	-9.08
967.528	-1.38
967.956	-4.48
968.383	-3.28
968.811	-1.68
969.239	-1.98
969.666	0.92
970.094	-0.68
970.522	4.82
970.949	1.52
971.377	-1.28
971.804	-1.18
972.232	-6.48
972.659	-3.48
973.087	-3.48
973.514	-0.88
973.941	-6.18
974.369	4.72
974.796	2.22
975.223	-0.88
975.651	-4.98
976.078	4.82
976.505	-0.38
976.932	1.22
977.359	19.82
977.786	8.62
978.214	-5.88
978.641	-1.48
979.068	-6.58
979.495	-6.68
979.922	-1.48
980.349	-5.98
980.776	0.22
981.202	3.12
981.629	6.12
982.056	3.72
982.483	-0.18
982.91	7.02
983.337	-3.68
983.763	6.42
984.19	0.12
984.617	2.62
985.043	-12.08
985.47	-4.88
985.897	-10.68
986.323	-7.48
986.75	3.92
987.176	-4.08
987.603	-0.08
988.029	-4.58
988.456	-0.08
988.882	-0.68
989.308	-3.88
989.735	-1.88
990.161	-3.78
990.587	-2.18
991.014	-2.38
991.44	7.32
991.866	0.02
992.292	-4.08
992.719	-5.78
993.145	-3.58
993.571	-10.08
993.997	-8.88
994.423	-2.68
994.849	-12.48
995.275	7.22
995.701	7.42
996.127	-4.08
996.553	0.42
996.979	-0.68
997.405	5.72
997.83	-1.88
998.256	-10.08
998.682	-7.28
999.108	-7.28
999.534	0.22
999.959	3.32
1000.385	-6.08
1000.811	2.52
1001.236	-5.68
1001.662	-10.58
1002.087	-13.08
1002.513	-4.28
1002.938	1.22
1003.364	-5.78
1003.789	-2.58
1004.215	-1.18
1004.64	1.12
1005.066	2.62
1005.491	0.82
1005.916	1.62
1006.342	-4.18
1006.767	-7.28
1007.192	-0.28
1007.617	-3.58
1008.042	-3.88
1008.468	-5.78
1008.893	-5.88
1009.318	-3.78
1009.743	-2.48
1010.168	3.82
1010.593	1.22
1011.018	-6.58
1011.443	-2.28
1011.868	-6.58
1012.293	-3.18
1012.718	-5.08
1013.143	2.42
1013.567	5.22
1013.992	0.22
1014.417	-14.68
1014.842	2.02
1015.267	-5.88
1015.691	3.52
1016.116	6.82
1016.541	0.52
1016.965	-0.58
1017.39	4.02
1017.814	-3.18
1018.239	-1.38
1018.663	-8.18
1019.088	-6.28
1019.512	-1.28
1019.937	0.62
1020.361	-0.58
1020.785	-15.28
1021.21	-5.48
1021.634	-5.18
1022.058	-3.78
1022.483	0.42
1022.907	-5.38
1023.331	-7.68
1023.755	-6.18
1024.179	-2.38
1024.604	-7.68
1025.028	-7.78
1025.452	-3.68
1025.876	-1.28
1026.3	-1.08
1026.724	-8.48
1027.148	-6.58
1027.572	-6.48
1027.996	-5.18
1028.42	-0.38
1028.843	-7.68
1029.267	-6.48
1029.691	-2.08
1030.115	-5.88
1030.539	-7.68
1030.962	-6.48
1031.386	-7.78
1031.81	-3.48
1032.233	-0.88
1032.657	-0.58
1033.08	-5.38
1033.504	-1.58
1033.927	-5.68
1034.351	-7.28
1034.774	-8.58
1035.198	-8.98
1035.621	-5.58
1036.045	-3.38
1036.468	1.02
1036.891	-11.08
1037.315	-7.28
1037.738	-10.48
1038.161	1.12
1038.584	-7.78
1039.008	-4.38
1039.431	-5.88
1039.854	0.12
1040.277	-8.18
1040.7	-8.28
1041.123	-4.58
1041.546	-7.58
1041.969	-8.18
1042.392	-9.98
1042.815	-1.78
1043.238	-2.38
1043.661	-2.38
1044.084	-8.68
1044.507	-9.38
1044.93	-7.88
1045.352	-2.58
1045.775	-4.38
1046.198	1.02
1046.621	2.02
1047.043	-1.18
1047.466	6.62
1047.889	-5.28
1048.311	-4.98
1048.734	-6.18
1049.156	-6.18
1049.579	-1.98
1050.001	-4.48
1050.424	-0.68
1050.846	-5.38
1051.269	-4.98
1051.691	-9.38
1052.113	-5.08
1052.536	1.42
1052.958	-1.98
1053.38	-5.78
1053.802	-9.28
1054.225	-1.48
1054.647	-5.58
1055.069	-9.48
1055.491	-2.78
1055.913	2.02
1056.335	-1.08
1056.757	-2.58
1057.179	-4.68
1057.601	-7.78
1058.023	-0.28
1058.445	-5.48
1058.867	-2.78
1059.289	-3.98
1059.711	-10.58
1060.133	-0.58
1060.555	-3.38
1060.976	-3.98
1061.398	-5.78
1061.82	-1.28
1062.241	-3.38
1062.663	-13.68
1063.085	-9.48
1063.506	-2.88
1063.928	-7.38
1064.35	-3.38
1064.771	-11.28
1065.193	-6.88
1065.614	-9.68
1066.035	-5.08
1066.457	-5.08
1066.878	1.32
1067.3	-5.08
1067.721	-0.48
1068.142	-6.18
1068.564	-2.98
1068.985	-5.58
1069.406	-2.88
1069.827	-6.18
1070.248	2.22
1070.67	-8.98
1071.091	-4.08
1071.512	-4.38
1071.933	-7.48
1072.354	-0.78
1072.775	-4.28
1073.196	-2.28
1073.617	-7.88
1074.038	-11.78
1074.459	-1.58
1074.88	-9.28
1075.3	3.92
1075.721	-6.28
1076.142	-1.68
1076.563	-4.08
1076.983	-5.48
1077.404	-3.58
1077.825	-8.98
1078.246	-8.28
1078.666	-7.78
1079.087	-4.58
1079.507	-6.48
1079.928	4.12
1080.348	-2.48
1080.769	-6.48
1081.189	-5.58
1081.61	-1.58
1082.03	-4.78
1082.451	-4.08
1082.871	-1.38
1083.291	-7.28
1083.711	-12.08
1084.132	-4.48
1084.552	-1.78
1084.972	-2.08
1085.392	0.62
1085.813	-12.38
1086.233	-5.48
1086.653	-1.88
1087.073	-2.78
1087.493	-8.18
1087.913	-4.18
1088.333	-2.58
1088.753	-2.08
1089.173	1.72
1089.593	-3.88
1090.013	-3.68
1090.433	1.32
1090.852	-1.58
1091.272	-3.48
1091.692	-8.08
1092.112	-4.48
1092.531	-9.18
1092.951	-11.08
1093.371	-8.48
1093.79	4.12
1094.21	-4.28
1094.63	-5.08
1095.049	-1.78
1095.469	0.62
1095.888	-6.78
1096.308	-4.28
1096.727	1.62
1097.146	-7.98
1097.566	-1.58
1097.985	-5.18
1098.405	-4.08
1098.824	-8.78
1099.243	-8.38
1099.662	-11.58
1100.082	-2.08
1100.501	-1.68
1100.92	-9.38
1101.339	-2.08
1101.758	-9.38
