Data from 20171114-ORNL-Ar_H_NY_Subt18_08-03-35-584.txt Node
Date: Tue Nov 14 08:03:35 EST 2017
User: Ender
Spectrometer: HR+D1039
Trigger mode: 0
Integration Time (sec): 2.730000E-2
Scans to average: 10
Electric dark correction enabled: true
Nonlinearity correction enabled: false
Boxcar width: 0
XAxis mode: Wavelengths
Number of Pixels in Spectrum: 2048
>>>>>Begin Spectral Data<<<<<
187.836	-9.29
188.309	-9.29
188.782	-9.29
189.255	-1.59
189.728	-2.39
190.201	2.31
190.674	2.61
191.147	7.71
191.619	-3.09
192.092	1.71
192.565	2.11
193.038	1.81
193.511	3.81
193.984	1.81
194.456	-1.89
194.929	-4.49
195.402	-2.69
195.874	1.61
196.347	-3.19
196.82	-8.59
197.292	4.61
197.765	-3.99
198.237	-5.99
198.71	-1.79
199.182	1.41
199.655	2.11
200.127	4.11
200.6	-5.19
201.072	-1.19
201.544	-2.49
202.017	-0.39
202.489	1.01
202.961	-2.99
203.433	-7.99
203.906	0.61
204.378	-6.29
204.85	-6.29
205.322	-8.79
205.794	-4.99
206.266	-3.79
206.739	-5.69
207.211	4.21
207.683	-6.09
208.155	-4.79
208.627	-11.19
209.099	-3.39
209.57	-12.39
210.042	-4.79
210.514	-7.29
210.986	-7.99
211.458	-7.29
211.93	-1.49
212.402	-1.89
212.873	-9.49
213.345	-4.69
213.817	-9.19
214.288	-4.49
214.76	-8.99
215.232	-4.89
215.703	-5.29
216.175	-5.39
216.646	-6.09
217.118	-6.49
217.589	-8.39
218.061	-6.89
218.532	-10.59
219.004	-5.29
219.475	-2.49
219.946	0.21
220.418	-7.59
220.889	1.01
221.36	-0.69
221.832	-9.19
222.303	-10.59
222.774	-4.29
223.245	-10.19
223.717	-7.59
224.188	-6.09
224.659	-10.09
225.13	-7.99
225.601	2.51
226.072	-0.19
226.543	-3.69
227.014	-1.29
227.485	-2.49
227.956	-12.39
228.427	-5.19
228.898	-3.69
229.369	-0.69
229.839	-12.09
230.31	-9.09
230.781	-7.39
231.252	-5.89
231.722	-7.79
232.193	-5.79
232.664	-0.49
233.135	-5.59
233.605	-2.39
234.076	-7.29
234.546	-6.89
235.017	-0.09
235.487	-1.29
235.958	-8.59
236.428	-9.09
236.899	-5.39
237.369	-1.99
237.84	-8.59
238.31	-4.79
238.78	-4.29
239.251	-8.79
239.721	-5.89
240.191	-2.79
240.662	-6.89
241.132	-7.49
241.602	-3.49
242.072	-5.89
242.542	0.11
243.013	-3.39
243.483	0.11
243.953	-2.49
244.423	-8.19
244.893	-5.29
245.363	2.21
245.833	-0.49
246.303	-11.09
246.773	-0.09
247.243	-6.09
247.712	-3.09
248.182	3.81
248.652	-3.69
249.122	-12.69
249.592	-11.59
250.061	-2.89
250.531	6.31
251.001	-7.59
251.471	-2.29
251.94	1.81
252.41	-10.09
252.879	-8.49
253.349	6.41
253.818	2.71
254.288	0.01
254.757	-2.69
255.227	-6.79
255.696	-8.19
256.166	-5.29
256.635	-5.19
257.105	-2.29
257.574	-5.59
258.043	-3.49
258.513	-8.29
258.982	3.31
259.451	-12.09
259.92	-2.59
260.389	-5.89
260.859	6.41
261.328	2.11
261.797	-3.39
262.266	-1.89
262.735	-0.19
263.204	1.41
263.673	-2.49
264.142	-1.09
264.611	-12.39
265.08	-7.39
265.549	-6.69
266.018	-7.19
266.487	-9.39
266.955	-9.59
267.424	-6.79
267.893	-0.19
268.362	-8.19
268.83	-9.49
269.299	2.71
269.768	2.01
270.236	0.11
270.705	-3.79
271.174	-9.59
271.642	-2.39
272.111	-4.79
272.579	-9.59
273.048	-7.99
273.516	-8.39
273.985	-1.79
274.453	3.71
274.922	3.61
275.39	-2.99
275.858	-9.99
276.327	0.91
276.795	6.21
277.263	-4.29
277.731	7.61
278.2	-3.19
278.668	-4.19
279.136	-1.09
279.604	-11.39
280.072	-2.79
280.54	1.71
281.008	0.41
281.477	3.81
281.945	5.11
282.413	-0.09
282.881	2.11
283.348	-5.59
283.816	4.31
284.284	-1.59
284.752	6.61
285.22	2.21
285.688	6.51
286.156	-4.19
286.623	1.51
287.091	-7.39
287.559	1.41
288.026	3.01
288.494	4.01
288.962	-8.19
289.429	-6.49
289.897	7.81
290.364	6.01
290.832	0.71
291.3	1.71
291.767	1.21
292.234	5.51
292.702	-0.39
293.169	2.91
293.637	-3.59
294.104	4.91
294.571	-4.89
295.039	0.41
295.506	4.21
295.973	3.11
296.44	-0.99
296.908	-3.19
297.375	-0.99
297.842	1.81
298.309	6.61
298.776	-4.69
299.243	1.01
299.71	-2.49
300.177	4.71
300.644	2.31
301.111	-1.79
301.578	-2.39
302.045	-4.69
302.512	2.71
302.979	4.71
303.446	6.91
303.913	1.41
304.379	-1.39
304.846	11.31
305.313	10.21
305.78	-0.09
306.246	11.41
306.713	8.71
307.18	2.01
307.646	3.81
308.113	4.41
308.579	4.21
309.046	0.01
309.512	9.31
309.979	1.71
310.445	5.61
310.912	9.51
311.378	13.61
311.845	7.21
312.311	7.81
312.777	5.51
313.244	12.71
313.71	13.91
314.176	1.61
314.642	2.81
315.109	6.11
315.575	5.21
316.041	12.81
316.507	6.81
316.973	6.31
317.439	5.11
317.905	4.11
318.371	6.31
318.837	10.71
319.303	11.71
319.769	9.11
320.235	5.41
320.701	4.31
321.167	10.61
321.633	6.71
322.099	8.01
322.564	16.51
323.03	9.71
323.496	11.81
323.962	8.91
324.427	12.51
324.893	18.71
325.359	12.81
325.824	10.91
326.29	8.01
326.755	16.51
327.221	12.61
327.686	5.31
328.152	20.21
328.617	10.71
329.083	16.61
329.548	18.91
330.014	16.71
330.479	8.21
330.944	7.41
331.41	11.71
331.875	16.21
332.34	12.81
332.805	8.41
333.271	14.11
333.736	10.31
334.201	17.61
334.666	17.61
335.131	22.51
335.596	18.41
336.061	14.11
336.526	5.91
336.991	14.91
337.456	21.41
337.921	12.11
338.386	11.51
338.851	10.61
339.316	18.41
339.781	19.31
340.246	20.21
340.711	12.91
341.175	19.11
341.64	11.41
342.105	12.51
342.569	16.91
343.034	20.51
343.499	24.41
343.963	16.51
344.428	26.61
344.893	21.11
345.357	24.11
345.822	17.31
346.286	24.41
346.751	22.91
347.215	25.71
347.679	25.61
348.144	35.91
348.608	27.61
349.073	16.61
349.537	24.11
350.001	30.91
350.465	35.81
350.93	30.81
351.394	35.01
351.858	28.21
352.322	36.41
352.786	31.91
353.25	35.71
353.715	42.71
354.179	37.51
354.643	45.31
355.107	45.21
355.571	40.51
356.035	38.41
356.498	35.71
356.962	36.01
357.426	45.31
357.89	40.01
358.354	29.31
358.818	33.91
359.281	29.61
359.745	28.21
360.209	26.81
360.673	29.51
361.136	30.91
361.6	35.01
362.064	35.71
362.527	36.41
362.991	43.01
363.454	33.61
363.918	27.11
364.381	31.11
364.845	34.11
365.308	33.81
365.772	36.71
366.235	41.41
366.698	29.81
367.162	30.71
367.625	28.31
368.088	31.41
368.552	36.01
369.015	37.01
369.478	43.91
369.941	42.31
370.404	37.51
370.867	47.31
371.331	40.71
371.794	41.51
372.257	40.71
372.72	42.61
373.183	40.91
373.646	33.71
374.109	40.31
374.572	38.81
375.035	41.81
375.497	38.81
375.96	45.11
376.423	43.41
376.886	43.11
377.349	48.31
377.811	43.31
378.274	43.51
378.737	43.21
379.199	48.91
379.662	41.41
380.125	49.91
380.587	51.01
381.05	48.41
381.512	48.21
381.975	54.01
382.437	54.21
382.9	50.31
383.362	50.31
383.825	55.81
384.287	53.31
384.75	54.31
385.212	54.01
385.674	55.61
386.136	63.71
386.599	52.11
387.061	54.21
387.523	51.71
387.985	56.01
388.447	68.21
388.91	60.41
389.372	54.11
389.834	59.71
390.296	58.71
390.758	56.41
391.22	58.11
391.682	63.31
392.144	72.11
392.606	66.31
393.068	65.31
393.529	72.51
393.991	67.31
394.453	58.01
394.915	64.81
395.377	61.61
395.838	63.01
396.3	67.71
396.762	73.31
397.224	59.11
397.685	62.51
398.147	63.31
398.608	61.41
399.07	65.81
399.531	61.31
399.993	65.31
400.454	74.11
400.916	62.21
401.377	64.11
401.839	74.41
402.3	68.51
402.762	74.01
403.223	80.31
403.684	83.61
404.145	72.91
404.607	72.81
405.068	70.81
405.529	72.11
405.99	83.81
406.451	75.41
406.913	86.21
407.374	78.41
407.835	70.41
408.296	73.61
408.757	81.01
409.218	84.61
409.679	85.31
410.14	79.61
410.601	81.31
411.062	78.91
411.522	86.11
411.983	82.01
412.444	82.91
412.905	97.01
413.366	91.31
413.826	104.91
414.287	117.01
414.748	148.91
415.208	136.91
415.669	115.21
416.13	112.41
416.59	116.71
417.051	113.71
417.511	126.31
417.972	136.01
418.432	144.81
418.893	168.61
419.353	141.11
419.814	115.71
420.274	95.51
420.734	97.51
421.195	105.61
421.655	94.81
422.115	102.91
422.576	97.21
423.036	106.21
423.496	111.11
423.956	120.21
424.416	123.11
424.876	144.71
425.336	125.81
425.797	134.91
426.257	127.91
426.717	112.41
427.177	112.71
427.637	102.11
428.097	112.41
428.556	97.01
429.016	125.11
429.476	105.01
429.936	104.21
430.396	99.31
430.856	105.61
431.315	122.41
431.775	135.31
432.235	152.31
432.694	130.01
433.154	137.31
433.614	147.51
434.073	129.01
434.533	110.81
434.993	104.51
435.452	119.61
435.912	115.71
436.371	118.51
436.83	120.61
437.29	121.11
437.749	111.11
438.209	119.11
438.668	122.31
439.127	128.31
439.587	124.11
440.046	113.71
440.505	114.31
440.964	122.31
441.424	141.51
441.883	138.41
442.342	127.21
442.801	113.41
443.26	110.91
443.719	113.81
444.178	116.51
444.637	107.11
445.096	113.41
445.555	115.61
446.014	120.21
446.473	118.51
446.932	121.21
447.391	119.61
447.849	118.51
448.308	114.91
448.767	109.81
449.226	125.71
449.685	126.11
450.143	130.21
450.602	125.81
451.061	117.51
451.519	122.11
451.978	120.31
452.436	115.31
452.895	122.11
453.353	126.41
453.812	120.91
454.27	121.91
454.729	123.91
455.187	117.61
455.646	124.71
456.104	128.81
456.562	130.81
457.021	131.61
457.479	126.91
457.937	130.41
458.395	139.61
458.854	131.61
459.312	120.41
459.77	130.31
460.228	126.31
460.686	130.51
461.144	133.01
461.602	126.41
462.06	127.21
462.518	135.81
462.976	131.41
463.434	131.21
463.892	130.31
464.35	127.71
464.808	135.81
465.266	136.61
465.724	142.51
466.181	139.01
466.639	142.61
467.097	149.41
467.555	152.61
468.012	149.51
468.47	152.61
468.928	165.21
469.385	168.01
469.843	170.71
470.3	163.41
470.758	168.81
471.215	175.91
471.673	185.51
472.13	185.31
472.588	192.71
473.045	177.11
473.503	180.41
473.96	184.31
474.417	184.21
474.875	196.81
475.332	212.61
475.789	202.61
476.246	206.71
476.704	207.81
477.161	208.61
477.618	208.41
478.075	220.41
478.532	236.81
478.989	239.51
479.446	257.71
479.903	245.31
480.36	233.81
480.817	223.71
481.274	231.01
481.731	234.31
482.188	232.11
482.645	249.51
483.102	245.91
483.558	260.81
484.015	268.81
484.472	254.81
484.929	262.01
485.385	272.31
485.842	270.01
486.299	279.01
486.755	303.11
487.212	280.01
487.668	251.81
488.125	251.81
488.582	251.41
489.038	268.91
489.494	252.31
489.951	257.61
490.407	254.41
490.864	247.01
491.32	262.21
491.776	266.61
492.233	266.61
492.689	251.81
493.145	265.31
493.602	265.61
494.058	262.21
494.514	262.61
494.97	278.21
495.426	276.51
495.882	267.71
496.338	264.61
496.794	273.01
497.251	263.31
497.707	279.21
498.163	277.21
498.618	274.01
499.074	279.91
499.53	288.51
499.986	293.11
500.442	278.91
500.898	270.91
501.354	281.01
501.809	278.31
502.265	282.81
502.721	285.81
503.177	288.71
503.632	283.11
504.088	292.21
504.543	303.41
504.999	302.71
505.455	292.21
505.91	278.31
506.366	293.31
506.821	293.61
507.277	287.31
507.732	288.41
508.187	286.21
508.643	293.91
509.098	293.21
509.553	302.01
510.009	299.71
510.464	299.71
510.919	306.51
511.375	309.31
511.83	312.81
512.285	328.11
512.74	331.31
513.195	344.91
513.65	340.11
514.105	337.61
514.56	348.31
515.015	347.31
515.47	356.01
515.925	344.41
516.38	346.21
516.835	356.71
517.29	355.51
517.745	351.71
518.2	343.01
518.655	329.01
519.109	326.51
519.564	328.51
520.019	315.61
520.474	304.61
520.928	317.81
521.383	318.91
521.838	307.61
522.292	314.11
522.747	316.71
523.201	313.71
523.656	313.11
524.11	311.21
524.565	305.51
525.019	299.61
525.474	302.51
525.928	297.71
526.382	292.41
526.837	301.61
527.291	294.91
527.745	302.11
528.2	297.41
528.654	293.31
529.108	283.91
529.562	291.21
530.016	286.71
530.47	287.81
530.925	292.21
531.379	283.91
531.833	294.51
532.287	286.11
532.741	288.61
533.195	288.51
533.649	290.21
534.103	286.31
534.556	283.11
535.01	285.91
535.464	280.91
535.918	294.51
536.372	291.51
536.826	290.71
537.279	286.81
537.733	286.21
538.187	284.41
538.64	293.91
539.094	292.61
539.548	291.31
540.001	295.91
540.455	296.01
540.908	298.41
541.362	308.81
541.815	311.31
542.269	321.81
542.722	312.01
543.175	315.61
543.629	309.31
544.082	330.41
544.536	323.91
544.989	316.51
545.442	335.01
545.895	324.71
546.349	323.51
546.802	326.51
547.255	325.61
547.708	333.61
548.161	340.91
548.614	349.31
549.067	349.51
549.52	337.01
549.973	335.71
550.426	336.21
550.879	323.91
551.332	322.11
551.785	324.51
552.238	326.11
552.691	327.11
553.144	337.91
553.596	351.11
554.049	345.61
554.502	361.31
554.955	378.11
555.407	362.01
555.86	360.21
556.313	359.71
556.765	358.51
557.218	357.71
557.67	353.71
558.123	344.01
558.576	345.21
559.028	354.11
559.48	348.61
559.933	354.61
560.385	329.21
560.838	321.91
561.29	313.71
561.742	318.11
562.195	299.01
562.647	294.41
563.099	307.01
563.551	309.21
564.004	308.71
564.456	302.91
564.908	291.51
565.36	289.51
565.812	277.11
566.264	264.91
566.716	282.41
567.168	271.51
567.62	277.61
568.072	265.21
568.524	266.71
568.976	268.21
569.428	252.21
569.88	257.01
570.332	254.91
570.784	265.51
571.235	260.11
571.687	265.71
572.139	266.91
572.59	275.11
573.042	270.11
573.494	267.11
573.945	265.71
574.397	256.01
574.849	257.91
575.3	253.71
575.752	258.61
576.203	253.61
576.655	250.51
577.106	241.51
577.557	249.91
578.009	251.81
578.46	250.41
578.912	240.21
579.363	239.31
579.814	239.21
580.265	236.51
580.717	240.51
581.168	239.71
581.619	243.81
582.07	248.61
582.521	244.41
582.972	242.21
583.423	246.41
583.875	240.91
584.326	246.41
584.777	257.21
585.227	259.71
585.678	252.61
586.129	258.01
586.58	269.01
587.031	277.81
587.482	280.41
587.933	283.71
588.384	284.71
588.834	287.51
589.285	283.81
589.736	288.31
590.186	284.41
590.637	282.41
591.088	268.81
591.538	269.91
591.989	267.41
592.439	267.11
592.89	257.41
593.34	247.81
593.791	248.91
594.241	246.81
594.692	253.61
595.142	240.81
595.593	245.51
596.043	252.01
596.493	250.41
596.943	250.11
597.394	256.91
597.844	246.51
598.294	259.91
598.744	278.01
599.195	285.31
599.645	290.21
600.095	305.61
600.545	343.71
600.995	361.81
601.445	388.91
601.895	417.01
602.345	435.21
602.795	420.41
603.245	403.31
603.695	382.61
604.145	349.71
604.594	334.71
605.044	306.01
605.494	273.51
605.944	258.51
606.393	267.91
606.843	255.81
607.293	251.71
607.743	255.11
608.192	254.81
608.642	263.11
609.091	268.51
609.541	272.11
609.99	268.41
610.44	262.81
610.889	237.91
611.339	237.21
611.788	234.31
612.238	229.41
612.687	253.01
613.136	244.01
613.586	245.81
614.035	235.41
614.484	240.71
614.933	235.11
615.383	244.31
615.832	242.61
616.281	243.21
616.73	239.81
617.179	227.11
617.628	218.81
618.077	218.21
618.526	216.81
618.975	203.21
619.424	210.71
619.873	206.21
620.322	214.71
620.771	204.11
621.22	206.71
621.669	197.61
622.118	193.91
622.567	193.71
623.015	184.21
623.464	192.71
623.913	186.01
624.361	185.91
624.81	174.61
625.259	178.11
625.707	188.71
626.156	182.61
626.604	194.91
627.053	184.71
627.501	183.11
627.95	191.31
628.398	185.91
628.847	184.91
629.295	185.91
629.744	185.11
630.192	185.21
630.64	185.61
631.089	176.71
631.537	180.21
631.985	168.01
632.433	173.11
632.881	170.41
633.33	169.81
633.778	162.91
634.226	167.11
634.674	170.71
635.122	168.71
635.57	172.91
636.018	179.61
636.466	188.91
636.914	170.81
637.362	186.91
637.81	187.21
638.258	189.21
638.705	181.11
639.153	197.41
639.601	191.21
640.049	204.41
640.497	214.41
640.944	230.81
641.392	197.71
641.84	186.01
642.287	177.21
642.735	168.51
643.182	158.71
643.63	161.51
644.078	153.41
644.525	158.01
644.973	154.51
645.42	152.81
645.867	159.81
646.315	158.61
646.762	161.11
647.21	166.61
647.657	145.11
648.104	159.41
648.551	146.11
648.999	153.91
649.446	148.61
649.893	143.11
650.34	148.41
650.787	144.31
651.234	155.71
651.682	154.11
652.129	155.31
652.576	154.11
653.023	180.61
653.47	195.81
653.917	202.01
654.363	208.61
654.81	224.51
655.257	214.31
655.704	178.41
656.151	158.51
656.598	143.21
657.044	149.11
657.491	139.11
657.938	132.41
658.385	142.01
658.831	150.91
659.278	164.91
659.724	147.91
660.171	148.11
660.618	138.01
661.064	143.81
661.511	142.01
661.957	141.61
662.404	147.91
662.85	152.61
663.296	158.41
663.743	145.71
664.189	141.91
664.635	140.41
665.082	141.91
665.528	142.31
665.974	143.61
666.42	148.11
666.867	137.81
667.313	132.61
667.759	130.51
668.205	127.81
668.651	134.61
669.097	130.41
669.543	125.51
669.989	129.61
670.435	124.11
670.881	133.51
671.327	134.61
671.773	137.41
672.219	149.11
672.665	171.01
673.11	182.51
673.556	197.71
674.002	226.81
674.448	222.31
674.893	185.21
675.339	144.41
675.785	137.71
676.23	128.81
676.676	117.11
677.122	113.51
677.567	109.61
678.013	118.01
678.458	109.91
678.904	116.81
679.349	101.21
679.794	110.91
680.24	111.11
680.685	101.71
681.131	105.01
681.576	107.61
682.021	110.21
682.466	100.21
682.912	106.01
683.357	100.51
683.802	121.51
684.247	123.31
684.692	144.41
685.137	153.31
685.583	179.61
686.028	196.81
686.473	174.21
686.918	148.61
687.363	136.81
687.807	127.81
688.252	113.21
688.697	109.51
689.142	104.61
689.587	99.11
690.032	94.81
690.477	107.41
690.921	106.81
691.366	120.91
691.811	132.31
692.255	140.11
692.7	152.61
693.145	161.11
693.589	223.81
694.034	390.91
694.478	556.71
694.923	657.61
695.367	881.21
695.812	451.11
696.256	170.81
696.701	111.91
697.145	109.01
697.59	104.11
698.034	101.31
698.478	97.61
698.922	93.01
699.367	95.21
699.811	103.01
700.255	120.31
700.699	124.01
701.143	128.91
701.588	155.41
702.032	177.01
702.476	170.51
702.92	159.01
703.364	160.81
703.808	207.61
704.252	358.21
704.696	520.41
705.14	626.01
705.584	832.91
706.027	394.61
706.471	172.21
706.915	127.91
707.359	111.21
707.803	98.61
708.246	100.71
708.69	99.21
709.134	98.51
709.577	96.81
710.021	103.71
710.465	97.41
710.908	92.11
711.352	89.41
711.795	96.11
712.239	116.21
712.682	122.21
713.126	138.51
713.569	158.71
714.012	124.51
714.456	96.31
714.899	92.61
715.342	82.81
715.786	74.01
716.229	80.01
716.672	80.01
717.115	67.61
717.558	72.31
718.002	77.91
718.445	74.51
718.888	98.31
719.331	94.31
719.774	100.31
720.217	98.61
720.66	83.81
721.103	79.81
721.546	76.51
721.989	69.11
722.432	61.91
722.874	71.31
723.317	64.71
723.76	65.41
724.203	78.71
724.645	102.61
725.088	144.31
725.531	184.41
725.974	229.11
726.416	190.51
726.859	97.41
727.301	73.61
727.744	69.91
728.187	65.31
728.629	76.81
729.071	71.31
729.514	81.11
729.956	88.31
730.399	85.91
730.841	99.11
731.283	78.61
731.726	81.71
732.168	78.91
732.61	83.91
733.053	83.51
733.495	106.51
733.937	111.71
734.379	128.31
734.821	142.81
735.263	182.41
735.705	277.21
736.148	540.21
736.59	944.31
737.032	1181.91
737.474	960.61
737.916	294.21
738.357	152.11
738.799	107.01
739.241	91.41
739.683	87.91
740.125	83.41
740.567	90.11
741.008	104.91
741.45	105.61
741.892	109.81
742.334	119.91
742.775	121.81
743.217	110.41
743.658	87.11
744.1	82.21
744.542	85.11
744.983	102.51
745.425	120.91
745.866	117.01
746.307	93.51
746.749	90.11
747.19	98.01
747.632	151.31
748.073	284.91
748.514	652.81
748.956	1050.81
749.397	1320.71
749.838	1100.51
750.279	1155.01
750.72	561.01
751.162	192.11
751.603	101.61
752.044	82.51
752.485	62.41
752.926	59.81
753.367	64.21
753.808	55.21
754.249	56.81
754.69	54.01
755.131	56.21
755.572	54.41
756.013	49.41
756.453	54.51
756.894	59.21
757.335	60.21
757.776	61.21
758.216	58.71
758.657	58.51
759.098	56.91
759.538	65.41
759.979	77.61
760.42	110.11
760.86	221.31
761.301	628.71
761.741	1574.71
762.182	2494.61
762.622	1774.81
763.063	495.41
763.503	183.81
763.943	97.61
764.384	90.41
764.824	72.21
765.264	57.41
765.705	65.31
766.145	47.41
766.585	52.41
767.025	48.81
767.465	40.01
767.906	46.61
768.346	54.61
768.786	58.61
769.226	59.51
769.666	101.11
770.106	200.61
770.546	547.61
770.986	1008.71
771.426	926.91
771.866	297.01
772.306	115.31
772.745	63.91
773.185	48.41
773.625	49.51
774.065	38.61
774.505	51.81
774.944	63.11
775.384	117.11
775.824	209.01
776.263	213.11
776.703	93.31
777.142	51.41
777.582	36.01
778.021	32.91
778.461	33.21
778.9	33.31
779.34	41.21
779.779	26.61
780.219	30.31
780.658	23.01
781.097	31.81
781.537	32.71
781.976	32.31
782.415	26.51
782.855	19.71
783.294	24.41
783.733	26.71
784.172	28.61
784.611	27.11
785.05	35.71
785.489	32.31
785.928	35.51
786.367	39.61
786.806	32.91
787.245	38.21
787.684	35.51
788.123	47.91
788.562	39.71
789.001	33.61
789.44	35.81
789.879	32.01
790.317	29.21
790.756	40.51
791.195	34.01
791.634	40.21
792.072	61.01
792.511	111.41
792.95	346.31
793.388	800.61
793.827	751.21
794.265	244.91
794.704	89.21
795.142	66.31
795.581	49.01
796.019	41.11
796.458	36.01
796.896	36.21
797.334	37.81
797.773	45.11
798.211	70.91
798.649	153.31
799.087	375.21
799.526	594.61
799.964	752.21
800.402	804.11
800.84	279.11
801.278	100.01
801.716	55.81
802.154	42.21
802.592	49.61
803.03	41.41
803.468	36.41
803.906	41.21
804.344	54.31
804.782	44.31
805.22	39.61
805.658	38.01
806.096	47.31
806.533	50.71
806.971	56.81
807.409	74.61
807.847	100.21
808.284	215.91
808.722	658.71
809.16	1260.01
809.597	1132.41
810.035	2012.31
810.472	2311.91
810.91	828.11
811.347	302.31
811.785	147.71
812.222	88.11
812.66	66.01
813.097	51.91
813.535	47.11
813.972	39.11
814.409	34.11
814.846	24.31
815.284	33.81
815.721	25.81
816.158	30.81
816.595	29.51
817.032	44.41
817.47	60.61
817.907	51.81
818.344	31.41
818.781	21.41
819.218	20.11
819.655	32.41
820.092	59.01
820.529	64.51
820.966	56.11
821.403	36.01
821.839	21.01
822.276	33.11
822.713	35.41
823.15	46.51
823.587	36.11
824.023	42.71
824.46	94.21
824.897	320.31
825.333	530.01
825.77	219.31
826.206	80.41
826.643	42.11
827.08	36.71
827.516	23.61
827.953	24.01
828.389	26.51
828.825	18.91
829.262	21.91
829.698	25.51
830.135	14.81
830.571	18.51
831.007	16.31
831.443	22.41
831.88	13.11
832.316	14.21
832.752	15.81
833.188	19.61
833.624	10.81
834.06	26.01
834.497	19.31
834.933	20.31
835.369	22.11
835.805	12.11
836.241	27.41
836.677	20.51
837.112	31.21
837.548	27.91
837.984	38.61
838.42	62.11
838.856	174.31
839.292	560.51
839.727	919.21
840.163	406.91
840.599	317.31
841.034	772.81
841.47	854.61
841.906	294.51
842.341	115.41
842.777	60.81
843.212	65.21
843.648	68.11
844.083	31.51
844.519	20.51
844.954	22.41
845.39	4.11
845.825	18.01
846.261	14.11
846.696	15.81
847.131	10.41
847.566	22.91
848.002	12.31
848.437	16.71
848.872	19.21
849.307	17.51
849.742	23.41
850.177	57.81
850.613	191.01
851.048	343.91
851.483	141.01
851.918	47.41
852.353	18.91
852.788	8.51
853.223	13.21
853.657	23.91
854.092	14.71
854.527	8.41
854.962	10.51
855.397	9.71
855.832	17.71
856.266	9.41
856.701	10.51
857.136	9.41
857.57	9.71
858.005	13.01
858.44	21.11
858.874	9.01
859.309	18.91
859.743	3.21
860.178	11.31
860.612	13.11
861.047	16.61
861.481	21.91
861.915	23.71
862.35	14.51
862.784	3.71
863.218	7.71
863.653	0.51
864.087	15.51
864.521	19.01
864.955	9.11
865.39	50.31
865.824	61.91
866.258	36.61
866.692	54.71
867.126	66.41
867.56	35.01
867.994	17.01
868.428	2.41
868.862	12.21
869.296	21.31
869.73	19.21
870.164	15.31
870.598	17.81
871.031	8.81
871.465	4.41
871.899	9.21
872.333	-0.79
872.766	6.11
873.2	4.91
873.634	7.11
874.067	2.51
874.501	5.41
874.935	14.21
875.368	8.51
875.802	2.61
876.235	3.81
876.669	1.11
877.102	5.21
877.535	9.11
877.969	-0.49
878.402	-1.79
878.836	4.71
879.269	3.81
879.702	4.01
880.135	0.01
880.569	4.21
881.002	9.31
881.435	5.81
881.868	-0.79
882.301	12.91
882.734	2.61
883.167	9.61
883.601	8.01
884.034	8.11
884.467	-0.89
884.899	3.81
885.332	0.11
885.765	0.01
886.198	2.31
886.631	4.01
887.064	0.41
887.497	4.11
887.929	16.21
888.362	1.11
888.795	-3.49
889.228	1.31
889.66	9.41
890.093	2.01
890.526	0.71
890.958	-3.89
891.391	-0.09
891.823	6.11
892.256	2.11
892.688	-4.09
893.121	4.51
893.553	1.01
893.985	15.51
894.418	5.71
894.85	3.11
895.282	-0.09
895.715	6.21
896.147	-0.59
896.579	3.21
897.011	0.91
897.444	3.31
897.876	-3.09
898.308	3.01
898.74	5.41
899.172	0.21
899.604	7.71
900.036	7.01
900.468	-0.79
900.9	1.61
901.332	2.21
901.764	-1.99
902.196	0.31
902.628	-1.39
903.06	1.81
903.491	6.71
903.923	4.71
904.355	-1.69
904.787	4.51
905.218	1.11
905.65	4.21
906.082	-2.29
906.513	-0.69
906.945	0.41
907.376	-4.39
907.808	2.01
908.239	5.91
908.671	3.71
909.102	3.11
909.534	5.51
909.965	17.91
910.397	32.51
910.828	118.61
911.259	189.31
911.691	82.01
912.122	32.51
912.553	13.11
912.984	9.31
913.415	8.71
913.847	12.61
914.278	-2.79
914.709	-4.39
915.14	5.21
915.571	2.31
916.002	0.81
916.433	6.21
916.864	6.51
917.295	5.21
917.726	8.81
918.157	4.11
918.587	13.31
919.018	6.01
919.449	-0.89
919.88	5.31
920.311	7.61
920.741	9.41
921.172	59.81
921.603	55.41
922.033	19.91
922.464	14.21
922.895	0.01
923.325	10.21
923.756	0.41
924.186	6.21
924.617	6.21
925.047	-0.29
925.478	0.91
925.908	6.41
926.338	0.11
926.769	-4.59
927.199	5.91
927.629	-2.39
928.06	8.31
928.49	0.21
928.92	4.61
929.35	0.21
929.78	-3.99
930.21	1.51
930.641	3.81
931.071	1.21
931.501	-5.69
931.931	-3.19
932.361	-1.49
932.791	-2.19
933.221	-4.79
933.651	-1.39
934.08	6.21
934.51	11.11
934.94	-1.79
935.37	-3.19
935.8	-1.99
936.229	0.91
936.659	-0.59
937.089	-4.39
937.519	3.81
937.948	11.61
938.378	8.11
938.807	-6.99
939.237	-4.69
939.666	2.91
940.096	-10.09
940.525	-6.39
940.955	-3.99
941.384	-2.09
941.814	-5.49
942.243	-5.79
942.672	-2.19
943.102	-5.59
943.531	2.61
943.96	-1.39
944.39	2.61
944.819	-2.19
945.248	-3.39
945.677	0.11
946.106	5.11
946.535	-2.29
946.964	-7.99
947.393	2.31
947.822	-4.89
948.251	-10.09
948.68	-5.99
949.109	7.11
949.538	1.21
949.967	-4.69
950.396	-0.89
950.825	-2.89
951.254	-1.49
951.682	-8.89
952.111	-2.49
952.54	1.01
952.969	-2.99
953.397	-8.99
953.826	3.11
954.254	-6.49
954.683	-3.89
955.112	-6.39
955.54	0.91
955.969	-3.99
956.397	-0.59
956.826	-6.09
957.254	-1.19
957.682	0.61
958.111	0.21
958.539	-7.99
958.967	-6.59
959.396	0.61
959.824	-4.49
960.252	0.31
960.68	-11.09
961.109	-9.69
961.537	0.01
961.965	-2.69
962.393	-3.79
962.821	-7.49
963.249	-1.89
963.677	2.51
964.105	-8.59
964.533	17.81
964.961	15.41
965.389	9.21
965.817	1.41
966.245	-3.69
966.672	-3.99
967.1	-14.39
967.528	-5.59
967.956	-1.29
968.383	1.01
968.811	-9.19
969.239	-4.79
969.666	-7.39
970.094	-2.79
970.522	-2.29
970.949	-6.79
971.377	-1.19
971.804	-2.49
972.232	-4.49
972.659	-2.59
973.087	-4.99
973.514	-9.79
973.941	-4.99
974.369	-1.79
974.796	1.31
975.223	-4.29
975.651	-5.99
976.078	-3.99
976.505	-4.69
976.932	0.51
977.359	8.41
977.786	8.31
978.214	-0.09
978.641	-5.39
979.068	-3.09
979.495	-4.39
979.922	1.51
980.349	-6.49
980.776	-2.99
981.202	-7.99
981.629	1.31
982.056	-0.69
982.483	-1.19
982.91	4.61
983.337	-8.89
983.763	-0.89
984.19	-7.29
984.617	-6.49
985.043	-13.59
985.47	-8.89
985.897	-8.79
986.323	-5.39
986.75	1.01
987.176	-3.09
987.603	-2.29
988.029	0.41
988.456	-4.89
988.882	1.11
989.308	-5.09
989.735	-2.19
990.161	2.51
990.587	-3.29
991.014	-5.79
991.44	6.01
991.866	-0.39
992.292	-8.49
992.719	-1.99
993.145	6.21
993.571	-14.49
993.997	-2.39
994.423	-4.79
994.849	-3.89
995.275	-5.29
995.701	-0.79
996.127	-4.79
996.553	4.91
996.979	-6.59
997.405	-2.19
997.83	-9.49
998.256	-8.19
998.682	-10.69
999.108	-6.49
999.534	-3.39
999.959	-4.29
1000.385	0.11
1000.811	4.01
1001.236	-6.59
1001.662	-3.89
1002.087	-6.79
1002.513	0.51
1002.938	4.61
1003.364	-4.19
1003.789	-4.19
1004.215	3.61
1004.64	2.51
1005.066	-1.09
1005.491	-7.49
1005.916	-5.59
1006.342	-0.89
1006.767	-9.29
1007.192	1.41
1007.617	-5.99
1008.042	-5.69
1008.468	-7.59
1008.893	-9.39
1009.318	0.91
1009.743	-3.19
1010.168	-2.29
1010.593	-8.09
1011.018	-11.09
1011.443	-4.29
1011.868	-2.69
1012.293	-7.59
1012.718	-5.29
1013.143	-4.79
1013.567	-2.49
1013.992	-6.89
1014.417	-14.39
1014.842	-2.69
1015.267	-7.39
1015.691	-3.29
1016.116	5.71
1016.541	-1.59
1016.965	-0.39
1017.39	5.31
1017.814	-0.89
1018.239	-0.69
1018.663	-12.49
1019.088	-8.59
1019.512	-5.89
1019.937	0.21
1020.361	-4.39
1020.785	-16.99
1021.21	-5.59
1021.634	1.01
1022.058	-1.89
1022.483	7.31
1022.907	-1.59
1023.331	2.61
1023.755	-2.29
1024.179	-2.09
1024.604	-7.49
1025.028	-5.59
1025.452	-3.89
1025.876	0.61
1026.3	4.21
1026.724	-5.49
1027.148	-3.49
1027.572	-7.19
1027.996	-3.39
1028.42	-4.99
1028.843	-5.69
1029.267	-0.69
1029.691	-0.69
1030.115	-8.59
1030.539	-5.59
1030.962	-7.19
1031.386	-10.59
1031.81	5.61
1032.233	-3.09
1032.657	-1.39
1033.08	-0.09
1033.504	-6.19
1033.927	0.01
1034.351	-2.29
1034.774	-0.79
1035.198	-4.59
1035.621	-11.09
1036.045	-6.59
1036.468	-0.79
1036.891	-8.99
1037.315	-4.99
1037.738	-9.49
1038.161	-0.79
1038.584	-4.99
1039.008	-1.19
1039.431	-3.69
1039.854	2.51
1040.277	-11.19
1040.7	-10.29
1041.123	-1.89
1041.546	-7.09
1041.969	-0.39
1042.392	-3.59
1042.815	3.21
1043.238	-2.59
1043.661	2.11
1044.084	-11.09
1044.507	-10.99
1044.93	-2.99
1045.352	-1.49
1045.775	-1.49
1046.198	-3.29
1046.621	-3.49
1047.043	-0.99
1047.466	7.71
1047.889	-5.39
1048.311	-3.59
1048.734	-11.99
1049.156	-3.39
1049.579	-4.69
1050.001	-7.59
1050.424	-1.29
1050.846	-5.29
1051.269	-3.09
1051.691	-7.49
1052.113	-8.89
1052.536	-2.49
1052.958	0.11
1053.38	-9.19
1053.802	-6.59
1054.225	1.11
1054.647	-5.69
1055.069	-6.09
1055.491	3.01
1055.913	-0.49
1056.335	3.11
1056.757	0.81
1057.179	-8.69
1057.601	-3.99
1058.023	-5.59
1058.445	-9.89
1058.867	-8.09
1059.289	-3.69
1059.711	-10.49
1060.133	-2.39
1060.555	-8.69
1060.976	-2.79
1061.398	-7.59
1061.82	-2.69
1062.241	-5.99
1062.663	-6.89
1063.085	-3.39
1063.506	4.51
1063.928	-5.69
1064.35	0.31
1064.771	-13.59
1065.193	-0.49
1065.614	-10.59
1066.035	-6.89
1066.457	-0.19
1066.878	6.61
1067.3	-11.49
1067.721	-3.79
1068.142	1.81
1068.564	0.91
1068.985	-3.69
1069.406	-0.89
1069.827	-5.09
1070.248	2.81
1070.67	-5.99
1071.091	-1.99
1071.512	-5.99
1071.933	0.21
1072.354	-3.49
1072.775	-5.79
1073.196	-8.09
1073.617	-2.99
1074.038	-9.39
1074.459	1.91
1074.88	-8.19
1075.3	0.11
1075.721	-8.09
1076.142	3.21
1076.563	-3.49
1076.983	-10.09
1077.404	-7.59
1077.825	-7.89
1078.246	-0.79
1078.666	-7.09
1079.087	-9.99
1079.507	-9.99
1079.928	-2.29
1080.348	3.21
1080.769	-4.79
1081.189	-3.69
1081.61	-1.19
1082.03	-9.89
1082.451	-6.59
1082.871	-6.69
1083.291	-6.99
1083.711	-11.19
1084.132	-8.19
1084.552	0.21
1084.972	0.21
1085.392	-8.09
1085.813	-11.09
1086.233	-3.29
1086.653	-9.29
1087.073	-5.89
1087.493	-4.29
1087.913	-1.99
1088.333	-10.29
1088.753	-2.49
1089.173	0.51
1089.593	-6.59
1090.013	-3.09
1090.433	2.31
1090.852	-3.09
1091.272	-1.99
1091.692	-3.79
1092.112	-2.29
1092.531	-6.09
1092.951	-15.89
1093.371	2.61
1093.79	1.21
1094.21	-7.99
1094.63	-13.29
1095.049	-5.89
1095.469	-0.29
1095.888	-5.19
1096.308	-1.69
1096.727	0.21
1097.146	-7.39
1097.566	-1.09
1097.985	-5.09
1098.405	-0.09
1098.824	-8.69
1099.243	-1.19
1099.662	-3.59
1100.082	-2.79
1100.501	-0.89
1100.92	-9.69
1101.339	-7.39
1101.758	-7.49
