Data from 20171114-ORNL-Ar_H_NY_Subt18_08-06-06-266.txt Node
Date: Tue Nov 14 08:06:06 EST 2017
User: Ender
Spectrometer: HR+D1039
Trigger mode: 0
Integration Time (sec): 2.730000E-2
Scans to average: 10
Electric dark correction enabled: true
Nonlinearity correction enabled: false
Boxcar width: 0
XAxis mode: Wavelengths
Number of Pixels in Spectrum: 2048
>>>>>Begin Spectral Data<<<<<
187.836	-5.88
188.309	-5.88
188.782	-5.88
189.255	0.32
189.728	3.72
190.201	0.12
190.674	0.32
191.147	2.22
191.619	-6.18
192.092	1.82
192.565	-0.28
193.038	2.72
193.511	-1.08
193.984	1.02
194.456	-5.28
194.929	4.82
195.402	-4.08
195.874	5.72
196.347	2.22
196.82	-7.68
197.292	8.92
197.765	-5.08
198.237	-9.58
198.71	-0.28
199.182	-1.38
199.655	1.62
200.127	2.52
200.6	-10.38
201.072	-5.38
201.544	-6.38
202.017	-2.98
202.489	3.52
202.961	-1.38
203.433	-2.18
203.906	-7.28
204.378	-3.68
204.85	-1.58
205.322	-7.78
205.794	-1.78
206.266	-2.78
206.739	-9.78
207.211	-0.28
207.683	-8.38
208.155	-2.78
208.627	-0.68
209.099	0.32
209.57	-10.18
210.042	-6.98
210.514	-2.88
210.986	-5.08
211.458	-9.38
211.93	-7.98
212.402	0.82
212.873	-3.18
213.345	-9.58
213.817	-12.08
214.288	-2.58
214.76	-9.18
215.232	-4.38
215.703	1.32
216.175	-1.68
216.646	-6.08
217.118	-3.08
217.589	-2.28
218.061	-2.98
218.532	-3.68
219.004	-4.18
219.475	-2.38
219.946	-3.68
220.418	-4.08
220.889	-2.58
221.36	-2.48
221.832	-4.78
222.303	-13.18
222.774	-3.18
223.245	-9.28
223.717	-5.68
224.188	-4.08
224.659	-6.68
225.13	-6.68
225.601	-0.68
226.072	-2.28
226.543	-2.18
227.014	-2.28
227.485	-1.58
227.956	-7.18
228.427	-3.68
228.898	4.12
229.369	4.72
229.839	-2.18
230.31	-8.88
230.781	-3.98
231.252	-3.28
231.722	-1.08
232.193	-6.88
232.664	-2.58
233.135	3.32
233.605	1.62
234.076	-5.88
234.546	-3.98
235.017	0.92
235.487	-2.38
235.958	1.12
236.428	1.02
236.899	2.82
237.369	10.02
237.84	0.22
238.31	10.12
238.78	8.02
239.251	2.92
239.721	1.42
240.191	5.62
240.662	3.52
241.132	0.02
241.602	-2.18
242.072	1.32
242.542	8.22
243.013	-3.18
243.483	0.42
243.953	2.02
244.423	-1.58
244.893	-4.68
245.363	4.62
245.833	5.72
246.303	-3.68
246.773	3.12
247.243	3.42
247.712	8.42
248.182	5.32
248.652	11.92
249.122	-1.88
249.592	11.82
250.061	16.42
250.531	33.72
251.001	19.02
251.471	20.22
251.94	21.22
252.41	9.92
252.879	0.22
253.349	13.12
253.818	12.22
254.288	8.02
254.757	2.52
255.227	6.32
255.696	4.02
256.166	5.12
256.635	3.42
257.105	8.82
257.574	2.62
258.043	4.62
258.513	7.92
258.982	17.82
259.451	10.62
259.92	14.22
260.389	11.42
260.859	15.12
261.328	11.32
261.797	19.82
262.266	10.92
262.735	16.22
263.204	2.12
263.673	6.62
264.142	5.32
264.611	3.02
265.08	0.32
265.549	0.92
266.018	7.62
266.487	0.82
266.955	-2.88
267.424	-1.28
267.893	7.02
268.362	2.42
268.83	6.12
269.299	8.62
269.768	12.92
270.236	11.42
270.705	5.02
271.174	10.32
271.642	5.72
272.111	16.12
272.579	18.22
273.048	27.42
273.516	27.52
273.985	31.32
274.453	24.42
274.922	21.22
275.39	15.72
275.858	8.12
276.327	14.32
276.795	20.82
277.263	14.22
277.731	30.82
278.2	52.42
278.668	63.12
279.136	49.32
279.604	23.12
280.072	16.92
280.54	14.42
281.008	8.12
281.477	14.92
281.945	15.22
282.413	15.62
282.881	16.92
283.348	10.52
283.816	14.22
284.284	14.02
284.752	22.92
285.22	13.62
285.688	16.92
286.156	17.42
286.623	47.12
287.091	56.92
287.559	30.02
288.026	14.52
288.494	14.62
288.962	8.72
289.429	13.52
289.897	24.22
290.364	14.02
290.832	19.42
291.3	15.12
291.767	21.32
292.234	20.72
292.702	22.92
293.169	18.92
293.637	18.12
294.104	22.12
294.571	11.12
295.039	19.02
295.506	10.32
295.973	23.82
296.44	23.82
296.908	21.52
297.375	22.92
297.842	14.52
298.309	20.02
298.776	8.12
299.243	22.82
299.71	10.82
300.177	24.22
300.644	21.82
301.111	19.52
301.578	18.32
302.045	21.02
302.512	29.82
302.979	28.02
303.446	26.62
303.913	19.62
304.379	16.82
304.846	28.92
305.313	32.72
305.78	19.82
306.246	22.92
306.713	32.52
307.18	31.22
307.646	29.52
308.113	34.72
308.579	30.72
309.046	27.12
309.512	31.22
309.979	21.32
310.445	33.32
310.912	27.42
311.378	37.02
311.845	26.82
312.311	36.22
312.777	37.82
313.244	28.82
313.71	37.32
314.176	32.62
314.642	30.12
315.109	36.72
315.575	37.82
316.041	40.62
316.507	34.72
316.973	44.22
317.439	30.52
317.905	34.72
318.371	39.92
318.837	40.22
319.303	35.22
319.769	37.22
320.235	36.32
320.701	40.22
321.167	39.22
321.633	36.02
322.099	37.42
322.564	48.32
323.03	37.72
323.496	42.32
323.962	43.62
324.427	40.92
324.893	38.82
325.359	40.02
325.824	36.42
326.29	40.52
326.755	38.92
327.221	40.32
327.686	43.72
328.152	50.42
328.617	45.52
329.083	49.52
329.548	58.32
330.014	52.82
330.479	45.12
330.944	41.92
331.41	45.82
331.875	47.72
332.34	45.02
332.805	50.52
333.271	51.02
333.736	43.42
334.201	57.02
334.666	55.22
335.131	54.92
335.596	51.32
336.061	48.72
336.526	41.62
336.991	49.12
337.456	61.82
337.921	44.92
338.386	43.52
338.851	46.22
339.316	48.82
339.781	49.12
340.246	50.12
340.711	53.32
341.175	51.12
341.64	50.42
342.105	53.02
342.569	57.72
343.034	56.42
343.499	57.42
343.963	63.72
344.428	69.42
344.893	61.12
345.357	68.42
345.822	65.92
346.286	65.02
346.751	69.32
347.215	71.02
347.679	77.92
348.144	101.82
348.608	76.52
349.073	70.12
349.537	77.82
350.001	86.82
350.465	94.62
350.93	79.22
351.394	87.82
351.858	72.82
352.322	87.52
352.786	86.82
353.25	102.82
353.715	114.42
354.179	97.22
354.643	115.02
355.107	134.32
355.571	114.72
356.035	107.62
356.498	127.22
356.962	129.52
357.426	131.02
357.89	116.12
358.354	90.32
358.818	81.12
359.281	82.62
359.745	80.52
360.209	82.12
360.673	76.22
361.136	84.62
361.6	86.32
362.064	87.12
362.527	90.62
362.991	94.02
363.454	86.02
363.918	81.82
364.381	80.92
364.845	82.62
365.308	85.12
365.772	90.92
366.235	92.72
366.698	84.02
367.162	89.42
367.625	92.72
368.088	90.42
368.552	89.82
369.015	92.42
369.478	100.62
369.941	106.72
370.404	102.42
370.867	106.32
371.331	107.52
371.794	118.82
372.257	113.32
372.72	120.72
373.183	116.62
373.646	104.22
374.109	108.52
374.572	113.32
375.035	102.62
375.497	117.42
375.96	107.72
376.423	109.72
376.886	117.42
377.349	115.52
377.811	102.82
378.274	106.32
378.737	111.72
379.199	109.92
379.662	115.32
380.125	124.62
380.587	119.82
381.05	131.12
381.512	132.72
381.975	142.32
382.437	136.82
382.9	127.82
383.362	133.92
383.825	147.62
384.287	153.62
384.75	139.22
385.212	148.32
385.674	139.62
386.136	141.22
386.599	130.52
387.061	130.62
387.523	136.62
387.985	135.82
388.447	147.92
388.91	150.72
389.372	160.62
389.834	161.22
390.296	156.62
390.758	162.02
391.22	172.12
391.682	223.02
392.144	311.52
392.606	235.72
393.068	178.92
393.529	169.42
393.991	157.92
394.453	151.32
394.915	164.22
395.377	195.12
395.838	226.72
396.3	162.72
396.762	144.82
397.224	136.52
397.685	136.82
398.147	140.42
398.608	130.12
399.07	131.32
399.531	141.82
399.993	143.42
400.454	162.52
400.916	149.72
401.377	148.12
401.839	155.02
402.3	154.82
402.762	170.62
403.223	182.92
403.684	179.92
404.145	168.42
404.607	170.32
405.068	171.52
405.529	172.32
405.99	202.72
406.451	183.12
406.913	182.22
407.374	166.72
407.835	165.52
408.296	170.12
408.757	179.42
409.218	195.22
409.679	190.02
410.14	186.62
410.601	184.72
411.062	185.82
411.522	203.22
411.983	192.52
412.444	179.52
412.905	187.22
413.366	191.72
413.826	198.62
414.287	225.42
414.748	274.52
415.208	252.02
415.669	220.72
416.13	205.52
416.59	206.52
417.051	215.42
417.511	228.02
417.972	240.32
418.432	251.32
418.893	296.32
419.353	255.82
419.814	208.42
420.274	190.82
420.734	185.32
421.195	206.82
421.655	200.62
422.115	202.12
422.576	197.12
423.036	204.32
423.496	215.12
423.956	221.82
424.416	232.32
424.876	279.32
425.336	266.02
425.797	270.12
426.257	258.62
426.717	245.22
427.177	243.22
427.637	230.12
428.097	243.02
428.556	255.12
429.016	280.82
429.476	270.12
429.936	287.22
430.396	289.82
430.856	301.92
431.315	326.82
431.775	359.52
432.235	389.42
432.694	366.32
433.154	378.22
433.614	395.42
434.073	350.02
434.533	296.92
434.993	284.82
435.452	295.52
435.912	306.22
436.371	295.72
436.83	292.02
437.29	272.42
437.749	257.22
438.209	261.42
438.668	277.32
439.127	303.52
439.587	273.32
440.046	260.22
440.505	263.62
440.964	296.12
441.424	332.92
441.883	321.02
442.342	259.22
442.801	227.22
443.26	227.82
443.719	228.02
444.178	224.32
444.637	222.02
445.096	219.62
445.555	227.72
446.014	230.22
446.473	235.72
446.932	235.62
447.391	230.22
447.849	233.12
448.308	225.42
448.767	228.32
449.226	236.22
449.685	243.22
450.143	253.52
450.602	246.72
451.061	227.02
451.519	248.72
451.978	237.42
452.436	236.82
452.895	246.22
453.353	256.52
453.812	245.62
454.27	242.32
454.729	247.42
455.187	250.42
455.646	251.42
456.104	254.72
456.562	276.42
457.021	274.02
457.479	264.02
457.937	284.32
458.395	274.42
458.854	260.82
459.312	269.92
459.77	282.72
460.228	265.02
460.686	246.12
461.144	254.62
461.602	251.72
462.06	247.52
462.518	254.62
462.976	261.22
463.434	263.22
463.892	274.42
464.35	285.92
464.808	297.52
465.266	268.82
465.724	274.32
466.181	281.12
466.639	276.22
467.097	299.52
467.555	302.12
468.012	315.32
468.47	321.52
468.928	341.92
469.385	353.22
469.843	362.12
470.3	360.92
470.758	367.92
471.215	396.32
471.673	417.82
472.13	419.32
472.588	431.42
473.045	384.22
473.503	390.32
473.96	415.22
474.417	416.42
474.875	437.42
475.332	487.12
475.789	477.52
476.246	485.32
476.704	499.82
477.161	523.62
477.618	536.12
478.075	581.12
478.532	634.62
478.989	707.62
479.446	825.32
479.903	792.62
480.36	835.02
480.817	891.12
481.274	999.72
481.731	1110.02
482.188	1196.02
482.645	1335.32
483.102	1441.62
483.558	1598.52
484.015	1646.92
484.472	1611.92
484.929	1561.72
485.385	1518.52
485.842	1462.32
486.299	1403.42
486.755	1334.72
487.212	1122.72
487.668	953.02
488.125	876.02
488.582	800.62
489.038	758.52
489.494	727.82
489.951	706.42
490.407	682.52
490.864	668.62
491.32	663.62
491.776	662.02
492.233	676.42
492.689	629.12
493.145	626.92
493.602	622.62
494.058	628.52
494.514	640.42
494.97	655.22
495.426	663.72
495.882	649.22
496.338	631.12
496.794	641.72
497.251	630.92
497.707	646.92
498.163	661.02
498.618	657.62
499.074	658.72
499.53	696.62
499.986	704.52
500.442	673.52
500.898	645.92
501.354	637.92
501.809	656.72
502.265	655.42
502.721	672.82
503.177	688.62
503.632	680.32
504.088	700.92
504.543	728.72
504.999	734.62
505.455	664.82
505.91	647.52
506.366	648.42
506.821	645.22
507.277	636.02
507.732	645.82
508.187	635.42
508.643	649.32
509.098	650.22
509.553	660.12
510.009	678.12
510.464	680.32
510.919	703.72
511.375	706.32
511.83	724.32
512.285	736.72
512.74	780.82
513.195	808.12
513.65	786.62
514.105	787.32
514.56	792.82
515.015	824.22
515.47	824.22
515.925	817.22
516.38	811.22
516.835	808.42
517.29	801.12
517.745	795.72
518.2	780.62
518.655	759.32
519.109	764.32
519.564	759.02
520.019	745.62
520.474	742.42
520.928	743.42
521.383	741.72
521.838	732.72
522.292	723.72
522.747	728.22
523.201	720.32
523.656	704.52
524.11	706.22
524.565	709.22
525.019	709.62
525.474	721.72
525.928	722.22
526.382	713.02
526.837	705.62
527.291	718.12
527.745	709.72
528.2	710.02
528.654	710.72
529.108	701.72
529.562	699.52
530.016	699.72
530.47	705.32
530.925	707.42
531.379	715.92
531.833	718.72
532.287	725.12
532.741	717.82
533.195	710.22
533.649	721.02
534.103	722.12
534.556	714.42
535.01	729.82
535.464	720.12
535.918	739.32
536.372	733.02
536.826	733.82
537.279	722.82
537.733	725.42
538.187	720.92
538.64	724.22
539.094	732.32
539.548	738.62
540.001	732.32
540.455	736.62
540.908	744.82
541.362	748.22
541.815	754.42
542.269	774.02
542.722	776.62
543.175	780.32
543.629	782.92
544.082	799.02
544.536	806.82
544.989	793.42
545.442	811.82
545.895	805.72
546.349	806.92
546.802	801.52
547.255	814.02
547.708	821.42
548.161	829.12
548.614	833.52
549.067	839.12
549.52	831.92
549.973	821.12
550.426	816.72
550.879	809.02
551.332	802.52
551.785	829.32
552.238	825.12
552.691	832.12
553.144	849.02
553.596	857.92
554.049	875.42
554.502	911.82
554.955	930.22
555.407	919.22
555.86	921.32
556.313	907.92
556.765	895.92
557.218	904.12
557.67	906.12
558.123	867.32
558.576	880.52
559.028	889.52
559.48	896.92
559.933	880.32
560.385	855.62
560.838	833.02
561.29	788.12
561.742	794.52
562.195	779.52
562.647	772.52
563.099	783.42
563.551	774.52
564.004	795.22
564.456	778.52
564.908	762.72
565.36	761.52
565.812	737.22
566.264	740.12
566.716	733.32
567.168	722.82
567.62	729.72
568.072	721.22
568.524	704.02
568.976	703.12
569.428	684.12
569.88	683.92
570.332	685.72
570.784	687.32
571.235	687.72
571.687	705.42
572.139	714.82
572.59	711.82
573.042	725.62
573.494	716.32
573.945	713.42
574.397	698.42
574.849	688.52
575.3	703.72
575.752	691.92
576.203	683.22
576.655	698.02
577.106	672.82
577.557	664.62
578.009	675.72
578.46	670.02
578.912	677.32
579.363	664.62
579.814	671.62
580.265	667.02
580.717	679.42
581.168	672.32
581.619	683.52
582.07	691.12
582.521	678.22
582.972	683.32
583.423	678.52
583.875	682.32
584.326	705.22
584.777	760.12
585.227	834.72
585.678	925.72
586.129	1005.92
586.58	1081.72
587.031	1169.52
587.482	1338.12
587.933	1514.12
588.384	1320.42
588.834	987.22
589.285	814.62
589.736	792.12
590.186	777.52
590.637	765.52
591.088	750.72
591.538	735.62
591.989	741.22
592.439	737.42
592.89	731.02
593.34	711.02
593.791	714.32
594.241	705.22
594.692	712.72
595.142	708.62
595.593	698.82
596.043	711.02
596.493	722.62
596.943	723.62
597.394	720.42
597.844	711.82
598.294	743.42
598.744	762.52
599.195	779.82
599.645	823.72
600.095	863.32
600.545	912.12
600.995	966.22
601.445	1014.42
601.895	1094.62
602.345	1132.12
602.795	1113.62
603.245	1063.82
603.695	1013.02
604.145	958.22
604.594	922.22
605.044	859.52
605.494	793.42
605.944	755.62
606.393	746.12
606.843	731.82
607.293	752.62
607.743	739.52
608.192	747.52
608.642	759.12
609.091	772.72
609.541	771.92
609.99	771.42
610.44	768.12
610.889	718.52
611.339	701.82
611.788	695.32
612.238	702.12
612.687	725.02
613.136	721.32
613.586	745.52
614.035	744.02
614.484	757.62
614.933	754.62
615.383	749.62
615.832	741.42
616.281	733.12
616.73	691.62
617.179	672.52
617.628	649.92
618.077	637.52
618.526	630.92
618.975	620.62
619.424	623.62
619.873	609.32
620.322	621.62
620.771	595.62
621.22	606.02
621.669	583.52
622.118	589.62
622.567	588.12
623.015	571.92
623.464	574.32
623.913	568.72
624.361	553.22
624.81	551.22
625.259	554.42
625.707	556.62
626.156	549.22
626.604	568.12
627.053	553.42
627.501	556.82
627.95	567.72
628.398	583.12
628.847	570.92
629.295	571.82
629.744	583.42
630.192	565.02
630.64	562.22
631.089	577.82
631.537	581.12
631.985	581.72
632.433	606.02
632.881	606.82
633.33	657.92
633.778	633.82
634.226	579.82
634.674	579.82
635.122	580.82
635.57	600.42
636.018	632.72
636.466	584.72
636.914	550.92
637.362	571.42
637.81	566.52
638.258	578.92
638.705	582.22
639.153	610.22
639.601	612.62
640.049	642.12
640.497	672.12
640.944	692.52
641.392	638.92
641.84	607.52
642.287	581.22
642.735	577.02
643.182	563.52
643.63	569.62
644.078	569.72
644.525	595.32
644.973	597.92
645.42	604.42
645.867	612.92
646.315	641.82
646.762	661.42
647.21	686.22
647.657	718.82
648.104	752.02
648.551	767.82
648.999	841.12
649.446	908.22
649.893	1004.62
650.34	1158.52
650.787	1376.92
651.234	1728.72
651.682	2238.22
652.129	3076.82
652.576	4448.82
653.023	6547.62
653.47	9012.12
653.917	11302.62
654.363	13058.12
654.81	14437.72
655.257	13750.02
655.704	8953.52
656.151	5307.72
656.598	3453.12
657.044	2433.42
657.491	1864.22
657.938	1479.32
658.385	1242.12
658.831	1073.72
659.278	964.32
659.724	864.92
660.171	787.82
660.618	725.22
661.064	688.72
661.511	670.92
661.957	645.42
662.404	644.22
662.85	653.52
663.296	619.92
663.743	557.52
664.189	529.92
664.635	529.32
665.082	527.42
665.528	532.62
665.974	511.52
666.42	511.02
666.867	507.32
667.313	487.82
667.759	477.62
668.205	471.42
668.651	489.72
669.097	483.42
669.543	500.92
669.989	465.82
670.435	440.62
670.881	442.12
671.327	446.42
671.773	457.82
672.219	478.22
672.665	535.92
673.11	570.32
673.556	620.82
674.002	667.52
674.448	641.62
674.893	543.42
675.339	467.02
675.785	430.12
676.23	412.12
676.676	392.02
677.122	387.62
677.567	378.92
678.013	365.52
678.458	355.32
678.904	352.72
679.349	340.52
679.794	354.22
680.24	349.02
680.685	341.82
681.131	342.52
681.576	351.02
682.021	345.42
682.466	342.72
682.912	341.92
683.357	344.42
683.802	375.52
684.247	407.22
684.692	454.82
685.137	485.32
685.583	522.92
686.028	559.02
686.473	518.32
686.918	440.22
687.363	403.92
687.807	384.02
688.252	361.22
688.697	357.22
689.142	331.42
689.587	329.22
690.032	321.92
690.477	342.42
690.921	352.52
691.366	382.52
691.811	402.32
692.255	418.62
692.7	464.02
693.145	499.32
693.589	681.52
694.034	1098.52
694.478	1509.62
694.923	1721.22
695.367	2230.42
695.812	1169.52
696.256	497.02
696.701	366.82
697.145	342.02
697.59	333.12
698.034	315.72
698.478	329.52
698.922	320.32
699.367	324.32
699.811	333.02
700.255	354.32
700.699	383.62
701.143	415.22
701.588	470.82
702.032	506.32
702.476	504.72
702.92	485.62
703.364	484.62
703.808	611.92
704.252	1001.92
704.696	1419.52
705.14	1642.02
705.584	2099.72
706.027	1039.92
706.471	509.62
706.915	392.82
707.359	347.02
707.803	320.92
708.246	308.82
708.69	310.02
709.134	305.92
709.577	305.82
710.021	312.32
710.465	310.02
710.908	293.32
711.352	289.82
711.795	312.02
712.239	349.22
712.682	367.62
713.126	403.32
713.569	462.82
714.012	365.22
714.456	320.32
714.899	296.22
715.342	269.62
715.786	258.42
716.229	244.72
716.672	250.62
717.115	251.62
717.558	253.42
718.002	247.32
718.445	261.72
718.888	274.92
719.331	293.42
719.774	305.22
720.217	301.02
720.66	282.42
721.103	263.22
721.546	246.82
721.989	243.92
722.432	228.52
722.874	238.02
723.317	234.32
723.76	234.82
724.203	254.32
724.645	317.92
725.088	436.92
725.531	556.62
725.974	628.62
726.416	535.92
726.859	299.02
727.301	238.62
727.744	232.02
728.187	233.02
728.629	237.02
729.071	240.72
729.514	253.82
729.956	258.92
730.399	278.72
730.841	280.22
731.283	270.92
731.726	259.62
732.168	256.72
732.61	256.42
733.053	274.42
733.495	308.32
733.937	347.72
734.379	395.12
734.821	432.02
735.263	528.92
735.705	812.12
736.148	1538.72
736.59	2525.82
737.032	3003.22
737.474	2439.12
737.916	790.82
738.357	427.82
738.799	320.82
739.241	290.62
739.683	280.32
740.125	289.32
740.567	291.62
741.008	309.02
741.45	303.42
741.892	307.02
742.334	335.62
742.775	346.92
743.217	335.02
743.658	261.32
744.1	247.32
744.542	255.12
744.983	309.12
745.425	336.22
745.866	334.62
746.307	279.02
746.749	276.52
747.19	320.12
747.632	445.22
748.073	859.52
748.514	1808.42
748.956	2789.82
749.397	3495.42
749.838	2905.82
750.279	2911.42
750.72	1470.32
751.162	534.82
751.603	312.12
752.044	252.82
752.485	211.42
752.926	206.52
753.367	194.02
753.808	196.22
754.249	189.42
754.69	181.92
755.131	180.72
755.572	179.72
756.013	174.02
756.453	180.82
756.894	187.62
757.335	179.32
757.776	188.62
758.216	193.82
758.657	192.22
759.098	201.62
759.538	231.32
759.979	262.72
760.42	364.82
760.86	669.92
761.301	1747.42
761.741	4296.22
762.182	6334.02
762.622	4437.82
763.063	1280.42
763.503	523.22
763.943	345.12
764.384	338.12
764.824	406.62
765.264	425.12
765.705	307.12
766.145	208.32
766.585	181.22
767.025	189.82
767.465	191.72
767.906	234.72
768.346	312.82
768.786	338.82
769.226	257.02
769.666	309.82
770.106	602.62
770.546	1510.32
770.986	2577.82
771.426	2320.52
771.866	772.02
772.306	317.22
772.745	212.02
773.185	169.12
773.625	167.82
774.065	167.32
774.505	190.22
774.944	294.92
775.384	660.52
775.824	1211.92
776.263	1201.72
776.703	509.52
777.142	216.12
777.582	160.32
778.021	139.22
778.461	138.22
778.9	137.92
779.34	137.12
779.779	117.02
780.219	105.12
780.658	106.42
781.097	112.42
781.537	111.52
781.976	105.42
782.415	99.52
782.855	102.42
783.294	105.72
783.733	108.62
784.172	103.32
784.611	109.32
785.05	108.42
785.489	111.52
785.928	114.02
786.367	120.02
786.806	118.02
787.245	123.02
787.684	136.12
788.123	146.22
788.562	134.52
789.001	124.82
789.44	115.02
789.879	113.72
790.317	121.52
790.756	127.72
791.195	125.92
791.634	149.42
792.072	192.32
792.511	353.42
792.95	967.82
793.388	2098.82
793.827	1913.32
794.265	665.62
794.704	281.12
795.142	182.92
795.581	146.72
796.019	138.92
796.458	128.72
796.896	117.92
797.334	126.52
797.773	154.82
798.211	220.02
798.649	422.32
799.087	982.12
799.526	1554.12
799.964	1964.12
800.402	1968.32
800.84	736.92
801.278	296.52
801.716	180.82
802.154	155.52
802.592	142.92
803.03	134.22
803.468	130.42
803.906	134.32
804.344	146.22
804.782	134.42
805.22	133.92
805.658	123.82
806.096	145.32
806.533	155.52
806.971	173.92
807.409	215.92
807.847	306.72
808.284	636.22
808.722	1791.02
809.16	3210.92
809.597	3019.82
810.035	5279.62
810.472	5704.32
810.91	2034.82
811.347	778.42
811.785	403.02
812.222	252.02
812.66	194.62
813.097	159.52
813.535	139.92
813.972	126.32
814.409	116.12
814.846	113.72
815.284	108.52
815.721	101.02
816.158	103.72
816.595	118.12
817.032	171.82
817.47	193.42
817.907	176.72
818.344	146.32
818.781	116.72
819.218	103.62
819.655	123.62
820.092	179.52
820.529	207.82
820.966	172.42
821.403	130.82
821.839	106.72
822.276	98.92
822.713	124.42
823.15	128.32
823.587	111.42
824.023	142.62
824.46	284.22
824.897	869.72
825.333	1335.32
825.77	568.42
826.206	228.32
826.643	132.12
827.08	98.92
827.516	84.52
827.953	78.02
828.389	77.22
828.825	72.22
829.262	65.12
829.698	68.72
830.135	59.92
830.571	62.82
831.007	69.42
831.443	61.02
831.88	66.82
832.316	62.42
832.752	68.62
833.188	67.62
833.624	67.42
834.06	71.62
834.497	66.72
834.933	76.22
835.369	76.12
835.805	71.02
836.241	72.52
836.677	76.32
837.112	85.32
837.548	102.32
837.984	132.82
838.42	197.82
838.856	475.02
839.292	1463.12
839.727	2250.12
840.163	1036.52
840.599	901.92
841.034	1968.22
841.47	2082.22
841.906	751.12
842.341	319.52
842.777	226.72
843.212	312.42
843.648	305.72
844.083	148.02
844.519	97.62
844.954	74.12
845.39	53.12
845.825	60.12
846.261	60.62
846.696	49.52
847.131	52.62
847.566	54.02
848.002	45.02
848.437	47.72
848.872	63.12
849.307	62.12
849.742	89.12
850.177	169.02
850.613	543.82
851.048	855.12
851.483	374.92
851.918	150.12
852.353	89.22
852.788	62.02
853.223	55.92
853.657	53.62
854.092	45.32
854.527	43.32
854.962	40.42
855.397	45.92
855.832	48.72
856.266	40.12
856.701	35.42
857.136	34.12
857.57	41.42
858.005	52.22
858.44	56.22
858.874	44.32
859.309	51.12
859.743	36.42
860.178	47.82
860.612	43.52
861.047	46.42
861.481	60.92
861.915	69.22
862.35	48.02
862.784	32.52
863.218	39.32
863.653	34.92
864.087	48.52
864.521	54.52
864.955	77.72
865.39	154.72
865.824	172.22
866.258	118.82
866.692	163.22
867.126	168.32
867.56	99.62
867.994	55.32
868.428	39.02
868.862	47.62
869.296	57.22
869.73	51.42
870.164	53.52
870.598	43.22
871.031	32.32
871.465	34.32
871.899	30.02
872.333	20.42
872.766	20.62
873.2	23.52
873.634	26.12
874.067	31.82
874.501	29.92
874.935	34.02
875.368	34.42
875.802	30.02
876.235	24.52
876.669	17.62
877.102	26.02
877.535	26.22
877.969	22.02
878.402	21.72
878.836	15.62
879.269	19.92
879.702	26.92
880.135	16.12
880.569	23.32
881.002	29.52
881.435	24.72
881.868	17.02
882.301	23.32
882.734	18.82
883.167	19.42
883.601	12.82
884.034	21.12
884.467	17.22
884.899	18.12
885.332	16.92
885.765	14.22
886.198	17.02
886.631	18.12
887.064	18.92
887.497	19.42
887.929	27.42
888.362	15.02
888.795	12.92
889.228	16.42
889.66	16.42
890.093	21.22
890.526	17.82
890.958	17.62
891.391	19.22
891.823	18.22
892.256	12.52
892.688	14.62
893.121	17.72
893.553	17.22
893.985	28.12
894.418	17.42
894.85	10.12
895.282	15.52
895.715	17.72
896.147	18.02
896.579	15.02
897.011	8.92
897.444	17.22
897.876	15.02
898.308	16.52
898.74	18.12
899.172	10.22
899.604	27.62
900.036	19.12
900.468	15.72
900.9	17.02
901.332	15.22
901.764	12.12
902.196	14.82
902.628	19.02
903.06	14.52
903.491	32.32
903.923	22.72
904.355	21.42
904.787	29.42
905.218	27.32
905.65	22.92
906.082	15.72
906.513	18.32
906.945	14.12
907.376	17.22
907.808	22.62
908.239	18.62
908.671	22.52
909.102	21.02
909.534	22.82
909.965	40.92
910.397	85.72
910.828	305.22
911.259	467.72
911.691	209.22
912.122	103.02
912.553	53.12
912.984	32.32
913.415	26.92
913.847	22.42
914.278	15.72
914.709	15.52
915.14	23.32
915.571	15.92
916.002	9.72
916.433	20.02
916.864	16.92
917.295	14.62
917.726	19.32
918.157	14.12
918.587	30.32
919.018	23.42
919.449	21.52
919.88	27.42
920.311	32.52
920.741	43.52
921.172	162.82
921.603	143.92
922.033	70.12
922.464	48.32
922.895	28.22
923.325	22.52
923.756	17.42
924.186	17.22
924.617	28.62
925.047	42.72
925.478	60.52
925.908	43.22
926.338	25.52
926.769	19.52
927.199	19.52
927.629	8.02
928.06	17.72
928.49	9.82
928.92	12.62
929.35	11.42
929.78	15.82
930.21	4.32
930.641	13.72
931.071	7.32
931.501	5.52
931.931	11.12
932.361	7.82
932.791	2.52
933.221	6.82
933.651	6.92
934.08	15.92
934.51	26.52
934.94	9.42
935.37	10.52
935.8	6.92
936.229	4.52
936.659	10.32
937.089	5.22
937.519	12.42
937.948	17.92
938.378	11.42
938.807	5.12
939.237	3.42
939.666	5.92
940.096	-4.48
940.525	-0.38
940.955	0.72
941.384	4.32
941.814	-4.38
942.243	0.22
942.672	5.72
943.102	-0.68
943.531	1.12
943.96	6.02
944.39	3.52
944.819	1.62
945.248	0.52
945.677	3.02
946.106	9.82
946.535	8.32
946.964	3.12
947.393	2.32
947.822	6.12
948.251	-1.88
948.68	9.72
949.109	7.12
949.538	6.62
949.967	2.82
950.396	-1.48
950.825	0.52
951.254	2.12
951.682	-3.88
952.111	1.22
952.54	10.92
952.969	1.12
953.397	-3.58
953.826	5.02
954.254	-2.88
954.683	3.82
955.112	-2.98
955.54	-2.58
955.969	-1.08
956.397	7.12
956.826	1.52
957.254	7.82
957.682	2.32
958.111	7.02
958.539	1.82
958.967	-1.68
959.396	1.02
959.824	-3.58
960.252	-0.88
960.68	-7.18
961.109	0.42
961.537	-2.88
961.965	1.22
962.393	0.52
962.821	-1.88
963.249	-4.48
963.677	0.62
964.105	8.52
964.533	41.52
964.961	38.72
965.389	18.62
965.817	7.32
966.245	3.22
966.672	2.12
967.1	-1.68
967.528	-1.98
967.956	0.02
968.383	-4.68
968.811	2.52
969.239	-0.48
969.666	-3.88
970.094	3.42
970.522	4.62
970.949	3.02
971.377	-3.98
971.804	-7.78
972.232	-2.48
972.659	-6.98
973.087	-4.58
973.514	-7.38
973.941	-6.68
974.369	1.52
974.796	3.42
975.223	0.92
975.651	1.52
976.078	-2.98
976.505	-0.78
976.932	1.92
977.359	16.32
977.786	12.22
978.214	-4.48
978.641	-2.88
979.068	-3.68
979.495	-3.38
979.922	-2.68
980.349	-5.68
980.776	3.92
981.202	0.12
981.629	8.22
982.056	5.22
982.483	-2.78
982.91	1.02
983.337	-0.48
983.763	2.72
984.19	-3.78
984.617	-6.88
985.043	-5.38
985.47	-0.58
985.897	1.02
986.323	-10.18
986.75	5.82
987.176	-1.98
987.603	-2.18
988.029	0.02
988.456	-2.48
988.882	2.32
989.308	-7.68
989.735	-4.38
990.161	0.92
990.587	-6.98
991.014	1.12
991.44	4.22
991.866	-2.68
992.292	-8.98
992.719	-4.48
993.145	8.02
993.571	-7.08
993.997	-4.98
994.423	-3.78
994.849	-4.88
995.275	-0.88
995.701	3.92
996.127	-7.78
996.553	-3.88
996.979	3.92
997.405	-0.28
997.83	-0.88
998.256	-5.68
998.682	1.32
999.108	-10.38
999.534	-1.18
999.959	0.32
1000.385	-2.28
1000.811	1.32
1001.236	-5.98
1001.662	-7.28
1002.087	-6.18
1002.513	6.92
1002.938	2.82
1003.364	-5.38
1003.789	-0.48
1004.215	7.32
1004.64	-5.48
1005.066	2.82
1005.491	-1.58
1005.916	-0.98
1006.342	-6.48
1006.767	-1.68
1007.192	5.82
1007.617	-10.88
1008.042	-1.78
1008.468	-7.98
1008.893	-3.88
1009.318	-7.78
1009.743	-5.08
1010.168	2.42
1010.593	0.12
1011.018	-8.58
1011.443	-6.88
1011.868	0.92
1012.293	-3.18
1012.718	-1.68
1013.143	-3.68
1013.567	-1.88
1013.992	-1.68
1014.417	-15.98
1014.842	0.92
1015.267	-6.68
1015.691	-0.58
1016.116	0.12
1016.541	-5.68
1016.965	9.02
1017.39	0.32
1017.814	5.22
1018.239	-0.28
1018.663	-4.38
1019.088	-10.68
1019.512	-1.18
1019.937	-4.98
1020.361	-2.38
1020.785	-11.58
1021.21	-5.78
1021.634	-1.88
1022.058	-0.38
1022.483	5.42
1022.907	-3.68
1023.331	-2.18
1023.755	-0.68
1024.179	1.82
1024.604	-7.78
1025.028	-5.88
1025.452	-1.38
1025.876	-4.98
1026.3	-0.28
1026.724	-14.78
1027.148	-9.28
1027.572	-12.08
1027.996	-12.58
1028.42	-8.48
1028.843	-0.28
1029.267	-0.08
1029.691	-1.18
1030.115	-2.98
1030.539	-3.88
1030.962	-5.88
1031.386	-12.08
1031.81	-3.88
1032.233	2.52
1032.657	-2.58
1033.08	-0.68
1033.504	-0.28
1033.927	-6.88
1034.351	-2.68
1034.774	-2.78
1035.198	-1.88
1035.621	-7.98
1036.045	-4.08
1036.468	2.92
1036.891	-11.08
1037.315	-11.78
1037.738	-10.38
1038.161	-4.68
1038.584	-11.48
1039.008	-11.78
1039.431	-3.48
1039.854	-3.08
1040.277	-4.88
1040.7	-6.28
1041.123	-1.38
1041.546	-14.28
1041.969	-2.98
1042.392	-7.68
1042.815	-0.38
1043.238	3.32
1043.661	-1.98
1044.084	-3.98
1044.507	-1.98
1044.93	-17.78
1045.352	-0.08
1045.775	-1.18
1046.198	-2.78
1046.621	-2.08
1047.043	-3.78
1047.466	4.12
1047.889	-4.68
1048.311	-3.38
1048.734	-0.28
1049.156	0.12
1049.579	-0.88
1050.001	-1.48
1050.424	1.32
1050.846	1.42
1051.269	-0.28
1051.691	-7.68
1052.113	-11.88
1052.536	-2.78
1052.958	5.22
1053.38	-3.58
1053.802	-7.58
1054.225	3.22
1054.647	-8.68
1055.069	-2.08
1055.491	2.32
1055.913	-9.38
1056.335	-1.98
1056.757	-3.68
1057.179	-6.08
1057.601	-3.98
1058.023	-5.28
1058.445	-1.68
1058.867	-5.18
1059.289	-9.28
1059.711	-7.98
1060.133	-1.18
1060.555	-5.68
1060.976	-7.48
1061.398	-8.88
1061.82	-12.28
1062.241	1.72
1062.663	-11.68
1063.085	-4.08
1063.506	-3.78
1063.928	-1.08
1064.35	-0.08
1064.771	-8.78
1065.193	-7.58
1065.614	-10.98
1066.035	-2.68
1066.457	-4.88
1066.878	-4.78
1067.3	-7.88
1067.721	-4.18
1068.142	-6.98
1068.564	1.22
1068.985	1.52
1069.406	-9.58
1069.827	-7.18
1070.248	-0.78
1070.67	-7.18
1071.091	-1.18
1071.512	-5.08
1071.933	-4.68
1072.354	-6.98
1072.775	-4.28
1073.196	-9.08
1073.617	-2.88
1074.038	-9.28
1074.459	-9.28
1074.88	-5.88
1075.3	2.22
1075.721	-5.28
1076.142	-1.98
1076.563	-6.58
1076.983	-13.38
1077.404	-0.48
1077.825	-6.88
1078.246	-6.28
1078.666	-7.98
1079.087	-0.68
1079.507	-3.78
1079.928	-3.58
1080.348	1.12
1080.769	-4.58
1081.189	2.72
1081.61	-1.28
1082.03	-3.28
1082.451	-6.88
1082.871	-4.18
1083.291	-6.58
1083.711	-11.08
1084.132	-3.38
1084.552	-2.08
1084.972	2.52
1085.392	-12.28
1085.813	-8.08
1086.233	-8.68
1086.653	-6.08
1087.073	-2.68
1087.493	-6.68
1087.913	-8.48
1088.333	-11.88
1088.753	-0.88
1089.173	5.22
1089.593	1.72
1090.013	-0.68
1090.433	1.62
1090.852	-2.58
1091.272	0.32
1091.692	0.32
1092.112	-3.58
1092.531	-9.48
1092.951	-8.58
1093.371	-2.88
1093.79	0.92
1094.21	-2.38
1094.63	-10.68
1095.049	-5.48
1095.469	-1.98
1095.888	-4.58
1096.308	-2.78
1096.727	4.82
1097.146	-6.68
1097.566	-0.98
1097.985	-6.48
1098.405	-2.08
1098.824	-9.78
1099.243	-3.28
1099.662	-10.18
1100.082	-8.48
1100.501	-5.28
1100.92	-4.58
1101.339	-4.88
1101.758	-3.68
