Data from 20171114-ORNL-Ar_H_NY_Subt18_08-08-38-860.txt Node
Date: Tue Nov 14 08:08:38 EST 2017
User: Ender
Spectrometer: HR+D1039
Trigger mode: 0
Integration Time (sec): 2.730000E-2
Scans to average: 10
Electric dark correction enabled: true
Nonlinearity correction enabled: false
Boxcar width: 0
XAxis mode: Wavelengths
Number of Pixels in Spectrum: 2048
>>>>>Begin Spectral Data<<<<<
187.836	-2.19
188.309	-2.19
188.782	-2.19
189.255	1.41
189.728	-5.29
190.201	4.01
190.674	-2.19
191.147	3.71
191.619	-4.89
192.092	4.21
192.565	3.71
193.038	0.81
193.511	-0.49
193.984	1.11
194.456	-4.89
194.929	-0.39
195.402	-0.49
195.874	1.91
196.347	1.61
196.82	-7.29
197.292	2.41
197.765	1.91
198.237	-3.69
198.71	0.81
199.182	-6.49
199.655	-2.79
200.127	-0.19
200.6	-1.39
201.072	-5.69
201.544	-7.09
202.017	-8.29
202.489	3.11
202.961	-3.99
203.433	-5.59
203.906	-5.19
204.378	-3.29
204.85	-5.59
205.322	-5.79
205.794	-0.59
206.266	-8.49
206.739	-8.39
207.211	-2.99
207.683	-13.99
208.155	-5.19
208.627	-6.59
209.099	-2.69
209.57	-7.09
210.042	-7.59
210.514	-3.39
210.986	-0.59
211.458	-8.89
211.93	-1.19
212.402	0.81
212.873	-5.19
213.345	-14.09
213.817	-12.59
214.288	-6.09
214.76	-11.49
215.232	-10.89
215.703	-8.39
216.175	-4.99
216.646	-0.29
217.118	-13.89
217.589	-0.09
218.061	-1.39
218.532	-7.29
219.004	-3.49
219.475	-6.49
219.946	-6.19
220.418	-10.19
220.889	2.01
221.36	-4.89
221.832	-3.09
222.303	-4.69
222.774	-2.79
223.245	-8.09
223.717	-7.39
224.188	-7.19
224.659	-6.99
225.13	-5.69
225.601	-7.49
226.072	-4.59
226.543	-5.79
227.014	-2.19
227.485	-6.19
227.956	-7.89
228.427	-6.59
228.898	-2.99
229.369	4.71
229.839	-3.99
230.31	-2.79
230.781	2.91
231.252	-5.99
231.722	-5.79
232.193	-4.09
232.664	-4.79
233.135	0.51
233.605	-5.99
234.076	-9.79
234.546	-0.59
235.017	7.21
235.487	-2.09
235.958	-1.49
236.428	-2.19
236.899	-1.59
237.369	-2.59
237.84	-11.79
238.31	2.91
238.78	-2.19
239.251	-7.79
239.721	-5.89
240.191	0.81
240.662	-3.39
241.132	-7.89
241.602	-6.09
242.072	-0.19
242.542	2.61
243.013	-1.59
243.483	4.41
243.953	-0.89
244.423	1.21
244.893	-2.39
245.363	0.31
245.833	0.01
246.303	-1.69
246.773	-0.19
247.243	-5.29
247.712	-2.49
248.182	-3.29
248.652	-0.89
249.122	-9.79
249.592	2.11
250.061	3.91
250.531	19.31
251.001	5.61
251.471	12.91
251.94	8.31
252.41	0.21
252.879	-6.49
253.349	13.71
253.818	4.91
254.288	-3.69
254.757	-3.59
255.227	-7.79
255.696	-4.49
256.166	3.71
256.635	-0.19
257.105	2.11
257.574	1.91
258.043	-0.99
258.513	2.31
258.982	9.51
259.451	0.01
259.92	10.71
260.389	4.41
260.859	4.91
261.328	5.81
261.797	7.21
262.266	-3.29
262.735	4.11
263.204	0.61
263.673	-3.99
264.142	4.11
264.611	-2.49
265.08	0.61
265.549	-6.19
266.018	-1.49
266.487	-5.99
266.955	-6.69
267.424	-5.09
267.893	-0.19
268.362	-1.19
268.83	2.71
269.299	6.01
269.768	-1.09
270.236	4.81
270.705	-1.39
271.174	4.11
271.642	0.51
272.111	8.61
272.579	8.21
273.048	6.51
273.516	10.21
273.985	8.61
274.453	10.71
274.922	12.51
275.39	0.51
275.858	-0.49
276.327	4.11
276.795	10.81
277.263	2.91
277.731	18.31
278.2	32.31
278.668	32.31
279.136	26.21
279.604	11.01
280.072	4.51
280.54	6.71
281.008	5.21
281.477	12.31
281.945	6.31
282.413	10.61
282.881	15.31
283.348	5.31
283.816	11.91
284.284	7.81
284.752	12.31
285.22	6.51
285.688	12.01
286.156	9.81
286.623	25.31
287.091	23.61
287.559	13.01
288.026	8.41
288.494	12.41
288.962	-3.49
289.429	0.71
289.897	16.11
290.364	10.81
290.832	12.91
291.3	11.31
291.767	12.21
292.234	9.91
292.702	10.11
293.169	11.41
293.637	11.91
294.104	12.31
294.571	7.61
295.039	6.11
295.506	5.21
295.973	16.41
296.44	12.51
296.908	10.71
297.375	16.61
297.842	15.81
298.309	8.21
298.776	3.51
299.243	15.01
299.71	7.51
300.177	14.41
300.644	17.51
301.111	12.91
301.578	12.41
302.045	15.21
302.512	20.31
302.979	16.21
303.446	18.01
303.913	16.61
304.379	12.01
304.846	21.81
305.313	18.21
305.78	18.21
306.246	23.31
306.713	26.21
307.18	17.81
307.646	16.91
308.113	21.01
308.579	17.21
309.046	23.61
309.512	23.51
309.979	13.11
310.445	16.61
310.912	24.51
311.378	28.91
311.845	21.11
312.311	22.11
312.777	27.41
313.244	18.01
313.71	29.81
314.176	26.91
314.642	25.31
315.109	16.71
315.575	27.31
316.041	34.41
316.507	25.11
316.973	29.61
317.439	25.61
317.905	30.51
318.371	31.31
318.837	22.71
319.303	26.21
319.769	28.31
320.235	24.71
320.701	27.11
321.167	29.31
321.633	24.21
322.099	31.91
322.564	31.51
323.03	26.21
323.496	28.21
323.962	32.21
324.427	27.31
324.893	34.21
325.359	30.91
325.824	35.11
326.29	30.91
326.755	33.51
327.221	31.71
327.686	24.71
328.152	43.21
328.617	30.21
329.083	37.11
329.548	43.91
330.014	39.01
330.479	32.01
330.944	38.71
331.41	37.81
331.875	32.51
332.34	32.31
332.805	36.81
333.271	40.21
333.736	35.41
334.201	42.61
334.666	47.51
335.131	43.61
335.596	42.91
336.061	44.61
336.526	36.31
336.991	35.01
337.456	44.51
337.921	43.91
338.386	35.91
338.851	39.81
339.316	43.61
339.781	38.81
340.246	46.21
340.711	41.11
341.175	47.91
341.64	38.01
342.105	40.21
342.569	52.11
343.034	51.31
343.499	49.41
343.963	43.81
344.428	50.41
344.893	53.51
345.357	50.51
345.822	53.01
346.286	56.31
346.751	58.41
347.215	59.51
347.679	66.91
348.144	84.21
348.608	73.01
349.073	55.91
349.537	59.31
350.001	66.91
350.465	81.11
350.93	72.51
351.394	72.11
351.858	62.61
352.322	78.81
352.786	72.61
353.25	82.11
353.715	94.21
354.179	89.81
354.643	103.21
355.107	114.01
355.571	90.61
356.035	92.41
356.498	106.41
356.962	111.61
357.426	114.31
357.89	100.61
358.354	80.71
358.818	75.11
359.281	65.81
359.745	66.31
360.209	66.41
360.673	64.81
361.136	68.41
361.6	73.51
362.064	74.91
362.527	82.01
362.991	79.91
363.454	75.01
363.918	75.91
364.381	66.61
364.845	77.01
365.308	71.51
365.772	69.41
366.235	74.31
366.698	78.31
367.162	74.21
367.625	76.61
368.088	80.91
368.552	82.61
369.015	77.61
369.478	87.01
369.941	88.61
370.404	91.01
370.867	86.81
371.331	97.51
371.794	98.91
372.257	95.31
372.72	97.11
373.183	99.51
373.646	91.01
374.109	85.61
374.572	94.71
375.035	97.61
375.497	97.11
375.96	97.21
376.423	95.21
376.886	104.41
377.349	98.31
377.811	92.31
378.274	102.11
378.737	97.31
379.199	107.71
379.662	94.21
380.125	104.31
380.587	100.51
381.05	113.71
381.512	108.81
381.975	119.21
382.437	115.51
382.9	109.41
383.362	121.51
383.825	132.41
384.287	129.41
384.75	122.91
385.212	129.01
385.674	124.91
386.136	132.61
386.599	114.81
387.061	114.71
387.523	117.71
387.985	121.21
388.447	120.81
388.91	125.81
389.372	141.41
389.834	140.21
390.296	133.41
390.758	145.01
391.22	147.51
391.682	169.31
392.144	225.81
392.606	186.01
393.068	149.71
393.529	154.51
393.991	138.21
394.453	136.71
394.915	139.41
395.377	159.81
395.838	174.11
396.3	138.21
396.762	133.01
397.224	126.91
397.685	129.11
398.147	127.51
398.608	125.91
399.07	126.01
399.531	135.21
399.993	138.31
400.454	147.11
400.916	141.21
401.377	142.01
401.839	138.21
402.3	141.01
402.762	155.81
403.223	170.81
403.684	158.01
404.145	154.11
404.607	155.61
405.068	159.01
405.529	165.91
405.99	183.51
406.451	167.71
406.913	169.51
407.374	158.91
407.835	152.51
408.296	161.01
408.757	167.71
409.218	183.31
409.679	170.11
410.14	166.51
410.601	166.51
411.062	179.01
411.522	182.51
411.983	177.11
412.444	168.21
412.905	176.41
413.366	179.11
413.826	195.21
414.287	208.01
414.748	254.61
415.208	244.01
415.669	206.51
416.13	203.61
416.59	204.41
417.051	216.01
417.511	217.91
417.972	233.61
418.432	250.41
418.893	284.11
419.353	246.41
419.814	196.21
420.274	174.31
420.734	176.91
421.195	197.81
421.655	198.31
422.115	194.91
422.576	194.01
423.036	196.81
423.496	207.41
423.956	204.91
424.416	229.01
424.876	266.01
425.336	260.21
425.797	252.51
426.257	250.41
426.717	235.41
427.177	233.61
427.637	227.01
428.097	231.21
428.556	235.31
429.016	261.41
429.476	243.41
429.936	266.11
430.396	267.31
430.856	286.81
431.315	303.51
431.775	341.61
432.235	377.21
432.694	345.21
433.154	352.21
433.614	387.71
434.073	321.71
434.533	283.71
434.993	266.41
435.452	277.41
435.912	288.31
436.371	277.81
436.83	276.61
437.29	261.41
437.749	235.11
438.209	240.41
438.668	267.51
439.127	281.51
439.587	260.81
440.046	240.11
440.505	258.31
440.964	272.61
441.424	314.81
441.883	307.11
442.342	263.51
442.801	223.51
443.26	225.31
443.719	216.91
444.178	222.61
444.637	214.81
445.096	220.31
445.555	219.71
446.014	226.21
446.473	227.51
446.932	230.61
447.391	234.21
447.849	230.31
448.308	224.51
448.767	216.31
449.226	236.91
449.685	237.21
450.143	248.41
450.602	237.51
451.061	231.91
451.519	234.61
451.978	228.51
452.436	225.91
452.895	240.71
453.353	242.81
453.812	245.71
454.27	243.51
454.729	239.01
455.187	237.01
455.646	239.61
456.104	246.91
456.562	255.41
457.021	265.61
457.479	266.01
457.937	268.61
458.395	259.71
458.854	248.81
459.312	260.01
459.77	277.31
460.228	252.41
460.686	242.21
461.144	249.91
461.602	244.01
462.06	244.31
462.518	257.31
462.976	256.51
463.434	252.41
463.892	263.21
464.35	280.21
464.808	290.21
465.266	265.71
465.724	272.61
466.181	269.61
466.639	272.21
467.097	284.51
467.555	300.21
468.012	300.21
468.47	314.11
468.928	325.51
469.385	331.31
469.843	349.91
470.3	345.51
470.758	363.51
471.215	389.41
471.673	401.81
472.13	402.91
472.588	423.31
473.045	364.51
473.503	378.11
473.96	393.11
474.417	409.51
474.875	434.31
475.332	469.41
475.789	455.51
476.246	466.51
476.704	484.41
477.161	507.71
477.618	517.71
478.075	544.21
478.532	601.51
478.989	688.01
479.446	794.31
479.903	745.81
480.36	788.31
480.817	848.91
481.274	924.91
481.731	1024.51
482.188	1104.81
482.645	1229.01
483.102	1324.21
483.558	1452.61
484.015	1512.51
484.472	1463.31
484.929	1423.11
485.385	1366.61
485.842	1348.61
486.299	1288.81
486.755	1242.61
487.212	1063.61
487.668	906.81
488.125	826.11
488.582	774.71
489.038	734.91
489.494	692.51
489.951	676.91
490.407	664.61
490.864	643.21
491.32	632.71
491.776	632.91
492.233	640.71
492.689	606.21
493.145	599.81
493.602	599.91
494.058	606.91
494.514	609.61
494.97	642.21
495.426	638.51
495.882	615.81
496.338	608.91
496.794	619.11
497.251	602.71
497.707	627.01
498.163	629.51
498.618	637.51
499.074	638.81
499.53	664.91
499.986	665.91
500.442	636.91
500.898	623.81
501.354	618.31
501.809	628.41
502.265	623.11
502.721	644.91
503.177	651.61
503.632	652.11
504.088	665.51
504.543	689.51
504.999	692.21
505.455	648.81
505.91	628.11
506.366	631.41
506.821	625.91
507.277	621.61
507.732	631.11
508.187	630.91
508.643	650.31
509.098	636.11
509.553	654.11
510.009	661.11
510.464	669.01
510.919	685.21
511.375	692.81
511.83	700.41
512.285	714.11
512.74	763.51
513.195	766.81
513.65	758.31
514.105	754.01
514.56	769.61
515.015	787.61
515.47	799.61
515.925	787.91
516.38	786.71
516.835	785.11
517.29	782.01
517.745	767.51
518.2	755.51
518.655	742.01
519.109	743.01
519.564	730.51
520.019	724.01
520.474	717.61
520.928	731.61
521.383	720.31
521.838	706.71
522.292	715.71
522.747	709.21
523.201	709.91
523.656	699.41
524.11	698.91
524.565	694.81
525.019	686.41
525.474	695.91
525.928	695.71
526.382	696.21
526.837	692.01
527.291	707.71
527.745	695.91
528.2	710.11
528.654	693.61
529.108	687.81
529.562	698.31
530.016	690.61
530.47	690.81
530.925	687.41
531.379	692.01
531.833	710.21
532.287	701.31
532.741	690.91
533.195	700.61
533.649	707.21
534.103	711.31
534.556	706.21
535.01	706.61
535.464	697.01
535.918	714.41
536.372	715.11
536.826	718.11
537.279	696.51
537.733	705.71
538.187	712.21
538.64	710.41
539.094	710.91
539.548	723.01
540.001	727.61
540.455	714.01
540.908	731.71
541.362	740.01
541.815	742.01
542.269	757.61
542.722	760.71
543.175	766.81
543.629	762.71
544.082	786.91
544.536	789.41
544.989	782.91
545.442	791.71
545.895	789.41
546.349	793.81
546.802	794.51
547.255	792.71
547.708	804.91
548.161	818.21
548.614	824.01
549.067	825.11
549.52	814.31
549.973	810.91
550.426	808.31
550.879	792.41
551.332	793.31
551.785	810.51
552.238	809.01
552.691	823.61
553.144	838.11
553.596	851.41
554.049	863.21
554.502	888.61
554.955	911.91
555.407	913.51
555.86	904.41
556.313	889.91
556.765	890.11
557.218	878.71
557.67	881.81
558.123	872.31
558.576	872.41
559.028	877.01
559.48	893.81
559.933	869.41
560.385	834.01
560.838	816.11
561.29	794.91
561.742	792.51
562.195	778.01
562.647	766.31
563.099	779.71
563.551	786.21
564.004	788.01
564.456	774.71
564.908	761.11
565.36	747.31
565.812	727.11
566.264	724.71
566.716	729.01
567.168	707.81
567.62	713.01
568.072	707.41
568.524	700.11
568.976	700.41
569.428	678.91
569.88	692.51
570.332	685.11
570.784	693.51
571.235	688.51
571.687	691.41
572.139	708.01
572.59	705.51
573.042	716.91
573.494	713.01
573.945	713.21
574.397	692.21
574.849	687.21
575.3	694.61
575.752	696.81
576.203	680.81
576.655	685.01
577.106	673.51
577.557	670.01
578.009	674.61
578.46	666.31
578.912	668.11
579.363	678.31
579.814	677.61
580.265	659.41
580.717	675.31
581.168	671.91
581.619	676.81
582.07	677.31
582.521	674.21
582.972	686.41
583.423	683.81
583.875	687.01
584.326	706.31
584.777	725.51
585.227	782.51
585.678	832.41
586.129	882.81
586.58	932.61
587.031	983.31
587.482	1078.81
587.933	1189.51
588.384	1073.71
588.834	895.71
589.285	795.41
589.736	779.31
590.186	777.01
590.637	765.51
591.088	754.01
591.538	741.11
591.989	739.01
592.439	732.31
592.89	720.61
593.34	717.51
593.791	708.91
594.241	708.51
594.692	710.91
595.142	705.81
595.593	705.91
596.043	705.41
596.493	713.41
596.943	711.51
597.394	744.91
597.844	718.91
598.294	743.81
598.744	760.31
599.195	774.51
599.645	820.51
600.095	878.11
600.545	934.21
600.995	973.31
601.445	1033.71
601.895	1087.41
602.345	1140.81
602.795	1138.01
603.245	1081.61
603.695	1023.31
604.145	976.61
604.594	925.11
605.044	865.31
605.494	816.41
605.944	760.81
606.393	749.11
606.843	732.11
607.293	737.41
607.743	740.71
608.192	752.01
608.642	757.51
609.091	773.11
609.541	783.11
609.99	768.31
610.44	770.91
610.889	740.51
611.339	707.21
611.788	692.71
612.238	708.51
612.687	719.31
613.136	719.21
613.586	727.71
614.035	723.21
614.484	744.21
614.933	736.51
615.383	740.41
615.832	731.31
616.281	723.01
616.73	689.71
617.179	675.01
617.628	657.81
618.077	621.81
618.526	627.41
618.975	626.11
619.424	616.61
619.873	614.91
620.322	625.81
620.771	620.21
621.22	613.61
621.669	601.31
622.118	592.81
622.567	592.41
623.015	574.51
623.464	580.01
623.913	561.51
624.361	556.51
624.81	553.71
625.259	557.31
625.707	561.81
626.156	561.01
626.604	575.11
627.053	562.81
627.501	574.91
627.95	571.71
628.398	582.81
628.847	581.31
629.295	575.71
629.744	573.11
630.192	578.31
630.64	567.51
631.089	558.31
631.537	566.91
631.985	565.71
632.433	585.01
632.881	573.71
633.33	616.61
633.778	594.21
634.226	555.41
634.674	564.61
635.122	572.21
635.57	596.81
636.018	617.51
636.466	585.11
636.914	557.91
637.362	573.91
637.81	584.61
638.258	582.21
638.705	591.91
639.153	609.51
639.601	624.41
640.049	643.11
640.497	676.01
640.944	703.31
641.392	654.81
641.84	623.21
642.287	593.31
642.735	578.11
643.182	570.21
643.63	574.31
644.078	582.71
644.525	582.01
644.973	594.21
645.42	605.41
645.867	632.41
646.315	639.71
646.762	668.61
647.21	693.51
647.657	714.51
648.104	749.01
648.551	775.21
648.999	831.91
649.446	912.01
649.893	1000.01
650.34	1147.51
650.787	1364.81
651.234	1697.31
651.682	2193.01
652.129	3035.31
652.576	4328.41
653.023	6342.11
653.47	8568.21
653.917	10603.01
654.363	12132.81
654.81	13312.71
655.257	12647.51
655.704	8338.31
656.151	4960.51
656.598	3252.81
657.044	2320.91
657.491	1807.31
657.938	1458.41
658.385	1215.91
658.831	1058.01
659.278	952.11
659.724	842.71
660.171	781.51
660.618	716.71
661.064	688.81
661.511	665.31
661.957	665.81
662.404	641.31
662.85	650.31
663.296	632.01
663.743	569.61
664.189	542.31
664.635	541.51
665.082	531.91
665.528	533.41
665.974	521.81
666.42	522.21
666.867	510.91
667.313	499.71
667.759	471.51
668.205	471.11
668.651	479.41
669.097	472.71
669.543	473.31
669.989	469.71
670.435	460.21
670.881	454.71
671.327	455.01
671.773	475.71
672.219	499.21
672.665	560.31
673.11	599.61
673.556	642.61
674.002	679.71
674.448	661.01
674.893	561.31
675.339	486.41
675.785	458.41
676.23	420.41
676.676	394.41
677.122	396.01
677.567	376.61
678.013	373.21
678.458	365.41
678.904	367.41
679.349	351.11
679.794	361.61
680.24	358.21
680.685	356.41
681.131	359.41
681.576	358.11
682.021	363.21
682.466	357.21
682.912	352.41
683.357	355.31
683.802	383.11
684.247	421.31
684.692	468.31
685.137	501.71
685.583	550.71
686.028	577.51
686.473	523.51
686.918	450.11
687.363	425.01
687.807	400.61
688.252	373.21
688.697	361.31
689.142	343.31
689.587	333.21
690.032	338.51
690.477	354.31
690.921	362.51
691.366	387.71
691.811	412.51
692.255	444.91
692.7	471.11
693.145	526.31
693.589	737.91
694.034	1194.71
694.478	1602.61
694.923	1763.71
695.367	2283.01
695.812	1233.31
696.256	518.31
696.701	378.41
697.145	348.51
697.59	327.21
698.034	325.81
698.478	340.81
698.922	333.31
699.367	328.91
699.811	343.41
700.255	368.31
700.699	392.51
701.143	431.11
701.588	486.41
702.032	517.31
702.476	518.91
702.92	497.21
703.364	512.61
703.808	676.71
704.252	1100.61
704.696	1500.41
705.14	1696.41
705.584	2145.71
706.027	1104.81
706.471	535.71
706.915	412.01
707.359	349.51
707.803	330.41
708.246	317.81
708.69	315.71
709.134	316.71
709.577	309.81
710.021	323.11
710.465	316.11
710.908	315.51
711.352	305.71
711.795	317.41
712.239	356.91
712.682	393.81
713.126	420.01
713.569	459.21
714.012	374.61
714.456	326.61
714.899	299.81
715.342	279.71
715.786	263.91
716.229	259.51
716.672	262.41
717.115	249.11
717.558	251.11
718.002	258.61
718.445	268.31
718.888	289.41
719.331	301.81
719.774	313.21
720.217	313.71
720.66	289.41
721.103	267.31
721.546	258.11
721.989	252.21
722.432	233.51
722.874	240.51
723.317	233.41
723.76	232.31
724.203	262.81
724.645	333.31
725.088	457.21
725.531	578.61
725.974	639.51
726.416	548.21
726.859	311.81
727.301	242.61
727.744	236.11
728.187	240.01
728.629	252.11
729.071	254.21
729.514	254.81
729.956	272.61
730.399	301.81
730.841	294.91
731.283	275.61
731.726	278.31
732.168	262.11
732.61	272.11
733.053	292.81
733.495	324.01
733.937	361.51
734.379	407.71
734.821	446.31
735.263	570.71
735.705	883.81
736.148	1688.81
736.59	2676.31
737.032	3117.51
737.474	2529.31
737.916	832.31
738.357	443.11
738.799	339.71
739.241	301.01
739.683	291.11
740.125	300.11
740.567	312.91
741.008	327.71
741.45	323.41
741.892	325.81
742.334	363.51
742.775	368.21
743.217	359.41
743.658	277.91
744.1	267.11
744.542	271.11
744.983	323.21
745.425	344.61
745.866	348.81
746.307	287.01
746.749	284.51
747.19	338.01
747.632	485.41
748.073	954.71
748.514	1995.01
748.956	2938.21
749.397	3703.11
749.838	3067.51
750.279	2983.31
750.72	1528.01
751.162	564.41
751.603	326.81
752.044	252.81
752.485	226.91
752.926	214.11
753.367	205.31
753.808	192.61
754.249	194.21
754.69	195.31
755.131	191.31
755.572	183.51
756.013	182.81
756.453	185.81
756.894	191.11
757.335	195.11
757.776	195.41
758.216	196.11
758.657	198.61
759.098	208.31
759.538	236.71
759.979	276.21
760.42	396.71
760.86	761.01
761.301	1990.71
761.741	4667.81
762.182	6491.51
762.622	4596.81
763.063	1354.71
763.503	556.81
763.943	343.31
764.384	320.71
764.824	336.31
765.264	339.71
765.705	263.11
766.145	201.61
766.585	184.91
767.025	180.51
767.465	173.71
767.906	222.21
768.346	264.51
768.786	289.91
769.226	245.61
769.666	325.71
770.106	662.31
770.546	1673.21
770.986	2699.71
771.426	2375.31
771.866	809.21
772.306	342.41
772.745	211.61
773.185	176.61
773.625	170.81
774.065	154.41
774.505	185.11
774.944	264.71
775.384	526.51
775.824	884.81
776.263	857.01
776.703	388.41
777.142	187.01
777.582	151.81
778.021	130.61
778.461	129.21
778.9	131.81
779.34	129.11
779.779	121.81
780.219	115.21
780.658	113.91
781.097	113.31
781.537	115.61
781.976	107.31
782.415	113.21
782.855	107.51
783.294	104.51
783.733	101.91
784.172	110.51
784.611	106.91
785.05	108.61
785.489	114.31
785.928	121.41
786.367	119.81
786.806	118.91
787.245	127.81
787.684	134.91
788.123	145.51
788.562	136.41
789.001	134.81
789.44	126.01
789.879	118.21
790.317	127.81
790.756	133.61
791.195	124.31
791.634	148.71
792.072	210.61
792.511	388.71
792.95	1076.41
793.388	2183.71
793.827	1939.61
794.265	693.31
794.704	289.81
795.142	192.21
795.581	154.11
796.019	141.41
796.458	124.71
796.896	130.81
797.334	133.81
797.773	162.41
798.211	230.61
798.649	468.11
799.087	1076.41
799.526	1671.31
799.964	2072.51
800.402	2028.81
800.84	782.81
801.278	313.81
801.716	193.61
802.154	159.91
802.592	151.01
803.03	145.71
803.468	136.01
803.906	150.51
804.344	150.41
804.782	139.01
805.22	140.21
805.658	137.61
806.096	147.41
806.533	162.11
806.971	184.81
807.409	221.91
807.847	338.21
808.284	721.51
808.722	1977.01
809.16	3358.51
809.597	3317.51
810.035	5634.61
810.472	5790.31
810.91	2134.61
811.347	823.81
811.785	421.11
812.222	264.61
812.66	205.51
813.097	172.41
813.535	143.91
813.972	137.71
814.409	124.51
814.846	107.31
815.284	113.61
815.721	107.61
816.158	106.41
816.595	121.21
817.032	172.01
817.47	187.21
817.907	144.01
818.344	120.21
818.781	105.91
819.218	101.01
819.655	128.21
820.092	182.41
820.529	209.31
820.966	171.81
821.403	132.31
821.839	105.91
822.276	106.91
822.713	120.91
823.15	140.21
823.587	116.71
824.023	152.01
824.46	326.31
824.897	947.41
825.333	1373.21
825.77	590.81
826.206	234.21
826.643	141.21
827.08	110.71
827.516	96.01
827.953	76.31
828.389	82.11
828.825	73.21
829.262	66.31
829.698	64.71
830.135	62.71
830.571	65.81
831.007	67.61
831.443	65.91
831.88	60.81
832.316	62.51
832.752	65.41
833.188	63.81
833.624	63.71
834.06	69.01
834.497	72.61
834.933	70.91
835.369	77.21
835.805	70.11
836.241	78.11
836.677	78.31
837.112	92.91
837.548	111.71
837.984	136.61
838.42	210.71
838.856	538.41
839.292	1595.91
839.727	2326.31
840.163	1100.61
840.599	980.91
841.034	2108.11
841.47	2119.91
841.906	790.81
842.341	339.21
842.777	213.41
843.212	259.31
843.648	242.71
844.083	131.11
844.519	92.11
844.954	74.21
845.39	67.41
845.825	62.71
846.261	60.11
846.696	56.31
847.131	52.31
847.566	56.91
848.002	50.91
848.437	53.31
848.872	62.51
849.307	67.61
849.742	86.71
850.177	191.01
850.613	592.41
851.048	890.51
851.483	384.91
851.918	160.01
852.353	81.81
852.788	59.81
853.223	52.01
853.657	46.71
854.092	46.61
854.527	42.61
854.962	39.41
855.397	42.51
855.832	49.21
856.266	43.01
856.701	43.11
857.136	40.51
857.57	41.21
858.005	53.41
858.44	60.21
858.874	43.31
859.309	51.71
859.743	40.01
860.178	42.71
860.612	46.61
861.047	53.61
861.481	70.61
861.915	69.21
862.35	50.81
862.784	37.01
863.218	38.91
863.653	31.71
864.087	41.21
864.521	54.31
864.955	75.41
865.39	158.71
865.824	177.81
866.258	119.41
866.692	166.61
867.126	179.21
867.56	101.01
867.994	52.01
868.428	37.61
868.862	47.71
869.296	55.11
869.73	60.01
870.164	49.21
870.598	50.11
871.031	34.61
871.465	35.01
871.899	35.11
872.333	28.31
872.766	28.81
873.2	23.71
873.634	26.51
874.067	22.61
874.501	24.91
874.935	33.61
875.368	41.01
875.802	29.51
876.235	26.01
876.669	28.91
877.102	14.71
877.535	22.31
877.969	22.91
878.402	26.41
878.836	13.51
879.269	27.21
879.702	20.21
880.135	14.11
880.569	18.01
881.002	26.01
881.435	22.51
881.868	21.61
882.301	24.81
882.734	17.41
883.167	22.61
883.601	15.51
884.034	23.41
884.467	9.41
884.899	17.81
885.332	18.61
885.765	13.71
886.198	10.91
886.631	15.71
887.064	19.81
887.497	19.01
887.929	21.51
888.362	18.81
888.795	13.61
889.228	18.21
889.66	18.61
890.093	15.31
890.526	17.11
890.958	10.51
891.391	18.11
891.823	22.61
892.256	9.21
892.688	13.51
893.121	13.41
893.553	17.21
893.985	22.11
894.418	18.01
894.85	12.51
895.282	16.31
895.715	17.41
896.147	18.31
896.579	13.01
897.011	6.01
897.444	18.91
897.876	14.91
898.308	14.61
898.74	18.31
899.172	12.61
899.604	17.11
900.036	20.51
900.468	20.21
900.9	16.41
901.332	19.21
901.764	9.01
902.196	19.11
902.628	22.01
903.06	15.61
903.491	33.11
903.923	23.71
904.355	18.91
904.787	25.51
905.218	23.31
905.65	16.31
906.082	12.81
906.513	15.01
906.945	17.01
907.376	13.41
907.808	23.31
908.239	19.21
908.671	16.01
909.102	18.21
909.534	23.71
909.965	52.21
910.397	97.91
910.828	317.91
911.259	473.41
911.691	218.31
912.122	109.41
912.553	52.21
912.984	37.11
913.415	23.81
913.847	20.91
914.278	18.91
914.709	11.71
915.14	16.21
915.571	14.11
916.002	8.01
916.433	17.11
916.864	15.71
917.295	11.11
917.726	19.51
918.157	11.41
918.587	34.11
919.018	20.91
919.449	14.41
919.88	24.51
920.311	26.51
920.741	49.41
921.172	168.41
921.603	147.01
922.033	74.91
922.464	45.71
922.895	25.41
923.325	23.91
923.756	17.21
924.186	13.21
924.617	22.01
925.047	33.11
925.478	36.91
925.908	32.01
926.338	17.61
926.769	10.11
927.199	18.01
927.629	7.41
928.06	17.51
928.49	9.31
928.92	17.51
929.35	15.01
929.78	7.61
930.21	9.81
930.641	11.31
931.071	12.01
931.501	2.21
931.931	3.91
932.361	5.91
932.791	3.91
933.221	5.51
933.651	6.81
934.08	16.01
934.51	27.91
934.94	10.41
935.37	8.61
935.8	11.11
936.229	5.11
936.659	7.61
937.089	1.91
937.519	12.11
937.948	22.41
938.378	14.41
938.807	7.91
939.237	7.81
939.666	5.11
940.096	-4.09
940.525	0.21
940.955	-2.79
941.384	-2.09
941.814	-9.49
942.243	0.01
942.672	1.91
943.102	-6.09
943.531	1.81
943.96	3.81
944.39	-0.29
944.819	2.31
945.248	-1.09
945.677	2.91
946.106	7.91
946.535	4.21
946.964	1.31
947.393	4.31
947.822	4.31
948.251	-3.59
948.68	-1.19
949.109	0.41
949.538	4.61
949.967	-1.29
950.396	10.11
950.825	-0.69
951.254	-0.49
951.682	-6.89
952.111	-0.29
952.54	0.91
952.969	-7.09
953.397	-2.39
953.826	1.61
954.254	-6.69
954.683	6.21
955.112	-3.49
955.54	-0.59
955.969	3.31
956.397	1.51
956.826	-6.49
957.254	5.01
957.682	-2.29
958.111	-2.69
958.539	3.01
958.967	0.41
959.396	0.31
959.824	-3.49
960.252	2.91
960.68	-7.79
961.109	-5.69
961.537	-1.09
961.965	0.71
962.393	-0.19
962.821	-5.79
963.249	0.81
963.677	3.11
964.105	4.41
964.533	46.31
964.961	40.81
965.389	20.91
965.817	12.61
966.245	5.11
966.672	4.51
967.1	-6.09
967.528	4.31
967.956	-7.19
968.383	-4.59
968.811	-6.99
969.239	-3.89
969.666	-5.29
970.094	-2.79
970.522	-2.89
970.949	-3.09
971.377	-7.89
971.804	-5.99
972.232	-4.49
972.659	-6.09
973.087	-7.09
973.514	-2.89
973.941	-4.29
974.369	1.11
974.796	-4.59
975.223	-0.99
975.651	-1.49
976.078	-1.59
976.505	-3.19
976.932	-1.19
977.359	16.61
977.786	9.81
978.214	-1.89
978.641	-2.59
979.068	-2.59
979.495	-5.49
979.922	-2.89
980.349	-5.29
980.776	2.01
981.202	-1.49
981.629	-3.39
982.056	4.41
982.483	-3.49
982.91	-7.19
983.337	-11.99
983.763	0.11
984.19	-4.89
984.617	-2.49
985.043	-7.29
985.47	-0.39
985.897	-6.09
986.323	-7.39
986.75	-1.69
987.176	-6.99
987.603	-3.29
988.029	-3.09
988.456	-6.29
988.882	8.51
989.308	-5.99
989.735	-1.89
990.161	-0.49
990.587	-2.69
991.014	5.71
991.44	5.01
991.866	-6.69
992.292	-6.99
992.719	-8.09
993.145	1.11
993.571	-8.39
993.997	-3.69
994.423	-3.79
994.849	-3.19
995.275	2.11
995.701	0.41
996.127	-8.59
996.553	1.81
996.979	1.81
997.405	-7.99
997.83	-3.89
998.256	-4.29
998.682	0.81
999.108	-8.09
999.534	-1.99
999.959	-6.59
1000.385	-6.49
1000.811	-0.89
1001.236	-9.49
1001.662	-7.69
1002.087	-11.19
1002.513	-1.89
1002.938	0.21
1003.364	-3.59
1003.789	0.41
1004.215	1.71
1004.64	-4.09
1005.066	2.31
1005.491	-3.79
1005.916	-4.59
1006.342	-8.19
1006.767	-13.09
1007.192	0.11
1007.617	-10.39
1008.042	-11.79
1008.468	-9.69
1008.893	-1.79
1009.318	-5.39
1009.743	-3.39
1010.168	-0.19
1010.593	-0.39
1011.018	-6.69
1011.443	2.51
1011.868	-1.49
1012.293	-4.29
1012.718	-6.69
1013.143	-5.99
1013.567	-3.39
1013.992	-3.09
1014.417	-8.69
1014.842	3.31
1015.267	-4.59
1015.691	-4.69
1016.116	1.51
1016.541	0.41
1016.965	1.31
1017.39	1.51
1017.814	-1.39
1018.239	-3.99
1018.663	-8.09
1019.088	-12.29
1019.512	-4.79
1019.937	-4.99
1020.361	-11.09
1020.785	-9.49
1021.21	-8.99
1021.634	-3.99
1022.058	-0.59
1022.483	1.01
1022.907	0.01
1023.331	-7.79
1023.755	-6.89
1024.179	-4.69
1024.604	-5.29
1025.028	-4.59
1025.452	-2.99
1025.876	-4.59
1026.3	0.41
1026.724	-9.79
1027.148	-7.59
1027.572	-7.69
1027.996	-4.59
1028.42	-1.19
1028.843	-3.99
1029.267	-6.19
1029.691	-3.99
1030.115	-3.39
1030.539	-7.69
1030.962	-8.99
1031.386	-7.29
1031.81	-0.79
1032.233	6.11
1032.657	-6.09
1033.08	-12.79
1033.504	-3.09
1033.927	-6.69
1034.351	2.71
1034.774	-4.89
1035.198	-3.49
1035.621	-7.69
1036.045	-11.29
1036.468	-0.99
1036.891	-10.29
1037.315	-12.09
1037.738	-4.79
1038.161	-1.69
1038.584	-7.49
1039.008	-8.79
1039.431	-4.89
1039.854	-7.99
1040.277	-11.69
1040.7	-9.29
1041.123	2.01
1041.546	-3.89
1041.969	-4.59
1042.392	-12.29
1042.815	-4.29
1043.238	-0.49
1043.661	-0.99
1044.084	-7.39
1044.507	-4.29
1044.93	-9.59
1045.352	-6.59
1045.775	-3.59
1046.198	-1.69
1046.621	-2.79
1047.043	-4.19
1047.466	5.41
1047.889	-5.99
1048.311	-3.79
1048.734	-5.19
1049.156	-9.59
1049.579	-6.29
1050.001	-1.49
1050.424	-3.89
1050.846	-6.19
1051.269	-4.59
1051.691	-7.89
1052.113	-5.99
1052.536	-2.09
1052.958	-8.19
1053.38	-4.69
1053.802	-11.29
1054.225	2.81
1054.647	-8.59
1055.069	-3.29
1055.491	1.41
1055.913	-6.59
1056.335	-2.09
1056.757	-9.79
1057.179	-11.89
1057.601	-6.09
1058.023	-3.69
1058.445	-9.79
1058.867	-2.39
1059.289	-4.69
1059.711	-6.89
1060.133	-3.59
1060.555	-9.59
1060.976	-14.19
1061.398	-4.49
1061.82	-5.29
1062.241	-2.49
1062.663	-10.39
1063.085	-5.69
1063.506	-7.59
1063.928	-6.79
1064.35	-0.59
1064.771	-10.19
1065.193	2.11
1065.614	-8.09
1066.035	-3.89
1066.457	-2.49
1066.878	-0.09
1067.3	-6.09
1067.721	2.91
1068.142	-2.89
1068.564	-3.99
1068.985	-11.39
1069.406	-5.49
1069.827	-4.39
1070.248	-0.69
1070.67	-8.09
1071.091	-9.39
1071.512	-5.69
1071.933	-9.69
1072.354	-9.99
1072.775	-9.19
1073.196	-10.89
1073.617	-9.19
1074.038	-12.09
1074.459	-7.59
1074.88	-8.69
1075.3	-8.39
1075.721	-5.19
1076.142	-3.59
1076.563	-2.09
1076.983	-10.09
1077.404	-6.39
1077.825	-14.59
1078.246	-8.29
1078.666	-12.89
1079.087	-11.39
1079.507	-7.19
1079.928	-1.69
1080.348	-6.79
1080.769	-12.49
1081.189	-1.19
1081.61	-3.89
1082.03	-5.99
1082.451	-3.29
1082.871	-5.79
1083.291	-6.69
1083.711	-11.69
1084.132	-6.89
1084.552	-0.89
1084.972	1.71
1085.392	-9.59
1085.813	-10.39
1086.233	-9.29
1086.653	-9.19
1087.073	-3.29
1087.493	-10.59
1087.913	-11.09
1088.333	-8.39
1088.753	-7.89
1089.173	2.01
1089.593	-3.69
1090.013	-2.19
1090.433	-2.29
1090.852	-8.29
1091.272	-4.59
1091.692	-3.09
1092.112	-4.19
1092.531	-11.19
1092.951	-12.59
1093.371	-6.59
1093.79	3.91
1094.21	-9.59
1094.63	-1.69
1095.049	-5.39
1095.469	-9.89
1095.888	-5.49
1096.308	3.11
1096.727	3.01
1097.146	-5.19
1097.566	-6.69
1097.985	-6.99
1098.405	-6.69
1098.824	-10.09
1099.243	-9.39
1099.662	-6.69
1100.082	-1.29
1100.501	-1.89
1100.92	-9.99
1101.339	-8.19
1101.758	-9.59
