Data from 20171114-ORNL-Ar_H_NY_Subt18_08-09-19-320.txt Node
Date: Tue Nov 14 08:09:19 EST 2017
User: Ender
Spectrometer: HR+D1039
Trigger mode: 0
Integration Time (sec): 2.730000E-2
Scans to average: 10
Electric dark correction enabled: true
Nonlinearity correction enabled: false
Boxcar width: 0
XAxis mode: Wavelengths
Number of Pixels in Spectrum: 2048
>>>>>Begin Spectral Data<<<<<
187.836	-5.41
188.309	-5.41
188.782	-5.41
189.255	-1.31
189.728	2.69
190.201	6.99
190.674	1.19
191.147	1.99
191.619	-10.31
192.092	4.59
192.565	6.19
193.038	2.29
193.511	-5.61
193.984	0.79
194.456	-2.51
194.929	4.89
195.402	-5.01
195.874	-1.41
196.347	2.19
196.82	-11.31
197.292	5.19
197.765	-1.11
198.237	-9.01
198.71	-3.61
199.182	-5.01
199.655	-0.11
200.127	1.39
200.6	-1.41
201.072	-2.61
201.544	-7.91
202.017	-2.51
202.489	6.59
202.961	-0.71
203.433	-3.91
203.906	-9.01
204.378	-5.11
204.85	-5.31
205.322	-11.81
205.794	-1.81
206.266	-8.31
206.739	-4.01
207.211	-1.41
207.683	-5.71
208.155	-8.51
208.627	-10.71
209.099	-11.51
209.57	-3.71
210.042	-11.11
210.514	-6.11
210.986	-8.51
211.458	-7.81
211.93	-6.91
212.402	3.39
212.873	-8.21
213.345	-8.91
213.817	-13.61
214.288	-6.01
214.76	-14.11
215.232	-2.71
215.703	-6.91
216.175	-5.21
216.646	-9.61
217.118	-11.71
217.589	-5.81
218.061	-5.81
218.532	-3.31
219.004	-6.21
219.475	-5.01
219.946	-7.21
220.418	-9.51
220.889	0.39
221.36	-2.71
221.832	-3.21
222.303	-8.41
222.774	-4.11
223.245	-11.01
223.717	-7.31
224.188	-4.61
224.659	-5.31
225.13	-6.31
225.601	-5.31
226.072	-2.41
226.543	-4.81
227.014	-1.91
227.485	-3.11
227.956	-5.51
228.427	-3.61
228.898	-2.11
229.369	0.79
229.839	-6.01
230.31	-9.41
230.781	-0.31
231.252	-5.21
231.722	-10.71
232.193	-5.21
232.664	-4.81
233.135	-1.21
233.605	-6.21
234.076	-14.21
234.546	-9.11
235.017	1.89
235.487	-4.11
235.958	-3.61
236.428	-5.21
236.899	-3.81
237.369	-5.21
237.84	-8.61
238.31	2.19
238.78	-6.71
239.251	-3.91
239.721	-5.61
240.191	-7.81
240.662	-4.01
241.132	-6.01
241.602	-4.11
242.072	-9.71
242.542	2.49
243.013	-2.81
243.483	-4.51
243.953	-4.01
244.423	-4.71
244.893	-7.01
245.363	-0.61
245.833	1.19
246.303	-7.61
246.773	1.19
247.243	-5.01
247.712	-3.11
248.182	1.49
248.652	-1.01
249.122	-12.81
249.592	-7.81
250.061	-2.31
250.531	7.09
251.001	-1.61
251.471	-2.01
251.94	4.29
252.41	-1.51
252.879	-11.21
253.349	3.09
253.818	1.79
254.288	3.99
254.757	-4.01
255.227	-3.91
255.696	-4.61
256.166	-0.11
256.635	0.09
257.105	2.29
257.574	3.39
258.043	-6.31
258.513	-5.01
258.982	-4.11
259.451	-9.01
259.92	-1.91
260.389	-4.91
260.859	4.79
261.328	-5.31
261.797	-0.21
262.266	-2.21
262.735	0.69
263.204	-3.81
263.673	-7.91
264.142	1.19
264.611	-8.71
265.08	-6.61
265.549	-2.41
266.018	-3.11
266.487	-10.91
266.955	-13.21
267.424	-6.31
267.893	-2.51
268.362	-6.91
268.83	-5.01
269.299	2.79
269.768	-7.71
270.236	-2.31
270.705	-5.21
271.174	-1.51
271.642	-6.41
272.111	-1.21
272.579	-2.11
273.048	-0.91
273.516	-2.91
273.985	1.39
274.453	3.89
274.922	3.29
275.39	3.59
275.858	-4.91
276.327	3.39
276.795	8.29
277.263	-2.11
277.731	12.19
278.2	-0.21
278.668	-0.01
279.136	0.39
279.604	2.69
280.072	1.79
280.54	6.99
281.008	0.99
281.477	8.69
281.945	3.09
282.413	7.59
282.881	13.69
283.348	-2.01
283.816	7.99
284.284	7.09
284.752	13.09
285.22	4.39
285.688	3.69
286.156	1.99
286.623	9.79
287.091	6.09
287.559	6.99
288.026	13.09
288.494	1.39
288.962	-0.41
289.429	2.09
289.897	10.19
290.364	11.79
290.832	8.19
291.3	6.79
291.767	5.59
292.234	9.79
292.702	3.09
293.169	12.29
293.637	9.39
294.104	10.69
294.571	-2.41
295.039	1.69
295.506	6.49
295.973	12.99
296.44	6.49
296.908	9.59
297.375	8.59
297.842	5.59
298.309	9.59
298.776	4.79
299.243	12.89
299.71	6.69
300.177	13.39
300.644	6.99
301.111	11.09
301.578	13.89
302.045	10.09
302.512	11.29
302.979	11.69
303.446	16.89
303.913	11.79
304.379	7.99
304.846	18.99
305.313	12.99
305.78	15.09
306.246	18.89
306.713	8.99
307.18	14.59
307.646	11.69
308.113	17.59
308.579	8.49
309.046	12.89
309.512	17.79
309.979	12.89
310.445	12.79
310.912	15.59
311.378	25.39
311.845	14.69
312.311	18.39
312.777	24.89
313.244	21.99
313.71	24.89
314.176	18.19
314.642	16.49
315.109	14.59
315.575	22.19
316.041	20.89
316.507	15.19
316.973	20.49
317.439	20.19
317.905	17.29
318.371	26.79
318.837	23.29
319.303	20.59
319.769	21.39
320.235	16.29
320.701	20.29
321.167	21.69
321.633	21.19
322.099	26.59
322.564	26.49
323.03	23.29
323.496	22.39
323.962	30.29
324.427	27.09
324.893	32.99
325.359	27.09
325.824	29.79
326.29	19.99
326.755	29.59
327.221	27.59
327.686	27.29
328.152	31.29
328.617	30.79
329.083	29.19
329.548	40.09
330.014	30.99
330.479	26.19
330.944	30.89
331.41	32.29
331.875	32.49
332.34	26.69
332.805	33.49
333.271	32.89
333.736	23.69
334.201	36.79
334.666	34.89
335.131	41.59
335.596	34.39
336.061	37.69
336.526	30.29
336.991	33.69
337.456	45.49
337.921	33.79
338.386	31.99
338.851	27.79
339.316	36.09
339.781	36.09
340.246	37.29
340.711	31.89
341.175	37.09
341.64	33.29
342.105	49.39
342.569	46.59
343.034	47.59
343.499	46.49
343.963	38.69
344.428	57.29
344.893	53.89
345.357	47.79
345.822	45.19
346.286	53.39
346.751	55.99
347.215	44.89
347.679	53.09
348.144	71.09
348.608	64.79
349.073	53.89
349.537	55.89
350.001	56.19
350.465	65.79
350.93	61.89
351.394	61.39
351.858	56.69
352.322	68.59
352.786	57.19
353.25	71.89
353.715	86.69
354.179	74.29
354.643	86.69
355.107	94.69
355.571	78.59
356.035	71.39
356.498	82.09
356.962	82.19
357.426	89.79
357.89	88.09
358.354	69.49
358.818	64.69
359.281	58.19
359.745	55.79
360.209	55.89
360.673	56.29
361.136	67.29
361.6	67.99
362.064	64.69
362.527	63.19
362.991	70.69
363.454	67.89
363.918	62.09
364.381	65.49
364.845	70.49
365.308	76.39
365.772	68.29
366.235	74.39
366.698	67.49
367.162	68.59
367.625	66.59
368.088	70.29
368.552	76.19
369.015	72.89
369.478	75.89
369.941	78.69
370.404	74.59
370.867	78.39
371.331	83.59
371.794	92.69
372.257	77.09
372.72	83.59
373.183	88.19
373.646	78.79
374.109	79.99
374.572	86.19
375.035	84.39
375.497	88.29
375.96	89.49
376.423	85.79
376.886	98.19
377.349	88.49
377.811	90.59
378.274	91.39
378.737	90.19
379.199	87.79
379.662	93.09
380.125	94.69
380.587	93.79
381.05	95.19
381.512	96.79
381.975	105.79
382.437	100.89
382.9	103.59
383.362	100.19
383.825	107.79
384.287	109.49
384.75	105.39
385.212	103.89
385.674	111.69
386.136	119.99
386.599	102.39
387.061	111.59
387.523	105.39
387.985	105.49
388.447	109.39
388.91	107.59
389.372	109.39
389.834	113.79
390.296	107.69
390.758	116.49
391.22	120.19
391.682	122.19
392.144	124.49
392.606	126.89
393.068	120.09
393.529	132.19
393.991	124.19
394.453	115.49
394.915	114.99
395.377	116.19
395.838	118.69
396.3	121.59
396.762	128.09
397.224	122.99
397.685	120.79
398.147	123.69
398.608	118.59
399.07	111.29
399.531	124.49
399.993	127.89
400.454	141.89
400.916	134.39
401.377	131.39
401.839	144.69
402.3	138.69
402.762	149.59
403.223	164.09
403.684	156.79
404.145	147.59
404.607	146.59
405.068	150.29
405.529	151.79
405.99	170.99
406.451	153.79
406.913	162.39
407.374	149.99
407.835	149.29
408.296	150.89
408.757	165.79
409.218	171.29
409.679	164.39
410.14	161.79
410.601	163.39
411.062	168.49
411.522	161.09
411.983	164.19
412.444	157.89
412.905	169.99
413.366	170.09
413.826	185.09
414.287	215.99
414.748	248.89
415.208	234.79
415.669	207.39
416.13	195.79
416.59	192.79
417.051	206.39
417.511	215.29
417.972	237.79
418.432	239.79
418.893	280.09
419.353	247.29
419.814	186.39
420.274	179.99
420.734	173.89
421.195	189.49
421.655	183.19
422.115	181.99
422.576	180.69
423.036	190.29
423.496	201.89
423.956	207.39
424.416	224.69
424.876	254.69
425.336	242.19
425.797	248.19
426.257	242.09
426.717	229.59
427.177	223.89
427.637	219.09
428.097	222.79
428.556	224.89
429.016	254.99
429.476	248.89
429.936	256.79
430.396	264.09
430.856	271.79
431.315	289.89
431.775	322.49
432.235	355.39
432.694	331.29
433.154	338.69
433.614	369.69
434.073	309.29
434.533	272.09
434.993	251.19
435.452	254.39
435.912	270.79
436.371	267.59
436.83	259.39
437.29	245.99
437.749	240.29
438.209	229.69
438.668	259.29
439.127	274.59
439.587	254.09
440.046	236.89
440.505	247.89
440.964	267.29
441.424	302.99
441.883	291.49
442.342	249.49
442.801	221.59
443.26	220.49
443.719	223.19
444.178	216.09
444.637	204.29
445.096	210.99
445.555	224.49
446.014	223.99
446.473	227.49
446.932	227.59
447.391	229.39
447.849	227.29
448.308	217.29
448.767	217.19
449.226	237.79
449.685	233.09
450.143	246.39
450.602	235.29
451.061	219.89
451.519	224.29
451.978	235.89
452.436	232.29
452.895	236.09
453.353	247.29
453.812	239.59
454.27	243.59
454.729	241.19
455.187	243.59
455.646	247.29
456.104	241.49
456.562	263.09
457.021	256.09
457.479	251.79
457.937	258.59
458.395	256.99
458.854	250.49
459.312	258.39
459.77	278.99
460.228	254.59
460.686	243.19
461.144	248.39
461.602	248.19
462.06	244.59
462.518	251.19
462.976	259.79
463.434	258.39
463.892	263.69
464.35	277.09
464.808	283.89
465.266	270.39
465.724	269.59
466.181	270.69
466.639	280.29
467.097	289.59
467.555	302.19
468.012	305.89
468.47	304.49
468.928	331.89
469.385	342.99
469.843	336.29
470.3	339.89
470.758	361.39
471.215	379.69
471.673	393.99
472.13	401.19
472.588	408.39
473.045	382.09
473.503	380.49
473.96	395.19
474.417	404.39
474.875	430.19
475.332	461.09
475.789	457.99
476.246	456.59
476.704	480.89
477.161	506.09
477.618	512.89
478.075	545.89
478.532	597.49
478.989	661.29
479.446	760.89
479.903	737.89
480.36	766.39
480.817	819.39
481.274	903.19
481.731	981.49
482.188	1060.99
482.645	1180.89
483.102	1257.99
483.558	1379.59
484.015	1415.09
484.472	1385.79
484.929	1344.69
485.385	1307.59
485.842	1289.99
486.299	1223.69
486.755	1198.19
487.212	1028.49
487.668	871.59
488.125	803.89
488.582	751.09
489.038	732.49
489.494	697.29
489.951	658.09
490.407	647.29
490.864	634.39
491.32	633.69
491.776	630.29
492.233	639.19
492.689	602.19
493.145	596.39
493.602	601.29
494.058	606.59
494.514	601.99
494.97	620.79
495.426	635.69
495.882	615.69
496.338	607.49
496.794	617.69
497.251	602.79
497.707	625.29
498.163	632.69
498.618	625.89
499.074	636.49
499.53	660.09
499.986	654.69
500.442	636.09
500.898	620.99
501.354	616.19
501.809	619.29
502.265	621.79
502.721	632.69
503.177	648.29
503.632	649.69
504.088	633.79
504.543	664.99
504.999	678.79
505.455	649.89
505.91	640.79
506.366	625.79
506.821	637.89
507.277	632.59
507.732	635.79
508.187	638.29
508.643	643.99
509.098	639.99
509.553	667.69
510.009	656.99
510.464	668.69
510.919	691.59
511.375	699.39
511.83	710.59
512.285	722.39
512.74	750.29
513.195	773.29
513.65	772.59
514.105	770.19
514.56	771.39
515.015	783.59
515.47	802.49
515.925	783.89
516.38	795.79
516.835	797.09
517.29	784.59
517.745	782.09
518.2	758.79
518.655	753.69
519.109	744.09
519.564	734.09
520.019	731.49
520.474	728.09
520.928	727.49
521.383	721.99
521.838	719.89
522.292	704.49
522.747	712.69
523.201	711.99
523.656	713.79
524.11	709.39
524.565	699.29
525.019	703.09
525.474	702.09
525.928	698.09
526.382	711.29
526.837	710.39
527.291	708.09
527.745	701.19
528.2	707.89
528.654	695.09
529.108	690.19
529.562	694.19
530.016	693.59
530.47	697.49
530.925	693.19
531.379	696.49
531.833	700.99
532.287	701.09
532.741	696.79
533.195	710.29
533.649	716.79
534.103	725.29
534.556	709.59
535.01	705.69
535.464	708.49
535.918	734.39
536.372	724.59
536.826	720.79
537.279	702.99
537.733	713.49
538.187	717.69
538.64	719.19
539.094	724.29
539.548	737.59
540.001	730.39
540.455	731.89
540.908	737.99
541.362	749.49
541.815	752.49
542.269	771.99
542.722	770.69
543.175	771.79
543.629	776.09
544.082	789.79
544.536	795.29
544.989	785.19
545.442	801.69
545.895	798.69
546.349	810.19
546.802	806.89
547.255	809.39
547.708	816.09
548.161	830.29
548.614	834.09
549.067	846.29
549.52	837.19
549.973	830.79
550.426	824.19
550.879	799.09
551.332	819.09
551.785	822.99
552.238	824.29
552.691	824.39
553.144	840.39
553.596	863.49
554.049	869.69
554.502	915.59
554.955	923.89
555.407	927.29
555.86	915.89
556.313	907.29
556.765	883.39
557.218	888.69
557.67	892.59
558.123	883.19
558.576	891.09
559.028	890.39
559.48	897.79
559.933	891.39
560.385	852.69
560.838	822.69
561.29	797.09
561.742	800.29
562.195	788.29
562.647	787.49
563.099	792.19
563.551	781.69
564.004	797.19
564.456	787.89
564.908	780.49
565.36	755.69
565.812	731.09
566.264	725.89
566.716	726.19
567.168	716.09
567.62	736.09
568.072	708.99
568.524	710.99
568.976	691.69
569.428	684.99
569.88	689.29
570.332	706.69
570.784	700.79
571.235	700.49
571.687	712.99
572.139	721.79
572.59	728.19
573.042	726.59
573.494	724.19
573.945	727.19
574.397	702.69
574.849	708.49
575.3	713.99
575.752	694.49
576.203	691.89
576.655	696.79
577.106	697.89
577.557	674.99
578.009	680.99
578.46	687.79
578.912	684.39
579.363	679.19
579.814	672.89
580.265	666.59
580.717	676.89
581.168	689.59
581.619	690.89
582.07	701.49
582.521	681.59
582.972	674.79
583.423	679.29
583.875	687.29
584.326	699.69
584.777	715.39
585.227	718.49
585.678	738.29
586.129	743.19
586.58	758.49
587.031	789.99
587.482	805.79
587.933	828.69
588.384	810.69
588.834	798.59
589.285	780.39
589.736	788.29
590.186	783.39
590.637	777.69
591.088	759.09
591.538	752.89
591.989	746.89
592.439	735.99
592.89	723.99
593.34	726.19
593.791	716.89
594.241	714.59
594.692	712.69
595.142	713.79
595.593	703.49
596.043	722.99
596.493	722.59
596.943	732.89
597.394	745.59
597.844	732.39
598.294	757.69
598.744	779.89
599.195	800.29
599.645	834.79
600.095	885.49
600.545	940.59
600.995	1006.29
601.445	1052.19
601.895	1112.69
602.345	1167.19
602.795	1130.59
603.245	1094.79
603.695	1042.89
604.145	994.39
604.594	936.49
605.044	884.09
605.494	818.89
605.944	768.79
606.393	764.19
606.843	746.69
607.293	753.49
607.743	742.59
608.192	753.79
608.642	763.99
609.091	776.69
609.541	783.59
609.99	780.79
610.44	771.19
610.889	743.59
611.339	710.59
611.788	693.89
612.238	698.99
612.687	712.59
613.136	709.39
613.586	724.09
614.035	720.99
614.484	720.19
614.933	721.19
615.383	717.99
615.832	716.09
616.281	714.79
616.73	685.19
617.179	671.49
617.628	657.99
618.077	640.29
618.526	639.29
618.975	638.29
619.424	618.39
619.873	613.49
620.322	626.19
620.771	610.79
621.22	622.99
621.669	600.09
622.118	597.09
622.567	593.69
623.015	578.39
623.464	580.49
623.913	577.19
624.361	573.59
624.81	576.89
625.259	578.59
625.707	572.59
626.156	573.29
626.604	592.79
627.053	590.29
627.501	581.79
627.95	589.39
628.398	606.79
628.847	588.19
629.295	583.99
629.744	592.79
630.192	589.09
630.64	576.49
631.089	563.49
631.537	554.19
631.985	535.39
632.433	547.49
632.881	540.99
633.33	534.99
633.778	529.89
634.226	536.99
634.674	559.79
635.122	549.79
635.57	560.69
636.018	570.59
636.466	566.29
636.914	568.49
637.362	577.09
637.81	589.99
638.258	597.99
638.705	600.69
639.153	622.79
639.601	640.99
640.049	673.39
640.497	682.99
640.944	715.49
641.392	659.59
641.84	631.59
642.287	598.29
642.735	578.59
643.182	576.29
643.63	577.39
644.078	573.19
644.525	583.69
644.973	597.69
645.42	603.99
645.867	631.89
646.315	643.79
646.762	667.59
647.21	702.09
647.657	722.09
648.104	754.89
648.551	761.69
648.999	833.19
649.446	902.89
649.893	991.09
650.34	1131.49
650.787	1353.29
651.234	1650.19
651.682	2130.59
652.129	2927.49
652.576	4151.09
653.023	6038.79
653.47	8131.09
653.917	10008.49
654.363	11487.79
654.81	12556.09
655.257	11927.59
655.704	7902.19
656.151	4747.79
656.598	3128.79
657.044	2241.49
657.491	1738.79
657.938	1413.89
658.385	1196.89
658.831	1041.39
659.278	940.49
659.724	832.69
660.171	770.79
660.618	714.89
661.064	683.69
661.511	666.49
661.957	654.89
662.404	642.59
662.85	658.09
663.296	628.79
663.743	576.79
664.189	555.89
664.635	556.69
665.082	541.99
665.528	546.79
665.974	530.99
666.42	514.69
666.867	519.09
667.313	502.29
667.759	480.89
668.205	462.29
668.651	467.69
669.097	458.39
669.543	457.89
669.989	456.89
670.435	464.69
670.881	457.39
671.327	463.09
671.773	487.39
672.219	508.49
672.665	568.39
673.11	607.99
673.556	656.99
674.002	691.79
674.448	681.39
674.893	577.79
675.339	490.29
675.785	450.49
676.23	431.19
676.676	409.19
677.122	397.89
677.567	388.69
678.013	384.09
678.458	372.39
678.904	377.39
679.349	364.99
679.794	372.99
680.24	362.59
680.685	365.99
681.131	359.79
681.576	368.49
682.021	372.69
682.466	363.39
682.912	365.49
683.357	364.79
683.802	398.69
684.247	431.99
684.692	477.29
685.137	519.59
685.583	562.29
686.028	585.99
686.473	540.99
686.918	469.49
687.363	422.09
687.807	408.79
688.252	384.89
688.697	376.49
689.142	346.99
689.587	345.59
690.032	343.29
690.477	364.09
690.921	368.79
691.366	399.79
691.811	419.19
692.255	442.69
692.7	484.29
693.145	533.89
693.589	761.29
694.034	1230.69
694.478	1656.09
694.923	1815.49
695.367	2334.49
695.812	1252.09
696.256	520.99
696.701	396.29
697.145	355.19
697.59	347.89
698.034	332.79
698.478	336.39
698.922	336.39
699.367	348.69
699.811	346.19
700.255	361.89
700.699	405.59
701.143	444.39
701.588	491.69
702.032	533.29
702.476	538.89
702.92	515.19
703.364	514.19
703.808	704.79
704.252	1150.49
704.696	1561.49
705.14	1756.99
705.584	2214.19
706.027	1112.39
706.471	546.99
706.915	423.59
707.359	373.59
707.803	338.99
708.246	326.29
708.69	318.79
709.134	330.39
709.577	325.89
710.021	326.99
710.465	322.69
710.908	309.89
711.352	316.59
711.795	328.19
712.239	366.59
712.682	411.69
713.126	426.59
713.569	471.59
714.012	368.59
714.456	313.19
714.899	300.99
715.342	286.29
715.786	275.09
716.229	273.29
716.672	268.39
717.115	253.49
717.558	264.79
718.002	264.49
718.445	272.09
718.888	293.39
719.331	304.29
719.774	322.69
720.217	318.39
720.66	290.19
721.103	277.79
721.546	268.49
721.989	256.99
722.432	245.59
722.874	253.09
723.317	240.49
723.76	250.29
724.203	266.09
724.645	341.69
725.088	474.49
725.531	605.89
725.974	672.89
726.416	577.19
726.859	318.79
727.301	254.99
727.744	248.79
728.187	244.79
728.629	254.59
729.071	255.99
729.514	274.89
729.956	287.09
730.399	291.59
730.841	296.69
731.283	287.89
731.726	281.19
732.168	277.49
732.61	279.59
733.053	299.79
733.495	335.89
733.937	370.09
734.379	437.39
734.821	468.69
735.263	587.39
735.705	935.99
736.148	1754.49
736.59	2795.39
737.032	3201.39
737.474	2596.19
737.916	866.29
738.357	457.29
738.799	342.69
739.241	320.09
739.683	289.59
740.125	309.89
740.567	312.89
741.008	337.29
741.45	332.09
741.892	336.09
742.334	368.99
742.775	381.69
743.217	362.49
743.658	286.59
744.1	262.99
744.542	280.39
744.983	335.29
745.425	369.39
745.866	365.09
746.307	288.79
746.749	294.99
747.19	342.69
747.632	503.69
748.073	987.69
748.514	2057.79
748.956	3034.79
749.397	3835.89
749.838	3185.69
750.279	3063.29
750.72	1586.29
751.162	579.99
751.603	343.29
752.044	273.39
752.485	229.09
752.926	216.59
753.367	218.19
753.808	199.49
754.249	199.79
754.69	194.79
755.131	193.89
755.572	186.99
756.013	184.29
756.453	190.79
756.894	200.79
757.335	197.89
757.776	199.29
758.216	201.59
758.657	198.79
759.098	210.69
759.538	244.49
759.979	287.39
760.42	414.59
760.86	800.39
761.301	2093.79
761.741	4885.69
762.182	6677.49
762.622	4750.99
763.063	1401.59
763.503	571.49
763.943	346.09
764.384	289.19
764.824	246.69
765.264	234.39
765.705	214.59
766.145	182.09
766.585	181.39
767.025	171.69
767.465	171.59
767.906	180.99
768.346	193.09
768.786	200.09
769.226	234.79
769.666	333.79
770.106	705.99
770.546	1742.89
770.986	2780.39
771.426	2457.49
771.866	843.79
772.306	357.39
772.745	210.69
773.185	176.39
773.625	168.79
774.065	155.89
774.505	162.39
774.944	214.59
775.384	372.79
775.824	594.49
776.263	563.09
776.703	279.39
777.142	165.59
777.582	139.39
778.021	123.89
778.461	135.09
778.9	132.99
779.34	133.59
779.779	117.39
780.219	117.09
780.658	111.19
781.097	113.19
781.537	118.09
781.976	104.09
782.415	107.39
782.855	109.09
783.294	110.39
783.733	104.99
784.172	109.49
784.611	112.49
785.05	110.49
785.489	112.09
785.928	119.69
786.367	121.19
786.806	124.89
787.245	138.19
787.684	144.19
788.123	153.39
788.562	136.19
789.001	130.49
789.44	129.49
789.879	117.49
790.317	119.09
790.756	131.49
791.195	132.89
791.634	150.19
792.072	219.99
792.511	407.79
792.95	1127.69
793.388	2245.69
793.827	1969.89
794.265	709.79
794.704	298.99
795.142	187.29
795.581	157.89
796.019	140.09
796.458	132.89
796.896	128.19
797.334	139.99
797.773	169.69
798.211	238.59
798.649	489.39
799.087	1112.79
799.526	1736.49
799.964	2177.79
800.402	2064.79
800.84	799.99
801.278	332.59
801.716	206.89
802.154	162.49
802.592	152.69
803.03	152.19
803.468	142.69
803.906	155.49
804.344	158.39
804.782	146.09
805.22	138.39
805.658	137.89
806.096	160.79
806.533	169.29
806.971	188.89
807.409	233.79
807.847	356.09
808.284	761.39
808.722	2080.49
809.16	3507.59
809.597	3486.69
810.035	5885.59
810.472	5984.99
810.91	2209.59
811.347	860.59
811.785	433.89
812.222	276.59
812.66	212.39
813.097	170.89
813.535	150.29
813.972	140.59
814.409	126.99
814.846	115.39
815.284	115.89
815.721	107.59
816.158	105.79
816.595	118.19
817.032	166.69
817.47	182.79
817.907	135.39
818.344	108.89
818.781	104.69
819.218	95.69
819.655	131.09
820.092	205.89
820.529	228.09
820.966	172.69
821.403	130.69
821.839	103.89
822.276	103.19
822.713	126.39
823.15	142.19
823.587	126.69
824.023	156.29
824.46	351.79
824.897	993.29
825.333	1408.39
825.77	609.99
826.206	245.59
826.643	145.09
827.08	107.59
827.516	93.59
827.953	78.99
828.389	82.59
828.825	72.59
829.262	68.69
829.698	62.99
830.135	66.89
830.571	61.79
831.007	67.59
831.443	62.79
831.88	61.19
832.316	62.89
832.752	67.59
833.188	71.29
833.624	68.49
834.06	72.89
834.497	69.39
834.933	70.59
835.369	73.49
835.805	67.19
836.241	74.59
836.677	80.89
837.112	94.69
837.548	111.89
837.984	142.79
838.42	226.29
838.856	565.29
839.292	1673.39
839.727	2421.79
840.163	1147.19
840.599	1035.49
841.034	2200.29
841.47	2190.99
841.906	823.99
842.341	353.59
842.777	213.29
843.212	215.49
843.648	184.59
844.083	114.59
844.519	83.39
844.954	76.19
845.39	58.89
845.825	55.89
846.261	56.69
846.696	52.39
847.131	52.69
847.566	63.89
848.002	57.39
848.437	56.09
848.872	68.59
849.307	67.09
849.742	92.79
850.177	199.19
850.613	616.99
851.048	923.39
851.483	397.39
851.918	162.89
852.353	90.19
852.788	57.09
853.223	49.29
853.657	53.19
854.092	47.99
854.527	36.29
854.962	44.39
855.397	42.09
855.832	48.49
856.266	40.79
856.701	42.99
857.136	35.29
857.57	45.79
858.005	44.19
858.44	62.29
858.874	47.99
859.309	54.99
859.743	40.89
860.178	47.99
860.612	48.19
861.047	56.99
861.481	74.29
861.915	70.39
862.35	50.79
862.784	33.89
863.218	35.59
863.653	34.09
864.087	54.49
864.521	58.69
864.955	74.49
865.39	163.39
865.824	179.09
866.258	125.89
866.692	176.69
867.126	194.49
867.56	111.09
867.994	55.39
868.428	44.29
868.862	43.99
869.296	57.99
869.73	62.39
870.164	51.29
870.598	49.09
871.031	38.19
871.465	32.09
871.899	32.69
872.333	28.59
872.766	24.39
873.2	25.79
873.634	28.49
874.067	25.29
874.501	23.09
874.935	34.39
875.368	34.69
875.802	29.09
876.235	18.89
876.669	17.09
877.102	17.09
877.535	28.49
877.969	22.09
878.402	19.59
878.836	20.89
879.269	21.79
879.702	20.49
880.135	22.79
880.569	23.49
881.002	20.59
881.435	19.39
881.868	11.59
882.301	22.69
882.734	12.19
883.167	23.99
883.601	19.39
884.034	20.29
884.467	16.49
884.899	18.19
885.332	15.89
885.765	13.39
886.198	14.59
886.631	17.59
887.064	15.69
887.497	21.49
887.929	20.09
888.362	10.49
888.795	11.39
889.228	15.39
889.66	18.09
890.093	22.19
890.526	16.29
890.958	14.39
891.391	20.59
891.823	25.99
892.256	10.19
892.688	14.99
893.121	16.39
893.553	12.99
893.985	20.99
894.418	17.49
894.85	12.89
895.282	15.19
895.715	12.99
896.147	17.49
896.579	19.99
897.011	13.09
897.444	14.19
897.876	17.79
898.308	14.19
898.74	15.29
899.172	16.99
899.604	22.89
900.036	14.69
900.468	11.89
900.9	11.79
901.332	19.69
901.764	12.49
902.196	12.19
902.628	21.79
903.06	17.99
903.491	31.29
903.923	24.89
904.355	19.99
904.787	22.59
905.218	22.09
905.65	21.69
906.082	16.59
906.513	14.09
906.945	20.99
907.376	12.79
907.808	16.09
908.239	19.29
908.671	22.99
909.102	22.49
909.534	27.99
909.965	52.89
910.397	98.09
910.828	331.39
911.259	494.19
911.691	225.99
912.122	111.19
912.553	47.19
912.984	32.39
913.415	23.99
913.847	27.09
914.278	15.19
914.709	11.19
915.14	18.69
915.571	19.69
916.002	16.89
916.433	21.19
916.864	17.39
917.295	12.39
917.726	20.39
918.157	17.49
918.587	29.19
919.018	18.29
919.449	21.59
919.88	22.99
920.311	21.49
920.741	54.39
921.172	177.09
921.603	157.09
922.033	76.99
922.464	46.39
922.895	23.09
923.325	17.59
923.756	13.59
924.186	4.49
924.617	18.29
925.047	25.29
925.478	16.49
925.908	18.69
926.338	9.89
926.769	11.19
927.199	17.59
927.629	10.49
928.06	9.99
928.49	12.09
928.92	13.39
929.35	10.79
929.78	9.89
930.21	7.99
930.641	10.79
931.071	5.39
931.501	3.59
931.931	10.49
932.361	10.29
932.791	-2.81
933.221	8.29
933.651	-2.21
934.08	20.69
934.51	30.39
934.94	5.59
935.37	8.49
935.8	9.99
936.229	4.19
936.659	10.99
937.089	4.49
937.519	13.09
937.948	23.89
938.378	19.69
938.807	2.29
939.237	0.19
939.666	4.99
940.096	-1.41
940.525	-2.01
940.955	-1.51
941.384	1.19
941.814	-8.81
942.243	-4.81
942.672	-1.81
943.102	2.49
943.531	-2.41
943.96	1.79
944.39	9.79
944.819	4.19
945.248	6.39
945.677	-0.01
946.106	5.69
946.535	4.09
946.964	-0.91
947.393	1.49
947.822	-0.01
948.251	-2.21
948.68	-0.41
949.109	5.09
949.538	3.49
949.967	-4.61
950.396	3.59
950.825	0.09
951.254	-0.91
951.682	-2.31
952.111	3.29
952.54	3.29
952.969	-4.61
953.397	-8.31
953.826	2.19
954.254	-11.61
954.683	5.89
955.112	-0.31
955.54	-1.91
955.969	-0.31
956.397	-0.81
956.826	-1.51
957.254	1.19
957.682	0.49
958.111	0.59
958.539	-4.91
958.967	-0.41
959.396	-2.91
959.824	0.49
960.252	0.89
960.68	-8.41
961.109	-3.91
961.537	-1.81
961.965	-1.11
962.393	3.59
962.821	-6.41
963.249	-0.91
963.677	0.19
964.105	1.89
964.533	44.59
964.961	38.99
965.389	20.09
965.817	6.99
966.245	1.99
966.672	-1.01
967.1	-2.61
967.528	0.59
967.956	-2.91
968.383	-5.91
968.811	-5.81
969.239	1.99
969.666	-4.91
970.094	0.39
970.522	-7.41
970.949	-1.71
971.377	-8.91
971.804	-7.31
972.232	-8.51
972.659	-3.71
973.087	-0.51
973.514	1.19
973.941	-4.81
974.369	0.39
974.796	4.49
975.223	-1.01
975.651	-2.31
976.078	-0.91
976.505	-6.01
976.932	4.99
977.359	14.79
977.786	18.49
978.214	1.99
978.641	-3.61
979.068	-6.41
979.495	-3.31
979.922	-6.91
980.349	-5.41
980.776	2.79
981.202	2.09
981.629	2.39
982.056	0.39
982.483	-1.91
982.91	3.09
983.337	-4.21
983.763	-3.01
984.19	-1.01
984.617	-10.51
985.043	-4.41
985.47	1.19
985.897	-6.21
986.323	-11.01
986.75	3.99
987.176	2.19
987.603	-1.71
988.029	-0.01
988.456	-7.81
988.882	-2.01
989.308	-4.81
989.735	-3.61
990.161	-1.91
990.587	-9.11
991.014	2.39
991.44	3.19
991.866	-2.21
992.292	-4.21
992.719	-5.51
993.145	-3.11
993.571	-12.21
993.997	-4.61
994.423	-4.11
994.849	-5.91
995.275	0.99
995.701	2.69
996.127	-6.91
996.553	1.99
996.979	-5.71
997.405	-6.01
997.83	-5.11
998.256	-4.71
998.682	-7.31
999.108	-9.41
999.534	0.49
999.959	1.59
1000.385	-5.21
1000.811	4.59
1001.236	-8.51
1001.662	-6.61
1002.087	-11.11
1002.513	-2.31
1002.938	-1.81
1003.364	-6.31
1003.789	-7.61
1004.215	1.39
1004.64	3.09
1005.066	2.59
1005.491	0.29
1005.916	-0.71
1006.342	-2.11
1006.767	-13.01
1007.192	-0.61
1007.617	-7.61
1008.042	-4.71
1008.468	-6.01
1008.893	-6.41
1009.318	-9.21
1009.743	-4.41
1010.168	-0.21
1010.593	2.69
1011.018	-4.81
1011.443	-6.61
1011.868	-2.41
1012.293	-5.51
1012.718	-11.21
1013.143	-2.41
1013.567	-4.61
1013.992	-6.21
1014.417	-10.21
1014.842	-4.61
1015.267	-7.21
1015.691	-1.91
1016.116	3.89
1016.541	-2.11
1016.965	2.89
1017.39	-0.01
1017.814	-0.51
1018.239	-1.71
1018.663	-11.61
1019.088	-17.31
1019.512	-4.81
1019.937	-0.91
1020.361	-8.91
1020.785	-12.21
1021.21	-5.51
1021.634	-2.51
1022.058	-3.81
1022.483	3.59
1022.907	-6.31
1023.331	-2.61
1023.755	-3.71
1024.179	-3.31
1024.604	-5.11
1025.028	-9.51
1025.452	-4.31
1025.876	-1.81
1026.3	0.99
1026.724	-19.61
1027.148	-5.01
1027.572	-4.41
1027.996	-9.21
1028.42	-7.61
1028.843	-10.01
1029.267	-8.41
1029.691	0.99
1030.115	2.39
1030.539	-7.41
1030.962	-3.51
1031.386	-18.91
1031.81	2.09
1032.233	1.99
1032.657	-5.91
1033.08	-3.01
1033.504	-6.31
1033.927	-1.21
1034.351	-3.71
1034.774	-5.11
1035.198	-6.41
1035.621	-5.31
1036.045	-12.31
1036.468	-6.91
1036.891	-9.21
1037.315	-13.41
1037.738	-15.41
1038.161	-4.11
1038.584	2.69
1039.008	-7.91
1039.431	-5.81
1039.854	-4.41
1040.277	-5.51
1040.7	-11.31
1041.123	-4.51
1041.546	-4.41
1041.969	-3.41
1042.392	-6.41
1042.815	-5.31
1043.238	1.89
1043.661	3.69
1044.084	-4.51
1044.507	0.49
1044.93	-10.81
1045.352	-7.21
1045.775	-1.21
1046.198	-2.71
1046.621	-6.11
1047.043	-0.71
1047.466	3.69
1047.889	-7.41
1048.311	-10.41
1048.734	-8.31
1049.156	2.09
1049.579	-1.41
1050.001	-6.41
1050.424	-0.31
1050.846	-5.61
1051.269	0.99
1051.691	-10.41
1052.113	-1.11
1052.536	-4.71
1052.958	-5.01
1053.38	-4.61
1053.802	-10.01
1054.225	6.59
1054.647	-17.01
1055.069	-4.51
1055.491	-1.81
1055.913	-4.31
1056.335	1.59
1056.757	-8.61
1057.179	-4.21
1057.601	-7.31
1058.023	-0.91
1058.445	-5.41
1058.867	-3.11
1059.289	-5.01
1059.711	-9.31
1060.133	-7.81
1060.555	-6.61
1060.976	-10.11
1061.398	-4.21
1061.82	-11.71
1062.241	-6.61
1062.663	-3.91
1063.085	-5.61
1063.506	2.29
1063.928	-6.41
1064.35	-3.91
1064.771	-17.61
1065.193	-3.61
1065.614	-10.21
1066.035	-0.71
1066.457	-3.31
1066.878	0.79
1067.3	-2.11
1067.721	-3.81
1068.142	-0.71
1068.564	-2.21
1068.985	-4.91
1069.406	-6.71
1069.827	-3.61
1070.248	-1.81
1070.67	-5.41
1071.091	-8.61
1071.512	-6.51
1071.933	-7.21
1072.354	-11.41
1072.775	-3.91
1073.196	-9.31
1073.617	-5.41
1074.038	-7.31
1074.459	-7.91
1074.88	-10.51
1075.3	2.59
1075.721	-12.01
1076.142	-5.71
1076.563	-2.71
1076.983	-16.41
1077.404	-5.41
1077.825	-14.71
1078.246	-11.21
1078.666	-11.71
1079.087	-11.41
1079.507	-11.71
1079.928	-2.31
1080.348	2.89
1080.769	-9.51
1081.189	1.29
1081.61	-4.81
1082.03	-7.21
1082.451	-6.51
1082.871	-2.51
1083.291	-7.01
1083.711	-5.81
1084.132	-3.61
1084.552	-8.01
1084.972	-6.01
1085.392	-8.41
1085.813	-10.51
1086.233	-12.21
1086.653	-9.21
1087.073	-7.51
1087.493	-10.01
1087.913	-6.11
1088.333	-10.41
1088.753	-1.51
1089.173	-0.11
1089.593	-8.61
1090.013	-5.21
1090.433	-3.11
1090.852	-5.01
1091.272	-5.51
1091.692	-1.31
1092.112	-3.81
1092.531	-4.31
1092.951	-10.61
1093.371	-8.61
1093.79	-1.31
1094.21	-10.41
1094.63	-2.71
1095.049	-9.71
1095.469	-5.71
1095.888	-4.21
1096.308	1.69
1096.727	1.49
1097.146	-8.21
1097.566	0.19
1097.985	-6.61
1098.405	-2.31
1098.824	-7.01
1099.243	-13.41
1099.662	-8.51
1100.082	-8.01
1100.501	-5.51
1100.92	-4.21
1101.339	-5.71
1101.758	-6.31
