Data from 20171114-ORNL-Ar_H_NY_Subt18_08-04-08-341.txt Node
Date: Tue Nov 14 08:04:08 EST 2017
User: Ender
Spectrometer: HR+D1039
Trigger mode: 0
Integration Time (sec): 2.730000E-2
Scans to average: 10
Electric dark correction enabled: true
Nonlinearity correction enabled: false
Boxcar width: 0
XAxis mode: Wavelengths
Number of Pixels in Spectrum: 2048
>>>>>Begin Spectral Data<<<<<
187.836	-1.69
188.309	-1.69
188.782	-1.69
189.255	6.81
189.728	-1.89
190.201	5.21
190.674	4.71
191.147	-1.59
191.619	-12.49
192.092	-0.29
192.565	3.91
193.038	-0.59
193.511	-0.59
193.984	0.81
194.456	-2.49
194.929	4.71
195.402	-4.19
195.874	-0.39
196.347	-4.59
196.82	-2.89
197.292	4.51
197.765	-1.99
198.237	-2.89
198.71	-3.49
199.182	-5.99
199.655	5.11
200.127	3.11
200.6	0.11
201.072	-1.99
201.544	2.61
202.017	-0.59
202.489	4.51
202.961	0.01
203.433	5.31
203.906	-4.29
204.378	-7.19
204.85	2.41
205.322	-10.09
205.794	-4.49
206.266	-1.79
206.739	-7.79
207.211	2.41
207.683	-0.39
208.155	-7.39
208.627	-1.69
209.099	-7.49
209.57	-6.39
210.042	-1.09
210.514	-0.69
210.986	2.51
211.458	-4.09
211.93	-1.19
212.402	4.51
212.873	-5.39
213.345	-5.89
213.817	-11.09
214.288	-7.09
214.76	-4.79
215.232	-1.39
215.703	-3.69
216.175	-6.19
216.646	-2.19
217.118	-11.79
217.589	-2.49
218.061	-1.59
218.532	-5.09
219.004	3.21
219.475	-3.69
219.946	4.11
220.418	-6.19
220.889	7.51
221.36	0.81
221.832	4.21
222.303	0.41
222.774	6.11
223.245	-5.59
223.717	-3.69
224.188	-5.79
224.659	-9.19
225.13	-2.89
225.601	0.41
226.072	-3.49
226.543	-2.59
227.014	-1.59
227.485	-0.19
227.956	-3.79
228.427	-0.49
228.898	1.21
229.369	6.81
229.839	-2.99
230.31	-2.09
230.781	4.21
231.252	-1.19
231.722	-6.09
232.193	-0.59
232.664	2.91
233.135	4.51
233.605	3.91
234.076	-3.59
234.546	4.21
235.017	3.01
235.487	-2.69
235.958	1.81
236.428	1.11
236.899	-2.59
237.369	3.11
237.84	-6.49
238.31	6.31
238.78	2.91
239.251	1.31
239.721	0.41
240.191	4.31
240.662	-0.29
241.132	-1.69
241.602	-2.29
242.072	3.11
242.542	5.41
243.013	-1.19
243.483	4.51
243.953	1.91
244.423	-2.59
244.893	-3.99
245.363	9.21
245.833	0.61
246.303	-1.59
246.773	7.01
247.243	-0.89
247.712	5.31
248.182	8.91
248.652	6.41
249.122	-1.69
249.592	8.51
250.061	21.91
250.531	27.91
251.001	8.31
251.471	16.01
251.94	19.31
252.41	9.61
252.879	1.01
253.349	4.91
253.818	3.91
254.288	5.01
254.757	2.71
255.227	-2.79
255.696	3.91
256.166	8.01
256.635	0.91
257.105	6.51
257.574	7.81
258.043	6.91
258.513	7.21
258.982	13.51
259.451	11.81
259.92	9.61
260.389	17.71
260.859	13.61
261.328	5.41
261.797	14.11
262.266	10.91
262.735	10.91
263.204	5.61
263.673	0.51
264.142	3.31
264.611	-2.89
265.08	3.41
265.549	-3.19
266.018	2.61
266.487	-0.89
266.955	-4.89
267.424	3.51
267.893	3.11
268.362	-2.79
268.83	2.61
269.299	5.41
269.768	6.61
270.236	5.71
270.705	2.91
271.174	3.21
271.642	3.71
272.111	6.01
272.579	10.81
273.048	16.31
273.516	16.91
273.985	25.91
274.453	21.31
274.922	22.41
275.39	9.01
275.858	1.71
276.327	6.51
276.795	17.01
277.263	9.11
277.731	19.81
278.2	44.51
278.668	45.01
279.136	38.51
279.604	16.61
280.072	11.21
280.54	6.01
281.008	8.11
281.477	12.41
281.945	11.61
282.413	9.01
282.881	10.01
283.348	7.41
283.816	7.21
284.284	16.71
284.752	20.41
285.22	4.51
285.688	10.91
286.156	14.31
286.623	34.61
287.091	35.81
287.559	19.01
288.026	12.31
288.494	7.81
288.962	2.31
289.429	6.41
289.897	19.11
290.364	14.71
290.832	14.91
291.3	12.91
291.767	10.91
292.234	14.11
292.702	11.21
293.169	11.91
293.637	16.01
294.104	17.21
294.571	8.51
295.039	11.61
295.506	12.31
295.973	8.71
296.44	7.41
296.908	13.91
297.375	18.61
297.842	17.21
298.309	13.41
298.776	11.51
299.243	22.31
299.71	6.01
300.177	14.51
300.644	16.31
301.111	16.81
301.578	19.71
302.045	15.91
302.512	19.71
302.979	18.31
303.446	22.51
303.913	8.11
304.379	14.71
304.846	25.31
305.313	17.41
305.78	18.61
306.246	19.91
306.713	17.71
307.18	15.41
307.646	19.81
308.113	23.71
308.579	19.51
309.046	17.61
309.512	15.01
309.979	12.61
310.445	20.31
310.912	24.21
311.378	25.01
311.845	26.01
312.311	24.41
312.777	32.91
313.244	25.81
313.71	29.91
314.176	20.01
314.642	17.91
315.109	27.11
315.575	28.31
316.041	33.81
316.507	34.01
316.973	32.81
317.439	29.51
317.905	34.61
318.371	35.31
318.837	25.51
319.303	30.91
319.769	26.61
320.235	23.51
320.701	27.01
321.167	29.71
321.633	29.41
322.099	32.91
322.564	36.71
323.03	31.11
323.496	35.51
323.962	35.01
324.427	30.21
324.893	41.91
325.359	33.91
325.824	31.61
326.29	27.01
326.755	30.41
327.221	30.21
327.686	29.21
328.152	38.71
328.617	31.61
329.083	46.11
329.548	45.71
330.014	40.21
330.479	32.61
330.944	38.41
331.41	30.91
331.875	38.21
332.34	36.11
332.805	33.91
333.271	36.31
333.736	34.51
334.201	40.61
334.666	41.81
335.131	45.51
335.596	44.91
336.061	39.01
336.526	40.21
336.991	41.51
337.456	44.71
337.921	42.81
338.386	30.61
338.851	41.21
339.316	38.41
339.781	37.31
340.246	40.01
340.711	35.61
341.175	40.71
341.64	33.11
342.105	43.31
342.569	49.41
343.034	46.11
343.499	51.01
343.963	42.41
344.428	54.01
344.893	52.41
345.357	50.71
345.822	48.21
346.286	55.91
346.751	54.11
347.215	54.51
347.679	57.41
348.144	71.71
348.608	72.41
349.073	58.51
349.537	59.01
350.001	64.81
350.465	76.81
350.93	64.51
351.394	70.71
351.858	62.31
352.322	64.51
352.786	64.41
353.25	73.31
353.715	88.21
354.179	78.81
354.643	96.21
355.107	94.91
355.571	83.41
356.035	84.11
356.498	95.01
356.962	96.41
357.426	101.01
357.89	85.81
358.354	72.01
358.818	76.81
359.281	61.11
359.745	65.31
360.209	68.11
360.673	64.31
361.136	66.61
361.6	77.71
362.064	62.91
362.527	72.21
362.991	78.81
363.454	68.91
363.918	61.21
364.381	61.31
364.845	65.31
365.308	74.01
365.772	71.71
366.235	67.91
366.698	71.51
367.162	69.61
367.625	71.01
368.088	74.61
368.552	74.41
369.015	77.91
369.478	82.01
369.941	84.41
370.404	79.81
370.867	88.31
371.331	91.51
371.794	95.01
372.257	93.31
372.72	100.31
373.183	90.01
373.646	86.21
374.109	89.91
374.572	95.61
375.035	87.01
375.497	95.61
375.96	88.21
376.423	89.51
376.886	102.11
377.349	95.91
377.811	88.11
378.274	93.81
378.737	91.11
379.199	94.51
379.662	97.61
380.125	92.01
380.587	101.31
381.05	105.01
381.512	106.81
381.975	118.01
382.437	114.01
382.9	107.71
383.362	107.51
383.825	117.91
384.287	129.11
384.75	122.21
385.212	124.01
385.674	124.71
386.136	114.91
386.599	113.71
387.061	105.11
387.523	111.91
387.985	113.11
388.447	128.11
388.91	124.01
389.372	132.81
389.834	133.71
390.296	124.11
390.758	130.51
391.22	138.31
391.682	171.71
392.144	239.71
392.606	193.61
393.068	145.01
393.529	143.41
393.991	129.61
394.453	131.91
394.915	138.51
395.377	157.01
395.838	185.71
396.3	138.51
396.762	122.61
397.224	116.71
397.685	119.01
398.147	111.71
398.608	112.21
399.07	109.51
399.531	122.01
399.993	120.41
400.454	127.51
400.916	125.11
401.377	124.51
401.839	126.91
402.3	132.21
402.762	145.41
403.223	155.11
403.684	148.61
404.145	138.81
404.607	142.21
405.068	142.41
405.529	149.11
405.99	159.71
406.451	151.51
406.913	145.31
407.374	139.41
407.835	133.41
408.296	145.91
408.757	149.41
409.218	159.51
409.679	157.81
410.14	152.81
410.601	153.51
411.062	161.61
411.522	165.11
411.983	165.11
412.444	155.51
412.905	150.51
413.366	164.21
413.826	173.31
414.287	193.91
414.748	236.11
415.208	220.71
415.669	186.51
416.13	178.81
416.59	179.91
417.051	187.81
417.511	195.71
417.972	213.21
418.432	214.51
418.893	246.31
419.353	223.91
419.814	180.71
420.274	167.21
420.734	153.61
421.195	167.61
421.655	165.71
422.115	172.41
422.576	170.91
423.036	168.51
423.496	186.21
423.956	184.41
424.416	199.61
424.876	232.31
425.336	224.41
425.797	223.71
426.257	228.61
426.717	209.41
427.177	200.31
427.637	193.41
428.097	203.21
428.556	214.71
429.016	234.61
429.476	226.01
429.936	240.31
430.396	231.71
430.856	256.41
431.315	269.81
431.775	304.31
432.235	329.41
432.694	302.51
433.154	309.11
433.614	317.61
434.073	282.71
434.533	243.71
434.993	234.51
435.452	240.61
435.912	250.81
436.371	245.31
436.83	241.51
437.29	238.11
437.749	213.81
438.209	207.01
438.668	225.31
439.127	240.71
439.587	225.31
440.046	214.51
440.505	222.91
440.964	231.71
441.424	271.71
441.883	259.41
442.342	224.21
442.801	190.71
443.26	187.91
443.719	196.51
444.178	189.11
444.637	178.01
445.096	193.31
445.555	197.41
446.014	195.61
446.473	199.21
446.932	206.41
447.391	199.01
447.849	203.91
448.308	193.21
448.767	193.11
449.226	213.61
449.685	209.81
450.143	219.71
450.602	212.61
451.061	192.51
451.519	200.71
451.978	199.41
452.436	206.61
452.895	212.41
453.353	221.81
453.812	207.11
454.27	209.01
454.729	209.81
455.187	208.01
455.646	208.21
456.104	211.61
456.562	224.61
457.021	227.61
457.479	217.81
457.937	226.71
458.395	228.51
458.854	214.51
459.312	212.61
459.77	234.01
460.228	216.01
460.686	218.01
461.144	215.21
461.602	211.61
462.06	211.01
462.518	218.21
462.976	219.81
463.434	232.81
463.892	225.01
464.35	238.11
464.808	250.01
465.266	230.01
465.724	237.41
466.181	238.61
466.639	240.31
467.097	256.21
467.555	263.61
468.012	261.21
468.47	270.51
468.928	289.71
469.385	300.11
469.843	299.41
470.3	300.61
470.758	310.31
471.215	324.41
471.673	337.51
472.13	344.11
472.588	355.71
473.045	317.31
473.503	332.61
473.96	342.11
474.417	356.61
474.875	376.61
475.332	398.71
475.789	395.21
476.246	401.81
476.704	427.41
477.161	440.11
477.618	449.91
478.075	478.51
478.532	534.01
478.989	591.21
479.446	661.71
479.903	659.31
480.36	702.71
480.817	741.21
481.274	842.31
481.731	921.81
482.188	1001.01
482.645	1125.21
483.102	1217.71
483.558	1330.61
484.015	1380.11
484.472	1366.51
484.929	1324.51
485.385	1287.61
485.842	1255.01
486.299	1194.11
486.755	1109.21
487.212	948.41
487.668	808.81
488.125	746.31
488.582	679.11
489.038	653.31
489.494	625.41
489.951	608.71
490.407	584.61
490.864	565.01
491.32	569.01
491.776	549.41
492.233	559.91
492.689	526.31
493.145	529.51
493.602	517.71
494.058	518.71
494.514	531.01
494.97	548.31
495.426	545.31
495.882	532.01
496.338	532.61
496.794	544.11
497.251	537.31
497.707	544.11
498.163	547.71
498.618	553.51
499.074	553.61
499.53	581.11
499.986	579.61
500.442	562.21
500.898	547.51
501.354	546.31
501.809	556.01
502.265	554.31
502.721	570.21
503.177	571.11
503.632	570.21
504.088	578.51
504.543	612.71
504.999	598.71
505.455	563.91
505.91	554.31
506.366	549.21
506.821	549.11
507.277	537.61
507.732	538.61
508.187	540.21
508.643	548.61
509.098	553.91
509.553	565.21
510.009	574.01
510.464	583.81
510.919	593.01
511.375	599.21
511.83	615.91
512.285	615.81
512.74	653.51
513.195	671.71
513.65	669.21
514.105	667.41
514.56	665.01
515.015	679.31
515.47	698.81
515.925	681.11
516.38	676.51
516.835	692.71
517.29	680.21
517.745	672.91
518.2	658.41
518.655	647.51
519.109	651.51
519.564	641.51
520.019	627.31
520.474	614.61
520.928	627.51
521.383	613.61
521.838	618.61
522.292	608.11
522.747	607.41
523.201	609.31
523.656	600.81
524.11	584.81
524.565	592.21
525.019	592.51
525.474	606.51
525.928	599.01
526.382	596.61
526.837	595.71
527.291	596.61
527.745	592.91
528.2	600.11
528.654	590.41
529.108	593.41
529.562	588.21
530.016	587.91
530.47	598.21
530.925	594.01
531.379	588.81
531.833	602.71
532.287	604.11
532.741	594.01
533.195	599.61
533.649	610.81
534.103	611.71
534.556	599.61
535.01	605.41
535.464	601.11
535.918	616.01
536.372	609.71
536.826	609.31
537.279	596.11
537.733	594.81
538.187	612.31
538.64	606.11
539.094	609.41
539.548	613.91
540.001	615.41
540.455	620.51
540.908	617.31
541.362	620.01
541.815	624.21
542.269	645.31
542.722	641.01
543.175	646.11
543.629	650.71
544.082	662.91
544.536	667.21
544.989	659.81
545.442	668.41
545.895	670.41
546.349	667.61
546.802	669.81
547.255	671.91
547.708	678.91
548.161	689.71
548.614	695.51
549.067	692.01
549.52	702.41
549.973	680.91
550.426	676.31
550.879	669.11
551.332	664.41
551.785	671.81
552.238	676.51
552.691	688.51
553.144	689.91
553.596	711.61
554.049	714.41
554.502	748.71
554.955	760.21
555.407	756.41
555.86	748.41
556.313	745.91
556.765	730.41
557.218	737.51
557.67	732.31
558.123	724.91
558.576	724.91
559.028	734.61
559.48	733.81
559.933	726.91
560.385	706.81
560.838	673.21
561.29	650.81
561.742	652.41
562.195	636.61
562.647	631.41
563.099	638.11
563.551	629.71
564.004	648.51
564.456	639.51
564.908	629.91
565.36	623.31
565.812	601.11
566.264	584.91
566.716	597.71
567.168	587.91
567.62	598.71
568.072	577.91
568.524	573.31
568.976	569.81
569.428	568.41
569.88	559.51
570.332	560.31
570.784	561.61
571.235	562.01
571.687	579.11
572.139	564.21
572.59	590.41
573.042	585.71
573.494	578.31
573.945	577.21
574.397	556.71
574.849	559.81
575.3	565.81
575.752	561.21
576.203	554.61
576.655	563.71
577.106	549.41
577.557	537.41
578.009	543.71
578.46	540.51
578.912	536.71
579.363	537.91
579.814	535.61
580.265	540.01
580.717	538.61
581.168	540.71
581.619	550.11
582.07	543.91
582.521	551.91
582.972	545.61
583.423	546.01
583.875	551.31
584.326	561.41
584.777	600.31
585.227	672.51
585.678	734.01
586.129	814.71
586.58	870.81
587.031	935.21
587.482	1068.71
587.933	1223.51
588.384	1061.71
588.834	787.21
589.285	657.71
589.736	635.61
590.186	627.41
590.637	612.31
591.088	595.81
591.538	592.51
591.989	584.71
592.439	584.71
592.89	577.91
593.34	574.91
593.791	571.31
594.241	556.81
594.692	560.31
595.142	572.81
595.593	566.21
596.043	573.41
596.493	559.21
596.943	573.41
597.394	576.91
597.844	565.91
598.294	584.51
598.744	607.21
599.195	619.81
599.645	643.21
600.095	679.51
600.545	725.51
600.995	764.91
601.445	815.61
601.895	872.31
602.345	904.61
602.795	886.61
603.245	851.31
603.695	801.51
604.145	770.81
604.594	727.31
605.044	684.41
605.494	638.61
605.944	610.31
606.393	588.91
606.843	573.71
607.293	578.41
607.743	571.21
608.192	580.11
608.642	594.41
609.091	609.01
609.541	607.01
609.99	595.01
610.44	593.71
610.889	570.51
611.339	554.31
611.788	540.81
612.238	557.01
612.687	560.11
613.136	560.81
613.586	582.11
614.035	580.51
614.484	591.61
614.933	596.31
615.383	585.11
615.832	573.11
616.281	563.61
616.73	542.21
617.179	515.61
617.628	512.11
618.077	497.71
618.526	489.81
618.975	482.41
619.424	487.81
619.873	471.91
620.322	485.01
620.771	475.71
621.22	477.31
621.669	469.01
622.118	465.11
622.567	454.01
623.015	441.81
623.464	449.11
623.913	437.31
624.361	432.31
624.81	436.81
625.259	433.81
625.707	434.21
626.156	425.61
626.604	443.81
627.053	434.81
627.501	427.91
627.95	439.11
628.398	460.21
628.847	439.31
629.295	437.51
629.744	451.11
630.192	446.81
630.64	441.61
631.089	422.51
631.537	442.91
631.985	451.31
632.433	454.71
632.881	457.51
633.33	495.31
633.778	480.01
634.226	430.01
634.674	440.31
635.122	444.11
635.57	459.81
636.018	484.61
636.466	449.71
636.914	432.01
637.362	445.11
637.81	446.51
638.258	444.91
638.705	450.31
639.153	470.11
639.601	468.41
640.049	490.31
640.497	519.11
640.944	538.01
641.392	493.71
641.84	469.81
642.287	448.81
642.735	440.41
643.182	440.01
643.63	439.41
644.078	435.71
644.525	452.51
644.973	456.51
645.42	458.71
645.867	481.61
646.315	492.31
646.762	511.21
647.21	537.81
647.657	546.71
648.104	575.91
648.551	593.41
648.999	639.51
649.446	697.91
649.893	760.21
650.34	873.01
650.787	1047.41
651.234	1292.41
651.682	1677.61
652.129	2265.91
652.576	3261.41
653.023	4843.81
653.47	6734.91
653.917	8510.41
654.363	9997.41
654.81	11336.11
655.257	10768.21
655.704	6992.21
656.151	4088.51
656.598	2643.31
657.044	1871.21
657.491	1443.61
657.938	1144.51
658.385	945.61
658.831	829.11
659.278	741.01
659.724	654.61
660.171	603.41
660.618	541.01
661.064	521.71
661.511	503.81
661.957	493.41
662.404	480.21
662.85	482.11
663.296	462.71
663.743	423.01
664.189	408.01
664.635	409.81
665.082	396.91
665.528	400.81
665.974	389.71
666.42	391.51
666.867	382.61
667.313	372.01
667.759	367.21
668.205	361.01
668.651	365.61
669.097	367.51
669.543	385.21
669.989	354.81
670.435	343.61
670.881	340.41
671.327	337.51
671.773	351.41
672.219	375.11
672.665	413.91
673.11	440.01
673.556	477.61
674.002	504.41
674.448	497.31
674.893	421.31
675.339	354.71
675.785	334.71
676.23	318.51
676.676	296.41
677.122	292.71
677.567	279.91
678.013	284.71
678.458	268.01
678.904	275.71
679.349	260.71
679.794	265.01
680.24	270.01
680.685	258.41
681.131	261.81
681.576	263.31
682.021	266.21
682.466	265.61
682.912	262.61
683.357	263.51
683.802	280.01
684.247	307.11
684.692	339.11
685.137	370.51
685.583	403.01
686.028	431.21
686.473	391.01
686.918	328.51
687.363	311.31
687.807	302.91
688.252	276.81
688.697	263.91
689.142	259.21
689.587	252.21
690.032	243.91
690.477	256.91
690.921	257.01
691.366	282.11
691.811	307.71
692.255	327.71
692.7	347.41
693.145	374.41
693.589	502.61
694.034	823.01
694.478	1130.31
694.923	1320.81
695.367	1762.31
695.812	923.71
696.256	375.51
696.701	279.21
697.145	261.91
697.59	240.01
698.034	243.81
698.478	256.41
698.922	245.91
699.367	247.51
699.811	248.71
700.255	266.31
700.699	279.51
701.143	307.01
701.588	356.71
702.032	400.71
702.476	386.01
702.92	377.41
703.364	366.11
703.808	464.91
704.252	748.51
704.696	1073.91
705.14	1285.51
705.584	1668.91
706.027	824.81
706.471	394.71
706.915	301.71
707.359	268.41
707.803	245.11
708.246	228.71
708.69	235.81
709.134	236.71
709.577	231.91
710.021	240.71
710.465	226.91
710.908	228.01
711.352	223.21
711.795	232.71
712.239	260.31
712.682	287.51
713.126	318.11
713.569	355.51
714.012	280.11
714.456	246.91
714.899	220.91
715.342	204.41
715.786	198.71
716.229	197.11
716.672	193.81
717.115	183.01
717.558	196.01
718.002	184.31
718.445	198.81
718.888	217.41
719.331	216.01
719.774	240.11
720.217	230.91
720.66	208.81
721.103	201.41
721.546	188.51
721.989	188.81
722.432	161.81
722.874	184.11
723.317	171.01
723.76	171.21
724.203	188.71
724.645	227.61
725.088	318.61
725.531	424.91
725.974	492.91
726.416	419.51
726.859	234.51
727.301	185.31
727.744	182.01
728.187	181.11
728.629	187.91
729.071	184.71
729.514	195.81
729.956	204.31
730.399	207.51
730.841	213.01
731.283	203.31
731.726	196.31
732.168	193.71
732.61	200.01
733.053	213.51
733.495	233.41
733.937	263.01
734.379	302.31
734.821	314.11
735.263	398.41
735.705	606.91
736.148	1130.51
736.59	1914.21
737.032	2373.51
737.474	1929.11
737.916	612.11
738.357	325.41
738.799	244.41
739.241	222.51
739.683	212.41
740.125	221.71
740.567	227.21
741.008	237.01
741.45	245.71
741.892	238.71
742.334	261.01
742.775	269.81
743.217	261.11
743.658	206.71
744.1	187.91
744.542	192.71
744.983	238.01
745.425	269.71
745.866	269.21
746.307	218.31
746.749	212.01
747.19	237.81
747.632	318.61
748.073	622.21
748.514	1349.01
748.956	2161.51
749.397	2713.31
749.838	2234.61
750.279	2311.21
750.72	1152.71
751.162	413.81
751.603	242.91
752.044	196.51
752.485	158.41
752.926	159.31
753.367	150.81
753.808	143.61
754.249	152.21
754.69	133.21
755.131	134.51
755.572	135.31
756.013	137.81
756.453	132.71
756.894	143.11
757.335	147.51
757.776	148.91
758.216	146.41
758.657	150.21
759.098	156.01
759.538	170.01
759.979	199.31
760.42	271.51
760.86	499.11
761.301	1307.51
761.741	3284.71
762.182	5107.01
762.622	3604.21
763.063	1021.31
763.503	409.41
763.943	261.41
764.384	258.91
764.824	300.41
765.264	342.61
765.705	233.31
766.145	156.01
766.585	143.51
767.025	133.81
767.465	140.01
767.906	181.91
768.346	242.91
768.786	262.31
769.226	192.71
769.666	234.51
770.106	448.01
770.546	1110.91
770.986	2044.41
771.426	1865.81
771.866	607.91
772.306	245.31
772.745	163.81
773.185	128.41
773.625	123.21
774.065	120.01
774.505	147.31
774.944	222.21
775.384	470.91
775.824	905.91
776.263	906.21
776.703	383.21
777.142	162.41
777.582	116.01
778.021	101.71
778.461	107.51
778.9	104.61
779.34	96.31
779.779	85.31
780.219	81.41
780.658	79.51
781.097	80.31
781.537	84.81
781.976	84.01
782.415	69.61
782.855	73.91
783.294	73.31
783.733	75.41
784.172	83.11
784.611	80.51
785.05	81.21
785.489	76.31
785.928	91.41
786.367	91.11
786.806	85.61
787.245	95.41
787.684	99.71
788.123	109.91
788.562	102.21
789.001	93.91
789.44	94.01
789.879	92.01
790.317	87.71
790.756	98.71
791.195	90.91
791.634	108.31
792.072	147.61
792.511	261.71
792.95	726.71
793.388	1641.51
793.827	1533.31
794.265	525.71
794.704	210.01
795.142	138.51
795.581	119.01
796.019	109.41
796.458	97.11
796.896	89.61
797.334	96.31
797.773	116.11
798.211	160.01
798.649	319.21
799.087	751.61
799.526	1197.41
799.964	1514.01
800.402	1587.01
800.84	589.71
801.278	228.01
801.716	140.41
802.154	119.51
802.592	107.51
803.03	102.81
803.468	89.11
803.906	109.11
804.344	115.01
804.782	106.81
805.22	97.31
805.658	107.61
806.096	112.21
806.533	126.91
806.971	125.31
807.409	161.61
807.847	227.51
808.284	474.91
808.722	1367.31
809.16	2547.51
809.597	2341.41
810.035	4165.41
810.472	4710.61
810.91	1674.01
811.347	621.41
811.785	312.91
812.222	200.61
812.66	149.51
813.097	120.11
813.535	108.91
813.972	89.21
814.409	91.31
814.846	86.21
815.284	83.31
815.721	77.91
816.158	73.61
816.595	89.11
817.032	134.41
817.47	154.01
817.907	133.21
818.344	115.61
818.781	83.31
819.218	78.01
819.655	92.91
820.092	145.31
820.529	167.91
820.966	142.31
821.403	103.61
821.839	82.01
822.276	73.91
822.713	92.21
823.15	107.91
823.587	89.21
824.023	104.61
824.46	207.91
824.897	664.91
825.333	1065.51
825.77	453.11
826.206	175.11
826.643	103.21
827.08	77.61
827.516	67.71
827.953	57.01
828.389	59.11
828.825	53.41
829.262	58.31
829.698	50.71
830.135	47.71
830.571	48.01
831.007	48.31
831.443	47.81
831.88	50.11
832.316	44.11
832.752	48.11
833.188	54.11
833.624	40.51
834.06	48.71
834.497	52.41
834.933	59.21
835.369	52.71
835.805	52.11
836.241	53.81
836.677	58.31
837.112	67.21
837.548	75.31
837.984	102.51
838.42	147.91
838.856	351.81
839.292	1133.81
839.727	1822.71
840.163	837.81
840.599	684.81
841.034	1560.41
841.47	1719.51
841.906	605.61
842.341	258.31
842.777	167.71
843.212	231.81
843.648	237.71
844.083	116.11
844.519	72.31
844.954	56.11
845.39	46.11
845.825	42.81
846.261	48.01
846.696	38.91
847.131	31.71
847.566	43.01
848.002	40.31
848.437	36.41
848.872	40.21
849.307	42.81
849.742	57.41
850.177	123.81
850.613	412.81
851.048	692.51
851.483	286.61
851.918	110.61
852.353	60.11
852.788	46.31
853.223	45.71
853.657	46.91
854.092	33.11
854.527	36.81
854.962	27.11
855.397	39.61
855.832	34.71
856.266	30.71
856.701	30.61
857.136	34.01
857.57	31.71
858.005	42.61
858.44	49.21
858.874	32.01
859.309	41.21
859.743	23.81
860.178	32.51
860.612	25.51
861.047	41.61
861.481	55.41
861.915	56.31
862.35	36.91
862.784	22.01
863.218	28.81
863.653	22.81
864.087	37.21
864.521	40.11
864.955	49.31
865.39	115.21
865.824	131.31
866.258	88.01
866.692	129.71
867.126	143.31
867.56	85.01
867.994	44.51
868.428	20.81
868.862	33.21
869.296	46.51
869.73	47.21
870.164	48.61
870.598	36.71
871.031	30.31
871.465	22.51
871.899	28.51
872.333	15.41
872.766	22.91
873.2	15.81
873.634	23.21
874.067	15.71
874.501	18.81
874.935	24.01
875.368	19.01
875.802	17.71
876.235	17.91
876.669	19.71
877.102	22.61
877.535	20.81
877.969	15.21
878.402	16.81
878.836	10.31
879.269	16.91
879.702	21.61
880.135	15.81
880.569	8.41
881.002	18.71
881.435	12.61
881.868	10.21
882.301	19.61
882.734	14.01
883.167	14.81
883.601	7.91
884.034	17.71
884.467	10.61
884.899	14.61
885.332	10.41
885.765	9.91
886.198	17.21
886.631	12.31
887.064	15.51
887.497	20.71
887.929	20.71
888.362	12.21
888.795	9.31
889.228	12.51
889.66	11.51
890.093	11.21
890.526	14.51
890.958	14.61
891.391	19.01
891.823	17.41
892.256	12.11
892.688	6.01
893.121	13.81
893.553	6.71
893.985	16.11
894.418	18.51
894.85	8.81
895.282	10.01
895.715	15.51
896.147	11.31
896.579	9.71
897.011	12.71
897.444	11.41
897.876	13.61
898.308	11.91
898.74	12.61
899.172	8.61
899.604	22.81
900.036	18.91
900.468	14.21
900.9	14.81
901.332	16.11
901.764	9.51
902.196	13.11
902.628	10.21
903.06	15.71
903.491	20.61
903.923	11.71
904.355	13.61
904.787	21.81
905.218	12.71
905.65	13.31
906.082	5.01
906.513	9.91
906.945	12.11
907.376	7.11
907.808	13.61
908.239	14.51
908.671	13.71
909.102	16.91
909.534	19.61
909.965	35.11
910.397	71.81
910.828	247.41
911.259	384.41
911.691	169.01
912.122	82.21
912.553	43.51
912.984	30.11
913.415	22.01
913.847	23.81
914.278	10.41
914.709	9.41
915.14	13.81
915.571	10.41
916.002	12.31
916.433	17.91
916.864	13.71
917.295	12.51
917.726	16.91
918.157	17.91
918.587	22.41
919.018	18.61
919.449	18.91
919.88	17.51
920.311	21.51
920.741	38.21
921.172	122.71
921.603	111.31
922.033	55.21
922.464	40.31
922.895	18.61
923.325	16.61
923.756	11.81
924.186	16.11
924.617	20.51
925.047	31.11
925.478	42.31
925.908	26.71
926.338	20.81
926.769	15.11
927.199	23.41
927.629	6.21
928.06	18.01
928.49	11.81
928.92	10.91
929.35	12.01
929.78	9.01
930.21	6.11
930.641	5.81
931.071	2.51
931.501	-4.59
931.931	4.51
932.361	4.31
932.791	1.61
933.221	0.41
933.651	1.01
934.08	19.21
934.51	25.31
934.94	4.11
935.37	7.61
935.8	7.11
936.229	3.11
936.659	8.21
937.089	-2.09
937.519	6.01
937.948	16.21
938.378	7.21
938.807	3.51
939.237	2.91
939.666	10.21
940.096	-10.19
940.525	3.11
940.955	2.91
941.384	5.01
941.814	1.71
942.243	1.91
942.672	1.81
943.102	-1.89
943.531	4.11
943.96	5.01
944.39	0.71
944.819	-1.59
945.248	3.91
945.677	3.91
946.106	2.31
946.535	1.81
946.964	2.31
947.393	-1.49
947.822	-0.59
948.251	-1.69
948.68	6.31
949.109	6.11
949.538	7.41
949.967	1.81
950.396	0.61
950.825	2.21
951.254	2.71
951.682	-7.69
952.111	3.31
952.54	7.41
952.969	1.21
953.397	-6.69
953.826	0.51
954.254	-6.99
954.683	3.51
955.112	-3.09
955.54	2.91
955.969	2.81
956.397	-0.79
956.826	0.31
957.254	10.21
957.682	3.11
958.111	6.61
958.539	-0.49
958.967	-2.39
959.396	-3.09
959.824	1.61
960.252	3.71
960.68	-2.09
961.109	-1.79
961.537	2.31
961.965	3.41
962.393	0.21
962.821	-4.59
963.249	2.81
963.677	4.61
964.105	-1.89
964.533	29.61
964.961	36.21
965.389	16.51
965.817	4.51
966.245	2.41
966.672	-1.99
967.1	-8.19
967.528	2.81
967.956	-3.09
968.383	-0.89
968.811	-2.99
969.239	-1.59
969.666	3.71
970.094	2.41
970.522	2.01
970.949	3.51
971.377	-1.59
971.804	-1.19
972.232	0.21
972.659	-5.29
973.087	0.31
973.514	-6.79
973.941	-5.79
974.369	4.91
974.796	1.91
975.223	6.61
975.651	-9.49
976.078	3.91
976.505	-2.69
976.932	2.21
977.359	13.91
977.786	11.21
978.214	-0.19
978.641	-3.99
979.068	1.21
979.495	-1.59
979.922	3.21
980.349	-2.79
980.776	5.01
981.202	1.21
981.629	4.11
982.056	4.61
982.483	-4.09
982.91	1.21
983.337	3.51
983.763	1.61
984.19	-2.79
984.617	-5.99
985.043	0.91
985.47	-0.59
985.897	-4.09
986.323	-3.39
986.75	7.01
987.176	1.51
987.603	-0.99
988.029	2.91
988.456	-6.19
988.882	-0.69
989.308	-0.69
989.735	-8.39
990.161	0.71
990.587	-3.39
991.014	-3.29
991.44	9.01
991.866	0.01
992.292	0.81
992.719	-4.89
993.145	-0.29
993.571	-7.09
993.997	1.11
994.423	3.51
994.849	-4.09
995.275	1.81
995.701	-4.29
996.127	-4.89
996.553	0.71
996.979	-6.39
997.405	-3.69
997.83	-2.89
998.256	-1.09
998.682	-9.09
999.108	-6.89
999.534	-1.99
999.959	-1.39
1000.385	-4.59
1000.811	5.71
1001.236	-6.79
1001.662	-6.69
1002.087	-8.29
1002.513	2.51
1002.938	2.81
1003.364	1.21
1003.789	-2.29
1004.215	2.01
1004.64	-2.39
1005.066	0.41
1005.491	0.91
1005.916	-1.99
1006.342	-0.69
1006.767	-4.49
1007.192	1.11
1007.617	-6.69
1008.042	-4.29
1008.468	-5.09
1008.893	-2.69
1009.318	-2.89
1009.743	-1.59
1010.168	4.01
1010.593	6.01
1011.018	-6.79
1011.443	-6.79
1011.868	0.01
1012.293	-1.69
1012.718	-6.59
1013.143	-1.09
1013.567	4.11
1013.992	0.41
1014.417	-14.09
1014.842	4.51
1015.267	-5.29
1015.691	-4.79
1016.116	7.71
1016.541	3.51
1016.965	6.71
1017.39	1.51
1017.814	2.21
1018.239	-2.19
1018.663	-10.79
1019.088	-13.09
1019.512	-1.79
1019.937	1.21
1020.361	-1.79
1020.785	-7.99
1021.21	-4.69
1021.634	-3.09
1022.058	3.01
1022.483	5.21
1022.907	-2.29
1023.331	-5.99
1023.755	-3.09
1024.179	0.71
1024.604	-4.29
1025.028	-2.49
1025.452	0.01
1025.876	0.01
1026.3	-4.29
1026.724	-5.79
1027.148	-4.39
1027.572	-3.69
1027.996	-2.79
1028.42	-0.89
1028.843	-5.29
1029.267	-10.19
1029.691	0.01
1030.115	-5.89
1030.539	-3.39
1030.962	-11.19
1031.386	-15.29
1031.81	0.31
1032.233	0.21
1032.657	-4.39
1033.08	3.01
1033.504	0.71
1033.927	-4.39
1034.351	-0.39
1034.774	-4.69
1035.198	2.51
1035.621	-3.69
1036.045	-7.59
1036.468	-3.49
1036.891	-9.19
1037.315	-7.19
1037.738	-5.19
1038.161	1.91
1038.584	-1.29
1039.008	-3.69
1039.431	-5.89
1039.854	-4.09
1040.277	-7.79
1040.7	-4.89
1041.123	-1.39
1041.546	-7.59
1041.969	-1.19
1042.392	-8.09
1042.815	-2.59
1043.238	7.11
1043.661	-0.99
1044.084	-6.29
1044.507	-4.79
1044.93	-7.99
1045.352	-5.19
1045.775	-3.29
1046.198	0.41
1046.621	-3.49
1047.043	2.71
1047.466	6.81
1047.889	-5.89
1048.311	0.11
1048.734	-4.39
1049.156	-5.69
1049.579	-0.69
1050.001	-4.59
1050.424	2.01
1050.846	-0.19
1051.269	-6.19
1051.691	-5.69
1052.113	-3.49
1052.536	2.91
1052.958	-2.59
1053.38	-6.29
1053.802	-12.29
1054.225	6.31
1054.647	-7.09
1055.069	-2.59
1055.491	0.71
1055.913	-7.09
1056.335	2.41
1056.757	-1.99
1057.179	-9.09
1057.601	-3.49
1058.023	-5.39
1058.445	-2.09
1058.867	-2.69
1059.289	0.21
1059.711	1.61
1060.133	0.41
1060.555	-2.49
1060.976	-7.19
1061.398	-5.89
1061.82	-7.59
1062.241	-3.89
1062.663	-6.59
1063.085	-5.09
1063.506	0.71
1063.928	-1.49
1064.35	-3.69
1064.771	-3.49
1065.193	-0.19
1065.614	-9.39
1066.035	-6.69
1066.457	-0.49
1066.878	2.41
1067.3	-1.69
1067.721	-1.79
1068.142	-5.79
1068.564	-1.29
1068.985	-7.29
1069.406	-6.49
1069.827	-2.69
1070.248	-3.59
1070.67	-4.59
1071.091	-0.99
1071.512	-2.89
1071.933	2.01
1072.354	-2.09
1072.775	4.91
1073.196	-6.29
1073.617	2.21
1074.038	-3.59
1074.459	-2.69
1074.88	-8.39
1075.3	1.11
1075.721	-2.79
1076.142	-1.49
1076.563	-2.29
1076.983	-9.49
1077.404	-4.19
1077.825	-8.69
1078.246	-1.39
1078.666	-8.59
1079.087	-7.99
1079.507	-7.99
1079.928	5.11
1080.348	0.81
1080.769	-5.59
1081.189	-5.09
1081.61	-0.49
1082.03	-4.99
1082.451	-6.49
1082.871	-2.19
1083.291	-4.99
1083.711	-10.09
1084.132	0.01
1084.552	0.91
1084.972	3.81
1085.392	-12.09
1085.813	-10.59
1086.233	-5.19
1086.653	-10.09
1087.073	-4.69
1087.493	-9.99
1087.913	-0.89
1088.333	0.21
1088.753	-2.89
1089.173	8.01
1089.593	0.61
1090.013	0.91
1090.433	4.81
1090.852	1.91
1091.272	-0.79
1091.692	3.91
1092.112	-2.89
1092.531	-7.79
1092.951	-10.99
1093.371	-4.69
1093.79	3.61
1094.21	-10.39
1094.63	-7.89
1095.049	-4.29
1095.469	2.41
1095.888	-7.59
1096.308	-2.19
1096.727	6.31
1097.146	-4.59
1097.566	-3.19
1097.985	-1.29
1098.405	-3.09
1098.824	-2.19
1099.243	-4.89
1099.662	-8.69
1100.082	-3.79
1100.501	0.21
1100.92	-3.59
1101.339	-3.59
1101.758	-4.69
