Data from 20171114-ORNL-Ar_H_NY_Subt18_08-09-28-874.txt Node
Date: Tue Nov 14 08:09:28 EST 2017
User: Ender
Spectrometer: HR+D1039
Trigger mode: 0
Integration Time (sec): 2.730000E-2
Scans to average: 10
Electric dark correction enabled: true
Nonlinearity correction enabled: false
Boxcar width: 0
XAxis mode: Wavelengths
Number of Pixels in Spectrum: 2048
>>>>>Begin Spectral Data<<<<<
187.836	-0.83
188.309	-0.83
188.782	-0.83
189.255	-0.33
189.728	-3.63
190.201	5.87
190.674	1.37
191.147	3.07
191.619	-6.23
192.092	-4.83
192.565	6.47
193.038	-2.03
193.511	1.37
193.984	4.67
194.456	-0.43
194.929	0.27
195.402	-3.23
195.874	-1.53
196.347	-3.23
196.82	-11.13
197.292	4.57
197.765	0.97
198.237	-2.63
198.71	2.47
199.182	-2.53
199.655	1.07
200.127	4.07
200.6	-2.83
201.072	-6.33
201.544	1.07
202.017	-0.43
202.489	6.87
202.961	-7.63
203.433	-3.03
203.906	-6.13
204.378	-10.33
204.85	-7.43
205.322	-15.13
205.794	-5.53
206.266	-7.53
206.739	-9.83
207.211	-2.53
207.683	-6.33
208.155	-3.63
208.627	-5.53
209.099	-0.53
209.57	-9.13
210.042	-4.83
210.514	-3.73
210.986	-3.83
211.458	-15.23
211.93	-4.33
212.402	-1.83
212.873	-8.03
213.345	-12.93
213.817	-17.93
214.288	-4.33
214.76	-12.53
215.232	1.87
215.703	-3.23
216.175	-5.83
216.646	-4.53
217.118	-7.13
217.589	-5.73
218.061	-5.63
218.532	-2.63
219.004	-7.63
219.475	-7.73
219.946	-8.83
220.418	-9.53
220.889	3.67
221.36	-4.03
221.832	-1.43
222.303	-6.63
222.774	3.37
223.245	-8.43
223.717	-3.93
224.188	-1.23
224.659	-3.63
225.13	-4.13
225.601	-1.23
226.072	1.07
226.543	-2.93
227.014	-1.93
227.485	-0.93
227.956	-8.33
228.427	-6.23
228.898	3.07
229.369	0.47
229.839	-2.93
230.31	-7.03
230.781	-6.03
231.252	-4.03
231.722	-6.83
232.193	-4.73
232.664	-5.63
233.135	-0.53
233.605	-6.83
234.076	-5.83
234.546	-4.33
235.017	-2.33
235.487	-0.63
235.958	-5.23
236.428	-10.13
236.899	-4.33
237.369	1.47
237.84	-6.93
238.31	7.87
238.78	-7.93
239.251	-8.33
239.721	-3.43
240.191	-6.43
240.662	-11.23
241.132	-4.63
241.602	-5.73
242.072	-2.33
242.542	2.37
243.013	-6.93
243.483	-2.03
243.953	-4.43
244.423	-5.33
244.893	-7.73
245.363	-3.63
245.833	-7.13
246.303	-3.73
246.773	1.37
247.243	-1.13
247.712	-8.03
248.182	-0.63
248.652	-0.53
249.122	-10.23
249.592	0.97
250.061	3.17
250.531	12.87
251.001	-6.43
251.471	-0.23
251.94	2.67
252.41	-7.63
252.879	-4.03
253.349	7.77
253.818	-0.83
254.288	-2.93
254.757	-0.63
255.227	-7.23
255.696	-0.73
256.166	4.57
256.635	2.97
257.105	-0.53
257.574	-0.93
258.043	-6.13
258.513	-5.33
258.982	-3.53
259.451	-3.63
259.92	-0.83
260.389	-5.03
260.859	9.87
261.328	3.47
261.797	1.27
262.266	-4.53
262.735	6.77
263.204	-0.13
263.673	-1.23
264.142	0.47
264.611	-9.83
265.08	-4.13
265.549	-4.53
266.018	3.17
266.487	-5.13
266.955	-8.33
267.424	-4.43
267.893	1.77
268.362	-3.03
268.83	-2.43
269.299	8.57
269.768	3.47
270.236	5.27
270.705	-10.23
271.174	-4.43
271.642	-4.43
272.111	-1.83
272.579	-2.03
273.048	6.17
273.516	-1.53
273.985	-0.23
274.453	4.77
274.922	7.47
275.39	2.47
275.858	-7.33
276.327	4.77
276.795	6.27
277.263	-3.93
277.731	5.37
278.2	-3.13
278.668	4.07
279.136	4.97
279.604	0.07
280.072	1.57
280.54	2.57
281.008	2.07
281.477	0.37
281.945	-1.73
282.413	9.17
282.881	2.47
283.348	-7.33
283.816	9.87
284.284	-1.53
284.752	12.97
285.22	0.07
285.688	4.37
286.156	0.47
286.623	12.27
287.091	-4.83
287.559	5.87
288.026	9.17
288.494	2.17
288.962	-1.43
289.429	4.57
289.897	12.37
290.364	6.17
290.832	7.87
291.3	7.17
291.767	6.67
292.234	5.77
292.702	4.07
293.169	10.27
293.637	4.97
294.104	12.27
294.571	1.27
295.039	2.27
295.506	8.17
295.973	10.77
296.44	5.97
296.908	7.17
297.375	2.97
297.842	6.07
298.309	7.17
298.776	8.47
299.243	11.87
299.71	-2.33
300.177	9.67
300.644	11.87
301.111	13.07
301.578	12.87
302.045	-0.53
302.512	9.57
302.979	16.37
303.446	8.67
303.913	15.07
304.379	15.27
304.846	19.37
305.313	14.37
305.78	13.87
306.246	13.57
306.713	22.37
307.18	6.37
307.646	12.17
308.113	14.97
308.579	12.57
309.046	9.37
309.512	12.97
309.979	10.97
310.445	15.77
310.912	15.07
311.378	24.37
311.845	20.97
312.311	16.77
312.777	20.37
313.244	22.27
313.71	25.07
314.176	19.17
314.642	16.17
315.109	18.07
315.575	21.77
316.041	28.27
316.507	17.87
316.973	24.27
317.439	19.87
317.905	23.77
318.371	25.47
318.837	19.97
319.303	23.87
319.769	20.67
320.235	21.37
320.701	19.97
321.167	22.77
321.633	15.07
322.099	24.27
322.564	28.27
323.03	28.27
323.496	30.97
323.962	24.97
324.427	19.27
324.893	26.67
325.359	26.87
325.824	31.97
326.29	21.87
326.755	27.87
327.221	24.37
327.686	27.57
328.152	31.47
328.617	27.67
329.083	34.47
329.548	35.57
330.014	37.67
330.479	30.27
330.944	26.77
331.41	28.37
331.875	32.47
332.34	29.67
332.805	25.97
333.271	25.37
333.736	24.97
334.201	36.57
334.666	32.47
335.131	38.97
335.596	35.47
336.061	33.87
336.526	26.17
336.991	32.87
337.456	39.47
337.921	34.47
338.386	36.47
338.851	35.47
339.316	40.27
339.781	36.87
340.246	42.27
340.711	35.67
341.175	41.87
341.64	34.27
342.105	40.47
342.569	41.77
343.034	44.47
343.499	38.47
343.963	39.97
344.428	51.17
344.893	42.47
345.357	42.77
345.822	47.57
346.286	55.97
346.751	56.67
347.215	53.57
347.679	46.07
348.144	66.67
348.608	60.47
349.073	54.87
349.537	54.17
350.001	62.67
350.465	67.37
350.93	62.47
351.394	61.77
351.858	51.47
352.322	60.17
352.786	64.37
353.25	76.97
353.715	84.27
354.179	76.97
354.643	89.77
355.107	93.17
355.571	77.27
356.035	73.77
356.498	85.87
356.962	84.97
357.426	92.27
357.89	81.87
358.354	69.67
358.818	65.37
359.281	61.37
359.745	62.97
360.209	60.57
360.673	57.67
361.136	66.57
361.6	67.77
362.064	64.57
362.527	66.17
362.991	68.37
363.454	62.17
363.918	61.27
364.381	67.47
364.845	59.47
365.308	73.67
365.772	71.77
366.235	73.97
366.698	71.87
367.162	62.87
367.625	69.97
368.088	69.07
368.552	69.57
369.015	74.47
369.478	85.17
369.941	84.17
370.404	76.77
370.867	82.87
371.331	91.27
371.794	93.67
372.257	75.77
372.72	80.87
373.183	84.67
373.646	75.47
374.109	81.47
374.572	89.87
375.035	88.07
375.497	93.07
375.96	84.27
376.423	88.47
376.886	98.77
377.349	93.27
377.811	87.87
378.274	89.57
378.737	88.27
379.199	89.57
379.662	89.77
380.125	96.87
380.587	91.87
381.05	91.57
381.512	94.27
381.975	108.47
382.437	103.37
382.9	103.17
383.362	109.37
383.825	108.47
384.287	108.47
384.75	104.77
385.212	113.77
385.674	115.97
386.136	114.07
386.599	103.07
387.061	109.57
387.523	106.37
387.985	111.17
388.447	109.17
388.91	108.87
389.372	115.67
389.834	117.57
390.296	107.07
390.758	110.17
391.22	125.37
391.682	131.57
392.144	143.17
392.606	132.17
393.068	127.47
393.529	130.87
393.991	131.37
394.453	119.87
394.915	120.77
395.377	124.77
395.838	117.37
396.3	119.67
396.762	124.57
397.224	119.47
397.685	121.77
398.147	124.27
398.608	124.17
399.07	117.97
399.531	127.37
399.993	131.77
400.454	145.17
400.916	131.97
401.377	131.37
401.839	141.57
402.3	136.87
402.762	157.27
403.223	158.37
403.684	158.77
404.145	146.57
404.607	144.07
405.068	154.37
405.529	154.27
405.99	175.37
406.451	158.97
406.913	164.77
407.374	146.77
407.835	151.47
408.296	154.97
408.757	159.47
409.218	170.67
409.679	168.77
410.14	167.27
410.601	164.57
411.062	169.37
411.522	171.77
411.983	165.97
412.444	163.67
412.905	176.77
413.366	172.67
413.826	181.37
414.287	208.67
414.748	249.37
415.208	238.17
415.669	198.37
416.13	200.77
416.59	200.17
417.051	205.77
417.511	217.57
417.972	231.27
418.432	241.47
418.893	283.57
419.353	250.37
419.814	197.37
420.274	177.37
420.734	174.17
421.195	187.57
421.655	177.47
422.115	179.87
422.576	186.77
423.036	193.37
423.496	204.67
423.956	214.77
424.416	222.27
424.876	247.17
425.336	249.37
425.797	255.17
426.257	241.57
426.717	224.87
427.177	225.97
427.637	216.47
428.097	219.77
428.556	232.67
429.016	253.37
429.476	250.07
429.936	255.37
430.396	257.67
430.856	271.57
431.315	299.27
431.775	326.97
432.235	357.47
432.694	336.37
433.154	342.67
433.614	366.27
434.073	317.37
434.533	274.07
434.993	257.07
435.452	264.67
435.912	268.77
436.371	273.77
436.83	271.97
437.29	248.07
437.749	234.57
438.209	236.57
438.668	261.27
439.127	270.57
439.587	245.27
440.046	243.77
440.505	244.77
440.964	277.37
441.424	305.67
441.883	300.07
442.342	257.37
442.801	225.67
443.26	219.17
443.719	216.37
444.178	209.87
444.637	218.57
445.096	223.27
445.555	219.17
446.014	228.77
446.473	223.77
446.932	241.47
447.391	226.67
447.849	231.57
448.308	214.67
448.767	219.07
449.226	233.77
449.685	228.07
450.143	249.47
450.602	232.37
451.061	219.97
451.519	242.17
451.978	226.07
452.436	237.67
452.895	235.87
453.353	247.17
453.812	234.97
454.27	230.17
454.729	230.47
455.187	235.77
455.646	241.97
456.104	244.67
456.562	255.57
457.021	267.67
457.479	258.77
457.937	271.47
458.395	260.17
458.854	250.37
459.312	253.07
459.77	275.57
460.228	255.67
460.686	245.87
461.144	243.87
461.602	249.47
462.06	245.87
462.518	264.67
462.976	258.67
463.434	254.97
463.892	261.87
464.35	269.47
464.808	291.97
465.266	267.07
465.724	271.27
466.181	276.87
466.639	272.17
467.097	288.77
467.555	306.97
468.012	308.67
468.47	314.37
468.928	329.17
469.385	330.67
469.843	343.17
470.3	344.77
470.758	350.07
471.215	377.97
471.673	405.87
472.13	395.67
472.588	410.07
473.045	376.67
473.503	381.97
473.96	402.47
474.417	409.27
474.875	429.37
475.332	475.17
475.789	460.07
476.246	466.37
476.704	480.77
477.161	501.57
477.618	516.07
478.075	551.57
478.532	597.57
478.989	674.97
479.446	775.67
479.903	738.97
480.36	767.67
480.817	818.07
481.274	902.37
481.731	988.97
482.188	1074.37
482.645	1192.37
483.102	1268.27
483.558	1382.87
484.015	1421.77
484.472	1402.87
484.929	1350.57
485.385	1313.27
485.842	1286.77
486.299	1236.37
486.755	1200.47
487.212	1014.77
487.668	873.97
488.125	815.07
488.582	754.47
489.038	728.57
489.494	688.27
489.951	671.67
490.407	651.47
490.864	636.27
491.32	630.57
491.776	633.87
492.233	632.37
492.689	602.97
493.145	602.77
493.602	593.57
494.058	616.07
494.514	605.27
494.97	636.07
495.426	641.47
495.882	617.17
496.338	603.07
496.794	619.57
497.251	607.47
497.707	622.87
498.163	626.37
498.618	634.57
499.074	636.97
499.53	664.07
499.986	658.77
500.442	640.67
500.898	630.17
501.354	606.97
501.809	613.77
502.265	622.37
502.721	626.27
503.177	644.57
503.632	634.37
504.088	644.57
504.543	678.37
504.999	689.67
505.455	651.07
505.91	631.47
506.366	635.57
506.821	630.37
507.277	639.27
507.732	635.37
508.187	634.47
508.643	641.97
509.098	635.87
509.553	658.77
510.009	673.27
510.464	675.47
510.919	691.27
511.375	692.57
511.83	710.97
512.285	728.97
512.74	751.87
513.195	765.47
513.65	770.07
514.105	761.07
514.56	764.37
515.015	786.17
515.47	796.47
515.925	780.87
516.38	780.67
516.835	792.47
517.29	796.27
517.745	778.57
518.2	767.57
518.655	755.27
519.109	744.27
519.564	744.47
520.019	720.57
520.474	720.57
520.928	725.77
521.383	724.07
521.838	714.47
522.292	713.07
522.747	715.47
523.201	715.47
523.656	712.57
524.11	701.97
524.565	699.87
525.019	692.77
525.474	695.67
525.928	699.77
526.382	696.87
526.837	703.67
527.291	712.17
527.745	707.57
528.2	703.07
528.654	696.77
529.108	690.27
529.562	693.37
530.016	693.67
530.47	699.97
530.925	694.07
531.379	692.57
531.833	699.97
532.287	703.07
532.741	705.77
533.195	703.07
533.649	717.67
534.103	717.27
534.556	707.27
535.01	708.57
535.464	705.77
535.918	717.97
536.372	723.07
536.826	722.77
537.279	710.47
537.733	698.17
538.187	717.87
538.64	719.67
539.094	719.77
539.548	725.57
540.001	720.07
540.455	736.37
540.908	741.67
541.362	741.27
541.815	747.47
542.269	768.27
542.722	776.07
543.175	786.27
543.629	769.87
544.082	798.97
544.536	793.97
544.989	794.77
545.442	805.17
545.895	803.87
546.349	805.07
546.802	819.27
547.255	815.07
547.708	815.57
548.161	843.07
548.614	838.17
549.067	840.47
549.52	842.47
549.973	819.27
550.426	814.57
550.879	810.27
551.332	807.77
551.785	820.37
552.238	817.17
552.691	823.87
553.144	849.07
553.596	866.37
554.049	879.37
554.502	903.77
554.955	920.17
555.407	914.37
555.86	908.07
556.313	901.97
556.765	895.07
557.218	901.57
557.67	891.97
558.123	877.07
558.576	884.77
559.028	884.67
559.48	891.77
559.933	884.57
560.385	852.97
560.838	824.07
561.29	811.17
561.742	802.87
562.195	779.87
562.647	789.97
563.099	793.37
563.551	785.87
564.004	795.97
564.456	777.37
564.908	771.97
565.36	755.67
565.812	730.67
566.264	722.57
566.716	729.77
567.168	717.27
567.62	713.87
568.072	705.57
568.524	705.57
568.976	697.57
569.428	688.17
569.88	683.57
570.332	696.87
570.784	696.67
571.235	695.47
571.687	711.87
572.139	712.07
572.59	722.07
573.042	717.77
573.494	729.67
573.945	709.27
574.397	704.57
574.849	704.57
575.3	697.57
575.752	700.57
576.203	687.47
576.655	689.97
577.106	687.67
577.557	668.67
578.009	685.37
578.46	685.07
578.912	671.37
579.363	675.57
579.814	690.57
580.265	675.57
580.717	678.77
581.168	685.07
581.619	687.07
582.07	694.87
582.521	686.87
582.972	674.67
583.423	691.17
583.875	686.97
584.326	693.27
584.777	714.77
585.227	730.77
585.678	739.37
586.129	761.17
586.58	783.77
587.031	797.17
587.482	827.27
587.933	864.17
588.384	838.97
588.834	799.87
589.285	789.07
589.736	788.77
590.186	781.27
590.637	780.87
591.088	749.97
591.538	753.97
591.989	739.07
592.439	729.27
592.89	739.27
593.34	718.57
593.791	716.27
594.241	714.17
594.692	715.27
595.142	716.97
595.593	711.27
596.043	715.17
596.493	723.07
596.943	714.67
597.394	733.27
597.844	731.77
598.294	751.87
598.744	771.77
599.195	799.87
599.645	840.97
600.095	883.67
600.545	946.17
600.995	989.77
601.445	1052.77
601.895	1118.37
602.345	1158.87
602.795	1137.27
603.245	1085.87
603.695	1044.67
604.145	982.67
604.594	929.37
605.044	888.27
605.494	820.17
605.944	774.67
606.393	760.27
606.843	741.27
607.293	752.17
607.743	747.57
608.192	755.47
608.642	768.57
609.091	777.17
609.541	776.97
609.99	775.97
610.44	778.07
610.889	734.47
611.339	711.47
611.788	694.77
612.238	707.17
612.687	712.47
613.136	708.37
613.586	727.67
614.035	706.37
614.484	726.07
614.933	729.27
615.383	726.07
615.832	717.97
616.281	711.77
616.73	685.77
617.179	668.27
617.628	654.27
618.077	636.17
618.526	635.07
618.975	628.17
619.424	631.27
619.873	633.87
620.322	635.87
620.771	619.67
621.22	611.47
621.669	604.47
622.118	593.17
622.567	589.97
623.015	584.17
623.464	585.87
623.913	566.87
624.361	557.27
624.81	553.97
625.259	566.77
625.707	565.07
626.156	563.77
626.604	582.97
627.053	574.57
627.501	579.97
627.95	587.07
628.398	589.27
628.847	580.77
629.295	583.47
629.744	591.47
630.192	577.17
630.64	572.77
631.089	561.77
631.537	551.57
631.985	538.07
632.433	541.27
632.881	547.27
633.33	543.97
633.778	532.47
634.226	539.57
634.674	546.07
635.122	558.67
635.57	566.37
636.018	573.87
636.466	562.97
636.914	571.87
637.362	586.97
637.81	580.67
638.258	592.87
638.705	592.87
639.153	622.07
639.601	648.87
640.049	657.17
640.497	685.77
640.944	713.37
641.392	655.07
641.84	630.17
642.287	598.87
642.735	569.77
643.182	570.57
643.63	577.77
644.078	572.97
644.525	591.07
644.973	586.17
645.42	602.17
645.867	628.77
646.315	654.87
646.762	663.17
647.21	683.47
647.657	701.27
648.104	743.67
648.551	758.17
648.999	825.67
649.446	917.07
649.893	982.47
650.34	1119.27
650.787	1334.47
651.234	1654.67
651.682	2162.97
652.129	2918.37
652.576	4174.67
653.023	6066.77
653.47	8172.87
653.917	10019.17
654.363	11470.57
654.81	12557.57
655.257	11908.57
655.704	7881.17
656.151	4742.77
656.598	3114.17
657.044	2244.37
657.491	1734.67
657.938	1409.37
658.385	1192.47
658.831	1040.47
659.278	936.37
659.724	829.57
660.171	769.57
660.618	708.37
661.064	686.97
661.511	664.87
661.957	647.47
662.404	648.57
662.85	658.27
663.296	626.97
663.743	568.07
664.189	542.97
664.635	547.37
665.082	525.77
665.528	540.37
665.974	524.37
666.42	519.77
666.867	511.47
667.313	493.67
667.759	473.97
668.205	458.07
668.651	467.97
669.097	456.97
669.543	452.07
669.989	455.17
670.435	460.87
670.881	463.77
671.327	466.67
671.773	481.47
672.219	509.27
672.665	567.87
673.11	605.07
673.556	651.17
674.002	703.27
674.448	676.57
674.893	564.97
675.339	492.87
675.785	454.17
676.23	435.67
676.676	408.77
677.122	395.47
677.567	390.57
678.013	381.27
678.458	370.67
678.904	374.97
679.349	357.57
679.794	367.37
680.24	359.57
680.685	356.97
681.131	356.27
681.576	359.47
682.021	361.87
682.466	362.57
682.912	358.27
683.357	367.97
683.802	398.27
684.247	424.47
684.692	477.37
685.137	522.37
685.583	551.17
686.028	577.57
686.473	541.27
686.918	470.97
687.363	425.67
687.807	408.67
688.252	378.27
688.697	376.87
689.142	351.17
689.587	349.77
690.032	339.37
690.477	355.37
690.921	367.87
691.366	390.57
691.811	416.37
692.255	445.17
692.7	482.97
693.145	526.07
693.589	764.77
694.034	1231.37
694.478	1636.77
694.923	1797.67
695.367	2343.27
695.812	1256.37
696.256	518.77
696.701	385.67
697.145	358.07
697.59	343.27
698.034	332.97
698.478	336.57
698.922	329.67
699.367	332.87
699.811	346.97
700.255	368.87
700.699	402.97
701.143	447.27
701.588	499.67
702.032	536.27
702.476	535.17
702.92	516.67
703.364	514.87
703.808	693.37
704.252	1128.67
704.696	1565.07
705.14	1734.67
705.584	2203.87
706.027	1111.57
706.471	550.77
706.915	415.87
707.359	365.97
707.803	336.67
708.246	325.17
708.69	331.57
709.134	320.77
709.577	326.17
710.021	322.67
710.465	314.97
710.908	313.77
711.352	304.17
711.795	330.87
712.239	366.67
712.682	402.47
713.126	427.67
713.569	469.17
714.012	372.47
714.456	314.47
714.899	304.47
715.342	282.57
715.786	263.97
716.229	259.07
716.672	264.97
717.115	268.87
717.558	255.97
718.002	262.37
718.445	282.87
718.888	300.57
719.331	302.07
719.774	326.87
720.217	322.57
720.66	295.17
721.103	274.67
721.546	260.77
721.989	260.57
722.432	234.77
722.874	248.07
723.317	243.37
723.76	237.47
724.203	275.27
724.645	344.97
725.088	473.87
725.531	587.07
725.974	668.07
726.416	564.87
726.859	317.77
727.301	261.27
727.744	248.57
728.187	241.57
728.629	251.67
729.071	261.07
729.514	268.67
729.956	280.87
730.399	297.67
730.841	305.07
731.283	289.47
731.726	273.77
732.168	270.67
732.61	279.87
733.053	306.67
733.495	329.27
733.937	373.37
734.379	414.97
734.821	469.17
735.263	592.07
735.705	922.57
736.148	1747.57
736.59	2783.67
737.032	3162.87
737.474	2593.87
737.916	862.07
738.357	453.57
738.799	340.67
739.241	310.17
739.683	299.87
740.125	308.07
740.567	314.27
741.008	335.77
741.45	327.67
741.892	332.57
742.334	366.77
742.775	381.37
743.217	353.77
743.658	291.17
744.1	271.17
744.542	285.17
744.983	330.87
745.425	363.67
745.866	366.27
746.307	288.47
746.749	299.97
747.19	351.67
747.632	500.37
748.073	999.07
748.514	2076.17
748.956	3030.27
749.397	3834.87
749.838	3154.37
750.279	3058.07
750.72	1578.77
751.162	587.27
751.603	336.87
752.044	265.27
752.485	231.57
752.926	220.17
753.367	210.27
753.808	210.47
754.249	194.17
754.69	193.87
755.131	190.47
755.572	201.37
756.013	192.57
756.453	197.77
756.894	194.87
757.335	199.47
757.776	198.77
758.216	201.07
758.657	209.77
759.098	216.37
759.538	244.07
759.979	285.77
760.42	409.77
760.86	807.87
761.301	2093.07
761.741	4865.07
762.182	6656.67
762.622	4692.37
763.063	1403.27
763.503	569.17
763.943	345.97
764.384	286.07
764.824	253.27
765.264	243.07
765.705	222.97
766.145	187.37
766.585	181.07
767.025	175.47
767.465	170.17
767.906	186.27
768.346	202.67
768.786	204.57
769.226	231.37
769.666	336.47
770.106	697.57
770.546	1734.57
770.986	2760.27
771.426	2437.47
771.866	844.77
772.306	350.77
772.745	210.77
773.185	177.47
773.625	172.37
774.065	155.97
774.505	162.37
774.944	211.57
775.384	388.17
775.824	604.37
776.263	580.77
776.703	288.57
777.142	165.27
777.582	140.67
778.021	127.27
778.461	124.97
778.9	131.27
779.34	135.17
779.779	109.27
780.219	111.27
780.658	114.57
781.097	114.27
781.537	120.97
781.976	115.57
782.415	111.97
782.855	114.97
783.294	106.07
783.733	108.57
784.172	109.27
784.611	105.67
785.05	109.97
785.489	110.47
785.928	125.77
786.367	127.97
786.806	126.87
787.245	134.27
787.684	135.77
788.123	156.57
788.562	140.17
789.001	134.87
789.44	122.87
789.879	121.97
790.317	123.57
790.756	130.47
791.195	135.67
791.634	153.57
792.072	216.97
792.511	402.67
792.95	1130.77
793.388	2233.17
793.827	1955.17
794.265	704.97
794.704	296.27
795.142	196.57
795.581	155.77
796.019	149.77
796.458	138.97
796.896	125.97
797.334	138.17
797.773	163.27
798.211	238.47
798.649	497.67
799.087	1101.57
799.526	1715.67
799.964	2151.47
800.402	2080.77
800.84	796.97
801.278	321.07
801.716	200.87
802.154	165.27
802.592	153.37
803.03	150.87
803.468	134.17
803.906	149.17
804.344	158.67
804.782	151.57
805.22	145.07
805.658	142.57
806.096	155.07
806.533	170.47
806.971	182.17
807.409	232.67
807.847	356.57
808.284	753.37
808.722	2076.57
809.16	3475.67
809.597	3471.57
810.035	5867.47
810.472	5957.47
810.91	2214.77
811.347	857.17
811.785	426.47
812.222	276.27
812.66	213.67
813.097	172.57
813.535	151.17
813.972	137.47
814.409	126.27
814.846	112.37
815.284	113.37
815.721	105.77
816.158	107.47
816.595	120.17
817.032	164.67
817.47	187.57
817.907	125.77
818.344	104.57
818.781	97.87
819.218	97.37
819.655	128.47
820.092	199.77
820.529	225.17
820.966	183.37
821.403	136.77
821.839	104.47
822.276	100.57
822.713	126.67
823.15	144.27
823.587	127.07
824.023	163.37
824.46	338.97
824.897	978.07
825.333	1404.17
825.77	607.17
826.206	245.47
826.643	141.57
827.08	103.57
827.516	78.87
827.953	82.07
828.389	82.47
828.825	69.47
829.262	67.27
829.698	64.47
830.135	67.87
830.571	61.57
831.007	59.07
831.443	65.57
831.88	65.17
832.316	65.47
832.752	72.67
833.188	67.07
833.624	62.57
834.06	72.27
834.497	70.97
834.933	74.67
835.369	78.37
835.805	68.37
836.241	80.67
836.677	85.67
837.112	98.77
837.548	107.47
837.984	144.37
838.42	219.67
838.856	571.87
839.292	1662.67
839.727	2406.77
840.163	1141.17
840.599	1039.97
841.034	2196.77
841.47	2188.27
841.906	821.67
842.341	351.37
842.777	212.17
843.212	211.17
843.648	187.17
844.083	110.07
844.519	89.67
844.954	78.27
845.39	59.57
845.825	59.07
846.261	57.97
846.696	55.17
847.131	57.17
847.566	66.07
848.002	58.67
848.437	54.57
848.872	63.47
849.307	67.77
849.742	90.77
850.177	207.37
850.613	608.17
851.048	917.77
851.483	399.57
851.918	165.07
852.353	83.87
852.788	57.07
853.223	53.27
853.657	59.37
854.092	51.17
854.527	41.57
854.962	38.47
855.397	48.07
855.832	47.37
856.266	43.77
856.701	40.07
857.136	40.27
857.57	43.27
858.005	51.87
858.44	69.27
858.874	53.67
859.309	52.27
859.743	40.17
860.178	43.57
860.612	45.67
861.047	49.77
861.481	73.57
861.915	70.37
862.35	52.97
862.784	31.07
863.218	39.47
863.653	32.67
864.087	45.17
864.521	56.97
864.955	75.77
865.39	167.47
865.824	180.17
866.258	123.17
866.692	178.07
867.126	183.77
867.56	114.17
867.994	52.57
868.428	37.87
868.862	50.67
869.296	63.37
869.73	59.97
870.164	60.37
870.598	48.27
871.031	39.07
871.465	33.67
871.899	31.97
872.333	24.37
872.766	31.97
873.2	26.07
873.634	26.47
874.067	20.97
874.501	25.47
874.935	36.77
875.368	31.27
875.802	26.27
876.235	29.97
876.669	31.97
877.102	29.87
877.535	27.07
877.969	25.57
878.402	27.07
878.836	22.27
879.269	22.77
879.702	20.97
880.135	20.87
880.569	16.87
881.002	23.77
881.435	20.27
881.868	18.67
882.301	24.37
882.734	13.87
883.167	21.97
883.601	21.77
884.034	23.57
884.467	8.47
884.899	20.47
885.332	21.27
885.765	18.17
886.198	25.07
886.631	15.87
887.064	14.57
887.497	18.97
887.929	25.17
888.362	12.67
888.795	13.97
889.228	14.17
889.66	17.87
890.093	18.27
890.526	10.77
890.958	12.47
891.391	8.07
891.823	19.97
892.256	13.37
892.688	10.17
893.121	10.87
893.553	14.47
893.985	21.17
894.418	14.87
894.85	10.87
895.282	15.87
895.715	14.77
896.147	15.37
896.579	12.97
897.011	14.77
897.444	18.37
897.876	17.27
898.308	20.57
898.74	17.27
899.172	16.87
899.604	21.77
900.036	18.27
900.468	14.27
900.9	20.87
901.332	20.37
901.764	14.07
902.196	19.67
902.628	25.17
903.06	26.67
903.491	30.07
903.923	23.37
904.355	17.97
904.787	25.27
905.218	23.47
905.65	19.27
906.082	10.27
906.513	9.77
906.945	17.27
907.376	10.87
907.808	16.67
908.239	20.87
908.671	9.87
909.102	25.37
909.534	26.47
909.965	45.47
910.397	102.07
910.828	343.07
911.259	488.67
911.691	223.97
912.122	117.17
912.553	61.37
912.984	35.17
913.415	26.27
913.847	21.87
914.278	16.47
914.709	15.57
915.14	20.37
915.571	17.47
916.002	11.17
916.433	17.87
916.864	17.17
917.295	14.17
917.726	15.87
918.157	16.87
918.587	31.27
919.018	23.97
919.449	22.47
919.88	25.37
920.311	34.57
920.741	47.57
921.172	178.67
921.603	156.97
922.033	76.07
922.464	46.17
922.895	27.07
923.325	23.37
923.756	8.87
924.186	11.27
924.617	19.27
925.047	14.97
925.478	25.87
925.908	22.47
926.338	9.27
926.769	10.77
927.199	14.17
927.629	6.37
928.06	20.97
928.49	12.87
928.92	15.77
929.35	8.77
929.78	14.97
930.21	6.07
930.641	12.37
931.071	10.37
931.501	9.47
931.931	5.57
932.361	6.47
932.791	5.57
933.221	5.57
933.651	8.67
934.08	13.47
934.51	29.17
934.94	10.87
935.37	8.37
935.8	9.87
936.229	5.87
936.659	10.47
937.089	4.47
937.519	19.07
937.948	18.77
938.378	21.47
938.807	3.37
939.237	6.07
939.666	-0.23
940.096	-10.63
940.525	3.27
940.955	2.67
941.384	5.47
941.814	-0.53
942.243	-4.33
942.672	4.07
943.102	-0.73
943.531	-0.83
943.96	3.37
944.39	1.47
944.819	4.57
945.248	3.17
945.677	-1.33
946.106	2.67
946.535	3.07
946.964	-2.93
947.393	3.47
947.822	-2.33
948.251	-5.33
948.68	2.87
949.109	3.77
949.538	3.87
949.967	-3.53
950.396	-2.53
950.825	1.17
951.254	8.07
951.682	-3.23
952.111	3.37
952.54	4.57
952.969	-3.43
953.397	-2.83
953.826	-1.93
954.254	-8.03
954.683	-1.63
955.112	-5.33
955.54	0.37
955.969	0.77
956.397	-2.33
956.826	-2.73
957.254	1.77
957.682	3.67
958.111	2.97
958.539	-1.13
958.967	-1.03
959.396	-5.23
959.824	2.57
960.252	2.47
960.68	-6.83
961.109	-3.23
961.537	-0.53
961.965	2.07
962.393	-0.23
962.821	-2.43
963.249	2.17
963.677	0.47
964.105	5.07
964.533	47.27
964.961	40.67
965.389	26.77
965.817	5.47
966.245	2.27
966.672	7.97
967.1	-2.83
967.528	2.67
967.956	-2.93
968.383	6.47
968.811	-5.63
969.239	-2.33
969.666	-6.03
970.094	-0.33
970.522	-5.23
970.949	-4.93
971.377	-5.43
971.804	-0.03
972.232	-1.43
972.659	1.97
973.087	-7.43
973.514	-2.53
973.941	-9.83
974.369	1.97
974.796	4.27
975.223	0.67
975.651	-3.23
976.078	1.27
976.505	0.27
976.932	3.47
977.359	14.47
977.786	11.97
978.214	-5.03
978.641	-3.93
979.068	-3.73
979.495	-8.43
979.922	3.57
980.349	-2.03
980.776	2.07
981.202	-0.33
981.629	6.47
982.056	7.47
982.483	1.17
982.91	1.97
983.337	-7.33
983.763	2.37
984.19	-1.23
984.617	-2.93
985.043	-7.03
985.47	-1.73
985.897	-4.63
986.323	-7.43
986.75	0.57
987.176	0.37
987.603	1.37
988.029	-5.83
988.456	-0.53
988.882	0.77
989.308	-9.13
989.735	-3.73
990.161	-1.03
990.587	-8.33
991.014	0.07
991.44	7.17
991.866	-8.23
992.292	-5.73
992.719	-6.73
993.145	0.07
993.571	-13.23
993.997	-4.03
994.423	2.07
994.849	-8.73
995.275	-2.93
995.701	0.07
996.127	-1.83
996.553	-0.03
996.979	-6.03
997.405	-5.93
997.83	-8.03
998.256	-5.23
998.682	-2.93
999.108	-8.63
999.534	-2.93
999.959	0.27
1000.385	-5.83
1000.811	2.87
1001.236	-2.63
1001.662	-8.03
1002.087	-2.83
1002.513	3.27
1002.938	0.57
1003.364	-4.63
1003.789	0.47
1004.215	3.87
1004.64	-0.43
1005.066	8.97
1005.491	1.87
1005.916	-2.73
1006.342	-1.33
1006.767	-10.43
1007.192	1.27
1007.617	-5.63
1008.042	-3.43
1008.468	-10.83
1008.893	-6.43
1009.318	-1.03
1009.743	-0.93
1010.168	2.67
1010.593	2.17
1011.018	-8.03
1011.443	-2.23
1011.868	0.27
1012.293	2.37
1012.718	-3.73
1013.143	-0.23
1013.567	3.87
1013.992	1.57
1014.417	-20.13
1014.842	8.07
1015.267	-2.03
1015.691	-7.03
1016.116	-2.33
1016.541	2.17
1016.965	7.37
1017.39	1.47
1017.814	-0.43
1018.239	-4.93
1018.663	-12.73
1019.088	-13.13
1019.512	-0.23
1019.937	0.47
1020.361	-7.13
1020.785	-10.73
1021.21	-9.53
1021.634	-10.73
1022.058	3.27
1022.483	3.07
1022.907	-1.33
1023.331	-3.73
1023.755	-5.53
1024.179	-3.33
1024.604	-2.73
1025.028	-6.03
1025.452	-5.93
1025.876	-8.83
1026.3	1.97
1026.724	-14.53
1027.148	-4.83
1027.572	-7.63
1027.996	-3.03
1028.42	0.77
1028.843	-1.23
1029.267	-0.23
1029.691	-10.53
1030.115	-2.83
1030.539	-6.13
1030.962	-6.83
1031.386	-6.43
1031.81	-1.63
1032.233	0.17
1032.657	-0.63
1033.08	-3.53
1033.504	-6.53
1033.927	-1.73
1034.351	-1.73
1034.774	-3.03
1035.198	-5.03
1035.621	-4.93
1036.045	-7.93
1036.468	-3.33
1036.891	-10.33
1037.315	-11.63
1037.738	-7.53
1038.161	-0.63
1038.584	-3.03
1039.008	-6.03
1039.431	-4.63
1039.854	-2.03
1040.277	-5.53
1040.7	-6.93
1041.123	-3.63
1041.546	-6.43
1041.969	-11.33
1042.392	-6.73
1042.815	-3.93
1043.238	2.07
1043.661	-4.03
1044.084	-5.13
1044.507	-11.83
1044.93	-8.03
1045.352	-6.63
1045.775	-7.23
1046.198	-0.83
1046.621	-4.43
1047.043	-1.63
1047.466	3.07
1047.889	-1.23
1048.311	-6.73
1048.734	-3.93
1049.156	-3.23
1049.579	-1.53
1050.001	-2.03
1050.424	-4.03
1050.846	-5.03
1051.269	-8.33
1051.691	-9.13
1052.113	-11.03
1052.536	-3.13
1052.958	-2.73
1053.38	-5.43
1053.802	-12.83
1054.225	-0.13
1054.647	-9.93
1055.069	-4.33
1055.491	1.57
1055.913	-3.93
1056.335	-1.13
1056.757	-9.63
1057.179	-10.03
1057.601	-5.03
1058.023	-5.93
1058.445	-9.23
1058.867	-7.63
1059.289	-4.13
1059.711	-2.93
1060.133	1.67
1060.555	-3.53
1060.976	-4.23
1061.398	-8.23
1061.82	-4.53
1062.241	-11.53
1062.663	-4.43
1063.085	-4.33
1063.506	-0.23
1063.928	-4.13
1064.35	1.97
1064.771	-13.33
1065.193	-5.13
1065.614	-9.63
1066.035	-2.93
1066.457	-7.33
1066.878	0.97
1067.3	-7.23
1067.721	-8.93
1068.142	-4.13
1068.564	-3.13
1068.985	-4.83
1069.406	-8.53
1069.827	-7.93
1070.248	2.97
1070.67	-8.63
1071.091	-8.13
1071.512	-9.83
1071.933	-7.63
1072.354	-11.13
1072.775	-5.23
1073.196	-15.03
1073.617	-3.63
1074.038	-7.13
1074.459	-6.03
1074.88	-3.83
1075.3	0.97
1075.721	-7.43
1076.142	-6.53
1076.563	-1.93
1076.983	-9.83
1077.404	-8.43
1077.825	-5.53
1078.246	-7.03
1078.666	-10.43
1079.087	-3.23
1079.507	-0.93
1079.928	-3.23
1080.348	-0.73
1080.769	-5.13
1081.189	-0.73
1081.61	-7.53
1082.03	-4.53
1082.451	-5.33
1082.871	-7.83
1083.291	-13.93
1083.711	-13.53
1084.132	-10.73
1084.552	-5.33
1084.972	1.07
1085.392	-9.83
1085.813	-8.73
1086.233	-11.53
1086.653	-9.83
1087.073	-1.43
1087.493	-5.03
1087.913	-2.93
1088.333	-4.53
1088.753	-3.43
1089.173	-3.43
1089.593	-4.83
1090.013	3.17
1090.433	2.37
1090.852	-7.83
1091.272	-3.13
1091.692	-8.23
1092.112	-4.63
1092.531	-10.63
1092.951	-16.03
1093.371	-2.23
1093.79	1.97
1094.21	-9.43
1094.63	-3.63
1095.049	-7.93
1095.469	-4.13
1095.888	-0.63
1096.308	3.37
1096.727	-1.13
1097.146	-9.23
1097.566	1.17
1097.985	-0.93
1098.405	-1.33
1098.824	-3.73
1099.243	-7.03
1099.662	-10.73
1100.082	-5.33
1100.501	-1.93
1100.92	-8.63
1101.339	-4.53
1101.758	-4.23
