Data from 20171114-ORNL-Ar_H_NY_Subt18_08-09-19-047.txt Node
Date: Tue Nov 14 08:09:19 EST 2017
User: Ender
Spectrometer: HR+D1039
Trigger mode: 0
Integration Time (sec): 2.730000E-2
Scans to average: 10
Electric dark correction enabled: true
Nonlinearity correction enabled: false
Boxcar width: 0
XAxis mode: Wavelengths
Number of Pixels in Spectrum: 2048
>>>>>Begin Spectral Data<<<<<
187.836	-3.23
188.309	-3.23
188.782	-3.23
189.255	0.57
189.728	-0.93
190.201	2.87
190.674	-1.53
191.147	7.47
191.619	-5.53
192.092	4.47
192.565	8.07
193.038	-0.33
193.511	1.07
193.984	-4.73
194.456	-4.63
194.929	-1.33
195.402	-1.93
195.874	-0.43
196.347	-1.83
196.82	-7.83
197.292	0.97
197.765	1.17
198.237	-6.33
198.71	-0.03
199.182	-1.93
199.655	0.37
200.127	-1.73
200.6	-0.73
201.072	-8.73
201.544	-5.43
202.017	-0.13
202.489	0.27
202.961	-3.03
203.433	-9.13
203.906	-5.93
204.378	-4.13
204.85	-7.83
205.322	-6.33
205.794	-5.63
206.266	-5.93
206.739	-10.83
207.211	2.57
207.683	-8.53
208.155	-7.83
208.627	-7.93
209.099	-3.03
209.57	-6.33
210.042	-9.13
210.514	-6.83
210.986	-4.73
211.458	-15.43
211.93	-7.83
212.402	-2.43
212.873	-6.43
213.345	-6.13
213.817	-10.93
214.288	-3.83
214.76	-10.13
215.232	-1.03
215.703	-6.63
216.175	-9.03
216.646	-4.93
217.118	-14.73
217.589	-3.43
218.061	-6.43
218.532	-9.43
219.004	-6.73
219.475	-9.23
219.946	-8.73
220.418	-7.23
220.889	-0.83
221.36	-7.73
221.832	-3.33
222.303	-12.43
222.774	-2.83
223.245	-14.83
223.717	-6.53
224.188	1.57
224.659	-10.33
225.13	-9.83
225.601	-4.83
226.072	1.67
226.543	-8.23
227.014	-5.13
227.485	-5.83
227.956	-9.13
228.427	-3.43
228.898	-1.13
229.369	0.57
229.839	-4.03
230.31	-14.53
230.781	-1.53
231.252	-7.73
231.722	-11.43
232.193	-6.03
232.664	-4.23
233.135	-5.83
233.605	-4.83
234.076	-5.83
234.546	-1.33
235.017	-0.73
235.487	-2.23
235.958	-9.33
236.428	-10.33
236.899	-2.73
237.369	0.57
237.84	-7.03
238.31	6.67
238.78	-3.93
239.251	-7.63
239.721	-7.03
240.191	-6.13
240.662	-2.23
241.132	-6.83
241.602	-9.03
242.072	-3.83
242.542	3.27
243.013	-4.63
243.483	-1.03
243.953	-5.43
244.423	-2.43
244.893	-9.43
245.363	-6.23
245.833	-2.03
246.303	-9.53
246.773	2.37
247.243	-3.23
247.712	-4.43
248.182	0.07
248.652	-3.03
249.122	-11.33
249.592	-4.23
250.061	-1.23
250.531	10.47
251.001	-4.13
251.471	-0.33
251.94	5.47
252.41	-1.53
252.879	-7.33
253.349	5.47
253.818	4.87
254.288	3.27
254.757	-4.73
255.227	-4.53
255.696	-3.83
256.166	-2.03
256.635	-0.33
257.105	2.07
257.574	-4.03
258.043	-1.13
258.513	-0.03
258.982	-0.63
259.451	-5.93
259.92	-1.73
260.389	1.67
260.859	8.47
261.328	-1.43
261.797	-2.63
262.266	0.27
262.735	4.77
263.204	1.37
263.673	-3.73
264.142	-3.73
264.611	-5.63
265.08	-7.13
265.549	-6.63
266.018	6.97
266.487	-2.33
266.955	-7.03
267.424	-3.33
267.893	3.67
268.362	-1.83
268.83	-1.23
269.299	6.47
269.768	1.67
270.236	1.07
270.705	-2.93
271.174	-3.63
271.642	-2.73
272.111	-3.03
272.579	1.77
273.048	2.47
273.516	-1.43
273.985	3.27
274.453	3.17
274.922	3.87
275.39	-1.13
275.858	-5.33
276.327	1.57
276.795	8.97
277.263	0.47
277.731	8.67
278.2	5.87
278.668	6.07
279.136	-1.43
279.604	-0.53
280.072	5.77
280.54	4.77
281.008	3.97
281.477	10.57
281.945	8.57
282.413	10.87
282.881	9.17
283.348	-0.63
283.816	5.97
284.284	11.17
284.752	9.37
285.22	8.67
285.688	5.67
286.156	3.77
286.623	9.47
287.091	0.57
287.559	3.47
288.026	6.87
288.494	5.47
288.962	-4.53
289.429	4.67
289.897	8.67
290.364	7.57
290.832	6.67
291.3	6.37
291.767	9.67
292.234	14.37
292.702	3.67
293.169	11.97
293.637	7.77
294.104	18.07
294.571	3.47
295.039	4.97
295.506	0.97
295.973	11.77
296.44	4.97
296.908	6.97
297.375	10.27
297.842	8.57
298.309	6.87
298.776	1.27
299.243	5.97
299.71	2.97
300.177	14.37
300.644	7.77
301.111	10.47
301.578	14.57
302.045	8.07
302.512	13.97
302.979	12.97
303.446	12.77
303.913	9.87
304.379	10.97
304.846	19.87
305.313	16.47
305.78	6.57
306.246	10.67
306.713	15.27
307.18	14.87
307.646	14.67
308.113	14.37
308.579	12.57
309.046	14.17
309.512	15.37
309.979	6.47
310.445	20.87
310.912	18.37
311.378	22.27
311.845	19.57
312.311	23.57
312.777	18.07
313.244	18.07
313.71	32.57
314.176	15.57
314.642	16.97
315.109	19.57
315.575	21.47
316.041	24.47
316.507	15.47
316.973	14.47
317.439	22.67
317.905	22.87
318.371	20.97
318.837	22.87
319.303	22.07
319.769	19.07
320.235	27.07
320.701	24.57
321.167	24.97
321.633	21.17
322.099	24.57
322.564	27.57
323.03	26.17
323.496	23.27
323.962	26.27
324.427	21.87
324.893	25.27
325.359	25.37
325.824	21.57
326.29	29.17
326.755	27.17
327.221	30.37
327.686	30.17
328.152	38.17
328.617	28.97
329.083	33.57
329.548	43.07
330.014	34.47
330.479	26.77
330.944	31.17
331.41	30.87
331.875	34.17
332.34	30.67
332.805	28.77
333.271	29.17
333.736	25.17
334.201	36.17
334.666	32.07
335.131	33.47
335.596	43.17
336.061	35.17
336.526	29.97
336.991	36.37
337.456	41.17
337.921	34.57
338.386	39.17
338.851	31.87
339.316	37.47
339.781	34.17
340.246	37.17
340.711	40.07
341.175	40.47
341.64	33.47
342.105	39.77
342.569	41.47
343.034	42.37
343.499	45.17
343.963	37.27
344.428	50.37
344.893	46.37
345.357	48.67
345.822	46.27
346.286	52.27
346.751	52.57
347.215	49.67
347.679	49.97
348.144	71.97
348.608	60.27
349.073	55.27
349.537	61.27
350.001	59.67
350.465	68.57
350.93	63.57
351.394	66.97
351.858	55.37
352.322	69.97
352.786	62.17
353.25	72.27
353.715	83.87
354.179	77.67
354.643	94.37
355.107	95.97
355.571	75.17
356.035	78.67
356.498	79.47
356.962	84.07
357.426	97.97
357.89	82.17
358.354	63.47
358.818	66.37
359.281	60.77
359.745	57.07
360.209	61.37
360.673	56.17
361.136	63.87
361.6	68.37
362.064	68.87
362.527	69.67
362.991	78.87
363.454	62.57
363.918	61.27
364.381	66.07
364.845	67.37
365.308	75.37
365.772	75.97
366.235	70.17
366.698	62.27
367.162	69.57
367.625	70.07
368.088	69.07
368.552	70.67
369.015	63.67
369.478	79.57
369.941	81.97
370.404	70.07
370.867	86.37
371.331	83.97
371.794	89.37
372.257	81.57
372.72	88.57
373.183	83.57
373.646	75.87
374.109	78.27
374.572	91.97
375.035	84.17
375.497	90.77
375.96	88.07
376.423	89.77
376.886	94.57
377.349	93.57
377.811	84.77
378.274	87.97
378.737	85.77
379.199	88.87
379.662	94.67
380.125	96.27
380.587	87.07
381.05	91.77
381.512	102.07
381.975	105.07
382.437	107.87
382.9	101.97
383.362	117.97
383.825	110.87
384.287	107.47
384.75	100.77
385.212	105.97
385.674	113.17
386.136	125.07
386.599	109.27
387.061	103.27
387.523	106.87
387.985	106.47
388.447	120.97
388.91	112.57
389.372	114.57
389.834	116.87
390.296	115.37
390.758	117.67
391.22	118.37
391.682	130.77
392.144	135.67
392.606	128.57
393.068	122.57
393.529	138.17
393.991	128.47
394.453	121.17
394.915	119.47
395.377	118.17
395.838	124.87
396.3	122.77
396.762	116.77
397.224	117.47
397.685	119.07
398.147	122.17
398.608	123.57
399.07	120.37
399.531	127.37
399.993	132.57
400.454	140.27
400.916	133.47
401.377	136.87
401.839	139.77
402.3	140.17
402.762	148.67
403.223	162.77
403.684	157.97
404.145	152.47
404.607	150.47
405.068	149.17
405.529	147.57
405.99	167.27
406.451	160.17
406.913	157.67
407.374	157.17
407.835	148.87
408.296	155.97
408.757	158.87
409.218	165.77
409.679	156.37
410.14	162.27
410.601	164.27
411.062	166.77
411.522	170.77
411.983	165.87
412.444	167.97
412.905	171.67
413.366	175.67
413.826	189.47
414.287	213.38
414.748	250.38
415.208	239.87
415.669	205.17
416.13	199.47
416.59	203.27
417.051	209.67
417.511	216.27
417.972	225.98
418.432	247.38
418.893	282.57
419.353	242.27
419.814	195.17
420.274	180.27
420.734	175.97
421.195	185.47
421.655	181.67
422.115	183.77
422.576	182.67
423.036	186.07
423.496	204.97
423.956	202.27
424.416	220.47
424.876	259.67
425.336	250.67
425.797	245.87
426.257	243.07
426.717	228.07
427.177	224.17
427.637	215.77
428.097	224.67
428.556	236.67
429.016	256.17
429.476	245.07
429.936	259.17
430.396	260.37
430.856	272.17
431.315	287.77
431.775	326.47
432.235	361.77
432.694	332.37
433.154	337.77
433.614	359.97
434.073	321.87
434.533	266.47
434.993	257.97
435.452	263.87
435.912	267.27
436.371	264.27
436.83	258.27
437.29	248.17
437.749	235.88
438.209	236.27
438.668	261.57
439.127	276.07
439.587	253.37
440.046	235.17
440.505	255.17
440.964	262.87
441.424	305.67
441.883	294.07
442.342	248.98
442.801	219.07
443.26	224.27
443.719	227.97
444.178	215.77
444.637	211.37
445.096	216.47
445.555	221.87
446.014	220.57
446.473	224.17
446.932	223.17
447.391	228.97
447.849	226.57
448.308	220.27
448.767	219.97
449.226	226.97
449.685	234.87
450.143	247.67
450.602	237.77
451.061	229.77
451.519	230.17
451.978	230.37
452.436	230.07
452.895	227.67
453.353	254.57
453.812	233.48
454.27	239.47
454.729	234.87
455.187	239.07
455.646	246.57
456.104	245.38
456.562	258.77
457.021	267.67
457.479	253.47
457.937	268.07
458.395	263.47
458.854	256.27
459.312	257.27
459.77	270.47
460.228	257.77
460.686	247.97
461.144	247.97
461.602	246.97
462.06	242.37
462.518	246.37
462.976	249.97
463.434	260.88
463.892	260.27
464.35	271.17
464.808	288.67
465.266	272.17
465.724	275.17
466.181	287.38
466.639	276.47
467.097	292.27
467.555	298.57
468.012	300.47
468.47	303.07
468.928	323.27
469.385	337.67
469.843	340.77
470.3	346.77
470.758	354.88
471.215	373.37
471.673	402.17
472.13	403.17
472.588	414.38
473.045	373.57
473.503	386.07
473.96	391.87
474.417	404.47
474.875	430.57
475.332	469.07
475.789	452.07
476.246	466.17
476.704	475.37
477.161	497.88
477.618	522.47
478.075	555.07
478.532	601.97
478.989	658.47
479.446	781.07
479.903	739.67
480.36	776.67
480.817	809.57
481.274	903.97
481.731	997.38
482.188	1070.77
482.645	1185.07
483.102	1255.18
483.558	1375.18
484.015	1420.28
484.472	1391.57
484.929	1352.88
485.385	1315.77
485.842	1278.97
486.299	1239.87
486.755	1197.87
487.212	1019.67
487.668	879.57
488.125	810.97
488.582	752.98
489.038	724.57
489.494	693.47
489.951	667.38
490.407	636.77
490.864	634.07
491.32	624.07
491.776	627.17
492.233	640.57
492.689	608.07
493.145	594.27
493.602	585.57
494.058	604.97
494.514	608.87
494.97	631.57
495.426	642.88
495.882	608.27
496.338	607.67
496.794	615.07
497.251	605.87
497.707	611.37
498.163	618.07
498.618	630.57
499.074	629.38
499.53	660.27
499.986	668.37
500.442	631.48
500.898	619.47
501.354	611.47
501.809	608.97
502.265	616.38
502.721	633.87
503.177	642.98
503.632	638.27
504.088	638.37
504.543	663.47
504.999	690.17
505.455	644.67
505.91	627.97
506.366	641.57
506.821	625.87
507.277	628.77
507.732	632.67
508.187	632.67
508.643	644.97
509.098	641.67
509.553	661.57
510.009	673.57
510.464	680.27
510.919	694.27
511.375	701.17
511.83	716.87
512.285	726.77
512.74	756.57
513.195	774.77
513.65	766.87
514.105	771.67
514.56	765.87
515.015	790.27
515.47	803.67
515.925	777.48
516.38	773.47
516.835	794.77
517.29	777.87
517.745	777.67
518.2	770.27
518.655	752.17
519.109	743.37
519.564	735.27
520.019	732.87
520.474	725.77
520.928	727.67
521.383	726.27
521.838	705.77
522.292	715.27
522.747	719.77
523.201	720.57
523.656	701.38
524.11	703.27
524.565	692.27
525.019	682.87
525.474	707.17
525.928	703.17
526.382	697.27
526.837	698.17
527.291	712.27
527.745	701.77
528.2	699.77
528.654	699.67
529.108	690.97
529.562	692.07
530.016	695.57
530.47	692.47
530.925	686.77
531.379	698.67
531.833	700.67
532.287	705.07
532.741	708.17
533.195	699.27
533.649	712.47
534.103	724.07
534.556	709.77
535.01	708.77
535.464	696.67
535.918	709.07
536.372	724.47
536.826	716.77
537.279	710.37
537.733	715.77
538.187	710.77
538.64	715.37
539.094	724.97
539.548	729.97
540.001	723.87
540.455	732.07
540.908	736.57
541.362	742.67
541.815	756.57
542.269	769.67
542.722	764.77
543.175	782.17
543.629	774.07
544.082	801.47
544.536	795.97
544.989	784.67
545.442	803.87
545.895	805.67
546.349	811.27
546.802	806.57
547.255	807.37
547.708	810.57
548.161	822.77
548.614	835.87
549.067	839.77
549.52	828.27
549.973	824.97
550.426	818.57
550.879	812.57
551.332	801.87
551.785	822.87
552.238	824.47
552.691	836.98
553.144	854.57
553.596	867.17
554.049	882.27
554.502	907.07
554.955	920.37
555.407	917.07
555.86	905.17
556.313	903.88
556.765	895.17
557.218	894.57
557.67	895.77
558.123	892.07
558.576	885.37
559.028	888.87
559.48	896.37
559.933	886.67
560.385	849.07
560.838	828.17
561.29	802.07
561.742	792.57
562.195	782.57
562.647	789.48
563.099	788.57
563.551	781.67
564.004	796.57
564.456	786.57
564.908	778.67
565.36	760.47
565.812	731.47
566.264	724.48
566.716	733.98
567.168	723.87
567.62	715.57
568.072	719.47
568.524	704.77
568.976	706.07
569.428	689.88
569.88	686.47
570.332	702.17
570.784	700.57
571.235	705.57
571.687	705.88
572.139	716.97
572.59	728.77
573.042	724.97
573.494	733.57
573.945	722.47
574.397	694.57
574.849	700.07
575.3	707.57
575.752	703.27
576.203	691.77
576.655	683.77
577.106	680.07
577.557	680.87
578.009	677.87
578.46	674.17
578.912	667.97
579.363	673.67
579.814	678.67
580.265	681.07
580.717	687.97
581.168	672.07
581.619	692.67
582.07	694.07
582.521	692.17
582.972	688.27
583.423	685.57
583.875	692.77
584.326	700.67
584.777	716.17
585.227	726.47
585.678	739.57
586.129	758.77
586.58	778.37
587.031	793.88
587.482	827.77
587.933	843.88
588.384	827.87
588.834	795.47
589.285	788.97
589.736	789.27
590.186	779.47
590.637	784.47
591.088	755.17
591.538	747.88
591.989	746.38
592.439	735.47
592.89	730.27
593.34	720.97
593.791	717.37
594.241	712.87
594.692	717.17
595.142	704.07
595.593	693.57
596.043	709.87
596.493	717.47
596.943	714.57
597.394	731.97
597.844	729.97
598.294	754.98
598.744	776.37
599.195	797.67
599.645	851.67
600.095	891.07
600.545	943.47
600.995	999.47
601.445	1044.87
601.895	1121.08
602.345	1159.77
602.795	1143.18
603.245	1100.97
603.695	1049.67
604.145	988.77
604.594	939.17
605.044	876.27
605.494	822.87
605.944	774.97
606.393	763.47
606.843	741.37
607.293	739.77
607.743	744.47
608.192	757.57
608.642	776.57
609.091	772.17
609.541	776.67
609.99	772.17
610.44	774.57
610.889	727.57
611.339	712.27
611.788	695.98
612.238	701.37
612.687	712.47
613.136	715.77
613.586	731.67
614.035	712.48
614.484	730.07
614.933	720.97
615.383	724.97
615.832	709.17
616.281	716.17
616.73	684.77
617.179	661.57
617.628	658.07
618.077	646.47
618.526	634.37
618.975	632.47
619.424	622.17
619.873	629.48
620.322	627.87
620.771	632.07
621.22	619.57
621.669	600.07
622.118	595.17
622.567	588.98
623.015	591.57
623.464	586.57
623.913	572.17
624.361	560.37
624.81	557.77
625.259	562.87
625.707	571.87
626.156	564.47
626.604	573.07
627.053	573.17
627.501	578.97
627.95	590.17
628.398	600.07
628.847	589.67
629.295	582.88
629.744	583.17
630.192	569.97
630.64	565.27
631.089	549.57
631.537	548.17
631.985	539.67
632.433	540.77
632.881	535.67
633.33	547.87
633.778	539.47
634.226	528.07
634.674	544.98
635.122	552.97
635.57	558.27
636.018	573.27
636.466	564.57
636.914	577.97
637.362	585.17
637.81	584.47
638.258	594.57
638.705	600.57
639.153	631.97
639.601	640.47
640.049	660.57
640.497	697.07
640.944	707.87
641.392	658.07
641.84	625.27
642.287	596.27
642.735	581.57
643.182	579.17
643.63	581.37
644.078	569.87
644.525	590.77
644.973	596.87
645.42	596.67
645.867	624.27
646.315	642.37
646.762	663.48
647.21	705.67
647.657	718.67
648.104	755.77
648.551	761.17
648.999	834.47
649.446	902.38
649.893	988.67
650.34	1130.28
650.787	1337.97
651.234	1665.97
651.682	2159.67
652.129	2923.28
652.576	4145.27
653.023	6065.07
653.47	8130.57
653.917	10011.47
654.363	11489.68
654.81	12575.48
655.257	11921.67
655.704	7896.68
656.151	4765.87
656.598	3115.78
657.044	2246.18
657.491	1745.68
657.938	1411.68
658.385	1204.77
658.831	1041.67
659.278	933.17
659.724	830.07
660.171	775.47
660.618	710.27
661.064	682.98
661.511	667.38
661.957	658.47
662.404	644.07
662.85	659.37
663.296	632.17
663.743	570.77
664.189	555.47
664.635	549.57
665.082	537.87
665.528	530.27
665.974	523.17
666.42	514.87
666.867	516.07
667.313	494.67
667.759	484.47
668.205	472.47
668.651	463.87
669.097	462.67
669.543	452.17
669.989	459.57
670.435	457.37
670.881	461.48
671.327	464.87
671.773	486.47
672.219	528.97
672.665	563.87
673.11	609.17
673.556	655.17
674.002	700.17
674.448	680.37
674.893	575.67
675.339	494.97
675.785	461.47
676.23	434.87
676.676	414.07
677.122	396.07
677.567	386.87
678.013	381.27
678.458	377.07
678.904	378.77
679.349	365.88
679.794	363.67
680.24	364.07
680.685	358.97
681.131	362.47
681.576	362.57
682.021	366.97
682.466	360.97
682.912	361.47
683.357	371.38
683.802	398.57
684.247	433.37
684.692	472.67
685.137	522.07
685.583	558.07
686.028	580.57
686.473	543.57
686.918	464.77
687.363	431.47
687.807	408.37
688.252	382.37
688.697	364.77
689.142	343.67
689.587	339.67
690.032	341.97
690.477	357.37
690.921	364.77
691.366	395.97
691.811	422.97
692.255	442.88
692.7	483.07
693.145	534.07
693.589	758.27
694.034	1224.97
694.478	1641.98
694.923	1808.18
695.367	2335.58
695.812	1250.28
696.256	524.27
696.701	386.47
697.145	358.38
697.59	341.27
698.034	333.47
698.478	342.48
698.922	332.27
699.367	329.77
699.811	349.77
700.255	372.87
700.699	396.17
701.143	443.67
701.588	502.37
702.032	541.17
702.476	541.57
702.92	510.77
703.364	519.77
703.808	695.67
704.252	1138.38
704.696	1557.77
705.14	1737.88
705.584	2219.38
706.027	1126.08
706.471	555.37
706.915	419.17
707.359	360.47
707.803	330.97
708.246	323.17
708.69	330.37
709.134	327.97
709.577	322.97
710.021	329.27
710.465	322.77
710.908	311.17
711.352	307.67
711.795	322.57
712.239	362.77
712.682	401.87
713.126	427.87
713.569	475.27
714.012	370.17
714.456	316.27
714.899	303.38
715.342	288.98
715.786	268.77
716.229	273.97
716.672	267.07
717.115	260.17
717.558	267.07
718.002	270.37
718.445	274.77
718.888	300.07
719.331	305.07
719.774	324.17
720.217	317.67
720.66	297.77
721.103	274.67
721.546	270.87
721.989	257.17
722.432	238.47
722.874	250.47
723.317	240.17
723.76	251.97
724.203	271.67
724.645	329.97
725.088	484.67
725.531	603.27
725.974	674.87
726.416	575.77
726.859	322.77
727.301	256.57
727.744	241.67
728.187	244.98
728.629	244.87
729.071	254.77
729.514	273.47
729.956	281.67
730.399	293.87
730.841	305.67
731.283	292.37
731.726	284.37
732.168	276.77
732.61	287.47
733.053	296.87
733.495	326.67
733.937	365.67
734.379	415.37
734.821	471.47
735.263	582.27
735.705	925.37
736.148	1750.18
736.59	2785.48
737.032	3168.57
737.474	2589.07
737.916	862.57
738.357	453.77
738.799	351.27
739.241	314.37
739.683	297.87
740.125	309.57
740.567	317.77
741.008	332.97
741.45	329.88
741.892	340.67
742.334	363.77
742.775	377.97
743.217	360.77
743.658	286.67
744.1	265.27
744.542	282.67
744.983	328.57
745.425	361.97
745.866	366.87
746.307	295.57
746.749	294.67
747.19	354.27
747.632	502.77
748.073	994.38
748.514	2060.57
748.956	3052.28
749.397	3833.38
749.838	3180.07
750.279	3054.97
750.72	1572.17
751.162	587.77
751.603	347.57
752.044	268.87
752.485	229.57
752.926	218.57
753.367	207.67
753.808	197.17
754.249	199.97
754.69	194.97
755.131	192.37
755.572	192.37
756.013	192.57
756.453	188.77
756.894	203.77
757.335	201.67
757.776	205.37
758.216	198.67
758.657	203.48
759.098	210.47
759.538	237.57
759.979	287.77
760.42	406.67
760.86	790.07
761.301	2084.88
761.741	4859.27
762.182	6670.67
762.622	4720.57
763.063	1400.88
763.503	561.27
763.943	332.27
764.384	276.97
764.824	257.37
765.264	245.57
765.705	218.57
766.145	188.37
766.585	187.37
767.025	173.07
767.465	169.57
767.906	188.27
768.346	194.67
768.786	199.37
769.226	223.67
769.666	332.67
770.106	696.57
770.546	1731.88
770.986	2790.38
771.426	2462.38
771.866	849.37
772.306	352.77
772.745	217.97
773.185	170.67
773.625	162.47
774.065	147.07
774.505	168.57
774.944	219.07
775.384	390.67
775.824	601.27
776.263	574.47
776.703	284.07
777.142	167.57
777.582	137.77
778.021	123.77
778.461	125.67
778.9	130.17
779.34	133.17
779.779	115.57
780.219	118.57
780.658	118.27
781.097	112.57
781.537	115.47
781.976	109.67
782.415	107.77
782.855	108.17
783.294	109.77
783.733	109.97
784.172	107.77
784.611	106.07
785.05	115.27
785.489	117.17
785.928	120.87
786.367	126.77
786.806	122.87
787.245	130.67
787.684	141.97
788.123	152.17
788.562	136.07
789.001	135.77
789.44	127.77
789.879	121.47
790.317	126.17
790.756	135.77
791.195	134.07
791.634	157.57
792.072	222.48
792.511	412.87
792.95	1131.38
793.388	2253.07
793.827	1971.28
794.265	715.17
794.704	296.77
795.142	193.27
795.581	157.87
796.019	151.17
796.458	130.17
796.896	133.27
797.334	142.57
797.773	160.07
798.211	242.87
798.649	497.77
799.087	1105.48
799.526	1728.97
799.964	2174.78
800.402	2088.88
800.84	802.57
801.278	320.27
801.716	199.77
802.154	165.97
802.592	153.47
803.03	144.37
803.468	131.57
803.906	151.17
804.344	156.77
804.782	146.57
805.22	141.77
805.658	136.77
806.096	148.87
806.533	164.87
806.971	189.37
807.409	234.27
807.847	350.37
808.284	749.27
808.722	2069.77
809.16	3487.58
809.597	3464.68
810.035	5874.97
810.472	5935.47
810.91	2206.47
811.347	853.87
811.785	438.67
812.222	283.57
812.66	207.37
813.097	174.77
813.535	152.37
813.972	141.87
814.409	125.37
814.846	113.97
815.284	109.87
815.721	106.47
816.158	107.57
816.595	109.87
817.032	161.77
817.47	188.17
817.907	135.77
818.344	100.47
818.781	102.87
819.218	93.97
819.655	130.77
820.092	203.17
820.529	225.37
820.966	174.67
821.403	129.97
821.839	98.27
822.276	96.87
822.713	127.17
823.15	148.57
823.587	129.17
824.023	157.47
824.46	345.07
824.897	981.57
825.333	1407.18
825.77	611.37
826.206	245.47
826.643	141.07
827.08	101.07
827.516	89.47
827.953	87.67
828.389	83.47
828.825	73.07
829.262	70.47
829.698	59.27
830.135	63.37
830.571	57.67
831.007	64.27
831.443	64.87
831.88	63.57
832.316	76.47
832.752	67.77
833.188	67.37
833.624	65.17
834.06	69.37
834.497	68.27
834.933	67.37
835.369	77.67
835.805	73.07
836.241	81.17
836.677	82.37
837.112	90.87
837.548	108.07
837.984	143.67
838.42	226.57
838.856	561.47
839.292	1681.57
839.727	2400.57
840.163	1145.38
840.599	1033.17
841.034	2187.97
841.47	2205.38
841.906	813.87
842.341	348.07
842.777	212.87
843.212	208.57
843.648	184.37
844.083	113.77
844.519	85.67
844.954	70.97
845.39	60.47
845.825	54.47
846.261	57.37
846.696	59.47
847.131	52.27
847.566	56.37
848.002	54.47
848.437	56.77
848.872	65.57
849.307	65.87
849.742	89.97
850.177	203.98
850.613	615.77
851.048	913.37
851.483	399.47
851.918	166.57
852.353	88.27
852.788	52.67
853.223	51.77
853.657	57.27
854.092	53.07
854.527	44.97
854.962	42.37
855.397	45.97
855.832	52.77
856.266	49.17
856.701	41.67
857.136	37.17
857.57	41.57
858.005	57.57
858.44	62.27
858.874	47.97
859.309	54.77
859.743	41.27
860.178	47.97
860.612	41.87
861.047	60.47
861.481	67.47
861.915	72.67
862.35	53.17
862.784	42.97
863.218	38.37
863.653	34.37
864.087	47.67
864.521	55.57
864.955	76.87
865.39	161.77
865.824	177.27
866.258	121.67
866.692	174.67
867.126	189.17
867.56	106.07
867.994	54.47
868.428	43.27
868.862	53.47
869.296	62.57
869.73	65.17
870.164	54.97
870.598	50.17
871.031	33.97
871.465	30.07
871.899	33.27
872.333	25.57
872.766	19.87
873.2	26.37
873.634	23.07
874.067	25.17
874.501	29.07
874.935	29.97
875.368	28.97
875.802	28.57
876.235	29.67
876.669	23.97
877.102	23.27
877.535	23.37
877.969	22.67
878.402	24.47
878.836	23.37
879.269	19.37
879.702	25.37
880.135	20.77
880.569	20.47
881.002	24.37
881.435	18.77
881.868	15.37
882.301	18.57
882.734	15.97
883.167	24.27
883.601	18.17
884.034	19.17
884.467	15.17
884.899	15.97
885.332	20.97
885.765	14.87
886.198	13.77
886.631	20.17
887.064	19.57
887.497	21.27
887.929	24.27
888.362	16.57
888.795	15.87
889.228	16.67
889.66	22.87
890.093	15.87
890.526	16.97
890.958	12.77
891.391	15.47
891.823	21.77
892.256	15.67
892.688	12.77
893.121	20.07
893.553	16.97
893.985	24.57
894.418	12.47
894.85	10.17
895.282	18.47
895.715	13.97
896.147	13.57
896.579	16.97
897.011	13.67
897.444	16.67
897.876	14.97
898.308	16.57
898.74	9.47
899.172	6.07
899.604	28.17
900.036	20.97
900.468	10.57
900.9	13.77
901.332	18.47
901.764	11.87
902.196	23.07
902.628	19.47
903.06	22.47
903.491	25.07
903.923	25.97
904.355	25.87
904.787	21.67
905.218	20.67
905.65	21.37
906.082	10.77
906.513	15.87
906.945	22.27
907.376	13.97
907.808	19.57
908.239	15.27
908.671	21.47
909.102	21.77
909.534	27.87
909.965	45.47
910.397	99.07
910.828	335.87
911.259	492.77
911.691	227.17
912.122	110.77
912.553	59.47
912.984	30.47
913.415	26.37
913.847	26.87
914.278	14.07
914.709	15.27
915.14	17.37
915.571	18.87
916.002	10.67
916.433	19.77
916.864	16.87
917.295	17.37
917.726	21.27
918.157	15.37
918.587	27.77
919.018	22.97
919.449	20.27
919.88	21.67
920.311	33.37
920.741	51.07
921.172	183.07
921.603	155.57
922.033	71.17
922.464	47.87
922.895	22.77
923.325	19.37
923.756	15.67
924.186	12.37
924.617	21.87
925.047	19.67
925.478	23.37
925.908	22.17
926.338	14.17
926.769	8.47
927.199	19.47
927.629	9.87
928.06	15.27
928.49	11.87
928.92	12.27
929.35	14.07
929.78	9.47
930.21	9.47
930.641	5.97
931.071	3.27
931.501	2.67
931.931	3.27
932.361	9.27
932.791	5.27
933.221	7.07
933.651	1.77
934.08	18.27
934.51	31.87
934.94	7.07
935.37	10.97
935.8	12.17
936.229	14.37
936.659	10.37
937.089	0.17
937.519	14.47
937.948	20.87
938.378	16.77
938.807	7.87
939.237	3.37
939.666	4.17
940.096	-7.33
940.525	3.77
940.955	-2.53
941.384	3.37
941.814	-12.23
942.243	1.37
942.672	3.47
943.102	0.07
943.531	3.47
943.96	3.67
944.39	5.57
944.819	-6.23
945.248	-1.63
945.677	-1.33
946.106	-0.73
946.535	1.57
946.964	-1.03
947.393	1.07
947.822	5.37
948.251	-0.93
948.68	-1.33
949.109	6.37
949.538	5.97
949.967	1.07
950.396	2.17
950.825	-3.13
951.254	-3.83
951.682	-5.43
952.111	4.47
952.54	3.07
952.969	-3.23
953.397	-4.93
953.826	2.67
954.254	-5.73
954.683	1.77
955.112	-3.93
955.54	0.37
955.969	-0.03
956.397	3.87
956.826	-2.83
957.254	2.97
957.682	0.17
958.111	3.87
958.539	0.67
958.967	0.17
959.396	-2.83
959.824	-1.63
960.252	-2.83
960.68	-6.33
961.109	-5.63
961.537	-5.23
961.965	1.57
962.393	-0.83
962.821	-5.13
963.249	-3.93
963.677	1.77
964.105	7.77
964.533	45.37
964.961	45.47
965.389	22.87
965.817	9.67
966.245	1.57
966.672	-7.03
967.1	-4.63
967.528	3.27
967.956	-3.83
968.383	-0.23
968.811	-4.33
969.239	-1.93
969.666	-10.83
970.094	1.37
970.522	-5.43
970.949	-1.03
971.377	-8.63
971.804	-2.23
972.232	-3.93
972.659	-5.53
973.087	-3.93
973.514	-7.03
973.941	-9.53
974.369	-1.83
974.796	5.07
975.223	5.67
975.651	-3.23
976.078	-0.53
976.505	0.97
976.932	-1.93
977.359	16.37
977.786	11.27
978.214	-5.73
978.641	-7.63
979.068	-0.43
979.495	-5.23
979.922	1.97
980.349	-3.33
980.776	2.47
981.202	0.87
981.629	3.97
982.056	3.07
982.483	-2.13
982.91	1.67
983.337	-11.03
983.763	3.57
984.19	-6.63
984.617	-6.53
985.043	-14.73
985.47	4.77
985.897	-8.93
986.323	-5.43
986.75	3.07
987.176	-1.53
987.603	-1.43
988.029	-7.03
988.456	-7.23
988.882	3.97
989.308	-4.03
989.735	-5.63
990.161	1.87
990.587	-4.53
991.014	-1.43
991.44	-1.23
991.866	-3.03
992.292	-3.23
992.719	-7.43
993.145	0.57
993.571	-4.83
993.997	-5.13
994.423	-3.53
994.849	-3.13
995.275	-0.23
995.701	7.37
996.127	-3.63
996.553	0.37
996.979	-0.93
997.405	-4.43
997.83	-8.63
998.256	-6.63
998.682	-6.53
999.108	-7.33
999.534	-7.53
999.959	-3.43
1000.385	-7.43
1000.811	2.47
1001.236	-14.53
1001.662	-6.53
1002.087	-8.43
1002.513	-1.73
1002.938	2.17
1003.364	-2.63
1003.789	-3.23
1004.215	3.17
1004.64	-3.53
1005.066	6.17
1005.491	0.07
1005.916	0.57
1006.342	-6.73
1006.767	-6.13
1007.192	3.57
1007.617	-6.13
1008.042	-3.93
1008.468	-4.13
1008.893	-7.43
1009.318	-2.43
1009.743	-0.63
1010.168	4.47
1010.593	-1.73
1011.018	-12.03
1011.443	-4.83
1011.868	-0.83
1012.293	-1.03
1012.718	-3.53
1013.143	-3.03
1013.567	0.37
1013.992	-2.33
1014.417	-13.63
1014.842	-4.43
1015.267	-10.93
1015.691	-0.93
1016.116	4.57
1016.541	-6.73
1016.965	0.47
1017.39	1.47
1017.814	0.07
1018.239	0.07
1018.663	-7.63
1019.088	-10.73
1019.512	3.57
1019.937	-0.03
1020.361	-11.43
1020.785	-11.33
1021.21	-7.03
1021.634	-11.23
1022.058	-1.23
1022.483	-4.83
1022.907	-3.13
1023.331	-5.93
1023.755	-4.93
1024.179	-3.23
1024.604	-7.53
1025.028	-7.43
1025.452	-5.93
1025.876	-2.53
1026.3	-2.73
1026.724	-11.83
1027.148	-9.73
1027.572	-9.03
1027.996	-2.33
1028.42	-5.93
1028.843	-9.53
1029.267	-9.43
1029.691	-4.83
1030.115	-7.33
1030.539	-11.33
1030.962	-10.63
1031.386	-12.23
1031.81	-3.23
1032.233	4.97
1032.657	-3.53
1033.08	0.17
1033.504	-6.13
1033.927	-5.33
1034.351	-4.13
1034.774	-10.73
1035.198	-3.33
1035.621	-5.63
1036.045	-8.03
1036.468	-3.43
1036.891	-13.83
1037.315	-5.63
1037.738	-9.73
1038.161	4.27
1038.584	-6.53
1039.008	-5.83
1039.431	2.27
1039.854	-0.33
1040.277	-7.03
1040.7	-8.13
1041.123	-5.73
1041.546	-6.43
1041.969	-7.03
1042.392	-3.43
1042.815	-3.23
1043.238	-5.33
1043.661	-3.23
1044.084	-5.23
1044.507	-7.53
1044.93	-7.43
1045.352	-10.53
1045.775	-5.83
1046.198	-2.43
1046.621	-0.53
1047.043	0.87
1047.466	7.87
1047.889	-4.63
1048.311	-3.13
1048.734	1.37
1049.156	-2.43
1049.579	3.77
1050.001	1.87
1050.424	0.17
1050.846	-3.33
1051.269	-1.03
1051.691	-11.13
1052.113	0.07
1052.536	1.97
1052.958	2.87
1053.38	-6.93
1053.802	-13.23
1054.225	2.37
1054.647	-9.83
1055.069	-9.83
1055.491	-2.43
1055.913	-8.03
1056.335	0.47
1056.757	-6.63
1057.179	-5.03
1057.601	-1.43
1058.023	-4.43
1058.445	-3.73
1058.867	-5.53
1059.289	-1.43
1059.711	-9.53
1060.133	-2.03
1060.555	-5.93
1060.976	-7.63
1061.398	-8.33
1061.82	-10.93
1062.241	-10.03
1062.663	-9.03
1063.085	-7.03
1063.506	-5.23
1063.928	-7.03
1064.35	-0.13
1064.771	-12.33
1065.193	-8.73
1065.614	-9.03
1066.035	-2.63
1066.457	-7.53
1066.878	-0.93
1067.3	-6.23
1067.721	0.07
1068.142	-7.63
1068.564	-3.43
1068.985	-9.83
1069.406	-4.33
1069.827	-9.43
1070.248	-3.43
1070.67	-10.13
1071.091	-9.53
1071.512	-7.63
1071.933	-6.93
1072.354	-13.03
1072.775	-5.43
1073.196	-4.83
1073.617	-3.23
1074.038	-1.43
1074.459	-5.03
1074.88	-5.53
1075.3	3.17
1075.721	-4.33
1076.142	-0.13
1076.563	-2.83
1076.983	-7.63
1077.404	-9.13
1077.825	-5.73
1078.246	-6.93
1078.666	-10.03
1079.087	-1.33
1079.507	-5.13
1079.928	-3.53
1080.348	-3.23
1080.769	-7.63
1081.189	-2.93
1081.61	-2.43
1082.03	-8.13
1082.451	-7.83
1082.871	-5.53
1083.291	-4.03
1083.711	-7.43
1084.132	-6.53
1084.552	-6.53
1084.972	-0.63
1085.392	-8.03
1085.813	-13.43
1086.233	-4.13
1086.653	-6.43
1087.073	-3.13
1087.493	-6.23
1087.913	-12.43
1088.333	-8.43
1088.753	-4.93
1089.173	2.17
1089.593	-6.33
1090.013	2.67
1090.433	-1.43
1090.852	-2.53
1091.272	-6.13
1091.692	-7.93
1092.112	-5.83
1092.531	-8.13
1092.951	-14.43
1093.371	-9.83
1093.79	-4.53
1094.21	-5.83
1094.63	-5.93
1095.049	-6.23
1095.469	0.67
1095.888	-2.23
1096.308	-0.23
1096.727	4.67
1097.146	-9.43
1097.566	-2.03
1097.985	-3.53
1098.405	-8.03
1098.824	-11.83
1099.243	-10.93
1099.662	-10.33
1100.082	-5.93
1100.501	-4.03
1100.92	-7.93
1101.339	-4.63
1101.758	-9.13
