Data from 20171114-ORNL-Ar_H_NY_Subt18_08-09-23-141.txt Node
Date: Tue Nov 14 08:09:23 EST 2017
User: Ender
Spectrometer: HR+D1039
Trigger mode: 0
Integration Time (sec): 2.730000E-2
Scans to average: 10
Electric dark correction enabled: true
Nonlinearity correction enabled: false
Boxcar width: 0
XAxis mode: Wavelengths
Number of Pixels in Spectrum: 2048
>>>>>Begin Spectral Data<<<<<
187.836	0.11
188.309	0.11
188.782	0.11
189.255	-2.49
189.728	-2.69
190.201	7.41
190.674	-1.19
191.147	6.01
191.619	-1.59
192.092	0.71
192.565	4.81
193.038	0.81
193.511	-1.29
193.984	-6.99
194.456	-3.69
194.929	2.61
195.402	-0.99
195.874	-1.49
196.347	1.41
196.82	-7.99
197.292	4.61
197.765	2.21
198.237	-2.89
198.71	-3.09
199.182	-0.49
199.655	1.21
200.127	1.71
200.6	1.41
201.072	-0.09
201.544	-6.09
202.017	-4.49
202.489	6.11
202.961	0.61
203.433	0.31
203.906	-9.49
204.378	-6.29
204.85	-2.89
205.322	-6.39
205.794	-2.69
206.266	-2.89
206.739	-9.39
207.211	3.81
207.683	-7.89
208.155	-3.09
208.627	-9.89
209.099	-5.49
209.57	-3.89
210.042	-4.59
210.514	-2.09
210.986	-3.39
211.458	-6.59
211.93	-2.89
212.402	0.11
212.873	-3.19
213.345	-7.79
213.817	-8.39
214.288	-2.89
214.76	-12.39
215.232	-4.39
215.703	-6.09
216.175	-4.29
216.646	-0.59
217.118	-2.19
217.589	-6.39
218.061	-0.89
218.532	-7.19
219.004	-2.09
219.475	-3.19
219.946	-4.49
220.418	-6.09
220.889	2.81
221.36	0.11
221.832	-2.49
222.303	-7.99
222.774	7.51
223.245	-8.49
223.717	-2.29
224.188	1.31
224.659	-3.89
225.13	-6.79
225.601	-6.49
226.072	2.61
226.543	0.81
227.014	1.81
227.485	-6.79
227.956	-10.79
228.427	-0.79
228.898	1.51
229.369	7.01
229.839	-3.69
230.31	-5.49
230.781	-0.29
231.252	-3.39
231.722	-7.19
232.193	-4.59
232.664	1.61
233.135	-0.29
233.605	2.11
234.076	-6.29
234.546	2.91
235.017	-2.49
235.487	-4.19
235.958	-3.59
236.428	-1.09
236.899	-2.89
237.369	-2.79
237.84	-1.59
238.31	2.51
238.78	-10.79
239.251	-6.49
239.721	-3.79
240.191	-5.19
240.662	-7.19
241.132	-1.99
241.602	-7.39
242.072	-5.09
242.542	4.31
243.013	-1.79
243.483	1.11
243.953	2.01
244.423	-1.69
244.893	-7.49
245.363	-2.69
245.833	0.91
246.303	-4.19
246.773	1.31
247.243	-0.29
247.712	0.21
248.182	-0.69
248.652	-0.49
249.122	-5.89
249.592	0.11
250.061	-1.49
250.531	6.31
251.001	-4.99
251.471	4.11
251.94	3.01
252.41	-0.79
252.879	-6.19
253.349	8.21
253.818	4.01
254.288	0.41
254.757	1.91
255.227	-0.39
255.696	-7.39
256.166	-0.69
256.635	-0.19
257.105	1.01
257.574	1.21
258.043	0.31
258.513	-1.59
258.982	-1.89
259.451	-1.99
259.92	-2.19
260.389	1.71
260.859	11.51
261.328	-3.29
261.797	0.21
262.266	2.61
262.735	5.51
263.204	4.31
263.673	0.81
264.142	6.61
264.611	-5.59
265.08	-6.09
265.549	-7.69
266.018	-1.39
266.487	-6.99
266.955	-8.59
267.424	-3.69
267.893	3.71
268.362	-6.69
268.83	4.21
269.299	9.71
269.768	-3.09
270.236	3.51
270.705	-5.19
271.174	-4.39
271.642	-1.09
272.111	-1.69
272.579	-2.59
273.048	0.91
273.516	-5.19
273.985	-1.89
274.453	6.11
274.922	7.41
275.39	-0.49
275.858	-8.79
276.327	10.31
276.795	9.51
277.263	0.41
277.731	12.11
278.2	0.61
278.668	4.31
279.136	10.81
279.604	3.01
280.072	0.21
280.54	2.61
281.008	-0.49
281.477	9.91
281.945	5.01
282.413	6.31
282.881	10.81
283.348	-0.79
283.816	3.61
284.284	8.71
284.752	13.91
285.22	3.61
285.688	5.41
286.156	4.11
286.623	14.91
287.091	5.11
287.559	4.91
288.026	4.51
288.494	6.31
288.962	-0.59
289.429	7.31
289.897	8.71
290.364	10.31
290.832	5.91
291.3	9.51
291.767	8.01
292.234	11.01
292.702	4.31
293.169	13.91
293.637	18.81
294.104	7.21
294.571	-1.39
295.039	5.71
295.506	6.81
295.973	6.51
296.44	12.81
296.908	8.41
297.375	12.51
297.842	13.01
298.309	10.91
298.776	9.71
299.243	13.41
299.71	2.21
300.177	16.91
300.644	6.41
301.111	10.91
301.578	14.21
302.045	11.71
302.512	10.71
302.979	19.81
303.446	19.81
303.913	12.41
304.379	9.51
304.846	20.81
305.313	15.61
305.78	11.71
306.246	21.01
306.713	16.31
307.18	21.61
307.646	16.11
308.113	13.41
308.579	15.51
309.046	15.91
309.512	15.01
309.979	7.51
310.445	18.41
310.912	21.11
311.378	21.31
311.845	19.11
312.311	21.71
312.777	22.71
313.244	23.51
313.71	30.41
314.176	19.41
314.642	18.01
315.109	19.91
315.575	21.91
316.041	29.71
316.507	19.41
316.973	26.21
317.439	18.61
317.905	23.01
318.371	28.81
318.837	23.41
319.303	24.51
319.769	26.01
320.235	28.31
320.701	25.71
321.167	21.41
321.633	20.41
322.099	27.81
322.564	24.61
323.03	23.21
323.496	21.01
323.962	26.21
324.427	24.01
324.893	30.91
325.359	28.31
325.824	28.81
326.29	21.91
326.755	28.71
327.221	30.61
327.686	28.61
328.152	37.31
328.617	26.71
329.083	36.61
329.548	38.51
330.014	38.61
330.479	29.61
330.944	30.61
331.41	29.91
331.875	27.51
332.34	32.51
332.805	27.41
333.271	34.91
333.736	23.51
334.201	34.91
334.666	35.61
335.131	41.01
335.596	39.91
336.061	37.51
336.526	27.71
336.991	30.91
337.456	44.91
337.921	30.81
338.386	28.21
338.851	35.11
339.316	33.31
339.781	38.71
340.246	39.11
340.711	33.41
341.175	38.51
341.64	32.71
342.105	38.71
342.569	37.51
343.034	41.61
343.499	39.41
343.963	39.61
344.428	51.71
344.893	47.31
345.357	44.71
345.822	44.31
346.286	55.01
346.751	55.71
347.215	50.81
347.679	53.61
348.144	67.51
348.608	61.01
349.073	54.61
349.537	61.71
350.001	59.81
350.465	64.91
350.93	60.81
351.394	64.81
351.858	54.91
352.322	68.91
352.786	60.11
353.25	71.01
353.715	78.21
354.179	77.21
354.643	88.71
355.107	93.71
355.571	78.21
356.035	73.41
356.498	83.81
356.962	85.21
357.426	92.21
357.89	86.11
358.354	61.01
358.818	64.11
359.281	66.01
359.745	53.71
360.209	61.61
360.673	52.51
361.136	63.41
361.6	70.61
362.064	60.81
362.527	67.51
362.991	71.01
363.454	65.61
363.918	59.91
364.381	59.21
364.845	62.71
365.308	69.51
365.772	68.01
366.235	71.51
366.698	66.61
367.162	68.11
367.625	71.61
368.088	72.21
368.552	70.01
369.015	73.61
369.478	78.11
369.941	79.91
370.404	76.91
370.867	75.31
371.331	82.81
371.794	88.21
372.257	78.51
372.72	83.11
373.183	86.41
373.646	74.21
374.109	80.91
374.572	81.71
375.035	85.51
375.497	83.81
375.96	84.61
376.423	78.51
376.886	91.51
377.349	87.61
377.811	80.21
378.274	86.41
378.737	87.51
379.199	93.91
379.662	85.31
380.125	90.51
380.587	86.51
381.05	97.41
381.512	96.11
381.975	101.71
382.437	102.51
382.9	97.41
383.362	102.41
383.825	104.71
384.287	110.51
384.75	99.61
385.212	101.81
385.674	115.01
386.136	116.01
386.599	109.11
387.061	114.91
387.523	105.91
387.985	114.51
388.447	118.51
388.91	102.91
389.372	103.81
389.834	110.41
390.296	108.81
390.758	114.51
391.22	117.21
391.682	125.41
392.144	130.11
392.606	129.81
393.068	125.21
393.529	137.21
393.991	126.41
394.453	119.61
394.915	112.41
395.377	121.71
395.838	118.41
396.3	118.31
396.762	120.91
397.224	118.81
397.685	115.71
398.147	122.31
398.608	119.11
399.07	119.21
399.531	125.61
399.993	125.71
400.454	138.61
400.916	138.11
401.377	129.11
401.839	134.71
402.3	131.41
402.762	149.41
403.223	159.01
403.684	154.91
404.145	146.51
404.607	146.21
405.068	140.81
405.529	153.01
405.99	167.71
406.451	156.51
406.913	157.41
407.374	151.21
407.835	151.71
408.296	150.81
408.757	160.81
409.218	165.41
409.679	161.61
410.14	161.61
410.601	161.41
411.062	161.71
411.522	168.31
411.983	156.11
412.444	158.51
412.905	163.31
413.366	165.21
413.826	182.11
414.287	202.21
414.748	249.31
415.208	236.91
415.669	199.71
416.13	193.71
416.59	193.41
417.051	196.31
417.511	210.91
417.972	219.41
418.432	239.01
418.893	268.81
419.353	241.21
419.814	187.11
420.274	182.61
420.734	175.41
421.195	177.81
421.655	179.31
422.115	181.51
422.576	179.91
423.036	189.11
423.496	192.31
423.956	201.11
424.416	214.21
424.876	251.31
425.336	244.61
425.797	255.01
426.257	246.21
426.717	229.31
427.177	223.71
427.637	207.71
428.097	221.31
428.556	225.71
429.016	254.01
429.476	247.81
429.936	259.01
430.396	263.11
430.856	268.01
431.315	289.81
431.775	320.31
432.235	345.81
432.694	321.81
433.154	328.31
433.614	364.81
434.073	304.31
434.533	268.31
434.993	250.91
435.452	250.21
435.912	268.71
436.371	265.81
436.83	258.51
437.29	253.91
437.749	233.31
438.209	236.91
438.668	255.81
439.127	267.01
439.587	245.81
440.046	234.41
440.505	242.81
440.964	256.91
441.424	294.01
441.883	292.11
442.342	252.51
442.801	218.11
443.26	217.51
443.719	218.61
444.178	215.91
444.637	214.01
445.096	213.91
445.555	222.21
446.014	219.11
446.473	215.41
446.932	231.61
447.391	221.21
447.849	224.61
448.308	220.81
448.767	221.91
449.226	232.51
449.685	236.71
450.143	245.31
450.602	233.21
451.061	223.61
451.519	222.91
451.978	222.01
452.436	225.81
452.895	232.21
453.353	243.11
453.812	237.81
454.27	234.31
454.729	238.31
455.187	236.81
455.646	242.81
456.104	243.61
456.562	252.81
457.021	258.01
457.479	252.11
457.937	265.31
458.395	253.71
458.854	240.91
459.312	252.91
459.77	259.21
460.228	248.41
460.686	237.11
461.144	245.81
461.602	241.21
462.06	247.21
462.518	261.91
462.976	250.11
463.434	256.21
463.892	257.21
464.35	268.11
464.808	286.51
465.266	264.61
465.724	258.51
466.181	268.81
466.639	277.21
467.097	283.21
467.555	296.21
468.012	300.81
468.47	301.01
468.928	327.11
469.385	331.01
469.843	339.91
470.3	338.91
470.758	347.61
471.215	373.71
471.673	392.21
472.13	397.21
472.588	411.81
473.045	360.21
473.503	374.31
473.96	392.91
474.417	395.91
474.875	424.91
475.332	462.81
475.789	443.91
476.246	447.51
476.704	472.21
477.161	496.51
477.618	508.41
478.075	535.61
478.532	585.11
478.989	656.11
479.446	750.61
479.903	729.31
480.36	753.11
480.817	805.81
481.274	898.61
481.731	966.11
482.188	1042.81
482.645	1161.81
483.102	1242.81
483.558	1368.81
484.015	1385.41
484.472	1369.21
484.929	1330.11
485.385	1300.01
485.842	1270.31
486.299	1219.81
486.755	1180.81
487.212	1000.51
487.668	862.31
488.125	795.21
488.582	737.91
489.038	713.31
489.494	679.61
489.951	657.61
490.407	643.31
490.864	627.51
491.32	614.41
491.776	624.21
492.233	628.71
492.689	602.81
493.145	585.41
493.602	589.61
494.058	603.51
494.514	595.31
494.97	620.31
495.426	638.91
495.882	607.21
496.338	593.31
496.794	606.91
497.251	593.11
497.707	618.11
498.163	623.81
498.618	622.91
499.074	625.41
499.53	656.41
499.986	651.71
500.442	617.61
500.898	606.41
501.354	601.71
501.809	606.51
502.265	609.71
502.721	624.41
503.177	626.31
503.632	624.81
504.088	634.21
504.543	658.11
504.999	676.71
505.455	645.91
505.91	628.81
506.366	631.31
506.821	629.51
507.277	623.91
507.732	621.01
508.187	616.61
508.643	630.11
509.098	631.91
509.553	652.61
510.009	655.21
510.464	656.61
510.919	680.81
511.375	679.71
511.83	703.21
512.285	718.21
512.74	761.01
513.195	778.61
513.65	760.11
514.105	747.61
514.56	758.71
515.015	763.41
515.47	795.41
515.925	770.41
516.38	773.31
516.835	775.81
517.29	760.41
517.745	762.51
518.2	751.41
518.655	748.51
519.109	724.51
519.564	735.41
520.019	720.61
520.474	728.81
520.928	723.41
521.383	712.61
521.838	699.21
522.292	701.01
522.747	700.71
523.201	703.51
523.656	694.41
524.11	693.81
524.565	685.51
525.019	697.01
525.474	697.91
525.928	698.81
526.382	698.81
526.837	693.91
527.291	697.41
527.745	688.71
528.2	701.01
528.654	686.21
529.108	682.51
529.562	689.81
530.016	688.41
530.47	681.01
530.925	675.31
531.379	682.71
531.833	696.91
532.287	700.91
532.741	702.41
533.195	693.11
533.649	699.61
534.103	704.81
534.556	703.81
535.01	700.51
535.464	690.31
535.918	704.11
536.372	712.31
536.826	714.81
537.279	701.71
537.733	707.61
538.187	703.31
538.64	708.51
539.094	711.81
539.548	716.31
540.001	723.51
540.455	724.41
540.908	744.21
541.362	727.21
541.815	744.41
542.269	753.31
542.722	766.31
543.175	769.91
543.629	765.31
544.082	780.71
544.536	791.21
544.989	784.71
545.442	792.61
545.895	791.71
546.349	790.11
546.802	790.71
547.255	801.31
547.708	807.11
548.161	821.61
548.614	819.61
549.067	818.91
549.52	822.31
549.973	811.11
550.426	808.91
550.879	796.31
551.332	799.91
551.785	810.41
552.238	805.01
552.691	830.41
553.144	837.51
553.596	850.71
554.049	865.61
554.502	887.31
554.955	902.71
555.407	900.41
555.86	897.41
556.313	895.61
556.765	884.31
557.218	892.11
557.67	882.01
558.123	877.81
558.576	869.81
559.028	882.21
559.48	885.11
559.933	875.41
560.385	851.91
560.838	823.81
561.29	802.41
561.742	791.51
562.195	785.31
562.647	767.11
563.099	781.61
563.551	780.21
564.004	786.91
564.456	781.41
564.908	770.91
565.36	744.31
565.812	733.51
566.264	718.21
566.716	719.31
567.168	699.61
567.62	711.21
568.072	706.71
568.524	698.51
568.976	695.01
569.428	682.21
569.88	688.91
570.332	695.01
570.784	700.21
571.235	692.61
571.687	713.21
572.139	710.21
572.59	715.61
573.042	713.51
573.494	710.11
573.945	710.61
574.397	697.21
574.849	697.11
575.3	699.21
575.752	688.81
576.203	686.21
576.655	690.31
577.106	684.41
577.557	671.21
578.009	671.41
578.46	668.01
578.912	667.81
579.363	671.31
579.814	669.21
580.265	667.61
580.717	669.21
581.168	671.51
581.619	686.41
582.07	679.81
582.521	683.51
582.972	675.71
583.423	669.91
583.875	676.51
584.326	682.81
584.777	702.31
585.227	721.21
585.678	733.41
586.129	742.51
586.58	767.31
587.031	782.01
587.482	795.51
587.933	817.01
588.384	819.01
588.834	785.21
589.285	770.91
589.736	783.01
590.186	772.61
590.637	781.81
591.088	750.51
591.538	742.41
591.989	740.31
592.439	745.01
592.89	715.51
593.34	714.21
593.791	709.71
594.241	701.41
594.692	705.11
595.142	698.21
595.593	698.41
596.043	713.11
596.493	718.61
596.943	713.41
597.394	723.71
597.844	713.51
598.294	736.21
598.744	770.41
599.195	794.71
599.645	846.71
600.095	881.21
600.545	946.81
600.995	983.01
601.445	1033.61
601.895	1089.61
602.345	1142.81
602.795	1120.21
603.245	1077.51
603.695	1029.21
604.145	990.11
604.594	928.31
605.044	879.61
605.494	820.11
605.944	774.31
606.393	761.71
606.843	738.91
607.293	741.51
607.743	737.11
608.192	744.31
608.642	755.71
609.091	755.11
609.541	764.11
609.99	765.71
610.44	765.61
610.889	733.11
611.339	705.01
611.788	689.41
612.238	698.21
612.687	706.21
613.136	704.51
613.586	716.81
614.035	704.41
614.484	715.31
614.933	711.91
615.383	713.01
615.832	715.61
616.281	705.91
616.73	687.51
617.179	661.71
617.628	647.61
618.077	640.31
618.526	629.31
618.975	620.51
619.424	616.51
619.873	612.91
620.322	623.01
620.771	614.91
621.22	612.91
621.669	589.51
622.118	586.11
622.567	589.71
623.015	580.31
623.464	573.31
623.913	571.21
624.361	563.21
624.81	556.91
625.259	562.91
625.707	558.41
626.156	557.51
626.604	569.31
627.053	572.91
627.501	572.71
627.95	578.11
628.398	591.61
628.847	582.11
629.295	572.31
629.744	579.71
630.192	573.81
630.64	564.81
631.089	550.41
631.537	547.31
631.985	537.31
632.433	542.81
632.881	521.41
633.33	543.11
633.778	529.21
634.226	529.11
634.674	540.41
635.122	547.71
635.57	559.51
636.018	575.91
636.466	567.31
636.914	565.31
637.362	579.91
637.81	590.71
638.258	592.21
638.705	592.11
639.153	624.11
639.601	629.71
640.049	659.31
640.497	674.81
640.944	709.61
641.392	650.51
641.84	629.51
642.287	588.91
642.735	572.41
643.182	564.21
643.63	566.91
644.078	571.31
644.525	579.21
644.973	588.41
645.42	596.51
645.867	618.61
646.315	632.01
646.762	663.41
647.21	690.11
647.657	702.31
648.104	740.71
648.551	756.31
648.999	818.61
649.446	894.91
649.893	973.61
650.34	1117.31
650.787	1329.51
651.234	1632.21
651.682	2124.81
652.129	2893.71
652.576	4107.81
653.023	5995.41
653.47	8054.61
653.917	9915.51
654.363	11311.61
654.81	12427.01
655.257	11765.11
655.704	7788.71
656.151	4700.41
656.598	3092.31
657.044	2229.41
657.491	1731.71
657.938	1393.51
658.385	1171.81
658.831	1034.71
659.278	925.41
659.724	829.51
660.171	767.01
660.618	714.41
661.064	682.11
661.511	653.01
661.957	651.61
662.404	639.91
662.85	646.11
663.296	628.01
663.743	569.51
664.189	537.01
664.635	534.11
665.082	535.01
665.528	540.61
665.974	533.81
666.42	514.21
666.867	513.71
667.313	492.61
667.759	477.21
668.205	464.91
668.651	458.91
669.097	456.51
669.543	445.21
669.989	456.21
670.435	458.51
670.881	461.81
671.327	461.41
671.773	481.71
672.219	513.91
672.665	566.91
673.11	605.71
673.556	650.11
674.002	687.61
674.448	674.21
674.893	571.41
675.339	489.01
675.785	449.31
676.23	427.71
676.676	409.51
677.122	392.01
677.567	384.31
678.013	385.21
678.458	361.91
678.904	372.61
679.349	358.11
679.794	363.61
680.24	358.91
680.685	358.81
681.131	360.41
681.576	365.81
682.021	375.51
682.466	363.31
682.912	360.81
683.357	359.31
683.802	395.81
684.247	428.11
684.692	472.31
685.137	518.21
685.583	549.21
686.028	580.51
686.473	542.11
686.918	456.81
687.363	428.31
687.807	403.01
688.252	385.11
688.697	371.51
689.142	349.61
689.587	351.41
690.032	340.11
690.477	361.21
690.921	364.01
691.366	396.91
691.811	407.31
692.255	445.31
692.7	476.01
693.145	521.31
693.589	757.51
694.034	1210.11
694.478	1612.81
694.923	1784.71
695.367	2312.91
695.812	1252.11
696.256	524.11
696.701	376.41
697.145	360.51
697.59	338.71
698.034	323.21
698.478	334.41
698.922	335.71
699.367	323.81
699.811	347.81
700.255	363.21
700.699	402.21
701.143	437.31
701.588	497.01
702.032	530.41
702.476	527.81
702.92	521.51
703.364	520.61
703.808	686.51
704.252	1120.61
704.696	1549.01
705.14	1724.91
705.584	2193.71
706.027	1095.31
706.471	553.51
706.915	415.41
707.359	367.81
707.803	329.31
708.246	321.21
708.69	321.51
709.134	324.71
709.577	315.21
710.021	326.51
710.465	308.21
710.908	310.51
711.352	301.41
711.795	325.21
712.239	377.81
712.682	402.11
713.126	424.71
713.569	465.41
714.012	372.11
714.456	315.31
714.899	300.41
715.342	280.41
715.786	272.51
716.229	265.81
716.672	265.51
717.115	257.51
717.558	258.21
718.002	260.11
718.445	272.81
718.888	294.01
719.331	304.91
719.774	327.11
720.217	316.81
720.66	289.41
721.103	272.01
721.546	265.31
721.989	259.01
722.432	241.41
722.874	244.51
723.317	245.11
723.76	239.11
724.203	269.11
724.645	336.61
725.088	474.01
725.531	601.61
725.974	664.41
726.416	570.81
726.859	313.41
727.301	253.81
727.744	247.91
728.187	241.91
728.629	246.21
729.071	258.41
729.514	268.81
729.956	278.21
730.399	287.51
730.841	297.11
731.283	283.21
731.726	279.61
732.168	274.11
732.61	285.61
733.053	291.51
733.495	322.91
733.937	364.71
734.379	424.41
734.821	460.81
735.263	587.21
735.705	928.61
736.148	1737.11
736.59	2746.21
737.032	3125.51
737.474	2550.71
737.916	863.41
738.357	454.01
738.799	341.71
739.241	310.51
739.683	290.41
740.125	312.81
740.567	308.61
741.008	326.91
741.45	340.11
741.892	324.81
742.334	368.21
742.775	371.41
743.217	350.11
743.658	287.71
744.1	270.91
744.542	276.11
744.983	338.01
745.425	366.61
745.866	361.21
746.307	292.71
746.749	291.31
747.19	340.01
747.632	505.31
748.073	988.11
748.514	2049.91
748.956	3007.41
749.397	3792.41
749.838	3124.41
750.279	3053.61
750.72	1551.41
751.162	580.01
751.603	339.51
752.044	260.01
752.485	228.71
752.926	213.71
753.367	207.11
753.808	205.41
754.249	198.31
754.69	192.01
755.131	186.21
755.572	198.71
756.013	189.81
756.453	186.51
756.894	197.31
757.335	196.81
757.776	206.51
758.216	209.61
758.657	206.51
759.098	210.61
759.538	239.81
759.979	289.31
760.42	417.01
760.86	792.61
761.301	2062.01
761.741	4812.51
762.182	6587.41
762.622	4676.31
763.063	1387.21
763.503	564.71
763.943	333.61
764.384	279.21
764.824	248.91
765.264	234.11
765.705	210.61
766.145	184.01
766.585	181.21
767.025	175.11
767.465	169.41
767.906	180.71
768.346	193.81
768.786	203.91
769.226	229.51
769.666	330.61
770.106	689.31
770.546	1715.61
770.986	2751.71
771.426	2426.21
771.866	831.01
772.306	345.91
772.745	217.21
773.185	176.11
773.625	166.41
774.065	158.21
774.505	169.61
774.944	220.11
775.384	371.51
775.824	591.41
776.263	558.21
776.703	279.01
777.142	163.91
777.582	140.51
778.021	123.11
778.461	124.21
778.9	133.41
779.34	134.71
779.779	108.81
780.219	108.51
780.658	116.31
781.097	114.21
781.537	117.21
781.976	113.51
782.415	111.61
782.855	112.31
783.294	111.11
783.733	113.01
784.172	114.81
784.611	109.31
785.05	113.11
785.489	114.41
785.928	122.01
786.367	123.51
786.806	124.01
787.245	129.01
787.684	143.31
788.123	159.61
788.562	142.21
789.001	136.01
789.44	123.01
789.879	117.61
790.317	118.31
790.756	138.31
791.195	134.31
791.634	155.41
792.072	223.81
792.511	406.61
792.95	1121.81
793.388	2216.51
793.827	1949.01
794.265	694.11
794.704	298.51
795.142	193.41
795.581	161.31
796.019	144.91
796.458	136.71
796.896	131.31
797.334	139.01
797.773	168.51
798.211	241.71
798.649	491.81
799.087	1096.61
799.526	1699.11
799.964	2157.31
800.402	2066.51
800.84	797.91
801.278	327.71
801.716	200.61
802.154	163.21
802.592	153.31
803.03	154.61
803.468	140.51
803.906	151.41
804.344	154.21
804.782	148.61
805.22	148.01
805.658	142.61
806.096	153.71
806.533	165.01
806.971	191.41
807.409	239.21
807.847	355.51
808.284	745.01
808.722	2051.21
809.16	3452.31
809.597	3417.21
810.035	5809.41
810.472	5879.91
810.91	2203.21
811.347	846.71
811.785	425.61
812.222	274.51
812.66	203.61
813.097	173.41
813.535	150.61
813.972	132.61
814.409	121.61
814.846	117.91
815.284	113.11
815.721	111.81
816.158	108.91
816.595	113.61
817.032	164.01
817.47	187.01
817.907	132.71
818.344	111.51
818.781	99.81
819.218	94.01
819.655	129.01
820.092	204.71
820.529	228.91
820.966	175.01
821.403	134.01
821.839	102.81
822.276	107.61
822.713	131.11
823.15	145.71
823.587	134.41
824.023	162.41
824.46	344.41
824.897	966.61
825.333	1385.61
825.77	605.01
826.206	245.91
826.643	147.11
827.08	105.91
827.516	92.81
827.953	86.31
828.389	80.81
828.825	73.51
829.262	69.71
829.698	64.01
830.135	71.51
830.571	69.11
831.007	69.21
831.443	70.31
831.88	70.41
832.316	59.81
832.752	69.11
833.188	77.41
833.624	67.91
834.06	73.21
834.497	75.51
834.933	75.71
835.369	77.51
835.805	67.81
836.241	87.01
836.677	82.81
837.112	98.11
837.548	100.41
837.984	144.31
838.42	220.31
838.856	563.11
839.292	1645.21
839.727	2376.61
840.163	1135.91
840.599	1031.61
841.034	2176.91
841.47	2182.41
841.906	813.41
842.341	350.41
842.777	211.01
843.212	208.11
843.648	188.71
844.083	113.81
844.519	83.41
844.954	76.41
845.39	57.61
845.825	61.21
846.261	57.11
846.696	55.31
847.131	61.51
847.566	63.81
848.002	55.81
848.437	52.81
848.872	60.41
849.307	67.21
849.742	95.51
850.177	199.31
850.613	598.21
851.048	913.31
851.483	394.61
851.918	161.51
852.353	88.61
852.788	59.61
853.223	48.81
853.657	55.91
854.092	49.81
854.527	44.81
854.962	45.61
855.397	43.31
855.832	53.91
856.266	42.41
856.701	44.11
857.136	41.81
857.57	46.41
858.005	53.81
858.44	63.01
858.874	45.01
859.309	58.71
859.743	44.21
860.178	54.91
860.612	38.01
861.047	51.11
861.481	72.61
861.915	71.71
862.35	55.71
862.784	38.81
863.218	39.61
863.653	34.91
864.087	47.51
864.521	62.01
864.955	71.41
865.39	168.11
865.824	180.71
866.258	125.61
866.692	177.31
867.126	190.41
867.56	109.61
867.994	60.81
868.428	46.91
868.862	50.61
869.296	55.51
869.73	58.41
870.164	60.61
870.598	52.31
871.031	41.01
871.465	35.81
871.899	31.91
872.333	29.31
872.766	25.61
873.2	27.21
873.634	28.71
874.067	29.91
874.501	26.21
874.935	37.71
875.368	33.11
875.802	26.41
876.235	20.91
876.669	24.91
877.102	27.81
877.535	31.81
877.969	26.41
878.402	31.71
878.836	16.81
879.269	24.31
879.702	24.21
880.135	25.81
880.569	23.41
881.002	27.51
881.435	17.31
881.868	18.81
882.301	22.61
882.734	16.41
883.167	26.61
883.601	21.41
884.034	22.31
884.467	16.41
884.899	25.61
885.332	22.51
885.765	13.71
886.198	18.11
886.631	18.51
887.064	19.51
887.497	19.21
887.929	29.71
888.362	15.51
888.795	6.71
889.228	20.01
889.66	22.91
890.093	19.91
890.526	19.31
890.958	20.11
891.391	22.51
891.823	24.91
892.256	17.11
892.688	12.01
893.121	20.31
893.553	16.01
893.985	24.71
894.418	22.01
894.85	10.41
895.282	13.31
895.715	20.51
896.147	18.71
896.579	15.31
897.011	19.71
897.444	21.61
897.876	13.01
898.308	17.81
898.74	15.11
899.172	11.91
899.604	21.81
900.036	27.31
900.468	15.31
900.9	14.31
901.332	18.61
901.764	11.81
902.196	14.71
902.628	16.61
903.06	23.41
903.491	34.01
903.923	23.31
904.355	24.61
904.787	21.01
905.218	25.31
905.65	22.01
906.082	22.41
906.513	13.61
906.945	24.01
907.376	16.61
907.808	21.71
908.239	25.21
908.671	22.01
909.102	18.21
909.534	25.81
909.965	52.11
910.397	99.11
910.828	343.81
911.259	488.21
911.691	225.01
912.122	117.71
912.553	56.21
912.984	38.31
913.415	31.41
913.847	26.91
914.278	16.91
914.709	18.31
915.14	19.01
915.571	16.11
916.002	14.31
916.433	22.71
916.864	19.21
917.295	8.51
917.726	21.51
918.157	14.21
918.587	32.21
919.018	20.41
919.449	21.31
919.88	29.61
920.311	34.71
920.741	56.01
921.172	176.11
921.603	156.91
922.033	73.81
922.464	46.11
922.895	27.11
923.325	24.61
923.756	15.01
924.186	17.11
924.617	19.91
925.047	19.31
925.478	19.71
925.908	22.81
926.338	13.41
926.769	10.91
927.199	15.41
927.629	8.81
928.06	20.11
928.49	18.01
928.92	12.71
929.35	9.51
929.78	10.41
930.21	7.11
930.641	10.61
931.071	7.71
931.501	2.81
931.931	9.21
932.361	9.71
932.791	12.11
933.221	1.61
933.651	2.41
934.08	17.71
934.51	31.71
934.94	9.71
935.37	6.21
935.8	11.61
936.229	9.21
936.659	8.61
937.089	3.21
937.519	17.81
937.948	24.91
938.378	18.91
938.807	5.21
939.237	7.91
939.666	11.31
940.096	-2.09
940.525	6.61
940.955	0.81
941.384	3.81
941.814	0.21
942.243	-5.49
942.672	5.81
943.102	0.11
943.531	2.21
943.96	-3.59
944.39	-0.39
944.819	1.71
945.248	1.61
945.677	1.91
946.106	5.61
946.535	2.11
946.964	5.31
947.393	5.81
947.822	0.21
948.251	-5.39
948.68	6.71
949.109	3.11
949.538	4.41
949.967	0.61
950.396	0.01
950.825	1.91
951.254	-0.19
951.682	-4.79
952.111	4.71
952.54	7.21
952.969	-4.39
953.397	-3.39
953.826	2.21
954.254	-2.19
954.683	1.01
955.112	-1.29
955.54	2.11
955.969	-2.69
956.397	-4.59
956.826	-5.39
957.254	10.31
957.682	0.21
958.111	1.11
958.539	-3.89
958.967	-0.89
959.396	-1.09
959.824	4.11
960.252	5.61
960.68	-4.99
961.109	-0.59
961.537	-3.49
961.965	-0.89
962.393	2.31
962.821	-5.59
963.249	0.61
963.677	4.81
964.105	8.51
964.533	47.01
964.961	45.21
965.389	21.41
965.817	9.21
966.245	2.61
966.672	3.51
967.1	-4.89
967.528	-1.99
967.956	-1.09
968.383	-0.29
968.811	0.31
969.239	-3.49
969.666	-7.29
970.094	2.31
970.522	-0.99
970.949	-0.49
971.377	-4.29
971.804	-4.19
972.232	-4.09
972.659	-0.79
973.087	3.31
973.514	-7.49
973.941	-7.79
974.369	6.11
974.796	-2.49
975.223	-3.59
975.651	-0.69
976.078	6.71
976.505	4.41
976.932	4.51
977.359	17.31
977.786	14.81
978.214	3.81
978.641	-3.39
979.068	-0.39
979.495	-5.99
979.922	1.51
980.349	4.71
980.776	9.21
981.202	-0.49
981.629	2.11
982.056	6.81
982.483	-2.89
982.91	-1.09
983.337	-6.89
983.763	4.31
984.19	-9.09
984.617	-5.59
985.043	-13.29
985.47	-4.99
985.897	-2.89
986.323	-8.39
986.75	1.81
987.176	0.41
987.603	1.31
988.029	3.31
988.456	3.81
988.882	4.11
989.308	-7.49
989.735	-7.09
990.161	0.11
990.587	-2.19
991.014	-0.19
991.44	6.31
991.866	-2.59
992.292	-5.89
992.719	-5.39
993.145	1.01
993.571	-2.29
993.997	-7.09
994.423	-4.09
994.849	-2.19
995.275	1.11
995.701	-3.79
996.127	-5.09
996.553	0.91
996.979	-0.99
997.405	2.31
997.83	-6.99
998.256	-1.19
998.682	1.81
999.108	-8.59
999.534	0.91
999.959	-0.79
1000.385	-5.89
1000.811	-1.59
1001.236	-7.49
1001.662	-8.49
1002.087	-4.09
1002.513	2.11
1002.938	0.91
1003.364	1.71
1003.789	-2.89
1004.215	7.71
1004.64	-3.89
1005.066	-4.69
1005.491	3.81
1005.916	1.81
1006.342	-1.59
1006.767	-7.99
1007.192	9.21
1007.617	-1.49
1008.042	-2.69
1008.468	-3.39
1008.893	-0.79
1009.318	-7.09
1009.743	-5.19
1010.168	1.31
1010.593	4.01
1011.018	-4.79
1011.443	-9.79
1011.868	-1.89
1012.293	-7.29
1012.718	-11.39
1013.143	5.31
1013.567	1.51
1013.992	-0.19
1014.417	-7.99
1014.842	5.01
1015.267	-0.39
1015.691	-1.89
1016.116	3.81
1016.541	-3.89
1016.965	4.51
1017.39	6.21
1017.814	6.41
1018.239	0.01
1018.663	-3.29
1019.088	-9.19
1019.512	-7.49
1019.937	-1.39
1020.361	-7.89
1020.785	-6.59
1021.21	-4.29
1021.634	-4.79
1022.058	-2.79
1022.483	2.91
1022.907	-5.59
1023.331	-0.49
1023.755	-4.89
1024.179	-1.69
1024.604	-3.59
1025.028	-5.49
1025.452	-1.69
1025.876	-1.09
1026.3	3.91
1026.724	-9.19
1027.148	-2.79
1027.572	-13.19
1027.996	-5.89
1028.42	-8.39
1028.843	-5.89
1029.267	-1.29
1029.691	-0.59
1030.115	-0.39
1030.539	-9.79
1030.962	-3.89
1031.386	-7.29
1031.81	2.21
1032.233	-0.79
1032.657	-1.59
1033.08	-1.59
1033.504	-6.09
1033.927	1.11
1034.351	2.91
1034.774	-3.39
1035.198	-2.69
1035.621	-0.29
1036.045	-6.19
1036.468	-3.49
1036.891	-13.09
1037.315	-8.99
1037.738	-8.79
1038.161	1.61
1038.584	-6.99
1039.008	-5.29
1039.431	0.61
1039.854	3.71
1040.277	-10.09
1040.7	-9.59
1041.123	-5.39
1041.546	-5.59
1041.969	-4.79
1042.392	-0.19
1042.815	2.31
1043.238	-3.19
1043.661	3.11
1044.084	-6.99
1044.507	-7.89
1044.93	-5.19
1045.352	-3.39
1045.775	0.41
1046.198	2.11
1046.621	-1.89
1047.043	0.51
1047.466	4.41
1047.889	-6.69
1048.311	-7.99
1048.734	-0.39
1049.156	-4.39
1049.579	-1.09
1050.001	-3.89
1050.424	5.41
1050.846	-5.39
1051.269	0.41
1051.691	-3.19
1052.113	-7.19
1052.536	-2.39
1052.958	-5.09
1053.38	1.21
1053.802	-3.79
1054.225	6.81
1054.647	-8.99
1055.069	-3.19
1055.491	-3.59
1055.913	-6.99
1056.335	-0.69
1056.757	-3.89
1057.179	-13.59
1057.601	-8.79
1058.023	-2.59
1058.445	0.41
1058.867	-8.69
1059.289	-4.39
1059.711	-3.89
1060.133	-1.49
1060.555	-1.69
1060.976	-7.79
1061.398	-2.99
1061.82	0.11
1062.241	-4.19
1062.663	-5.29
1063.085	-5.19
1063.506	-0.99
1063.928	-2.59
1064.35	-4.89
1064.771	-7.99
1065.193	-2.69
1065.614	-12.59
1066.035	-3.49
1066.457	-2.99
1066.878	-1.19
1067.3	-10.49
1067.721	-0.49
1068.142	-2.89
1068.564	-7.09
1068.985	-6.99
1069.406	1.81
1069.827	-1.59
1070.248	-2.89
1070.67	-7.59
1071.091	-3.99
1071.512	-5.39
1071.933	-4.49
1072.354	-7.59
1072.775	-5.99
1073.196	-6.69
1073.617	-10.39
1074.038	-9.09
1074.459	-7.69
1074.88	-8.59
1075.3	-3.49
1075.721	-5.49
1076.142	-1.49
1076.563	0.81
1076.983	-12.99
1077.404	-9.69
1077.825	-14.79
1078.246	1.61
1078.666	-11.19
1079.087	-2.29
1079.507	-6.79
1079.928	2.81
1080.348	-4.49
1080.769	-5.49
1081.189	-3.69
1081.61	3.91
1082.03	-3.59
1082.451	-6.69
1082.871	-2.39
1083.291	-3.39
1083.711	-6.89
1084.132	-4.49
1084.552	-3.59
1084.972	-0.89
1085.392	-7.49
1085.813	-13.69
1086.233	-4.19
1086.653	-6.39
1087.073	-1.49
1087.493	-4.49
1087.913	-6.49
1088.333	-12.59
1088.753	-7.29
1089.173	3.11
1089.593	-3.89
1090.013	-2.49
1090.433	-1.09
1090.852	-0.39
1091.272	-4.39
1091.692	-1.59
1092.112	-1.79
1092.531	-11.49
1092.951	-10.99
1093.371	-5.19
1093.79	-0.49
1094.21	-3.19
1094.63	-0.09
1095.049	-6.59
1095.469	-1.79
1095.888	-2.89
1096.308	2.31
1096.727	1.11
1097.146	-3.69
1097.566	-0.19
1097.985	-0.99
1098.405	-0.29
1098.824	-6.99
1099.243	-5.99
1099.662	-6.89
1100.082	-6.89
1100.501	4.71
1100.92	-5.59
1101.339	-2.89
1101.758	-6.19
