Data from 20171114-ORNL-Ar_H_NY_Subt18_08-05-02-936.txt Node
Date: Tue Nov 14 08:05:02 EST 2017
User: Ender
Spectrometer: HR+D1039
Trigger mode: 0
Integration Time (sec): 2.730000E-2
Scans to average: 10
Electric dark correction enabled: true
Nonlinearity correction enabled: false
Boxcar width: 0
XAxis mode: Wavelengths
Number of Pixels in Spectrum: 2048
>>>>>Begin Spectral Data<<<<<
187.836	-4.93
188.309	-4.93
188.782	-4.93
189.255	1.97
189.728	2.67
190.201	7.37
190.674	1.77
191.147	0.87
191.619	-8.33
192.092	1.27
192.565	0.47
193.038	-4.03
193.511	-0.13
193.984	-0.23
194.456	-4.43
194.929	6.67
195.402	-3.13
195.874	2.17
196.347	0.07
196.82	-12.93
197.292	6.47
197.765	1.57
198.237	-1.13
198.71	4.27
199.182	-3.83
199.655	1.87
200.127	3.77
200.6	-1.33
201.072	1.77
201.544	-3.43
202.017	-4.93
202.489	-0.93
202.961	-0.83
203.433	0.37
203.906	-5.13
204.378	-2.73
204.85	0.07
205.322	-9.43
205.794	-4.33
206.266	-6.73
206.739	-6.73
207.211	-0.43
207.683	-12.23
208.155	-3.73
208.627	-5.43
209.099	0.47
209.57	-5.03
210.042	-5.23
210.514	-3.53
210.986	1.97
211.458	-9.63
211.93	-2.63
212.402	0.37
212.873	-8.03
213.345	-6.73
213.817	-15.03
214.288	-6.83
214.76	-10.03
215.232	-2.33
215.703	0.17
216.175	-1.33
216.646	-5.63
217.118	-4.13
217.589	-3.13
218.061	-1.33
218.532	-6.13
219.004	3.27
219.475	0.97
219.946	-0.13
220.418	-3.13
220.889	6.57
221.36	-4.83
221.832	-7.93
222.303	-3.93
222.774	-6.53
223.245	-6.23
223.717	-4.63
224.188	-3.73
224.659	-5.73
225.13	-5.63
225.601	-3.83
226.072	-1.43
226.543	0.37
227.014	-3.53
227.485	-5.53
227.956	-2.83
228.427	-2.13
228.898	-1.53
229.369	-3.23
229.839	-4.73
230.31	-8.33
230.781	4.27
231.252	-1.83
231.722	-10.53
232.193	0.57
232.664	1.67
233.135	0.57
233.605	-5.43
234.076	-6.13
234.546	5.47
235.017	7.37
235.487	0.57
235.958	0.37
236.428	2.77
236.899	8.67
237.369	3.47
237.84	-0.83
238.31	7.17
238.78	3.67
239.251	-3.13
239.721	-1.33
240.191	2.57
240.662	0.07
241.132	0.57
241.602	-0.33
242.072	2.37
242.542	9.77
243.013	-1.23
243.483	8.77
243.953	3.07
244.423	5.97
244.893	-3.83
245.363	5.87
245.833	4.07
246.303	-1.53
246.773	15.57
247.243	4.67
247.712	2.57
248.182	13.97
248.652	6.77
249.122	-5.23
249.592	12.87
250.061	27.47
250.531	31.27
251.001	19.67
251.471	19.47
251.94	20.67
252.41	9.97
252.879	-1.73
253.349	16.97
253.818	16.97
254.288	4.67
254.757	5.67
255.227	8.57
255.696	1.47
256.166	8.27
256.635	6.87
257.105	10.97
257.574	10.07
258.043	12.17
258.513	13.37
258.982	15.57
259.451	6.67
259.92	10.07
260.389	13.07
260.859	14.77
261.328	10.97
261.797	19.67
262.266	9.97
262.735	12.17
263.204	4.67
263.673	3.37
264.142	5.37
264.611	0.67
265.08	-8.53
265.549	4.67
266.018	2.47
266.487	1.67
266.955	2.27
267.424	4.17
267.893	7.37
268.362	-0.23
268.83	3.47
269.299	15.07
269.768	9.07
270.236	11.77
270.705	9.37
271.174	12.17
271.642	8.57
272.111	9.57
272.579	18.37
273.048	29.67
273.516	30.47
273.985	37.47
274.453	25.57
274.922	22.17
275.39	7.87
275.858	9.67
276.327	6.67
276.795	23.27
277.263	12.97
277.731	25.07
278.2	56.97
278.668	56.97
279.136	59.67
279.604	24.97
280.072	17.27
280.54	13.87
281.008	14.27
281.477	12.57
281.945	15.47
282.413	19.37
282.881	17.27
283.348	12.87
283.816	13.47
284.284	14.97
284.752	21.57
285.22	18.57
285.688	14.87
286.156	19.77
286.623	52.47
287.091	57.77
287.559	32.97
288.026	19.47
288.494	18.27
288.962	5.77
289.429	11.07
289.897	23.37
290.364	13.27
290.832	23.07
291.3	23.07
291.767	23.37
292.234	22.07
292.702	15.47
293.169	16.97
293.637	27.27
294.104	18.47
294.571	12.47
295.039	12.57
295.506	14.87
295.973	14.17
296.44	21.47
296.908	19.77
297.375	20.07
297.842	25.17
298.309	16.77
298.776	13.67
299.243	24.67
299.71	14.07
300.177	23.47
300.644	23.47
301.111	24.57
301.578	25.37
302.045	23.57
302.512	24.77
302.979	28.27
303.446	22.77
303.913	20.17
304.379	22.67
304.846	30.07
305.313	33.07
305.78	25.07
306.246	31.67
306.713	33.27
307.18	28.57
307.646	35.87
308.113	28.07
308.579	28.97
309.046	29.17
309.512	23.47
309.979	21.07
310.445	29.67
310.912	32.97
311.378	35.47
311.845	34.07
312.311	33.17
312.777	38.47
313.244	32.37
313.71	31.17
314.176	37.97
314.642	43.97
315.109	33.47
315.575	38.27
316.041	40.77
316.507	35.97
316.973	43.37
317.439	34.57
317.905	42.57
318.371	35.77
318.837	36.37
319.303	33.77
319.769	37.87
320.235	35.87
320.701	37.57
321.167	38.77
321.633	33.17
322.099	45.97
322.564	43.97
323.03	41.47
323.496	46.47
323.962	43.67
324.427	42.07
324.893	40.77
325.359	46.57
325.824	38.27
326.29	37.27
326.755	44.97
327.221	44.97
327.686	41.97
328.152	50.37
328.617	42.87
329.083	52.07
329.548	56.67
330.014	51.77
330.479	45.07
330.944	46.87
331.41	51.67
331.875	47.87
332.34	46.57
332.805	47.07
333.271	44.47
333.736	46.47
334.201	51.17
334.666	56.07
335.131	53.17
335.596	57.27
336.061	52.87
336.526	46.07
336.991	51.27
337.456	61.57
337.921	56.67
338.386	44.27
338.851	47.27
339.316	48.77
339.781	45.77
340.246	51.37
340.711	50.47
341.175	49.47
341.64	48.17
342.105	51.27
342.569	61.07
343.034	63.77
343.499	52.97
343.963	52.07
344.428	59.57
344.893	65.67
345.357	61.77
345.822	65.57
346.286	74.67
346.751	71.87
347.215	71.27
347.679	77.27
348.144	104.77
348.608	83.87
349.073	73.17
349.537	74.97
350.001	83.67
350.465	90.37
350.93	73.97
351.394	88.77
351.858	76.87
352.322	86.87
352.786	84.77
353.25	105.37
353.715	110.97
354.179	100.37
354.643	129.37
355.107	128.57
355.571	107.37
356.035	103.77
356.498	119.07
356.962	124.97
357.426	131.77
357.89	118.07
358.354	91.87
358.818	85.37
359.281	79.47
359.745	76.27
360.209	75.17
360.673	75.07
361.136	74.07
361.6	84.07
362.064	85.17
362.527	88.07
362.991	83.57
363.454	78.67
363.918	75.57
364.381	77.27
364.845	78.37
365.308	81.77
365.772	85.27
366.235	82.77
366.698	84.77
367.162	88.67
367.625	90.87
368.088	87.47
368.552	88.77
369.015	93.07
369.478	99.27
369.941	98.37
370.404	92.67
370.867	109.07
371.331	111.47
371.794	119.87
372.257	113.27
372.72	114.47
373.183	103.97
373.646	94.97
374.109	99.17
374.572	106.07
375.035	110.07
375.497	106.47
375.96	108.07
376.423	106.57
376.886	113.47
377.349	116.97
377.811	99.67
378.274	106.97
378.737	106.17
379.199	107.87
379.662	116.97
380.125	119.47
380.587	121.47
381.05	118.87
381.512	127.47
381.975	131.87
382.437	128.17
382.9	123.07
383.362	128.87
383.825	138.67
384.287	142.27
384.75	137.87
385.212	140.97
385.674	138.17
386.136	134.77
386.599	123.77
387.061	125.47
387.523	128.77
387.985	131.77
388.447	145.07
388.91	147.17
389.372	162.57
389.834	151.57
390.296	137.57
390.758	148.47
391.22	166.17
391.682	202.97
392.144	288.57
392.606	227.37
393.068	163.17
393.529	171.07
393.991	147.27
394.453	144.77
394.915	151.77
395.377	183.27
395.838	213.67
396.3	153.07
396.762	140.07
397.224	129.97
397.685	131.97
398.147	129.57
398.608	128.67
399.07	128.17
399.531	134.47
399.993	141.37
400.454	150.77
400.916	142.37
401.377	144.37
401.839	144.97
402.3	142.67
402.762	164.57
403.223	169.97
403.684	167.77
404.145	156.17
404.607	151.47
405.068	163.97
405.529	164.47
405.99	192.87
406.451	174.37
406.913	171.67
407.374	163.47
407.835	162.37
408.296	165.47
408.757	166.17
409.218	180.67
409.679	175.67
410.14	177.77
410.601	170.37
411.062	178.27
411.522	188.07
411.983	183.67
412.444	167.97
412.905	177.07
413.366	183.47
413.826	194.47
414.287	219.37
414.748	255.77
415.208	243.07
415.669	200.57
416.13	202.07
416.59	202.37
417.051	208.57
417.511	213.97
417.972	232.77
418.432	249.87
418.893	281.47
419.353	249.57
419.814	191.77
420.274	178.57
420.734	184.97
421.195	188.57
421.655	189.27
422.115	191.37
422.576	191.87
423.036	187.47
423.496	200.77
423.956	211.47
424.416	217.57
424.876	258.87
425.336	251.17
425.797	258.27
426.257	246.77
426.717	235.07
427.177	218.97
427.637	217.97
428.097	235.47
428.556	240.57
429.016	258.37
429.476	255.47
429.936	266.87
430.396	271.07
430.856	286.47
431.315	310.97
431.775	336.07
432.235	369.87
432.694	341.87
433.154	357.47
433.614	374.67
434.073	331.07
434.533	275.47
434.993	259.07
435.452	272.67
435.912	287.47
436.371	275.87
436.83	281.97
437.29	265.47
437.749	239.37
438.209	241.57
438.668	261.17
439.127	274.17
439.587	255.77
440.046	240.77
440.505	253.67
440.964	269.67
441.424	312.17
441.883	304.87
442.342	255.07
442.801	225.07
443.26	219.87
443.719	216.87
444.178	212.97
444.637	204.27
445.096	213.77
445.555	215.97
446.014	212.87
446.473	219.97
446.932	221.37
447.391	219.17
447.849	215.57
448.308	210.07
448.767	214.07
449.226	227.27
449.685	223.67
450.143	239.57
450.602	233.17
451.061	226.57
451.519	221.97
451.978	226.87
452.436	228.57
452.895	232.27
453.353	246.97
453.812	228.77
454.27	233.27
454.729	230.07
455.187	239.37
455.646	228.57
456.104	249.47
456.562	254.57
457.021	258.37
457.479	253.97
457.937	266.07
458.395	255.37
458.854	240.87
459.312	248.67
459.77	265.97
460.228	249.97
460.686	230.47
461.144	242.87
461.602	237.67
462.06	230.97
462.518	247.87
462.976	241.87
463.434	249.07
463.892	259.27
464.35	272.77
464.808	290.87
465.266	260.67
465.724	267.67
466.181	269.57
466.639	263.97
467.097	281.57
467.555	293.27
468.012	297.27
468.47	303.77
468.928	318.67
469.385	327.97
469.843	341.77
470.3	338.57
470.758	353.17
471.215	379.07
471.673	399.87
472.13	398.07
472.588	398.87
473.045	366.27
473.503	365.17
473.96	376.17
474.417	392.77
474.875	421.87
475.332	469.97
475.789	449.87
476.246	449.67
476.704	472.17
477.161	496.17
477.618	505.87
478.075	547.87
478.532	608.07
478.989	681.57
479.446	783.77
479.903	750.07
480.36	793.27
480.817	853.27
481.274	944.77
481.731	1048.37
482.188	1139.47
482.645	1281.37
483.102	1394.17
483.558	1518.37
484.015	1576.77
484.472	1557.47
484.929	1498.87
485.385	1450.37
485.842	1412.87
486.299	1343.37
486.755	1280.27
487.212	1082.97
487.668	899.37
488.125	840.17
488.582	755.47
489.038	735.07
489.494	706.07
489.951	673.67
490.407	659.67
490.864	636.07
491.32	631.37
491.776	636.87
492.233	631.67
492.689	592.47
493.145	583.27
493.602	579.67
494.058	597.07
494.514	604.57
494.97	624.77
495.426	632.07
495.882	611.07
496.338	608.37
496.794	612.87
497.251	606.57
497.707	625.67
498.163	613.97
498.618	630.17
499.074	639.57
499.53	661.77
499.986	659.07
500.442	635.47
500.898	620.17
501.354	610.17
501.809	620.37
502.265	631.47
502.721	641.47
503.177	658.27
503.632	654.37
504.088	666.07
504.543	703.57
504.999	690.27
505.455	646.57
505.91	606.67
506.366	621.27
506.821	615.37
507.277	600.77
507.732	617.37
508.187	611.27
508.643	613.67
509.098	619.07
509.553	637.57
510.009	644.47
510.464	657.17
510.919	671.97
511.375	676.67
511.83	690.07
512.285	700.37
512.74	736.87
513.195	763.07
513.65	756.67
514.105	750.37
514.56	767.67
515.015	774.77
515.47	796.67
515.925	772.67
516.38	765.27
516.835	783.47
517.29	767.07
517.745	753.67
518.2	743.27
518.655	730.17
519.109	734.47
519.564	727.97
520.019	713.67
520.474	717.17
520.928	714.37
521.383	703.87
521.838	691.17
522.292	702.87
522.747	684.17
523.201	686.97
523.656	682.17
524.11	673.77
524.565	670.47
525.019	669.47
525.474	688.27
525.928	687.77
526.382	682.77
526.837	683.57
527.291	681.97
527.745	679.17
528.2	685.87
528.654	678.57
529.108	675.97
529.562	672.97
530.016	666.87
530.47	664.67
530.925	679.87
531.379	676.67
531.833	686.77
532.287	686.97
532.741	681.87
533.195	687.37
533.649	701.67
534.103	706.77
534.556	698.27
535.01	698.37
535.464	684.77
535.918	698.77
536.372	700.97
536.826	689.27
537.279	682.17
537.733	686.47
538.187	693.27
538.64	694.87
539.094	705.37
539.548	709.57
540.001	702.67
540.455	700.47
540.908	707.87
541.362	704.17
541.815	722.77
542.269	740.77
542.722	732.37
543.175	750.17
543.629	753.37
544.082	758.17
544.536	770.87
544.989	759.47
545.442	768.97
545.895	767.57
546.349	775.77
546.802	761.77
547.255	774.47
547.708	776.87
548.161	789.87
548.614	792.27
549.067	812.07
549.52	800.17
549.973	786.87
550.426	784.77
550.879	767.07
551.332	771.87
551.785	777.87
552.238	777.27
552.691	799.07
553.144	803.97
553.596	821.97
554.049	835.77
554.502	867.87
554.955	884.57
555.407	878.67
555.86	878.47
556.313	864.57
556.765	853.27
557.218	847.87
557.67	853.37
558.123	844.97
558.576	844.67
559.028	849.87
559.48	860.37
559.933	848.87
560.385	814.77
560.838	778.57
561.29	750.07
561.742	757.97
562.195	742.37
562.647	738.77
563.099	750.97
563.551	738.47
564.004	748.87
564.456	740.67
564.908	726.47
565.36	724.27
565.812	709.27
566.264	692.17
566.716	691.17
567.168	689.97
567.62	695.47
568.072	675.97
568.524	670.47
568.976	660.77
569.428	648.47
569.88	644.07
570.332	650.87
570.784	656.47
571.235	653.47
571.687	667.77
572.139	673.97
572.59	681.97
573.042	681.27
573.494	679.37
573.945	679.57
574.397	659.47
574.849	664.77
575.3	657.17
575.752	658.87
576.203	650.47
576.655	650.97
577.106	648.27
577.557	635.87
578.009	633.77
578.46	634.87
578.912	646.57
579.363	637.47
579.814	648.37
580.265	636.77
580.717	640.27
581.168	643.77
581.619	638.87
582.07	654.77
582.521	645.67
582.972	645.67
583.423	654.07
583.875	645.47
584.326	672.77
584.777	712.07
585.227	783.57
585.678	881.47
586.129	961.37
586.58	1023.27
587.031	1119.17
587.482	1278.57
587.933	1460.47
588.384	1250.47
588.834	938.47
589.285	770.57
589.736	743.27
590.186	726.17
590.637	729.47
591.088	709.27
591.538	691.77
591.989	691.97
592.439	691.07
592.89	681.27
593.34	667.17
593.791	669.17
594.241	673.07
594.692	672.97
595.142	664.97
595.593	653.87
596.043	667.97
596.493	665.37
596.943	687.17
597.394	682.47
597.844	682.07
598.294	693.27
598.744	708.27
599.195	725.17
599.645	773.57
600.095	816.57
600.545	863.37
600.995	917.17
601.445	962.57
601.895	1028.67
602.345	1077.27
602.795	1045.87
603.245	1010.87
603.695	958.17
604.145	898.07
604.594	853.47
605.044	808.67
605.494	745.67
605.944	706.97
606.393	694.27
606.843	691.27
607.293	691.47
607.743	681.17
608.192	706.67
608.642	707.77
609.091	721.47
609.541	723.27
609.99	729.97
610.44	719.77
610.889	674.27
611.339	657.17
611.788	644.07
612.238	654.27
612.687	675.27
613.136	674.77
613.586	686.97
614.035	689.17
614.484	715.47
614.933	719.97
615.383	707.37
615.832	696.07
616.281	682.67
616.73	651.37
617.179	634.87
617.628	612.07
618.077	598.97
618.526	584.37
618.975	577.37
619.424	582.17
619.873	575.07
620.322	572.67
620.771	566.07
621.22	571.17
621.669	546.47
622.118	549.27
622.567	538.37
623.015	534.17
623.464	536.07
623.913	524.97
624.361	520.77
624.81	512.27
625.259	522.27
625.707	518.77
626.156	523.47
626.604	524.17
627.053	522.07
627.501	520.47
627.95	536.67
628.398	536.57
628.847	524.67
629.295	535.27
629.744	536.57
630.192	538.97
630.64	536.07
631.089	524.77
631.537	539.97
631.985	535.57
632.433	555.37
632.881	572.47
633.33	610.97
633.778	592.97
634.226	518.27
634.674	526.77
635.122	537.57
635.57	561.37
636.018	578.87
636.466	535.07
636.914	523.27
637.362	532.37
637.81	531.67
638.258	535.77
638.705	531.37
639.153	566.67
639.601	580.67
640.049	583.57
640.497	620.17
640.944	647.07
641.392	581.57
641.84	572.47
642.287	544.57
642.735	529.27
643.182	532.77
643.63	521.37
644.078	531.87
644.525	539.87
644.973	547.57
645.42	552.97
645.867	570.97
646.315	600.27
646.762	619.67
647.21	639.67
647.657	669.47
648.104	696.57
648.551	723.17
648.999	773.77
649.446	845.77
649.893	932.57
650.34	1066.37
650.787	1274.17
651.234	1584.27
651.682	2062.47
652.129	2813.07
652.576	4049.07
653.023	6023.67
653.47	8250.37
653.917	10418.27
654.363	12152.57
654.81	13592.17
655.257	12907.97
655.704	8386.17
656.151	4953.97
656.598	3212.67
657.044	2256.17
657.491	1729.07
657.938	1392.37
658.385	1157.07
658.831	1000.77
659.278	896.87
659.724	792.47
660.171	735.67
660.618	665.27
661.064	632.47
661.511	611.37
661.957	603.17
662.404	589.87
662.85	596.07
663.296	574.47
663.743	515.57
664.189	500.57
664.635	492.57
665.082	486.07
665.528	482.97
665.974	480.77
666.42	470.97
666.867	461.77
667.313	452.17
667.759	444.77
668.205	448.97
668.651	446.17
669.097	440.07
669.543	464.87
669.989	435.67
670.435	411.87
670.881	407.97
671.327	415.37
671.773	428.27
672.219	437.37
672.665	498.57
673.11	528.97
673.556	576.27
674.002	619.17
674.448	603.67
674.893	497.37
675.339	440.77
675.785	405.97
676.23	378.97
676.676	358.47
677.122	351.17
677.567	340.07
678.013	330.87
678.458	326.77
678.904	327.87
679.349	315.37
679.794	326.67
680.24	327.47
680.685	322.97
681.131	315.27
681.576	315.17
682.021	317.67
682.466	320.17
682.912	311.27
683.357	316.07
683.802	348.07
684.247	370.57
684.692	411.17
685.137	442.17
685.583	484.17
686.028	510.57
686.473	470.97
686.918	406.37
687.363	383.37
687.807	355.07
688.252	333.57
688.697	327.57
689.142	308.97
689.587	287.97
690.032	290.17
690.477	306.67
690.921	314.97
691.366	344.57
691.811	354.67
692.255	390.47
692.7	421.37
693.145	450.37
693.589	622.27
694.034	1008.97
694.478	1377.27
694.923	1592.67
695.367	2091.37
695.812	1101.87
696.256	454.17
696.701	337.97
697.145	310.27
697.59	296.87
698.034	293.07
698.478	295.17
698.922	291.97
699.367	301.57
699.811	304.57
700.255	322.17
700.699	350.77
701.143	387.27
701.588	433.27
702.032	472.17
702.476	468.47
702.92	433.37
703.364	437.97
703.808	559.37
704.252	917.57
704.696	1285.77
705.14	1520.27
705.584	1968.57
706.027	966.77
706.471	469.67
706.915	352.77
707.359	311.07
707.803	292.97
708.246	281.07
708.69	285.77
709.134	288.77
709.577	284.37
710.021	286.07
710.465	280.37
710.908	263.87
711.352	268.17
711.795	279.87
712.239	312.57
712.682	346.07
713.126	379.87
713.569	416.67
714.012	334.67
714.456	295.17
714.899	265.37
715.342	251.07
715.786	233.87
716.229	239.37
716.672	230.97
717.115	228.57
717.558	220.37
718.002	234.47
718.445	243.47
718.888	257.27
719.331	258.97
719.774	280.57
720.217	280.37
720.66	262.17
721.103	237.47
721.546	228.37
721.989	226.27
722.432	205.57
722.874	216.87
723.317	208.37
723.76	214.07
724.203	227.57
724.645	277.47
725.088	402.67
725.531	505.87
725.974	589.67
726.416	495.27
726.859	273.47
727.301	218.27
727.744	209.97
728.187	209.67
728.629	209.27
729.071	218.47
729.514	234.57
729.956	240.97
730.399	255.57
730.841	256.77
731.283	246.37
731.726	234.97
732.168	239.37
732.61	242.27
733.053	255.07
733.495	284.67
733.937	314.37
734.379	355.27
734.821	395.97
735.263	485.17
735.705	725.47
736.148	1385.67
736.59	2297.77
737.032	2784.47
737.474	2285.67
737.916	744.47
738.357	386.07
738.799	295.77
739.241	264.97
739.683	253.07
740.125	253.17
740.567	266.87
741.008	286.57
741.45	292.17
741.892	283.97
742.334	312.07
742.775	328.77
743.217	303.37
743.658	245.17
744.1	230.77
744.542	233.07
744.983	278.87
745.425	314.87
745.866	314.37
746.307	258.17
746.749	256.97
747.19	285.77
747.632	398.87
748.073	768.07
748.514	1625.47
748.956	2553.37
749.397	3209.07
749.838	2667.87
750.279	2712.07
750.72	1370.27
751.162	491.67
751.603	290.37
752.044	225.17
752.485	196.67
752.926	183.67
753.367	190.77
753.808	175.87
754.249	163.27
754.69	172.47
755.131	167.47
755.572	167.47
756.013	168.97
756.453	167.57
756.894	166.47
757.335	168.77
757.776	169.87
758.216	173.17
758.657	178.47
759.098	180.37
759.538	199.27
759.979	231.67
760.42	325.67
760.86	603.97
761.301	1576.97
761.741	3904.97
762.182	5953.67
762.622	4183.97
763.063	1197.57
763.503	491.67
763.943	309.87
764.384	309.17
764.824	376.47
765.264	412.27
765.705	287.27
766.145	187.77
766.585	172.07
767.025	162.47
767.465	167.57
767.906	219.67
768.346	297.87
768.786	321.87
769.226	240.77
769.666	280.07
770.106	533.17
770.546	1359.47
770.986	2399.67
771.426	2181.27
771.866	720.17
772.306	303.97
772.745	192.27
773.185	155.87
773.625	157.57
774.065	151.17
774.505	168.17
774.944	267.47
775.384	596.97
775.824	1126.17
776.263	1115.97
776.703	465.47
777.142	202.57
777.582	142.77
778.021	126.57
778.461	122.67
778.9	120.67
779.34	124.57
779.779	111.07
780.219	97.27
780.658	91.17
781.097	100.67
781.537	103.47
781.976	94.77
782.415	99.97
782.855	82.17
783.294	86.77
783.733	96.57
784.172	92.57
784.611	93.77
785.05	93.37
785.489	94.97
785.928	101.97
786.367	112.27
786.806	102.17
787.245	115.47
787.684	121.77
788.123	137.67
788.562	115.67
789.001	121.87
789.44	105.37
789.879	109.17
790.317	102.17
790.756	108.27
791.195	110.47
791.634	124.37
792.072	184.97
792.511	314.77
792.95	872.97
793.388	1927.87
793.827	1790.17
794.265	616.97
794.704	249.77
795.142	167.97
795.581	144.37
796.019	132.77
796.458	113.27
796.896	115.77
797.334	116.57
797.773	132.07
798.211	193.57
798.649	385.57
799.087	901.67
799.526	1421.57
799.964	1792.27
800.402	1856.07
800.84	686.47
801.278	274.27
801.716	161.57
802.154	138.97
802.592	133.17
803.03	123.47
803.468	122.47
803.906	128.57
804.344	131.77
804.782	128.67
805.22	112.47
805.658	118.37
806.096	130.77
806.533	135.37
806.971	157.77
807.409	185.47
807.847	272.77
808.284	580.07
808.722	1633.87
809.16	2966.87
809.597	2750.67
810.035	4871.97
810.472	5371.87
810.91	1907.17
811.347	715.97
811.785	366.57
812.222	230.37
812.66	168.37
813.097	150.77
813.535	128.17
813.972	112.67
814.409	110.37
814.846	96.67
815.284	103.87
815.721	93.37
816.158	91.57
816.595	108.17
817.032	161.87
817.47	180.17
817.907	147.57
818.344	138.17
818.781	110.67
819.218	94.17
819.655	109.07
820.092	173.77
820.529	189.67
820.966	160.77
821.403	123.37
821.839	97.17
822.276	86.27
822.713	111.37
823.15	124.17
823.587	105.97
824.023	129.97
824.46	261.57
824.897	797.77
825.333	1247.17
825.77	529.07
826.206	206.67
826.643	125.87
827.08	93.97
827.516	73.67
827.953	67.07
828.389	73.57
828.825	59.37
829.262	61.07
829.698	52.57
830.135	58.67
830.571	55.37
831.007	55.27
831.443	55.97
831.88	53.07
832.316	56.27
832.752	55.47
833.188	54.27
833.624	55.07
834.06	62.87
834.497	63.67
834.933	70.17
835.369	65.57
835.805	53.47
836.241	69.77
836.677	76.17
837.112	86.07
837.548	90.87
837.984	114.97
838.42	174.47
838.856	429.07
839.292	1342.97
839.727	2111.87
840.163	969.77
840.599	805.27
841.034	1813.97
841.47	1980.77
841.906	711.77
842.341	293.67
842.777	210.17
843.212	280.77
843.648	286.57
844.083	141.57
844.519	90.57
844.954	72.47
845.39	52.77
845.825	52.17
846.261	53.37
846.696	52.77
847.131	51.67
847.566	51.27
848.002	45.57
848.437	47.07
848.872	55.67
849.307	53.97
849.742	80.07
850.177	153.47
850.613	488.57
851.048	791.27
851.483	349.77
851.918	136.67
852.353	74.07
852.788	54.27
853.223	54.87
853.657	50.47
854.092	43.77
854.527	37.07
854.962	39.27
855.397	40.47
855.832	44.17
856.266	35.87
856.701	37.87
857.136	33.97
857.57	34.37
858.005	45.87
858.44	55.77
858.874	36.57
859.309	41.97
859.743	37.97
860.178	38.57
860.612	37.17
861.047	46.27
861.481	62.57
861.915	64.27
862.35	46.97
862.784	28.67
863.218	36.07
863.653	31.77
864.087	45.47
864.521	49.47
864.955	65.77
865.39	140.57
865.824	162.17
866.258	99.97
866.692	150.87
867.126	161.67
867.56	97.57
867.994	46.47
868.428	39.17
868.862	40.77
869.296	52.77
869.73	51.77
870.164	50.17
870.598	45.47
871.031	32.27
871.465	24.47
871.899	29.97
872.333	20.67
872.766	18.27
873.2	24.77
873.634	26.17
874.067	22.67
874.501	26.87
874.935	28.67
875.368	21.47
875.802	20.17
876.235	19.07
876.669	22.77
877.102	20.17
877.535	26.37
877.969	22.37
878.402	25.37
878.836	22.57
879.269	24.37
879.702	21.67
880.135	17.07
880.569	22.57
881.002	23.97
881.435	22.57
881.868	16.07
882.301	15.37
882.734	11.97
883.167	19.47
883.601	17.87
884.034	19.57
884.467	13.47
884.899	21.17
885.332	14.07
885.765	12.47
886.198	10.67
886.631	17.17
887.064	19.27
887.497	17.57
887.929	25.37
888.362	11.87
888.795	15.27
889.228	13.47
889.66	23.07
890.093	16.77
890.526	17.77
890.958	21.37
891.391	15.37
891.823	18.07
892.256	12.77
892.688	8.17
893.121	10.97
893.553	12.47
893.985	20.57
894.418	18.17
894.85	13.37
895.282	21.47
895.715	16.77
896.147	16.47
896.579	16.97
897.011	13.57
897.444	12.97
897.876	11.17
898.308	15.97
898.74	14.07
899.172	16.67
899.604	24.67
900.036	17.97
900.468	12.57
900.9	14.67
901.332	16.27
901.764	7.37
902.196	14.37
902.628	13.67
903.06	15.17
903.491	25.97
903.923	18.57
904.355	23.37
904.787	24.17
905.218	20.67
905.65	17.57
906.082	11.97
906.513	12.67
906.945	13.37
907.376	12.87
907.808	18.67
908.239	26.47
908.671	20.37
909.102	17.27
909.534	22.67
909.965	38.97
910.397	84.57
910.828	279.07
911.259	438.17
911.691	195.07
912.122	93.87
912.553	44.77
912.984	29.77
913.415	23.37
913.847	26.77
914.278	9.27
914.709	13.07
915.14	13.67
915.571	14.07
916.002	10.77
916.433	18.17
916.864	20.07
917.295	12.97
917.726	22.47
918.157	13.37
918.587	30.57
919.018	15.97
919.449	17.97
919.88	17.77
920.311	27.97
920.741	40.57
921.172	155.37
921.603	132.57
922.033	62.47
922.464	47.27
922.895	19.67
923.325	16.37
923.756	16.27
924.186	15.17
924.617	23.97
925.047	38.27
925.478	50.97
925.908	42.37
926.338	27.37
926.769	13.87
927.199	22.37
927.629	11.57
928.06	14.27
928.49	17.17
928.92	16.87
929.35	11.57
929.78	7.37
930.21	8.07
930.641	5.87
931.071	6.27
931.501	5.67
931.931	7.77
932.361	7.37
932.791	0.77
933.221	3.17
933.651	1.67
934.08	15.47
934.51	29.17
934.94	7.47
935.37	13.77
935.8	7.77
936.229	5.77
936.659	11.27
937.089	0.57
937.519	8.77
937.948	23.07
938.378	14.27
938.807	5.57
939.237	2.47
939.666	5.87
940.096	-2.13
940.525	5.37
940.955	3.07
941.384	4.77
941.814	-4.03
942.243	-1.83
942.672	2.27
943.102	-7.93
943.531	-3.03
943.96	2.17
944.39	4.07
944.819	0.77
945.248	-1.73
945.677	2.67
946.106	6.37
946.535	1.17
946.964	-2.03
947.393	1.07
947.822	-3.63
948.251	-2.53
948.68	-0.83
949.109	0.07
949.538	5.97
949.967	1.37
950.396	1.97
950.825	0.17
951.254	-3.33
951.682	-8.23
952.111	6.67
952.54	1.07
952.969	-3.63
953.397	-5.63
953.826	-3.13
954.254	-6.63
954.683	2.07
955.112	-5.03
955.54	0.67
955.969	-4.53
956.397	2.87
956.826	0.47
957.254	2.27
957.682	-2.13
958.111	2.27
958.539	-0.63
958.967	2.07
959.396	-1.43
959.824	-2.03
960.252	3.97
960.68	-4.23
961.109	-5.03
961.537	-4.93
961.965	1.07
962.393	-2.33
962.821	-1.73
963.249	-3.53
963.677	11.57
964.105	4.27
964.533	36.87
964.961	37.47
965.389	19.37
965.817	12.67
966.245	4.47
966.672	3.47
967.1	-8.33
967.528	7.17
967.956	1.07
968.383	-4.53
968.811	-0.63
969.239	3.87
969.666	0.37
970.094	-3.53
970.522	-1.23
970.949	-3.93
971.377	-2.53
971.804	-0.93
972.232	-1.83
972.659	1.67
973.087	-7.23
973.514	-1.73
973.941	-7.13
974.369	3.07
974.796	-3.23
975.223	-2.13
975.651	-2.43
976.078	2.17
976.505	2.37
976.932	0.57
977.359	9.47
977.786	13.47
978.214	2.97
978.641	0.57
979.068	-0.43
979.495	-6.93
979.922	1.17
980.349	-3.73
980.776	-1.13
981.202	-0.43
981.629	0.57
982.056	2.67
982.483	-1.93
982.91	2.87
983.337	-10.93
983.763	2.07
984.19	-0.33
984.617	-11.03
985.043	-10.63
985.47	-1.73
985.897	-2.33
986.323	-5.33
986.75	-0.73
987.176	-2.93
987.603	-0.93
988.029	1.47
988.456	0.17
988.882	4.67
989.308	-11.63
989.735	-7.43
990.161	-0.43
990.587	-5.43
991.014	0.47
991.44	-1.13
991.866	-5.23
992.292	-0.63
992.719	-4.53
993.145	3.37
993.571	-8.93
993.997	-4.83
994.423	-3.23
994.849	-0.93
995.275	1.07
995.701	2.47
996.127	-6.33
996.553	2.47
996.979	-1.73
997.405	-4.03
997.83	-3.33
998.256	-5.93
998.682	-2.63
999.108	-6.93
999.534	1.57
999.959	-6.23
1000.385	-1.63
1000.811	2.57
1001.236	-3.83
1001.662	-8.83
1002.087	-9.23
1002.513	-0.43
1002.938	0.37
1003.364	-6.33
1003.789	-0.43
1004.215	1.37
1004.64	3.27
1005.066	5.47
1005.491	2.87
1005.916	0.47
1006.342	-1.93
1006.767	-11.53
1007.192	6.97
1007.617	-6.23
1008.042	-11.23
1008.468	-2.83
1008.893	-3.33
1009.318	-7.13
1009.743	0.67
1010.168	0.37
1010.593	2.57
1011.018	-9.73
1011.443	-8.93
1011.868	-0.03
1012.293	-8.63
1012.718	-14.53
1013.143	0.57
1013.567	-0.33
1013.992	-6.43
1014.417	-13.73
1014.842	5.77
1015.267	-4.83
1015.691	0.17
1016.116	4.17
1016.541	1.47
1016.965	1.47
1017.39	-0.43
1017.814	-1.63
1018.239	-3.03
1018.663	-4.53
1019.088	-10.33
1019.512	-5.23
1019.937	0.07
1020.361	-6.73
1020.785	-10.13
1021.21	-2.53
1021.634	-4.93
1022.058	-1.83
1022.483	1.07
1022.907	-0.93
1023.331	-1.23
1023.755	-4.03
1024.179	-4.03
1024.604	-2.53
1025.028	-8.23
1025.452	-1.63
1025.876	-1.73
1026.3	-0.73
1026.724	-12.33
1027.148	-2.53
1027.572	-10.03
1027.996	-5.83
1028.42	-6.13
1028.843	-1.63
1029.267	-6.03
1029.691	4.37
1030.115	-4.53
1030.539	-4.73
1030.962	-7.43
1031.386	-12.83
1031.81	-0.73
1032.233	-6.43
1032.657	-4.13
1033.08	-2.43
1033.504	2.67
1033.927	-1.73
1034.351	3.77
1034.774	-3.83
1035.198	0.67
1035.621	-5.23
1036.045	-8.23
1036.468	0.17
1036.891	-6.43
1037.315	-7.13
1037.738	-11.43
1038.161	4.57
1038.584	-3.43
1039.008	0.57
1039.431	-4.73
1039.854	-8.73
1040.277	-7.83
1040.7	-12.73
1041.123	-0.23
1041.546	-3.73
1041.969	-7.13
1042.392	-9.73
1042.815	0.97
1043.238	-5.33
1043.661	1.07
1044.084	-1.63
1044.507	-9.53
1044.93	-6.33
1045.352	-6.13
1045.775	-2.33
1046.198	-0.43
1046.621	-3.93
1047.043	0.57
1047.466	5.07
1047.889	-2.73
1048.311	-8.53
1048.734	-2.83
1049.156	-5.83
1049.579	-0.83
1050.001	0.97
1050.424	-0.53
1050.846	-4.03
1051.269	-1.03
1051.691	-7.23
1052.113	-5.03
1052.536	-0.03
1052.958	-7.13
1053.38	-5.93
1053.802	-9.03
1054.225	2.07
1054.647	-10.33
1055.069	-6.83
1055.491	5.27
1055.913	-8.33
1056.335	-1.83
1056.757	-1.03
1057.179	-3.33
1057.601	-8.43
1058.023	1.57
1058.445	-0.73
1058.867	-6.23
1059.289	-2.33
1059.711	-10.33
1060.133	-0.83
1060.555	-4.43
1060.976	-6.33
1061.398	-7.83
1061.82	-10.93
1062.241	-4.73
1062.663	-7.63
1063.085	-12.73
1063.506	2.77
1063.928	-4.03
1064.35	-4.13
1064.771	-8.63
1065.193	-6.23
1065.614	-8.63
1066.035	-2.33
1066.457	-7.63
1066.878	-2.33
1067.3	-2.13
1067.721	-3.93
1068.142	-2.23
1068.564	-1.83
1068.985	-6.73
1069.406	3.37
1069.827	-5.43
1070.248	0.67
1070.67	-5.33
1071.091	-2.23
1071.512	0.07
1071.933	-9.13
1072.354	-10.93
1072.775	-5.63
1073.196	-6.73
1073.617	-2.03
1074.038	-5.13
1074.459	-4.33
1074.88	-10.73
1075.3	-3.23
1075.721	-9.13
1076.142	4.97
1076.563	-0.13
1076.983	-5.83
1077.404	-7.83
1077.825	-6.83
1078.246	-6.23
1078.666	-7.63
1079.087	-5.63
1079.507	-5.93
1079.928	3.47
1080.348	-4.23
1080.769	-1.53
1081.189	0.67
1081.61	-4.03
1082.03	-4.83
1082.451	-1.63
1082.871	-8.23
1083.291	-4.23
1083.711	-6.83
1084.132	-11.83
1084.552	-5.03
1084.972	0.47
1085.392	-8.63
1085.813	-4.53
1086.233	-6.63
1086.653	-5.13
1087.073	-3.93
1087.493	-6.63
1087.913	-5.13
1088.333	-12.03
1088.753	-4.73
1089.173	0.37
1089.593	-8.03
1090.013	-2.03
1090.433	-2.83
1090.852	-3.93
1091.272	2.27
1091.692	-1.83
1092.112	-0.43
1092.531	-5.53
1092.951	-8.63
1093.371	0.77
1093.79	0.17
1094.21	0.47
1094.63	-2.73
1095.049	-5.63
1095.469	-7.83
1095.888	-6.83
1096.308	-0.03
1096.727	1.17
1097.146	-8.23
1097.566	-3.93
1097.985	0.17
1098.405	-0.63
1098.824	-4.53
1099.243	-4.63
1099.662	-10.13
1100.082	-3.13
1100.501	-2.33
1100.92	-2.93
1101.339	-2.93
1101.758	-4.13
