Data from 20171114-ORNL-Ar_H_NY_Subt18_08-08-27-122.txt Node
Date: Tue Nov 14 08:08:27 EST 2017
User: Ender
Spectrometer: HR+D1039
Trigger mode: 0
Integration Time (sec): 2.730000E-2
Scans to average: 10
Electric dark correction enabled: true
Nonlinearity correction enabled: false
Boxcar width: 0
XAxis mode: Wavelengths
Number of Pixels in Spectrum: 2048
>>>>>Begin Spectral Data<<<<<
187.836	-1.73
188.309	-1.73
188.782	-1.73
189.255	-1.03
189.728	-2.23
190.201	9.17
190.674	3.57
191.147	1.87
191.619	-5.13
192.092	2.97
192.565	3.17
193.038	-1.53
193.511	-2.13
193.984	0.07
194.456	-3.83
194.929	0.97
195.402	-1.93
195.874	-2.23
196.347	-1.13
196.82	-3.83
197.292	-0.03
197.765	-3.93
198.237	-7.93
198.71	-2.73
199.182	-3.63
199.655	4.87
200.127	3.37
200.6	2.17
201.072	-1.63
201.544	-3.43
202.017	-9.53
202.489	-0.13
202.961	-4.03
203.433	-5.33
203.906	-6.83
204.378	-10.83
204.85	-4.73
205.322	-10.23
205.794	-0.63
206.266	-3.33
206.739	-9.33
207.211	-2.13
207.683	-9.63
208.155	-6.73
208.627	-3.63
209.099	-3.13
209.57	-9.33
210.042	2.67
210.514	-3.53
210.986	-1.83
211.458	-9.83
211.93	-8.03
212.402	-3.63
212.873	-10.83
213.345	-12.53
213.817	-11.63
214.288	-2.93
214.76	-10.53
215.232	0.57
215.703	-1.23
216.175	0.57
216.646	-5.43
217.118	-10.33
217.589	-6.43
218.061	-4.23
218.532	-3.93
219.004	1.17
219.475	-3.23
219.946	1.87
220.418	-7.03
220.889	1.27
221.36	-4.83
221.832	-3.83
222.303	-8.23
222.774	-0.23
223.245	-7.53
223.717	-6.03
224.188	-4.13
224.659	-12.43
225.13	-0.53
225.601	-3.23
226.072	-4.13
226.543	-1.33
227.014	-0.93
227.485	-2.03
227.956	-5.73
228.427	-1.43
228.898	-2.73
229.369	0.47
229.839	-4.43
230.31	-10.73
230.781	-0.93
231.252	-1.23
231.722	-2.43
232.193	-3.23
232.664	0.67
233.135	-4.73
233.605	-5.63
234.076	-7.63
234.546	-2.93
235.017	5.37
235.487	-2.03
235.958	2.97
236.428	-4.03
236.899	1.47
237.369	-1.43
237.84	-5.93
238.31	1.47
238.78	-0.03
239.251	-1.33
239.721	-3.33
240.191	-2.73
240.662	-0.13
241.132	-2.13
241.602	-7.53
242.072	0.67
242.542	5.57
243.013	-7.23
243.483	-0.63
243.953	1.37
244.423	-1.43
244.893	-8.93
245.363	-3.03
245.833	1.57
246.303	-6.83
246.773	3.17
247.243	-3.63
247.712	-2.23
248.182	1.07
248.652	2.37
249.122	-2.33
249.592	3.67
250.061	2.27
250.531	10.27
251.001	-5.73
251.471	4.47
251.94	7.07
252.41	-1.83
252.879	-3.43
253.349	8.87
253.818	3.47
254.288	6.17
254.757	1.57
255.227	-2.93
255.696	6.57
256.166	5.27
256.635	3.77
257.105	3.47
257.574	2.67
258.043	1.47
258.513	1.27
258.982	4.97
259.451	-4.43
259.92	2.57
260.389	-1.13
260.859	2.37
261.328	-0.23
261.797	6.57
262.266	10.17
262.735	10.57
263.204	1.27
263.673	2.27
264.142	7.97
264.611	-4.23
265.08	-5.93
265.549	5.97
266.018	6.47
266.487	1.87
266.955	4.77
267.424	-0.43
267.893	9.47
268.362	3.57
268.83	4.27
269.299	9.87
269.768	-2.53
270.236	0.87
270.705	-0.33
271.174	0.17
271.642	2.47
272.111	0.67
272.579	7.67
273.048	3.87
273.516	7.27
273.985	10.17
274.453	7.87
274.922	11.37
275.39	8.67
275.858	-2.03
276.327	12.57
276.795	11.17
277.263	4.87
277.731	14.67
278.2	14.67
278.668	8.47
279.136	12.17
279.604	3.47
280.072	5.87
280.54	7.87
281.008	11.47
281.477	14.27
281.945	14.07
282.413	8.77
282.881	17.27
283.348	2.07
283.816	9.37
284.284	14.37
284.752	18.27
285.22	13.47
285.688	10.37
286.156	7.07
286.623	17.47
287.091	11.97
287.559	11.87
288.026	15.17
288.494	10.57
288.962	8.87
289.429	9.07
289.897	23.17
290.364	16.27
290.832	20.07
291.3	18.47
291.767	14.57
292.234	16.17
292.702	9.17
293.169	20.37
293.637	22.87
294.104	21.67
294.571	10.47
295.039	15.57
295.506	11.37
295.973	18.97
296.44	12.97
296.908	16.47
297.375	12.47
297.842	19.27
298.309	19.67
298.776	16.07
299.243	18.47
299.71	15.57
300.177	17.97
300.644	19.47
301.111	16.17
301.578	25.47
302.045	17.17
302.512	21.77
302.979	25.07
303.446	23.57
303.913	15.67
304.379	15.27
304.846	24.87
305.313	22.17
305.78	16.37
306.246	28.37
306.713	24.97
307.18	23.37
307.646	25.97
308.113	29.37
308.579	22.57
309.046	20.57
309.512	24.07
309.979	15.67
310.445	30.77
310.912	30.77
311.378	28.87
311.845	29.67
312.311	34.27
312.777	33.47
313.244	28.87
313.71	35.97
314.176	31.17
314.642	25.37
315.109	30.77
315.575	30.67
316.041	38.37
316.507	27.47
316.973	37.37
317.439	38.97
317.905	32.37
318.371	31.47
318.837	38.77
319.303	30.87
319.769	35.97
320.235	27.27
320.701	34.17
321.167	39.17
321.633	31.37
322.099	31.67
322.564	43.07
323.03	35.87
323.496	35.87
323.962	34.47
324.427	39.17
324.893	36.97
325.359	32.87
325.824	36.87
326.29	33.27
326.755	41.37
327.221	41.77
327.686	39.77
328.152	47.47
328.617	38.27
329.083	44.57
329.548	53.57
330.014	48.67
330.479	46.87
330.944	45.67
331.41	50.07
331.875	46.57
332.34	39.67
332.805	41.47
333.271	47.47
333.736	46.17
334.201	51.67
334.666	43.37
335.131	50.47
335.596	52.17
336.061	44.97
336.526	42.97
336.991	48.37
337.456	58.47
337.921	49.57
338.386	46.27
338.851	45.87
339.316	54.77
339.781	45.27
340.246	60.47
340.711	51.07
341.175	53.57
341.64	42.87
342.105	50.27
342.569	56.27
343.034	62.07
343.499	61.77
343.963	58.07
344.428	60.27
344.893	60.57
345.357	65.67
345.822	60.67
346.286	73.37
346.751	74.57
347.215	71.07
347.679	83.67
348.144	101.47
348.608	89.47
349.073	73.47
349.537	76.87
350.001	80.07
350.465	86.97
350.93	89.27
351.394	86.97
351.858	83.17
352.322	87.07
352.786	84.27
353.25	105.87
353.715	113.47
354.179	104.37
354.643	123.57
355.107	129.97
355.571	104.57
356.035	104.97
356.498	112.67
356.962	124.97
357.426	131.97
357.89	119.37
358.354	94.87
358.818	82.17
359.281	77.37
359.745	78.67
360.209	76.37
360.673	67.57
361.136	82.87
361.6	86.07
362.064	90.87
362.527	79.57
362.991	93.57
363.454	85.87
363.918	79.47
364.381	75.67
364.845	89.27
365.308	90.57
365.772	85.67
366.235	93.97
366.698	88.07
367.162	88.87
367.625	86.07
368.088	91.57
368.552	90.67
369.015	93.77
369.478	88.57
369.941	96.07
370.404	99.47
370.867	99.57
371.331	111.97
371.794	117.47
372.257	104.67
372.72	104.87
373.183	105.77
373.646	98.07
374.109	105.77
374.572	104.97
375.035	108.77
375.497	111.87
375.96	110.07
376.423	104.97
376.886	117.87
377.349	113.57
377.811	104.87
378.274	106.67
378.737	112.57
379.199	112.77
379.662	112.47
380.125	112.47
380.587	115.97
381.05	118.57
381.512	124.47
381.975	134.27
382.437	131.67
382.9	120.37
383.362	128.77
383.825	140.97
384.287	136.97
384.75	123.87
385.212	129.27
385.674	137.27
386.136	136.17
386.599	125.27
387.061	125.77
387.523	132.07
387.985	127.27
388.447	143.17
388.91	133.97
389.372	140.67
389.834	139.37
390.296	129.27
390.758	142.57
391.22	140.47
391.682	159.17
392.144	165.87
392.606	153.67
393.068	144.17
393.529	159.47
393.991	146.07
394.453	147.57
394.915	141.97
395.377	146.37
395.838	149.97
396.3	145.97
396.762	143.97
397.224	139.97
397.685	132.27
398.147	136.17
398.608	139.27
399.07	140.17
399.531	149.87
399.993	157.07
400.454	163.07
400.916	158.67
401.377	153.87
401.839	166.97
402.3	165.57
402.762	178.27
403.223	194.77
403.684	177.77
404.145	170.27
404.607	171.17
405.068	177.77
405.529	182.77
405.99	192.47
406.451	191.47
406.913	180.77
407.374	176.87
407.835	169.47
408.296	178.57
408.757	183.67
409.218	203.47
409.679	191.97
410.14	188.97
410.601	185.67
411.062	188.47
411.522	186.27
411.983	186.57
412.444	187.67
412.905	197.47
413.366	193.97
413.826	211.97
414.287	236.17
414.748	291.67
415.208	281.47
415.669	229.07
416.13	225.57
416.59	218.47
417.051	231.57
417.511	239.67
417.972	258.17
418.432	269.27
418.893	312.37
419.353	275.07
419.814	221.27
420.274	201.07
420.734	195.47
421.195	213.37
421.655	210.27
422.115	207.87
422.576	209.07
423.036	218.07
423.496	230.57
423.956	234.17
424.416	249.77
424.876	283.27
425.336	279.47
425.797	284.27
426.257	272.17
426.717	258.87
427.177	247.67
427.637	242.77
428.097	249.97
428.556	258.67
429.016	283.87
429.476	275.67
429.936	287.07
430.396	290.27
430.856	306.77
431.315	336.47
431.775	366.47
432.235	395.97
432.694	369.67
433.154	385.57
433.614	411.77
434.073	360.67
434.533	302.77
434.993	287.87
435.452	299.47
435.912	313.27
436.371	304.97
436.83	300.87
437.29	286.07
437.749	269.97
438.209	267.07
438.668	302.17
439.127	311.47
439.587	285.57
440.046	274.27
440.505	281.57
440.964	296.97
441.424	345.67
441.883	337.57
442.342	278.67
442.801	255.67
443.26	246.47
443.719	240.17
444.178	241.27
444.637	228.77
445.096	239.77
445.555	245.07
446.014	243.27
446.473	244.97
446.932	256.97
447.391	248.07
447.849	246.47
448.308	239.27
448.767	243.37
449.226	255.27
449.685	249.87
450.143	267.77
450.602	255.47
451.061	239.87
451.519	252.37
451.978	257.57
452.436	255.87
452.895	259.87
453.353	279.37
453.812	265.27
454.27	259.97
454.729	257.57
455.187	267.07
455.646	266.07
456.104	270.27
456.562	290.27
457.021	286.17
457.479	287.37
457.937	306.17
458.395	282.77
458.854	271.77
459.312	288.07
459.77	310.27
460.228	283.97
460.686	265.17
461.144	276.07
461.602	268.17
462.06	268.57
462.518	278.27
462.976	283.27
463.434	284.87
463.892	284.97
464.35	296.97
464.808	313.17
465.266	293.07
465.724	292.77
466.181	301.27
466.639	298.07
467.097	322.67
467.555	329.47
468.012	333.07
468.47	346.07
468.928	357.17
469.385	369.27
469.843	382.37
470.3	377.77
470.758	396.97
471.215	416.07
471.673	445.87
472.13	441.07
472.588	453.67
473.045	413.97
473.503	422.87
473.96	436.87
474.417	447.97
474.875	466.57
475.332	508.67
475.789	501.17
476.246	499.77
476.704	519.87
477.161	547.27
477.618	562.37
478.075	605.67
478.532	660.97
478.989	741.07
479.446	851.37
479.903	808.77
480.36	829.77
480.817	891.67
481.274	988.37
481.731	1070.97
482.188	1166.47
482.645	1281.17
483.102	1383.37
483.558	1509.67
484.015	1532.67
484.472	1516.17
484.929	1475.07
485.385	1424.87
485.842	1400.37
486.299	1354.37
486.755	1319.57
487.212	1118.67
487.668	964.67
488.125	882.87
488.582	820.97
489.038	790.17
489.494	755.67
489.951	728.67
490.407	701.87
490.864	697.37
491.32	685.47
491.776	678.47
492.233	690.97
492.689	657.47
493.145	653.17
493.602	648.57
494.058	665.17
494.514	669.67
494.97	684.77
495.426	693.77
495.882	656.57
496.338	659.67
496.794	670.57
497.251	663.97
497.707	668.87
498.163	674.07
498.618	678.77
499.074	686.57
499.53	710.77
499.986	717.67
500.442	687.37
500.898	660.87
501.354	653.27
501.809	674.57
502.265	674.17
502.721	681.07
503.177	690.67
503.632	688.97
504.088	698.77
504.543	715.97
504.999	734.87
505.455	698.47
505.91	685.07
506.366	680.57
506.821	681.97
507.277	681.77
507.732	686.17
508.187	682.17
508.643	689.77
509.098	679.77
509.553	708.27
510.009	716.07
510.464	729.77
510.919	747.97
511.375	750.57
511.83	763.77
512.285	779.67
512.74	821.17
513.195	833.87
513.65	824.77
514.105	821.67
514.56	817.97
515.015	844.07
515.47	854.97
515.925	843.07
516.38	844.57
516.835	859.47
517.29	834.57
517.745	834.37
518.2	819.87
518.655	808.47
519.109	799.17
519.564	796.07
520.019	781.07
520.474	777.67
520.928	777.47
521.383	765.87
521.838	765.17
522.292	771.37
522.747	756.07
523.201	759.27
523.656	758.67
524.11	750.17
524.565	752.57
525.019	745.97
525.474	752.77
525.928	756.57
526.382	747.77
526.837	755.17
527.291	752.47
527.745	748.37
528.2	744.97
528.654	747.27
529.108	749.27
529.562	738.57
530.016	741.87
530.47	736.77
530.925	745.37
531.379	745.17
531.833	752.87
532.287	746.47
532.741	745.87
533.195	752.77
533.649	763.47
534.103	769.47
534.556	762.07
535.01	766.97
535.464	749.87
535.918	763.97
536.372	775.57
536.826	777.57
537.279	754.07
537.733	761.07
538.187	754.57
538.64	762.87
539.094	776.67
539.548	790.77
540.001	781.57
540.455	777.67
540.908	791.67
541.362	797.57
541.815	807.17
542.269	814.47
542.722	810.07
543.175	822.17
543.629	836.27
544.082	843.97
544.536	850.77
544.989	845.87
545.442	859.27
545.895	856.17
546.349	861.17
546.802	851.07
547.255	862.07
547.708	866.57
548.161	875.17
548.614	883.47
549.067	896.47
549.52	875.27
549.973	874.67
550.426	871.47
550.879	857.57
551.332	867.37
551.785	876.07
552.238	868.07
552.691	879.67
553.144	908.37
553.596	913.57
554.049	934.87
554.502	958.27
554.955	985.17
555.407	979.07
555.86	976.67
556.313	951.47
556.765	956.87
557.218	958.37
557.67	957.77
558.123	943.07
558.576	940.47
559.028	941.97
559.48	955.37
559.933	939.37
560.385	913.67
560.838	878.57
561.29	852.27
561.742	855.47
562.195	828.57
562.647	832.27
563.099	841.87
563.551	831.27
564.004	844.57
564.456	829.47
564.908	824.17
565.36	797.07
565.812	788.07
566.264	780.77
566.716	769.27
567.168	761.07
567.62	765.87
568.072	755.97
568.524	740.67
568.976	741.87
569.428	737.07
569.88	735.07
570.332	734.67
570.784	743.27
571.235	740.47
571.687	756.97
572.139	762.17
572.59	769.47
573.042	771.47
573.494	760.97
573.945	765.17
574.397	744.57
574.849	747.27
575.3	746.77
575.752	742.37
576.203	730.87
576.655	742.37
577.106	719.57
577.557	708.57
578.009	725.57
578.46	716.77
578.912	716.87
579.363	721.37
579.814	710.37
580.265	719.17
580.717	725.17
581.168	719.77
581.619	724.67
582.07	733.77
582.521	723.47
582.972	725.47
583.423	734.47
583.875	729.97
584.326	734.67
584.777	747.87
585.227	789.47
585.678	801.87
586.129	813.87
586.58	843.67
587.031	869.27
587.482	913.37
587.933	949.07
588.384	916.37
588.834	862.37
589.285	832.67
589.736	826.67
590.186	834.77
590.637	812.77
591.088	798.17
591.538	800.87
591.989	783.47
592.439	775.47
592.89	767.27
593.34	750.57
593.791	744.57
594.241	751.77
594.692	748.67
595.142	739.67
595.593	744.77
596.043	753.77
596.493	762.47
596.943	762.57
597.394	767.07
597.844	777.97
598.294	787.17
598.744	813.77
599.195	842.57
599.645	894.27
600.095	931.47
600.545	989.17
600.995	1045.67
601.445	1092.47
601.895	1163.07
602.345	1216.27
602.795	1191.87
603.245	1144.47
603.695	1093.07
604.145	1041.17
604.594	978.27
605.044	928.77
605.494	859.87
605.944	829.67
606.393	796.17
606.843	786.77
607.293	781.87
607.743	783.67
608.192	804.17
608.642	811.27
609.091	815.37
609.541	817.57
609.99	822.27
610.44	822.07
610.889	771.67
611.339	745.87
611.788	724.57
612.238	738.17
612.687	758.97
613.136	752.27
613.586	762.47
614.035	753.07
614.484	765.57
614.933	759.97
615.383	765.07
615.832	757.17
616.281	753.57
616.73	721.17
617.179	698.17
617.628	687.07
618.077	672.57
618.526	670.97
618.975	660.77
619.424	658.97
619.873	658.87
620.322	663.67
620.771	654.77
621.22	652.77
621.669	627.77
622.118	630.57
622.567	633.87
623.015	609.37
623.464	604.07
623.913	608.17
624.361	589.27
624.81	593.07
625.259	598.87
625.707	591.67
626.156	586.37
626.604	613.47
627.053	605.07
627.501	609.67
627.95	619.47
628.398	632.97
628.847	613.97
629.295	619.57
629.744	608.87
630.192	613.87
630.64	601.17
631.089	597.97
631.537	583.37
631.985	569.27
632.433	570.37
632.881	567.97
633.33	578.57
633.778	573.17
634.226	560.27
634.674	580.37
635.122	583.77
635.57	600.17
636.018	605.57
636.466	610.37
636.914	599.87
637.362	619.47
637.81	625.67
638.258	627.77
638.705	624.57
639.153	660.07
639.601	665.67
640.049	690.97
640.497	727.27
640.944	738.77
641.392	691.07
641.84	663.17
642.287	625.37
642.735	605.07
643.182	594.47
643.63	619.87
644.078	601.27
644.525	605.27
644.973	626.07
645.42	627.97
645.867	651.77
646.315	682.57
646.762	704.97
647.21	724.77
647.657	752.77
648.104	780.27
648.551	808.27
648.999	873.47
649.446	956.77
649.893	1031.67
650.34	1194.37
650.787	1404.77
651.234	1735.57
651.682	2255.57
652.129	3046.77
652.576	4332.37
653.023	6284.07
653.47	8465.17
653.917	10489.07
654.363	11994.77
654.81	13168.97
655.257	12442.37
655.704	8312.77
656.151	5001.47
656.598	3304.77
657.044	2359.37
657.491	1832.47
657.938	1491.57
658.385	1266.57
658.831	1094.67
659.278	990.47
659.724	882.67
660.171	815.87
660.618	753.37
661.064	718.97
661.511	705.67
661.957	686.77
662.404	674.47
662.85	693.57
663.296	649.77
663.743	599.97
664.189	582.77
664.635	569.37
665.082	569.67
665.528	574.17
665.974	552.87
666.42	540.87
666.867	538.77
667.313	519.57
667.759	505.07
668.205	485.57
668.651	483.77
669.097	481.07
669.543	481.47
669.989	477.67
670.435	484.07
670.881	482.17
671.327	475.17
671.773	500.87
672.219	528.17
672.665	591.07
673.11	630.27
673.556	676.27
674.002	715.47
674.448	716.17
674.893	605.27
675.339	521.27
675.785	485.67
676.23	455.17
676.676	429.97
677.122	425.47
677.567	412.67
678.013	404.07
678.458	391.37
678.904	389.87
679.349	383.27
679.794	395.97
680.24	376.77
680.685	377.37
681.131	379.87
681.576	386.77
682.021	379.27
682.466	372.57
682.912	383.07
683.357	390.47
683.802	411.87
684.247	441.07
684.692	494.97
685.137	548.57
685.583	582.47
686.028	609.67
686.473	560.37
686.918	482.47
687.363	460.77
687.807	434.67
688.252	397.27
688.697	392.97
689.142	370.97
689.587	367.17
690.032	351.57
690.477	372.07
690.921	379.87
691.366	412.27
691.811	437.27
692.255	466.37
692.7	505.87
693.145	552.47
693.589	779.27
694.034	1252.07
694.478	1688.17
694.923	1871.87
695.367	2409.67
695.812	1288.77
696.256	544.57
696.701	404.57
697.145	367.07
697.59	357.47
698.034	346.47
698.478	347.57
698.922	351.47
699.367	351.97
699.811	360.97
700.255	387.77
700.699	413.07
701.143	456.87
701.588	512.67
702.032	553.77
702.476	553.07
702.92	531.47
703.364	539.27
703.808	712.27
704.252	1159.27
704.696	1609.37
705.14	1800.17
705.584	2283.17
706.027	1154.27
706.471	570.67
706.915	427.07
707.359	384.07
707.803	350.97
708.246	337.17
708.69	337.77
709.134	340.07
709.577	333.67
710.021	342.37
710.465	336.27
710.908	324.37
711.352	324.07
711.795	339.17
712.239	388.87
712.682	422.47
713.126	442.77
713.569	491.37
714.012	388.57
714.456	329.07
714.899	314.57
715.342	291.77
715.786	291.37
716.229	277.77
716.672	283.07
717.115	265.67
717.558	268.17
718.002	275.27
718.445	285.77
718.888	306.37
719.331	316.47
719.774	329.57
720.217	328.67
720.66	307.57
721.103	287.87
721.546	272.47
721.989	274.07
722.432	253.87
722.874	252.37
723.317	247.97
723.76	251.17
724.203	278.77
724.645	353.87
725.088	487.07
725.531	613.17
725.974	687.17
726.416	588.67
726.859	335.27
727.301	266.77
727.744	254.57
728.187	246.57
728.629	260.47
729.071	265.47
729.514	283.97
729.956	294.97
730.399	309.07
730.841	311.97
731.283	300.77
731.726	288.27
732.168	285.97
732.61	294.07
733.053	311.47
733.495	346.87
733.937	387.37
734.379	435.67
734.821	478.57
735.263	597.47
735.705	934.17
736.148	1761.07
736.59	2848.17
737.032	3269.17
737.474	2683.47
737.916	903.17
738.357	473.47
738.799	360.27
739.241	322.17
739.683	311.07
740.125	313.07
740.567	328.27
741.008	342.57
741.45	347.67
741.892	347.27
742.334	388.77
742.775	387.97
743.217	374.27
743.658	298.37
744.1	284.17
744.542	286.67
744.983	346.77
745.425	375.67
745.866	375.37
746.307	307.97
746.749	305.57
747.19	356.27
747.632	504.07
748.073	993.57
748.514	2084.67
748.956	3118.97
749.397	3920.47
749.838	3253.17
750.279	3185.47
750.72	1629.37
751.162	611.57
751.603	349.47
752.044	274.77
752.485	235.97
752.926	226.87
753.367	224.27
753.808	215.17
754.249	206.57
754.69	204.47
755.131	202.57
755.572	196.07
756.013	197.57
756.453	207.37
756.894	196.87
757.335	211.67
757.776	209.37
758.216	212.87
758.657	214.77
759.098	219.47
759.538	248.47
759.979	295.37
760.42	416.17
760.86	783.67
761.301	2096.07
761.741	4898.17
762.182	6848.87
762.622	4868.27
763.063	1439.57
763.503	579.87
763.943	354.57
764.384	303.47
764.824	288.07
765.264	281.57
765.705	237.57
766.145	202.47
766.585	192.47
767.025	177.57
767.465	184.07
767.906	201.07
768.346	222.27
768.786	238.67
769.226	242.77
769.666	337.97
770.106	709.57
770.546	1746.27
770.986	2844.67
771.426	2532.47
771.866	871.27
772.306	351.77
772.745	223.27
773.185	187.87
773.625	171.87
774.065	158.07
774.505	174.07
774.944	224.27
775.384	399.67
775.824	640.27
776.263	614.57
776.703	306.07
777.142	180.87
777.582	145.87
778.021	132.97
778.461	138.47
778.9	135.07
779.34	137.37
779.779	119.87
780.219	116.17
780.658	111.37
781.097	114.97
781.537	122.67
781.976	111.07
782.415	111.27
782.855	106.97
783.294	108.17
783.733	112.07
784.172	117.17
784.611	105.07
785.05	122.87
785.489	123.47
785.928	121.67
786.367	133.37
786.806	126.77
787.245	142.57
787.684	146.97
788.123	153.17
788.562	142.57
789.001	142.77
789.44	127.47
789.879	123.27
790.317	128.97
790.756	134.27
791.195	146.37
791.634	162.07
792.072	224.57
792.511	409.57
792.95	1128.37
793.388	2290.07
793.827	2023.67
794.265	724.67
794.704	313.07
795.142	191.47
795.581	160.97
796.019	143.67
796.458	136.67
796.896	137.37
797.334	143.27
797.773	178.47
798.211	247.37
798.649	498.67
799.087	1131.27
799.526	1754.97
799.964	2217.17
800.402	2142.27
800.84	826.57
801.278	334.47
801.716	197.77
802.154	167.87
802.592	153.07
803.03	153.27
803.468	147.77
803.906	157.67
804.344	159.07
804.782	155.27
805.22	141.77
805.658	140.07
806.096	160.27
806.533	170.07
806.971	189.87
807.409	242.97
807.847	352.87
808.284	751.27
808.722	2081.87
809.16	3569.07
809.597	3490.57
810.035	5912.37
810.472	6125.47
810.91	2264.67
811.347	880.27
811.785	437.17
812.222	281.37
812.66	215.17
813.097	174.97
813.535	153.77
813.972	142.47
814.409	130.67
814.846	114.47
815.284	113.77
815.721	107.97
816.158	112.47
816.595	117.17
817.032	167.97
817.47	193.07
817.907	138.77
818.344	110.17
818.781	106.77
819.218	102.67
819.655	140.97
820.092	209.17
820.529	230.37
820.966	185.87
821.403	138.17
821.839	107.87
822.276	104.57
822.713	130.47
823.15	144.77
823.587	127.27
824.023	159.67
824.46	349.57
824.897	992.57
825.333	1447.97
825.77	637.47
826.206	252.67
826.643	151.27
827.08	115.17
827.516	86.77
827.953	82.87
828.389	86.27
828.825	75.17
829.262	77.17
829.698	75.17
830.135	74.57
830.571	64.57
831.007	68.97
831.443	68.97
831.88	68.67
832.316	67.17
832.752	70.17
833.188	70.47
833.624	68.97
834.06	75.27
834.497	75.67
834.933	83.37
835.369	77.67
835.805	69.27
836.241	87.87
836.677	92.87
837.112	98.87
837.548	111.47
837.984	142.57
838.42	222.17
838.856	569.57
839.292	1675.97
839.727	2454.07
840.163	1161.37
840.599	1029.97
841.034	2229.17
841.47	2260.57
841.906	833.77
842.341	352.47
842.777	208.07
843.212	224.77
843.648	197.27
844.083	119.37
844.519	90.07
844.954	81.97
845.39	68.17
845.825	62.17
846.261	61.07
846.696	55.87
847.131	60.87
847.566	58.77
848.002	52.77
848.437	54.07
848.872	62.77
849.307	59.77
849.742	92.27
850.177	200.17
850.613	616.67
851.048	939.87
851.483	412.87
851.918	166.87
852.353	93.37
852.788	62.57
853.223	52.67
853.657	55.27
854.092	53.27
854.527	43.67
854.962	46.07
855.397	45.47
855.832	57.87
856.266	44.67
856.701	45.97
857.136	41.17
857.57	47.37
858.005	51.07
858.44	68.57
858.874	45.47
859.309	58.27
859.743	46.37
860.178	52.77
860.612	51.17
861.047	54.47
861.481	74.67
861.915	71.17
862.35	60.27
862.784	41.67
863.218	41.87
863.653	36.07
864.087	45.97
864.521	52.27
864.955	73.57
865.39	166.67
865.824	181.07
866.258	123.17
866.692	183.17
867.126	201.57
867.56	117.97
867.994	64.27
868.428	41.57
868.862	50.97
869.296	58.47
869.73	58.47
870.164	56.17
870.598	63.17
871.031	40.07
871.465	31.57
871.899	35.37
872.333	27.97
872.766	23.37
873.2	23.97
873.634	28.97
874.067	31.47
874.501	28.27
874.935	41.77
875.368	33.67
875.802	27.77
876.235	32.77
876.669	22.07
877.102	19.67
877.535	28.07
877.969	23.97
878.402	27.47
878.836	15.97
879.269	23.37
879.702	25.07
880.135	18.37
880.569	19.67
881.002	23.77
881.435	21.47
881.868	12.07
882.301	27.47
882.734	17.07
883.167	23.77
883.601	21.37
884.034	23.77
884.467	16.77
884.899	19.67
885.332	17.37
885.765	18.37
886.198	21.67
886.631	18.17
887.064	16.57
887.497	16.07
887.929	24.17
888.362	18.07
888.795	13.17
889.228	19.77
889.66	17.37
890.093	17.47
890.526	17.77
890.958	15.17
891.391	14.37
891.823	19.07
892.256	13.97
892.688	15.47
893.121	22.37
893.553	12.37
893.985	24.37
894.418	21.07
894.85	13.17
895.282	23.47
895.715	21.87
896.147	18.67
896.579	13.77
897.011	16.17
897.444	17.07
897.876	13.77
898.308	20.37
898.74	15.77
899.172	15.27
899.604	20.17
900.036	19.67
900.468	17.97
900.9	12.27
901.332	20.97
901.764	17.87
902.196	13.77
902.628	19.77
903.06	19.67
903.491	31.07
903.923	22.97
904.355	18.87
904.787	25.37
905.218	24.07
905.65	18.17
906.082	11.27
906.513	21.47
906.945	18.17
907.376	15.97
907.808	19.27
908.239	18.27
908.671	22.57
909.102	21.77
909.534	24.27
909.965	49.37
910.397	98.97
910.828	336.47
911.259	495.27
911.691	237.47
912.122	113.47
912.553	55.97
912.984	35.47
913.415	24.17
913.847	18.07
914.278	18.57
914.709	12.97
915.14	22.77
915.571	15.07
916.002	8.97
916.433	17.37
916.864	23.87
917.295	13.37
917.726	17.97
918.157	17.37
918.587	31.17
919.018	21.87
919.449	21.67
919.88	24.27
920.311	29.57
920.741	53.47
921.172	180.07
921.603	161.97
922.033	75.97
922.464	41.37
922.895	27.87
923.325	24.67
923.756	15.27
924.186	13.27
924.617	20.07
925.047	22.27
925.478	29.27
925.908	18.57
926.338	9.47
926.769	11.17
927.199	20.07
927.629	11.77
928.06	12.57
928.49	12.17
928.92	9.07
929.35	10.57
929.78	10.67
930.21	5.87
930.641	12.47
931.071	4.47
931.501	8.07
931.931	4.37
932.361	4.27
932.791	4.87
933.221	10.07
933.651	0.57
934.08	20.17
934.51	29.97
934.94	8.07
935.37	11.97
935.8	9.37
936.229	6.27
936.659	3.47
937.089	8.97
937.519	18.27
937.948	20.77
938.378	18.97
938.807	9.67
939.237	6.57
939.666	12.47
940.096	-4.13
940.525	1.67
940.955	4.77
941.384	6.67
941.814	0.47
942.243	-3.63
942.672	4.77
943.102	-0.53
943.531	-2.93
943.96	2.37
944.39	1.17
944.819	5.87
945.248	2.87
945.677	6.07
946.106	5.67
946.535	3.17
946.964	-0.33
947.393	1.47
947.822	4.47
948.251	-8.33
948.68	3.27
949.109	4.87
949.538	5.47
949.967	-2.83
950.396	2.27
950.825	-1.93
951.254	-1.93
951.682	-9.13
952.111	4.77
952.54	6.07
952.969	-5.43
953.397	-0.23
953.826	-1.93
954.254	-2.23
954.683	2.67
955.112	-3.03
955.54	-1.63
955.969	3.97
956.397	-3.93
956.826	-2.33
957.254	3.57
957.682	-2.33
958.111	7.97
958.539	5.37
958.967	0.67
959.396	-3.53
959.824	4.07
960.252	0.57
960.68	-4.73
961.109	-6.93
961.537	-3.63
961.965	-1.73
962.393	4.17
962.821	-8.93
963.249	2.57
963.677	1.17
964.105	8.27
964.533	49.87
964.961	40.07
965.389	19.57
965.817	8.97
966.245	1.47
966.672	-0.33
967.1	-5.33
967.528	-4.63
967.956	-0.33
968.383	6.07
968.811	0.47
969.239	1.37
969.666	-3.13
970.094	3.97
970.522	5.37
970.949	2.37
971.377	-0.93
971.804	1.37
972.232	-0.33
972.659	-2.03
973.087	-0.83
973.514	-8.23
973.941	-8.63
974.369	7.67
974.796	-0.33
975.223	0.27
975.651	-1.23
976.078	4.07
976.505	-1.63
976.932	-0.63
977.359	16.67
977.786	16.87
978.214	2.57
978.641	-4.73
979.068	2.67
979.495	2.37
979.922	-2.23
980.349	-2.33
980.776	3.77
981.202	-3.33
981.629	4.87
982.056	-2.93
982.483	-5.23
982.91	1.57
983.337	-5.13
983.763	6.27
984.19	-4.43
984.617	-7.53
985.043	-7.93
985.47	-1.93
985.897	-0.23
986.323	-10.33
986.75	3.17
987.176	-0.83
987.603	-2.03
988.029	-0.73
988.456	-7.53
988.882	-0.53
989.308	-5.93
989.735	-5.93
990.161	0.37
990.587	-9.83
991.014	2.27
991.44	7.37
991.866	-5.23
992.292	-8.73
992.719	-8.53
993.145	4.97
993.571	-11.13
993.997	1.07
994.423	2.17
994.849	-2.53
995.275	0.27
995.701	0.17
996.127	-4.93
996.553	1.67
996.979	-7.03
997.405	-5.93
997.83	1.57
998.256	-7.33
998.682	-4.23
999.108	-8.03
999.534	2.57
999.959	-0.93
1000.385	-3.03
1000.811	-5.23
1001.236	-2.43
1001.662	-5.63
1002.087	-6.73
1002.513	-4.83
1002.938	-2.63
1003.364	-1.23
1003.789	-0.53
1004.215	2.57
1004.64	-3.63
1005.066	3.17
1005.491	-2.03
1005.916	1.67
1006.342	-3.63
1006.767	-12.03
1007.192	3.37
1007.617	-4.93
1008.042	-5.33
1008.468	-4.13
1008.893	0.67
1009.318	-5.23
1009.743	-2.23
1010.168	3.47
1010.593	2.27
1011.018	-9.63
1011.443	-3.63
1011.868	1.17
1012.293	-3.53
1012.718	-8.73
1013.143	4.67
1013.567	0.17
1013.992	0.37
1014.417	-13.03
1014.842	0.37
1015.267	-6.03
1015.691	-4.23
1016.116	5.77
1016.541	-5.03
1016.965	3.37
1017.39	0.57
1017.814	-2.43
1018.239	-5.93
1018.663	-6.83
1019.088	-7.33
1019.512	-3.63
1019.937	-6.53
1020.361	-5.83
1020.785	-12.53
1021.21	-10.03
1021.634	-7.03
1022.058	-2.93
1022.483	2.67
1022.907	-4.93
1023.331	-4.93
1023.755	-6.63
1024.179	-0.43
1024.604	-5.63
1025.028	-6.53
1025.452	-9.13
1025.876	-1.63
1026.3	4.97
1026.724	-13.83
1027.148	-2.83
1027.572	-6.23
1027.996	-2.63
1028.42	0.77
1028.843	-5.53
1029.267	-5.43
1029.691	4.77
1030.115	-8.03
1030.539	-9.43
1030.962	-6.23
1031.386	-16.73
1031.81	-4.23
1032.233	-0.63
1032.657	-11.13
1033.08	-2.73
1033.504	-2.63
1033.927	-9.03
1034.351	-0.73
1034.774	-5.53
1035.198	-9.23
1035.621	-5.83
1036.045	-4.13
1036.468	-2.13
1036.891	-15.53
1037.315	-12.13
1037.738	-11.43
1038.161	-2.53
1038.584	-12.33
1039.008	-2.53
1039.431	-0.33
1039.854	-7.33
1040.277	-14.23
1040.7	-17.13
1041.123	4.67
1041.546	-2.33
1041.969	-8.63
1042.392	-8.23
1042.815	-1.73
1043.238	-1.63
1043.661	2.77
1044.084	-6.23
1044.507	-2.83
1044.93	-5.53
1045.352	-12.53
1045.775	-1.83
1046.198	-1.53
1046.621	-4.23
1047.043	-2.43
1047.466	8.17
1047.889	-3.23
1048.311	-8.13
1048.734	-1.13
1049.156	-2.43
1049.579	-1.93
1050.001	-3.43
1050.424	-4.93
1050.846	-2.43
1051.269	-5.93
1051.691	-6.03
1052.113	-7.63
1052.536	0.37
1052.958	-1.23
1053.38	-11.43
1053.802	-11.53
1054.225	-1.43
1054.647	-13.73
1055.069	-5.73
1055.491	0.97
1055.913	-5.43
1056.335	-9.13
1056.757	-6.23
1057.179	-9.03
1057.601	-10.53
1058.023	-7.13
1058.445	-0.83
1058.867	-9.63
1059.289	-8.03
1059.711	-6.13
1060.133	-1.63
1060.555	-8.93
1060.976	-4.63
1061.398	-6.03
1061.82	-5.03
1062.241	-6.43
1062.663	-7.53
1063.085	-12.23
1063.506	-0.33
1063.928	-8.23
1064.35	-3.43
1064.771	-8.93
1065.193	-1.93
1065.614	-7.03
1066.035	-4.13
1066.457	-7.53
1066.878	-6.93
1067.3	-6.53
1067.721	-6.23
1068.142	-5.73
1068.564	-0.53
1068.985	-6.83
1069.406	-9.23
1069.827	-5.83
1070.248	-6.13
1070.67	-6.23
1071.091	-6.93
1071.512	-3.03
1071.933	-10.43
1072.354	-10.33
1072.775	-7.03
1073.196	-12.93
1073.617	-0.33
1074.038	-5.73
1074.459	-6.93
1074.88	-5.63
1075.3	2.17
1075.721	-10.53
1076.142	-1.53
1076.563	2.07
1076.983	-13.03
1077.404	-4.73
1077.825	-11.83
1078.246	-7.03
1078.666	-10.83
1079.087	-5.03
1079.507	-2.83
1079.928	3.17
1080.348	-3.43
1080.769	-5.33
1081.189	-7.63
1081.61	-7.33
1082.03	-11.33
1082.451	-4.43
1082.871	-7.73
1083.291	-8.13
1083.711	-6.23
1084.132	-7.33
1084.552	-1.43
1084.972	-3.73
1085.392	-11.33
1085.813	-11.43
1086.233	-9.83
1086.653	-0.83
1087.073	-0.63
1087.493	-12.43
1087.913	-8.03
1088.333	-9.13
1088.753	-1.83
1089.173	4.07
1089.593	-5.83
1090.013	-1.53
1090.433	-2.23
1090.852	-8.83
1091.272	-2.53
1091.692	-7.33
1092.112	-3.43
1092.531	-6.83
1092.951	-14.03
1093.371	-6.93
1093.79	-0.93
1094.21	-5.43
1094.63	-3.03
1095.049	-9.53
1095.469	-6.03
1095.888	-0.93
1096.308	6.37
1096.727	1.97
1097.146	-5.13
1097.566	-3.63
1097.985	-6.33
1098.405	1.07
1098.824	-3.03
1099.243	-11.33
1099.662	-8.43
1100.082	-3.93
1100.501	-0.23
1100.92	-9.63
1101.339	-4.73
1101.758	-4.03
