Data from 20171114-ORNL-Ar_H_NY_Subt18_08-07-01-407.txt Node
Date: Tue Nov 14 08:07:01 EST 2017
User: Ender
Spectrometer: HR+D1039
Trigger mode: 0
Integration Time (sec): 2.730000E-2
Scans to average: 10
Electric dark correction enabled: true
Nonlinearity correction enabled: false
Boxcar width: 0
XAxis mode: Wavelengths
Number of Pixels in Spectrum: 2048
>>>>>Begin Spectral Data<<<<<
187.836	-3.08
188.309	-3.08
188.782	-3.08
189.255	-0.18
189.728	-2.08
190.201	3.12
190.674	5.82
191.147	0.22
191.619	-6.88
192.092	0.82
192.565	4.32
193.038	0.52
193.511	2.22
193.984	4.12
194.456	-4.98
194.929	2.32
195.402	-1.98
195.874	-4.28
196.347	-5.78
196.82	-2.98
197.292	1.62
197.765	-7.08
198.237	-8.58
198.71	1.12
199.182	-5.18
199.655	2.42
200.127	-0.98
200.6	-1.88
201.072	-2.88
201.544	-7.18
202.017	-3.38
202.489	5.72
202.961	1.92
203.433	-7.58
203.906	-3.18
204.378	-4.08
204.85	-2.18
205.322	-11.28
205.794	1.42
206.266	-5.68
206.739	-5.88
207.211	0.02
207.683	-8.78
208.155	-8.08
208.627	-4.28
209.099	-1.98
209.57	-10.48
210.042	-0.48
210.514	-4.58
210.986	-2.88
211.458	-10.88
211.93	-5.38
212.402	-1.78
212.873	-10.68
213.345	-4.78
213.817	-6.08
214.288	-1.28
214.76	-5.98
215.232	-4.18
215.703	-2.28
216.175	-4.18
216.646	1.12
217.118	-6.48
217.589	-11.98
218.061	-5.18
218.532	-4.78
219.004	-8.28
219.475	-7.78
219.946	-7.88
220.418	-7.08
220.889	0.22
221.36	1.22
221.832	-6.68
222.303	-10.98
222.774	1.32
223.245	-7.78
223.717	-7.68
224.188	-5.08
224.659	-6.68
225.13	-6.38
225.601	-2.48
226.072	4.22
226.543	-2.48
227.014	2.32
227.485	-1.38
227.956	-5.48
228.427	-7.18
228.898	-4.38
229.369	2.12
229.839	-1.08
230.31	-7.58
230.781	-1.08
231.252	-3.38
231.722	-11.28
232.193	-0.18
232.664	-5.08
233.135	0.22
233.605	-5.58
234.076	-13.18
234.546	-6.68
235.017	-1.08
235.487	-3.28
235.958	-4.98
236.428	-7.68
236.899	-6.78
237.369	-9.08
237.84	-3.88
238.31	0.32
238.78	-2.08
239.251	-3.78
239.721	-9.48
240.191	-4.88
240.662	-5.08
241.132	-10.28
241.602	-0.18
242.072	-3.98
242.542	0.72
243.013	-4.08
243.483	-1.38
243.953	-2.68
244.423	-7.08
244.893	-3.58
245.363	-2.28
245.833	1.12
246.303	-6.08
246.773	3.42
247.243	-1.58
247.712	3.22
248.182	7.32
248.652	-1.38
249.122	-11.78
249.592	1.52
250.061	3.82
250.531	9.92
251.001	-5.18
251.471	1.82
251.94	4.92
252.41	3.52
252.879	-6.08
253.349	7.32
253.818	3.52
254.288	-0.88
254.757	-2.68
255.227	-5.88
255.696	-1.38
256.166	-0.78
256.635	0.92
257.105	4.12
257.574	-0.18
258.043	-5.98
258.513	-4.08
258.982	-1.78
259.451	-6.28
259.92	-5.78
260.389	-3.08
260.859	11.42
261.328	2.82
261.797	4.32
262.266	-3.18
262.735	9.32
263.204	-1.38
263.673	-3.98
264.142	2.02
264.611	-3.68
265.08	0.32
265.549	-4.78
266.018	3.22
266.487	-8.48
266.955	-2.68
267.424	-0.88
267.893	-0.48
268.362	-3.88
268.83	2.42
269.299	6.82
269.768	0.32
270.236	0.22
270.705	-7.28
271.174	4.42
271.642	1.42
272.111	4.42
272.579	1.72
273.048	3.02
273.516	-0.98
273.985	-3.08
274.453	4.02
274.922	8.82
275.39	3.22
275.858	-1.88
276.327	15.62
276.795	8.22
277.263	2.02
277.731	12.12
278.2	6.42
278.668	9.62
279.136	4.22
279.604	1.12
280.072	2.32
280.54	11.52
281.008	6.52
281.477	12.02
281.945	6.22
282.413	11.72
282.881	7.72
283.348	-2.48
283.816	10.02
284.284	10.22
284.752	18.52
285.22	5.72
285.688	9.92
286.156	10.12
286.623	12.12
287.091	7.92
287.559	9.02
288.026	7.92
288.494	8.52
288.962	2.42
289.429	2.02
289.897	14.62
290.364	8.12
290.832	8.62
291.3	1.92
291.767	11.42
292.234	13.12
292.702	8.22
293.169	12.42
293.637	14.52
294.104	15.62
294.571	5.52
295.039	4.02
295.506	8.92
295.973	10.22
296.44	7.52
296.908	15.52
297.375	11.32
297.842	9.32
298.309	9.32
298.776	7.02
299.243	12.62
299.71	6.62
300.177	12.72
300.644	12.92
301.111	12.62
301.578	20.92
302.045	11.42
302.512	18.12
302.979	15.32
303.446	15.02
303.913	8.62
304.379	11.62
304.846	23.32
305.313	19.42
305.78	17.72
306.246	12.82
306.713	25.12
307.18	18.52
307.646	17.82
308.113	26.32
308.579	10.52
309.046	23.92
309.512	22.02
309.979	14.92
310.445	23.12
310.912	26.32
311.378	23.92
311.845	21.82
312.311	26.82
312.777	17.62
313.244	22.72
313.71	31.72
314.176	22.02
314.642	22.82
315.109	21.32
315.575	24.42
316.041	33.62
316.507	24.12
316.973	24.12
317.439	22.62
317.905	29.32
318.371	32.42
318.837	23.22
319.303	25.72
319.769	31.82
320.235	27.02
320.701	28.12
321.167	26.62
321.633	21.52
322.099	24.32
322.564	30.22
323.03	27.82
323.496	28.42
323.962	31.02
324.427	29.42
324.893	30.72
325.359	29.92
325.824	29.72
326.29	30.52
326.755	32.62
327.221	28.82
327.686	28.42
328.152	32.02
328.617	34.52
329.083	40.02
329.548	40.82
330.014	40.12
330.479	36.52
330.944	36.22
331.41	38.42
331.875	43.52
332.34	36.62
332.805	38.32
333.271	44.72
333.736	30.42
334.201	43.82
334.666	43.02
335.131	43.22
335.596	41.22
336.061	44.62
336.526	36.92
336.991	41.22
337.456	45.52
337.921	40.62
338.386	37.32
338.851	38.62
339.316	35.52
339.781	41.32
340.246	47.42
340.711	43.02
341.175	46.72
341.64	36.32
342.105	43.72
342.569	51.72
343.034	44.62
343.499	50.92
343.963	50.42
344.428	64.52
344.893	52.32
345.357	57.82
345.822	50.82
346.286	63.12
346.751	60.02
347.215	54.62
347.679	70.32
348.144	74.82
348.608	77.22
349.073	60.92
349.537	66.12
350.001	61.92
350.465	81.42
350.93	70.82
351.394	76.82
351.858	59.92
352.322	80.82
352.786	70.32
353.25	86.12
353.715	96.12
354.179	82.72
354.643	100.82
355.107	101.82
355.571	85.92
356.035	86.22
356.498	98.52
356.962	96.92
357.426	107.72
357.89	96.92
358.354	75.22
358.818	71.92
359.281	68.32
359.745	67.62
360.209	72.42
360.673	63.82
361.136	73.42
361.6	77.82
362.064	82.62
362.527	82.42
362.991	81.62
363.454	72.52
363.918	65.02
364.381	66.42
364.845	74.32
365.308	80.52
365.772	76.02
366.235	82.92
366.698	71.42
367.162	77.02
367.625	75.42
368.088	79.22
368.552	82.12
369.015	77.52
369.478	86.92
369.941	88.92
370.404	86.02
370.867	92.02
371.331	95.62
371.794	96.02
372.257	88.22
372.72	97.32
373.183	95.52
373.646	84.12
374.109	85.82
374.572	96.42
375.035	93.22
375.497	97.42
375.96	95.52
376.423	99.02
376.886	98.52
377.349	97.22
377.811	96.32
378.274	97.42
378.737	100.52
379.199	101.82
379.662	102.92
380.125	99.82
380.587	104.52
381.05	101.32
381.512	108.72
381.975	117.02
382.437	112.22
382.9	108.82
383.362	119.42
383.825	122.82
384.287	120.72
384.75	118.12
385.212	113.72
385.674	130.62
386.136	125.22
386.599	107.02
387.061	116.22
387.523	116.12
387.985	121.62
388.447	126.22
388.91	124.82
389.372	121.12
389.834	122.02
390.296	120.32
390.758	127.22
391.22	131.02
391.682	146.22
392.144	138.42
392.606	132.42
393.068	138.62
393.529	141.62
393.991	132.62
394.453	119.62
394.915	122.12
395.377	132.62
395.838	132.22
396.3	130.32
396.762	133.92
397.224	130.72
397.685	123.32
398.147	128.92
398.608	132.02
399.07	124.22
399.531	135.22
399.993	142.02
400.454	151.72
400.916	136.32
401.377	147.02
401.839	153.32
402.3	151.62
402.762	164.22
403.223	170.22
403.684	165.72
404.145	161.22
404.607	158.62
405.068	156.82
405.529	166.82
405.99	174.92
406.451	166.52
406.913	170.12
407.374	157.92
407.835	157.52
408.296	158.42
408.757	166.52
409.218	174.82
409.679	173.12
410.14	166.42
410.601	176.02
411.062	180.12
411.522	178.52
411.983	176.62
412.444	171.32
412.905	180.62
413.366	182.92
413.826	203.02
414.287	222.42
414.748	270.92
415.208	249.22
415.669	214.22
416.13	214.62
416.59	209.52
417.051	218.22
417.511	225.22
417.972	242.62
418.432	247.22
418.893	293.42
419.353	253.12
419.814	205.32
420.274	188.32
420.734	178.62
421.195	200.72
421.655	188.22
422.115	204.32
422.576	192.52
423.036	204.12
423.496	211.12
423.956	220.22
424.416	236.72
424.876	276.62
425.336	268.92
425.797	262.72
426.257	262.42
426.717	241.92
427.177	239.52
427.637	226.82
428.097	231.92
428.556	252.52
429.016	272.32
429.476	261.32
429.936	275.22
430.396	278.82
430.856	284.72
431.315	305.12
431.775	345.12
432.235	372.12
432.694	353.62
433.154	348.02
433.614	387.82
434.073	332.02
434.533	282.82
434.993	267.82
435.452	280.12
435.912	288.22
436.371	288.92
436.83	275.92
437.29	271.22
437.749	249.52
438.209	251.12
438.668	276.02
439.127	287.82
439.587	264.52
440.046	255.02
440.505	261.12
440.964	279.42
441.424	322.62
441.883	306.92
442.342	260.32
442.801	236.22
443.26	230.52
443.719	231.02
444.178	230.02
444.637	220.62
445.096	225.72
445.555	232.62
446.014	238.12
446.473	234.62
446.932	238.92
447.391	230.32
447.849	238.22
448.308	231.92
448.767	233.42
449.226	247.42
449.685	247.72
450.143	261.52
450.602	251.52
451.061	239.02
451.519	248.62
451.978	238.62
452.436	247.32
452.895	255.52
453.353	261.82
453.812	245.52
454.27	247.72
454.729	255.12
455.187	250.42
455.646	254.72
456.104	262.32
456.562	267.32
457.021	279.72
457.479	265.72
457.937	285.32
458.395	283.72
458.854	258.72
459.312	267.32
459.77	289.02
460.228	270.32
460.686	260.82
461.144	264.72
461.602	254.22
462.06	260.52
462.518	270.02
462.976	265.92
463.434	276.52
463.892	270.92
464.35	291.02
464.808	298.32
465.266	282.42
465.724	278.62
466.181	293.22
466.639	278.22
467.097	310.22
467.555	320.52
468.012	311.12
468.47	325.52
468.928	345.72
469.385	363.62
469.843	359.02
470.3	356.42
470.758	375.02
471.215	403.02
471.673	425.92
472.13	423.22
472.588	441.22
473.045	391.22
473.503	404.62
473.96	417.52
474.417	422.52
474.875	445.02
475.332	487.22
475.789	480.42
476.246	489.02
476.704	512.52
477.161	519.42
477.618	537.32
478.075	580.72
478.532	629.42
478.989	687.62
479.446	807.72
479.903	779.02
480.36	804.32
480.817	853.72
481.274	945.32
481.731	1046.02
482.188	1122.32
482.645	1235.72
483.102	1329.62
483.558	1460.52
484.015	1484.02
484.472	1469.22
484.929	1435.22
485.385	1392.02
485.842	1369.62
486.299	1304.32
486.755	1262.42
487.212	1083.82
487.668	928.92
488.125	857.02
488.582	790.62
489.038	769.02
489.494	727.72
489.951	700.42
490.407	687.82
490.864	669.02
491.32	669.52
491.776	665.12
492.233	666.02
492.689	644.82
493.145	633.72
493.602	621.82
494.058	637.32
494.514	639.12
494.97	659.62
495.426	672.82
495.882	647.32
496.338	638.12
496.794	648.72
497.251	645.92
497.707	666.22
498.163	660.32
498.618	660.02
499.074	677.02
499.53	705.22
499.986	697.62
500.442	671.52
500.898	653.12
501.354	647.42
501.809	649.02
502.265	654.22
502.721	649.02
503.177	657.62
503.632	664.72
504.088	678.42
504.543	706.52
504.999	720.62
505.455	687.02
505.91	667.52
506.366	678.72
506.821	664.22
507.277	654.42
507.732	667.12
508.187	671.62
508.643	682.52
509.098	679.62
509.553	693.62
510.009	689.82
510.464	704.32
510.919	723.12
511.375	731.22
511.83	752.72
512.285	759.42
512.74	798.92
513.195	831.42
513.65	807.22
514.105	806.52
514.56	813.02
515.015	824.02
515.47	846.02
515.925	833.72
516.38	834.22
516.835	828.72
517.29	823.32
517.745	818.02
518.2	809.32
518.655	793.62
519.109	778.42
519.564	787.92
520.019	771.42
520.474	771.52
520.928	771.12
521.383	764.12
521.838	749.42
522.292	747.32
522.747	752.32
523.201	746.62
523.656	741.62
524.11	730.32
524.565	733.02
525.019	734.62
525.474	734.42
525.928	727.32
526.382	732.42
526.837	739.22
527.291	741.52
527.745	732.42
528.2	740.82
528.654	710.72
529.108	725.42
529.562	731.22
530.016	726.72
530.47	731.72
530.925	726.92
531.379	735.02
531.833	741.22
532.287	736.52
532.741	734.72
533.195	747.12
533.649	748.32
534.103	761.52
534.556	746.42
535.01	748.02
535.464	744.62
535.918	747.02
536.372	758.52
536.826	758.32
537.279	740.82
537.733	749.42
538.187	769.62
538.64	744.92
539.094	750.32
539.548	780.32
540.001	760.42
540.455	764.42
540.908	782.72
541.362	779.62
541.815	789.52
542.269	800.22
542.722	802.62
543.175	810.32
543.629	812.12
544.082	827.82
544.536	837.52
544.989	829.12
545.442	838.32
545.895	837.12
546.349	840.92
546.802	838.22
547.255	851.92
547.708	860.02
548.161	858.92
548.614	866.02
549.067	871.02
549.52	879.22
549.973	864.92
550.426	853.62
550.879	841.92
551.332	854.32
551.785	857.92
552.238	856.82
552.691	855.92
553.144	881.12
553.596	894.22
554.049	916.52
554.502	942.92
554.955	960.32
555.407	961.02
555.86	953.92
556.313	944.92
556.765	933.92
557.218	935.62
557.67	936.02
558.123	920.62
558.576	925.32
559.028	931.82
559.48	933.22
559.933	925.32
560.385	899.92
560.838	861.62
561.29	830.42
561.742	830.72
562.195	809.32
562.647	806.82
563.099	828.32
563.551	808.72
564.004	835.42
564.456	816.32
564.908	802.62
565.36	787.62
565.812	773.02
566.264	767.72
566.716	766.32
567.168	753.32
567.62	746.72
568.072	735.42
568.524	739.42
568.976	728.92
569.428	715.02
569.88	721.82
570.332	725.32
570.784	731.42
571.235	727.02
571.687	742.32
572.139	746.02
572.59	762.22
573.042	758.32
573.494	759.32
573.945	751.02
574.397	730.42
574.849	732.02
575.3	738.02
575.752	722.72
576.203	709.62
576.655	729.72
577.106	706.82
577.557	717.72
578.009	711.62
578.46	708.32
578.912	694.52
579.363	709.72
579.814	708.32
580.265	702.82
580.717	704.92
581.168	705.52
581.619	716.62
582.07	720.32
582.521	710.42
582.972	713.42
583.423	707.82
583.875	712.12
584.326	724.52
584.777	738.12
585.227	749.12
585.678	769.82
586.129	788.82
586.58	792.72
587.031	828.92
587.482	856.12
587.933	875.32
588.384	870.82
588.834	828.62
589.285	806.92
589.736	809.62
590.186	805.82
590.637	806.82
591.088	796.42
591.538	778.92
591.989	762.22
592.439	773.72
592.89	757.22
593.34	742.72
593.791	746.82
594.241	737.52
594.692	742.02
595.142	735.82
595.593	734.02
596.043	735.42
596.493	741.02
596.943	744.32
597.394	754.22
597.844	764.42
598.294	770.12
598.744	791.42
599.195	817.72
599.645	862.72
600.095	904.82
600.545	964.72
600.995	1020.32
601.445	1075.82
601.895	1145.82
602.345	1196.62
602.795	1176.62
603.245	1132.32
603.695	1070.92
604.145	999.72
604.594	959.72
605.044	896.82
605.494	843.42
605.944	794.32
606.393	775.72
606.843	759.72
607.293	767.22
607.743	770.92
608.192	774.52
608.642	795.62
609.091	790.52
609.541	792.22
609.99	797.12
610.44	801.02
610.889	751.72
611.339	727.12
611.788	714.82
612.238	731.82
612.687	736.12
613.136	727.22
613.586	738.52
614.035	735.02
614.484	747.82
614.933	738.82
615.383	737.72
615.832	735.42
616.281	730.12
616.73	703.92
617.179	684.62
617.628	668.22
618.077	656.32
618.526	649.32
618.975	645.42
619.424	643.82
619.873	641.72
620.322	640.22
620.771	634.22
621.22	629.12
621.669	622.12
622.118	611.22
622.567	602.52
623.015	584.32
623.464	590.42
623.913	583.22
624.361	576.32
624.81	582.02
625.259	572.62
625.707	583.22
626.156	581.92
626.604	593.62
627.053	582.82
627.501	588.02
627.95	602.92
628.398	609.72
628.847	605.52
629.295	597.92
629.744	604.72
630.192	595.62
630.64	586.62
631.089	575.12
631.537	563.52
631.985	557.92
632.433	550.42
632.881	547.02
633.33	548.02
633.778	547.42
634.226	547.32
634.674	564.32
635.122	570.02
635.57	573.62
636.018	589.52
636.466	582.12
636.914	581.72
637.362	593.72
637.81	609.92
638.258	598.52
638.705	606.92
639.153	636.52
639.601	652.62
640.049	670.62
640.497	707.12
640.944	723.42
641.392	683.12
641.84	644.92
642.287	611.12
642.735	581.82
643.182	589.02
643.63	577.82
644.078	583.52
644.525	591.92
644.973	599.52
645.42	615.62
645.867	639.62
646.315	656.22
646.762	688.12
647.21	706.22
647.657	733.32
648.104	754.02
648.551	777.42
648.999	843.32
649.446	917.52
649.893	997.02
650.34	1135.72
650.787	1364.02
651.234	1671.82
651.682	2145.42
652.129	2913.72
652.576	4126.72
653.023	6028.72
653.47	8144.62
653.917	10116.82
654.363	11638.92
654.81	12835.12
655.257	12202.12
655.704	8095.62
656.151	4861.82
656.598	3213.72
657.044	2291.32
657.491	1784.22
657.938	1434.02
658.385	1208.12
658.831	1070.22
659.278	960.32
659.724	860.02
660.171	792.42
660.618	732.52
661.064	693.92
661.511	662.82
661.957	667.92
662.404	652.32
662.85	660.02
663.296	644.32
663.743	582.72
664.189	550.52
664.635	550.62
665.082	548.02
665.528	546.22
665.974	541.32
666.42	526.92
666.867	519.52
667.313	499.62
667.759	485.52
668.205	464.72
668.651	463.72
669.097	462.42
669.543	464.32
669.989	468.72
670.435	467.72
670.881	464.12
671.327	465.22
671.773	485.32
672.219	516.92
672.665	566.92
673.11	608.52
673.556	652.42
674.002	697.12
674.448	693.02
674.893	584.82
675.339	511.42
675.785	464.92
676.23	441.92
676.676	415.52
677.122	405.32
677.567	400.32
678.013	387.52
678.458	380.32
678.904	378.42
679.349	366.12
679.794	374.62
680.24	370.82
680.685	361.22
681.131	370.32
681.576	369.32
682.021	373.92
682.466	362.82
682.912	370.62
683.357	368.12
683.802	408.32
684.247	430.32
684.692	474.62
685.137	512.62
685.583	565.62
686.028	583.02
686.473	549.52
686.918	472.42
687.363	430.32
687.807	416.52
688.252	380.32
688.697	378.22
689.142	362.02
689.587	348.62
690.032	336.82
690.477	365.42
690.921	373.72
691.366	405.72
691.811	419.72
692.255	445.22
692.7	476.72
693.145	529.82
693.589	735.52
694.034	1206.82
694.478	1626.82
694.923	1825.62
695.367	2392.02
695.812	1273.62
696.256	521.02
696.701	388.52
697.145	360.22
697.59	349.72
698.034	332.72
698.478	339.42
698.922	329.42
699.367	336.82
699.811	344.32
700.255	368.72
700.699	404.62
701.143	448.92
701.588	500.02
702.032	544.82
702.476	541.82
702.92	519.52
703.364	513.12
703.808	684.32
704.252	1096.92
704.696	1531.32
705.14	1762.12
705.584	2247.32
706.027	1130.42
706.471	555.62
706.915	422.52
707.359	369.82
707.803	337.32
708.246	325.72
708.69	325.42
709.134	332.92
709.577	328.32
710.021	334.72
710.465	315.82
710.908	314.62
711.352	308.72
711.795	318.12
712.239	365.52
712.682	406.22
713.126	429.62
713.569	472.72
714.012	372.52
714.456	317.02
714.899	299.32
715.342	284.52
715.786	281.32
716.229	266.22
716.672	267.92
717.115	262.72
717.558	265.92
718.002	265.42
718.445	273.22
718.888	296.32
719.331	308.22
719.774	326.02
720.217	317.22
720.66	295.22
721.103	279.72
721.546	265.72
721.989	258.62
722.432	239.32
722.874	245.72
723.317	240.02
723.76	242.72
724.203	265.92
724.645	333.92
725.088	466.72
725.531	594.72
725.974	673.22
726.416	576.12
726.859	323.42
727.301	254.22
727.744	246.42
728.187	241.52
728.629	249.62
729.071	257.12
729.514	272.52
729.956	280.02
730.399	292.82
730.841	300.32
731.283	286.22
731.726	281.52
732.168	273.42
732.61	276.82
733.053	304.62
733.495	332.22
733.937	371.12
734.379	428.22
734.821	466.22
735.263	572.62
735.705	894.12
736.148	1682.82
736.59	2739.32
737.032	3223.82
737.474	2621.02
737.916	863.72
738.357	452.02
738.799	358.12
739.241	318.22
739.683	293.22
740.125	316.02
740.567	315.62
741.008	334.02
741.45	329.92
741.892	333.52
742.334	363.32
742.775	384.52
743.217	362.02
743.658	283.22
744.1	263.22
744.542	279.82
744.983	335.22
745.425	365.62
745.866	365.72
746.307	298.92
746.749	291.82
747.19	345.32
747.632	487.32
748.073	948.02
748.514	1979.92
748.956	3015.12
749.397	3800.82
749.838	3151.92
750.279	3122.42
750.72	1602.12
751.162	583.42
751.603	342.42
752.044	265.12
752.485	230.32
752.926	214.22
753.367	215.12
753.808	192.32
754.249	197.52
754.69	195.42
755.131	190.32
755.572	190.92
756.013	185.62
756.453	186.52
756.894	196.42
757.335	201.82
757.776	199.62
758.216	207.42
758.657	207.72
759.098	210.32
759.538	236.72
759.979	283.52
760.42	400.42
760.86	754.02
761.301	1953.32
761.741	4726.62
762.182	6808.82
762.622	4822.42
763.063	1385.32
763.503	569.12
763.943	337.82
764.384	284.62
764.824	252.72
765.264	242.12
765.705	213.82
766.145	190.72
766.585	185.82
767.025	175.32
767.465	164.12
767.906	181.62
768.346	201.62
768.786	209.62
769.226	225.02
769.666	318.62
770.106	647.22
770.546	1669.02
770.986	2793.52
771.426	2503.32
771.866	845.72
772.306	342.22
772.745	212.22
773.185	172.12
773.625	162.72
774.065	152.12
774.505	171.02
774.944	205.22
775.384	380.32
775.824	610.22
776.263	587.92
776.703	286.52
777.142	168.72
777.582	133.92
778.021	128.32
778.461	125.92
778.9	136.02
779.34	128.62
779.779	113.12
780.219	111.42
780.658	113.82
781.097	116.92
781.537	113.72
781.976	115.92
782.415	105.42
782.855	101.72
783.294	104.42
783.733	107.02
784.172	114.02
784.611	112.52
785.05	119.02
785.489	111.22
785.928	117.82
786.367	121.72
786.806	120.22
787.245	130.92
787.684	142.72
788.123	153.82
788.562	138.42
789.001	136.52
789.44	133.02
789.879	120.22
790.317	125.02
790.756	135.42
791.195	138.82
791.634	152.92
792.072	218.52
792.511	378.02
792.95	1056.72
793.388	2237.62
793.827	2002.42
794.265	711.72
794.704	291.32
795.142	194.32
795.581	163.12
796.019	148.12
796.458	135.02
796.896	134.82
797.334	129.82
797.773	158.92
798.211	227.42
798.649	464.42
799.087	1084.42
799.526	1687.42
799.964	2123.22
800.402	2122.22
800.84	807.72
801.278	314.62
801.716	205.72
802.154	157.92
802.592	152.52
803.03	156.32
803.468	142.62
803.906	150.32
804.344	155.22
804.782	151.12
805.22	142.82
805.658	143.62
806.096	156.12
806.533	169.12
806.971	182.12
807.409	235.92
807.847	337.32
808.284	707.82
808.722	1989.02
809.16	3479.22
809.597	3332.42
810.035	5765.72
810.472	6101.92
810.91	2220.42
811.347	853.42
811.785	434.82
812.222	278.02
812.66	209.12
813.097	166.32
813.535	146.82
813.972	137.22
814.409	123.82
814.846	113.92
815.284	108.32
815.721	111.52
816.158	107.62
816.595	120.02
817.032	165.52
817.47	196.82
817.907	145.62
818.344	104.72
818.781	102.42
819.218	97.02
819.655	126.02
820.092	198.92
820.529	224.62
820.966	176.72
821.403	134.32
821.839	103.42
822.276	104.72
822.713	128.22
823.15	150.52
823.587	126.52
824.023	158.82
824.46	327.12
824.897	940.12
825.333	1432.52
825.77	614.52
826.206	244.22
826.643	134.32
827.08	108.12
827.516	89.82
827.953	84.52
828.389	86.62
828.825	73.42
829.262	70.82
829.698	63.52
830.135	67.22
830.571	60.02
831.007	66.72
831.443	71.12
831.88	60.42
832.316	60.12
832.752	68.12
833.188	66.32
833.624	64.42
834.06	76.72
834.497	68.92
834.933	73.72
835.369	78.32
835.805	69.52
836.241	79.22
836.677	80.92
837.112	98.42
837.548	109.02
837.984	147.22
838.42	216.92
838.856	537.22
839.292	1606.82
839.727	2434.32
840.163	1139.52
840.599	987.82
841.034	2161.22
841.47	2243.32
841.906	828.02
842.341	348.62
842.777	204.82
843.212	212.72
843.648	194.22
844.083	120.42
844.519	89.72
844.954	75.42
845.39	61.22
845.825	59.62
846.261	57.32
846.696	55.62
847.131	50.22
847.566	58.82
848.002	55.42
848.437	55.72
848.872	63.32
849.307	59.42
849.742	82.02
850.177	188.22
850.613	584.72
851.048	919.22
851.483	411.92
851.918	163.12
852.353	90.72
852.788	61.12
853.223	50.52
853.657	55.92
854.092	45.82
854.527	45.82
854.962	44.52
855.397	48.12
855.832	52.42
856.266	45.42
856.701	43.42
857.136	41.62
857.57	45.02
858.005	50.62
858.44	59.72
858.874	45.32
859.309	61.12
859.743	37.92
860.178	48.52
860.612	36.32
861.047	49.52
861.481	77.42
861.915	81.22
862.35	55.52
862.784	40.02
863.218	37.72
863.653	39.32
864.087	45.32
864.521	58.12
864.955	70.92
865.39	169.52
865.824	184.92
866.258	125.42
866.692	180.32
867.126	188.22
867.56	112.52
867.994	53.32
868.428	45.42
868.862	51.82
869.296	56.92
869.73	63.62
870.164	56.92
870.598	51.92
871.031	47.82
871.465	33.52
871.899	35.02
872.333	28.02
872.766	22.12
873.2	22.42
873.634	31.22
874.067	29.52
874.501	20.92
874.935	39.62
875.368	30.52
875.802	24.92
876.235	24.42
876.669	23.82
877.102	27.62
877.535	20.72
877.969	24.22
878.402	26.22
878.836	18.32
879.269	20.42
879.702	18.92
880.135	21.82
880.569	18.72
881.002	27.52
881.435	19.92
881.868	19.72
882.301	20.62
882.734	16.42
883.167	24.82
883.601	17.82
884.034	27.12
884.467	15.32
884.899	23.02
885.332	14.12
885.765	17.92
886.198	14.72
886.631	20.72
887.064	18.32
887.497	24.22
887.929	21.42
888.362	11.62
888.795	17.32
889.228	20.62
889.66	18.62
890.093	18.32
890.526	17.72
890.958	18.92
891.391	20.72
891.823	23.92
892.256	15.92
892.688	13.62
893.121	15.62
893.553	15.52
893.985	24.22
894.418	25.02
894.85	13.82
895.282	16.12
895.715	18.12
896.147	17.12
896.579	16.62
897.011	12.82
897.444	15.72
897.876	10.32
898.308	17.02
898.74	14.32
899.172	9.52
899.604	20.82
900.036	19.62
900.468	14.52
900.9	16.42
901.332	17.22
901.764	16.32
902.196	20.42
902.628	16.82
903.06	20.82
903.491	29.72
903.923	25.22
904.355	23.82
904.787	18.92
905.218	28.72
905.65	15.92
906.082	15.32
906.513	12.62
906.945	15.92
907.376	17.42
907.808	23.42
908.239	21.02
908.671	19.12
909.102	17.72
909.534	25.12
909.965	45.32
910.397	95.52
910.828	332.72
911.259	499.02
911.691	227.32
912.122	107.62
912.553	54.32
912.984	40.32
913.415	27.62
913.847	24.62
914.278	13.12
914.709	23.02
915.14	19.72
915.571	21.42
916.002	13.22
916.433	19.42
916.864	17.32
917.295	14.42
917.726	20.62
918.157	17.92
918.587	28.22
919.018	22.32
919.449	21.42
919.88	25.12
920.311	34.82
920.741	48.12
921.172	181.62
921.603	162.82
922.033	71.32
922.464	51.32
922.895	22.22
923.325	21.32
923.756	13.52
924.186	16.12
924.617	24.42
925.047	20.42
925.478	27.32
925.908	22.52
926.338	15.22
926.769	11.32
927.199	10.82
927.629	5.52
928.06	14.72
928.49	13.72
928.92	10.32
929.35	9.82
929.78	14.52
930.21	7.92
930.641	10.62
931.071	7.32
931.501	6.52
931.931	14.32
932.361	8.22
932.791	2.12
933.221	10.12
933.651	-0.28
934.08	13.52
934.51	26.82
934.94	13.12
935.37	8.32
935.8	7.52
936.229	11.02
936.659	13.72
937.089	4.22
937.519	16.42
937.948	24.52
938.378	17.62
938.807	2.72
939.237	-1.38
939.666	6.82
940.096	-3.68
940.525	-0.18
940.955	-2.18
941.384	7.92
941.814	-6.48
942.243	-2.88
942.672	2.92
943.102	-1.88
943.531	-2.08
943.96	3.22
944.39	-1.38
944.819	7.22
945.248	0.72
945.677	5.22
946.106	5.62
946.535	10.92
946.964	-1.18
947.393	1.72
947.822	-3.18
948.251	-2.68
948.68	2.72
949.109	9.12
949.538	7.52
949.967	2.72
950.396	4.22
950.825	-3.08
951.254	2.02
951.682	-7.98
952.111	2.12
952.54	7.22
952.969	0.82
953.397	-3.88
953.826	4.52
954.254	-11.18
954.683	1.52
955.112	-1.88
955.54	-3.18
955.969	-1.18
956.397	5.02
956.826	-0.18
957.254	8.42
957.682	-3.38
958.111	4.72
958.539	-1.58
958.967	-2.58
959.396	-1.28
959.824	4.32
960.252	2.42
960.68	-5.78
961.109	-3.98
961.537	-4.38
961.965	-0.18
962.393	1.82
962.821	0.52
963.249	2.62
963.677	7.32
964.105	5.72
964.533	52.42
964.961	45.72
965.389	22.72
965.817	7.02
966.245	5.22
966.672	-2.48
967.1	-8.28
967.528	1.92
967.956	-1.28
968.383	-3.68
968.811	1.52
969.239	-3.88
969.666	-0.78
970.094	2.12
970.522	0.32
970.949	-1.88
971.377	-3.08
971.804	1.62
972.232	1.02
972.659	-6.18
973.087	-3.68
973.514	-2.58
973.941	-7.28
974.369	-1.48
974.796	-1.38
975.223	1.92
975.651	-0.18
976.078	9.12
976.505	2.92
976.932	2.92
977.359	16.42
977.786	10.82
978.214	3.52
978.641	-7.08
979.068	2.02
979.495	-10.48
979.922	-3.98
980.349	-5.98
980.776	2.82
981.202	1.62
981.629	2.02
982.056	8.82
982.483	-2.98
982.91	6.62
983.337	-4.98
983.763	4.92
984.19	-3.18
984.617	-5.18
985.043	-5.98
985.47	-0.98
985.897	-1.58
986.323	-10.98
986.75	-1.88
987.176	-2.68
987.603	-4.88
988.029	0.52
988.456	-3.58
988.882	-1.58
989.308	-7.38
989.735	-5.18
990.161	-4.48
990.587	-6.78
991.014	-1.78
991.44	6.12
991.866	-1.88
992.292	-2.18
992.719	-3.08
993.145	0.52
993.571	-9.28
993.997	-2.98
994.423	0.52
994.849	-6.28
995.275	1.82
995.701	-0.18
996.127	-3.68
996.553	4.22
996.979	-5.08
997.405	-1.48
997.83	-10.58
998.256	-5.58
998.682	-1.38
999.108	-4.18
999.534	-3.78
999.959	-2.88
1000.385	-7.78
1000.811	0.02
1001.236	-7.78
1001.662	-8.78
1002.087	-8.38
1002.513	-0.08
1002.938	-5.38
1003.364	-2.88
1003.789	-5.08
1004.215	1.22
1004.64	-4.78
1005.066	1.42
1005.491	4.02
1005.916	0.62
1006.342	-2.38
1006.767	-7.88
1007.192	3.92
1007.617	-1.18
1008.042	-4.68
1008.468	-7.38
1008.893	-5.28
1009.318	-9.58
1009.743	-2.08
1010.168	0.02
1010.593	4.12
1011.018	-5.68
1011.443	0.32
1011.868	3.12
1012.293	-11.28
1012.718	-0.58
1013.143	-3.58
1013.567	2.82
1013.992	-4.18
1014.417	-13.98
1014.842	-2.08
1015.267	-5.58
1015.691	-3.28
1016.116	3.92
1016.541	-2.88
1016.965	2.02
1017.39	3.92
1017.814	-6.68
1018.239	2.12
1018.663	-6.98
1019.088	-5.38
1019.512	-3.48
1019.937	-5.78
1020.361	-4.48
1020.785	-3.88
1021.21	-4.38
1021.634	-8.08
1022.058	-1.78
1022.483	5.12
1022.907	-6.08
1023.331	-2.48
1023.755	-5.18
1024.179	-2.28
1024.604	-6.78
1025.028	-2.48
1025.452	-9.78
1025.876	-0.78
1026.3	-1.48
1026.724	-10.58
1027.148	-5.88
1027.572	-7.18
1027.996	-6.78
1028.42	-4.08
1028.843	-3.88
1029.267	-5.08
1029.691	-3.78
1030.115	-10.78
1030.539	-7.68
1030.962	-4.38
1031.386	-10.98
1031.81	-5.88
1032.233	-5.88
1032.657	-1.68
1033.08	-0.58
1033.504	-3.58
1033.927	-5.68
1034.351	-2.48
1034.774	-6.78
1035.198	-3.18
1035.621	-6.28
1036.045	-8.18
1036.468	2.52
1036.891	-12.18
1037.315	-4.58
1037.738	-10.88
1038.161	-5.28
1038.584	-7.98
1039.008	-8.98
1039.431	-1.88
1039.854	-8.18
1040.277	-5.18
1040.7	-13.28
1041.123	-3.28
1041.546	-12.18
1041.969	-2.28
1042.392	-5.28
1042.815	3.32
1043.238	2.22
1043.661	-7.38
1044.084	-8.98
1044.507	-7.58
1044.93	1.12
1045.352	-10.08
1045.775	-0.38
1046.198	-0.08
1046.621	-0.28
1047.043	6.12
1047.466	3.52
1047.889	-1.88
1048.311	-7.98
1048.734	-5.08
1049.156	1.82
1049.579	5.42
1050.001	2.92
1050.424	4.62
1050.846	-2.38
1051.269	-5.08
1051.691	-5.28
1052.113	1.72
1052.536	-2.08
1052.958	-4.48
1053.38	-3.98
1053.802	-10.58
1054.225	2.22
1054.647	-8.08
1055.069	-9.58
1055.491	1.32
1055.913	-7.68
1056.335	2.22
1056.757	-3.78
1057.179	-9.28
1057.601	-10.58
1058.023	-3.68
1058.445	-6.48
1058.867	-2.98
1059.289	-0.78
1059.711	-7.28
1060.133	4.32
1060.555	-2.18
1060.976	-8.88
1061.398	-7.98
1061.82	-5.98
1062.241	-0.88
1062.663	-4.78
1063.085	-7.58
1063.506	0.12
1063.928	-3.28
1064.35	-7.48
1064.771	-11.68
1065.193	-5.08
1065.614	-7.78
1066.035	-4.08
1066.457	-0.28
1066.878	0.82
1067.3	-7.78
1067.721	1.72
1068.142	-5.18
1068.564	-5.48
1068.985	-8.58
1069.406	-3.28
1069.827	-5.88
1070.248	0.02
1070.67	-3.98
1071.091	-7.48
1071.512	-2.38
1071.933	-8.08
1072.354	-8.98
1072.775	-9.18
1073.196	-9.68
1073.617	-1.38
1074.038	-9.68
1074.459	-1.68
1074.88	-7.68
1075.3	5.52
1075.721	-5.78
1076.142	-2.08
1076.563	-4.68
1076.983	-9.68
1077.404	-10.68
1077.825	-12.18
1078.246	-9.68
1078.666	-14.78
1079.087	-2.68
1079.507	-10.48
1079.928	-3.28
1080.348	-5.58
1080.769	-7.48
1081.189	-2.68
1081.61	1.02
1082.03	-2.98
1082.451	-6.08
1082.871	-6.38
1083.291	-11.28
1083.711	-9.58
1084.132	-6.38
1084.552	0.62
1084.972	-6.78
1085.392	-11.98
1085.813	-14.48
1086.233	-5.78
1086.653	-6.88
1087.073	-4.98
1087.493	-7.18
1087.913	-3.98
1088.333	-0.88
1088.753	-1.98
1089.173	-0.18
1089.593	0.72
1090.013	4.02
1090.433	0.62
1090.852	-4.78
1091.272	-0.38
1091.692	-0.58
1092.112	-3.48
1092.531	-7.48
1092.951	-9.58
1093.371	-1.08
1093.79	2.92
1094.21	-4.18
1094.63	-7.38
1095.049	-5.58
1095.469	-6.58
1095.888	-6.08
1096.308	2.72
1096.727	6.62
1097.146	-3.78
1097.566	1.62
1097.985	-4.08
1098.405	-2.68
1098.824	-5.38
1099.243	-9.08
1099.662	-11.98
1100.082	-6.58
1100.501	-4.28
1100.92	-9.68
1101.339	-5.88
1101.758	-4.58
