Data from 20171114-ORNL-Ar_H_NY_Subt18_08-06-20-188.txt Node
Date: Tue Nov 14 08:06:20 EST 2017
User: Ender
Spectrometer: HR+D1039
Trigger mode: 0
Integration Time (sec): 2.730000E-2
Scans to average: 10
Electric dark correction enabled: true
Nonlinearity correction enabled: false
Boxcar width: 0
XAxis mode: Wavelengths
Number of Pixels in Spectrum: 2048
>>>>>Begin Spectral Data<<<<<
187.836	-0.69
188.309	-0.69
188.782	-0.69
189.255	0.01
189.728	2.41
190.201	2.11
190.674	-2.59
191.147	5.41
191.619	-8.49
192.092	2.71
192.565	2.41
193.038	0.41
193.511	-1.99
193.984	0.91
194.456	-0.89
194.929	3.81
195.402	-3.49
195.874	-2.09
196.347	-3.79
196.82	-8.09
197.292	5.71
197.765	-4.59
198.237	-8.79
198.71	-2.89
199.182	-7.49
199.655	-3.09
200.127	-1.09
200.6	-2.19
201.072	-1.59
201.544	-6.29
202.017	-7.39
202.489	0.71
202.961	-2.59
203.433	-3.39
203.906	-4.39
204.378	-7.69
204.85	-3.09
205.322	-11.29
205.794	-2.89
206.266	-5.69
206.739	-13.79
207.211	-2.29
207.683	-8.79
208.155	-9.09
208.627	-4.59
209.099	-6.09
209.57	-10.79
210.042	-5.29
210.514	-7.09
210.986	-0.69
211.458	-7.09
211.93	-7.79
212.402	-1.49
212.873	-10.09
213.345	-6.49
213.817	-14.19
214.288	-3.79
214.76	-8.99
215.232	-5.49
215.703	-6.79
216.175	-5.59
216.646	-7.99
217.118	-11.09
217.589	-5.99
218.061	-9.89
218.532	-6.29
219.004	-8.79
219.475	-4.49
219.946	-7.39
220.418	-9.29
220.889	5.41
221.36	-0.29
221.832	-4.39
222.303	-9.79
222.774	-0.59
223.245	-12.89
223.717	-5.19
224.188	-8.09
224.659	-9.29
225.13	-6.99
225.601	-4.59
226.072	-3.79
226.543	0.21
227.014	-2.89
227.485	-7.99
227.956	-11.79
228.427	-2.79
228.898	-4.09
229.369	-0.69
229.839	-7.79
230.31	-8.29
230.781	-3.79
231.252	-3.09
231.722	-11.19
232.193	-7.59
232.664	-5.19
233.135	-0.09
233.605	4.41
234.076	-11.49
234.546	2.81
235.017	2.61
235.487	-2.09
235.958	0.01
236.428	-2.59
236.899	4.41
237.369	-1.59
237.84	-7.79
238.31	6.81
238.78	3.91
239.251	1.21
239.721	-1.39
240.191	-2.99
240.662	-5.79
241.132	3.01
241.602	-7.39
242.072	-0.69
242.542	3.11
243.013	0.51
243.483	0.11
243.953	3.81
244.423	-1.19
244.893	-2.69
245.363	-1.49
245.833	2.61
246.303	-3.89
246.773	3.11
247.243	0.71
247.712	-3.49
248.182	6.21
248.652	11.91
249.122	-3.09
249.592	2.41
250.061	17.51
250.531	31.21
251.001	11.91
251.471	19.91
251.94	19.71
252.41	8.81
252.879	-1.09
253.349	9.91
253.818	2.31
254.288	1.81
254.757	2.41
255.227	2.91
255.696	0.71
256.166	3.01
256.635	4.01
257.105	5.11
257.574	2.91
258.043	7.71
258.513	15.41
258.982	13.11
259.451	3.41
259.92	11.31
260.389	12.81
260.859	17.91
261.328	11.31
261.797	14.11
262.266	9.21
262.735	5.21
263.204	8.21
263.673	0.91
264.142	8.81
264.611	-2.89
265.08	0.81
265.549	-4.29
266.018	9.81
266.487	-7.59
266.955	-4.59
267.424	-0.59
267.893	0.41
268.362	-5.79
268.83	-2.59
269.299	10.21
269.768	5.81
270.236	3.71
270.705	-5.89
271.174	6.91
271.642	2.11
272.111	7.81
272.579	17.31
273.048	21.31
273.516	28.61
273.985	24.61
274.453	23.21
274.922	18.81
275.39	10.71
275.858	3.41
276.327	6.31
276.795	20.51
277.263	16.41
277.731	29.31
278.2	48.91
278.668	55.11
279.136	43.41
279.604	15.51
280.072	17.01
280.54	13.41
281.008	11.61
281.477	13.51
281.945	16.51
282.413	12.61
282.881	15.31
283.348	10.71
283.816	11.31
284.284	15.71
284.752	18.11
285.22	7.91
285.688	14.41
286.156	12.41
286.623	41.91
287.091	45.61
287.559	29.91
288.026	12.21
288.494	8.01
288.962	3.51
289.429	6.11
289.897	16.71
290.364	12.91
290.832	15.71
291.3	13.11
291.767	13.81
292.234	19.31
292.702	11.51
293.169	18.81
293.637	19.91
294.104	18.61
294.571	10.31
295.039	14.21
295.506	11.31
295.973	17.31
296.44	11.01
296.908	20.11
297.375	22.11
297.842	19.81
298.309	13.61
298.776	11.21
299.243	18.71
299.71	7.51
300.177	19.31
300.644	20.11
301.111	20.11
301.578	21.71
302.045	19.91
302.512	24.61
302.979	18.01
303.446	18.61
303.913	15.01
304.379	15.51
304.846	26.01
305.313	27.11
305.78	22.21
306.246	26.31
306.713	30.01
307.18	26.11
307.646	29.11
308.113	33.11
308.579	23.71
309.046	21.61
309.512	27.61
309.979	20.21
310.445	23.21
310.912	30.61
311.378	35.31
311.845	26.01
312.311	29.81
312.777	28.51
313.244	27.71
313.71	39.81
314.176	34.51
314.642	26.31
315.109	28.91
315.575	36.01
316.041	35.31
316.507	27.41
316.973	37.71
317.439	28.01
317.905	33.51
318.371	39.51
318.837	32.31
319.303	32.11
319.769	33.81
320.235	34.31
320.701	30.81
321.167	33.01
321.633	32.41
322.099	38.41
322.564	45.51
323.03	37.81
323.496	40.11
323.962	39.41
324.427	35.51
324.893	40.21
325.359	39.51
325.824	42.31
326.29	37.61
326.755	38.21
327.221	42.11
327.686	41.71
328.152	42.31
328.617	42.21
329.083	40.61
329.548	51.51
330.014	51.01
330.479	32.01
330.944	39.41
331.41	37.71
331.875	44.61
332.34	43.51
332.805	43.81
333.271	46.11
333.736	46.71
334.201	55.11
334.666	52.31
335.131	52.11
335.596	48.61
336.061	49.91
336.526	36.21
336.991	46.31
337.456	52.01
337.921	53.11
338.386	39.21
338.851	44.31
339.316	41.21
339.781	44.41
340.246	46.41
340.711	42.81
341.175	51.01
341.64	48.21
342.105	46.31
342.569	52.81
343.034	52.41
343.499	53.01
343.963	49.11
344.428	61.01
344.893	59.41
345.357	63.61
345.822	58.11
346.286	66.71
346.751	68.91
347.215	67.01
347.679	73.11
348.144	100.31
348.608	80.01
349.073	66.91
349.537	80.51
350.001	74.41
350.465	86.71
350.93	75.91
351.394	82.31
351.858	71.81
352.322	83.51
352.786	82.71
353.25	97.21
353.715	110.51
354.179	106.51
354.643	128.41
355.107	125.11
355.571	104.51
356.035	108.11
356.498	118.21
356.962	120.51
357.426	131.91
357.89	117.31
358.354	86.41
358.818	83.31
359.281	76.91
359.745	81.51
360.209	73.41
360.673	71.51
361.136	77.31
361.6	82.71
362.064	87.51
362.527	88.81
362.991	89.71
363.454	73.91
363.918	75.71
364.381	77.21
364.845	79.01
365.308	86.41
365.772	82.21
366.235	84.81
366.698	82.21
367.162	82.81
367.625	90.11
368.088	84.71
368.552	86.21
369.015	91.31
369.478	92.61
369.941	102.31
370.404	95.41
370.867	105.01
371.331	105.21
371.794	112.21
372.257	102.11
372.72	112.61
373.183	111.21
373.646	106.91
374.109	106.11
374.572	105.91
375.035	106.51
375.497	106.81
375.96	102.81
376.423	100.21
376.886	114.31
377.349	109.41
377.811	105.61
378.274	105.41
378.737	109.51
379.199	113.11
379.662	109.41
380.125	116.51
380.587	110.31
381.05	120.41
381.512	123.91
381.975	132.71
382.437	126.41
382.9	121.71
383.362	136.31
383.825	145.01
384.287	144.11
384.75	144.81
385.212	141.61
385.674	146.81
386.136	137.11
386.599	127.21
387.061	128.51
387.523	128.71
387.985	137.31
388.447	142.81
388.91	151.31
389.372	156.31
389.834	156.11
390.296	145.41
390.758	153.61
391.22	170.41
391.682	200.81
392.144	296.21
392.606	223.81
393.068	164.51
393.529	166.51
393.991	155.91
394.453	148.61
394.915	158.21
395.377	189.51
395.838	208.01
396.3	154.91
396.762	139.81
397.224	136.41
397.685	122.41
398.147	133.41
398.608	127.81
399.07	127.31
399.531	143.41
399.993	139.21
400.454	158.71
400.916	146.41
401.377	140.51
401.839	148.11
402.3	147.61
402.762	168.91
403.223	177.81
403.684	172.31
404.145	168.21
404.607	166.01
405.068	167.91
405.529	170.11
405.99	188.11
406.451	174.21
406.913	174.61
407.374	158.41
407.835	157.81
408.296	167.01
408.757	172.01
409.218	190.01
409.679	181.61
410.14	176.21
410.601	184.11
411.062	183.21
411.522	191.11
411.983	191.21
412.444	175.81
412.905	180.51
413.366	176.81
413.826	193.31
414.287	216.51
414.748	258.61
415.208	248.71
415.669	214.11
416.13	204.01
416.59	192.71
417.051	217.51
417.511	219.61
417.972	233.31
418.432	249.81
418.893	280.31
419.353	248.71
419.814	195.51
420.274	187.01
420.734	179.51
421.195	198.61
421.655	198.91
422.115	201.91
422.576	186.91
423.036	195.81
423.496	212.71
423.956	217.21
424.416	232.71
424.876	268.71
425.336	268.81
425.797	271.71
426.257	265.01
426.717	238.61
427.177	236.01
427.637	220.81
428.097	235.51
428.556	242.21
429.016	269.31
429.476	266.71
429.936	281.51
430.396	275.61
430.856	290.81
431.315	325.31
431.775	358.21
432.235	380.51
432.694	351.01
433.154	365.91
433.614	388.41
434.073	342.61
434.533	294.01
434.993	280.01
435.452	286.41
435.912	299.91
436.371	292.31
436.83	287.01
437.29	274.71
437.749	247.51
438.209	250.01
438.668	283.41
439.127	292.01
439.587	259.81
440.046	241.71
440.505	258.91
440.964	286.21
441.424	333.71
441.883	322.91
442.342	269.51
442.801	234.21
443.26	221.71
443.719	218.71
444.178	216.91
444.637	214.61
445.096	220.91
445.555	224.51
446.014	227.91
446.473	222.31
446.932	237.01
447.391	227.51
447.849	224.51
448.308	217.61
448.767	224.51
449.226	239.71
449.685	242.71
450.143	246.91
450.602	233.41
451.061	226.81
451.519	235.91
451.978	232.41
452.436	230.31
452.895	246.61
453.353	258.11
453.812	240.31
454.27	241.61
454.729	249.01
455.187	249.21
455.646	246.41
456.104	250.71
456.562	261.91
457.021	267.51
457.479	258.61
457.937	273.41
458.395	269.91
458.854	251.81
459.312	254.81
459.77	280.21
460.228	259.71
460.686	235.71
461.144	252.61
461.602	243.41
462.06	246.21
462.518	257.81
462.976	257.21
463.434	264.11
463.892	262.91
464.35	277.51
464.808	287.31
465.266	275.21
465.724	272.41
466.181	272.21
466.639	273.81
467.097	289.21
467.555	302.71
468.012	302.81
468.47	313.61
468.928	334.51
469.385	339.61
469.843	353.91
470.3	353.81
470.758	366.41
471.215	385.41
471.673	412.31
472.13	411.61
472.588	433.91
473.045	380.91
473.503	378.71
473.96	394.51
474.417	408.31
474.875	435.41
475.332	483.21
475.789	470.91
476.246	467.61
476.704	483.61
477.161	516.11
477.618	526.31
478.075	562.41
478.532	632.21
478.989	703.51
479.446	818.11
479.903	786.01
480.36	822.31
480.817	887.21
481.274	992.21
481.731	1091.91
482.188	1191.71
482.645	1332.41
483.102	1434.91
483.558	1582.51
484.015	1617.41
484.472	1600.11
484.929	1531.71
485.385	1501.21
485.842	1463.51
486.299	1404.41
486.755	1317.61
487.212	1119.81
487.668	941.41
488.125	873.51
488.582	788.01
489.038	768.01
489.494	724.81
489.951	700.81
490.407	679.51
490.864	660.91
491.32	652.41
491.776	647.01
492.233	649.61
492.689	628.51
493.145	611.11
493.602	607.31
494.058	615.71
494.514	626.41
494.97	644.91
495.426	669.31
495.882	639.71
496.338	624.51
496.794	632.41
497.251	628.41
497.707	645.61
498.163	646.01
498.618	644.71
499.074	648.11
499.53	676.71
499.986	687.61
500.442	669.91
500.898	640.31
501.354	634.91
501.809	653.21
502.265	647.81
502.721	673.81
503.177	676.21
503.632	669.71
504.088	684.41
504.543	727.41
504.999	718.91
505.455	665.71
505.91	638.31
506.366	653.01
506.821	639.11
507.277	636.71
507.732	637.31
508.187	639.21
508.643	645.31
509.098	649.71
509.553	668.21
510.009	673.41
510.464	683.81
510.919	699.21
511.375	706.41
511.83	719.31
512.285	733.51
512.74	773.21
513.195	784.71
513.65	779.81
514.105	776.01
514.56	781.01
515.015	804.41
515.47	829.41
515.925	806.61
516.38	801.11
516.835	810.21
517.29	789.31
517.745	789.51
518.2	782.81
518.655	766.11
519.109	761.81
519.564	746.11
520.019	747.11
520.474	740.21
520.928	746.41
521.383	724.11
521.838	723.61
522.292	715.31
522.747	724.61
523.201	710.61
523.656	700.61
524.11	708.71
524.565	708.81
525.019	697.01
525.474	712.61
525.928	708.81
526.382	706.81
526.837	712.01
527.291	712.61
527.745	710.61
528.2	709.51
528.654	702.01
529.108	701.61
529.562	690.21
530.016	697.81
530.47	708.31
530.925	711.81
531.379	713.21
531.833	711.51
532.287	717.11
532.741	713.21
533.195	718.11
533.649	724.61
534.103	734.91
534.556	728.81
535.01	731.41
535.464	722.11
535.918	731.51
536.372	748.61
536.826	729.41
537.279	729.61
537.733	734.21
538.187	738.01
538.64	733.21
539.094	736.21
539.548	745.21
540.001	738.41
540.455	733.01
540.908	742.41
541.362	754.91
541.815	757.51
542.269	776.81
542.722	772.91
543.175	782.41
543.629	781.91
544.082	794.41
544.536	795.81
544.989	801.61
545.442	803.31
545.895	801.11
546.349	803.41
546.802	804.51
547.255	810.11
547.708	814.41
548.161	824.51
548.614	837.81
549.067	836.61
549.52	842.01
549.973	822.91
550.426	819.21
550.879	803.51
551.332	815.11
551.785	816.91
552.238	826.81
552.691	831.91
553.144	847.51
553.596	860.21
554.049	878.11
554.502	916.41
554.955	934.51
555.407	926.51
555.86	918.51
556.313	915.61
556.765	904.51
557.218	899.01
557.67	896.71
558.123	893.51
558.576	880.71
559.028	896.31
559.48	903.01
559.933	888.01
560.385	861.71
560.838	821.31
561.29	806.51
561.742	800.01
562.195	776.31
562.647	775.41
563.099	776.91
563.551	780.11
564.004	798.61
564.456	787.81
564.908	784.71
565.36	762.21
565.812	749.31
566.264	748.51
566.716	746.61
567.168	723.21
567.62	728.31
568.072	724.41
568.524	707.01
568.976	702.01
569.428	685.61
569.88	687.91
570.332	695.31
570.784	691.11
571.235	696.51
571.687	702.91
572.139	712.11
572.59	724.71
573.042	728.91
573.494	722.21
573.945	717.31
574.397	696.71
574.849	704.31
575.3	706.21
575.752	693.81
576.203	684.81
576.655	705.31
577.106	683.91
577.557	680.41
578.009	682.21
578.46	679.21
578.912	672.61
579.363	686.91
579.814	678.61
580.265	670.61
580.717	678.01
581.168	678.11
581.619	688.21
582.07	699.81
582.521	689.31
582.972	677.31
583.423	694.01
583.875	691.51
584.326	715.31
584.777	766.71
585.227	837.21
585.678	916.31
586.129	1016.81
586.58	1083.41
587.031	1166.01
587.482	1322.71
587.933	1489.51
588.384	1308.81
588.834	973.01
589.285	820.31
589.736	793.61
590.186	790.91
590.637	776.91
591.088	752.81
591.538	747.51
591.989	739.61
592.439	739.51
592.89	728.11
593.34	728.31
593.791	718.71
594.241	719.81
594.692	714.41
595.142	720.51
595.593	707.81
596.043	717.71
596.493	724.01
596.943	723.11
597.394	735.51
597.844	719.41
598.294	738.91
598.744	752.61
599.195	779.21
599.645	821.21
600.095	865.91
600.545	922.11
600.995	970.61
601.445	1047.41
601.895	1100.01
602.345	1150.41
602.795	1124.21
603.245	1088.41
603.695	1024.41
604.145	974.61
604.594	920.41
605.044	867.11
605.494	803.51
605.944	769.31
606.393	756.71
606.843	743.01
607.293	739.51
607.743	742.31
608.192	749.01
608.642	772.21
609.091	781.31
609.541	784.21
609.99	787.61
610.44	783.61
610.889	730.11
611.339	705.21
611.788	694.01
612.238	709.91
612.687	730.81
613.136	735.51
613.586	744.91
614.035	753.71
614.484	767.81
614.933	770.01
615.383	753.41
615.832	749.21
616.281	732.01
616.73	699.81
617.179	672.51
617.628	658.01
618.077	650.51
618.526	628.01
618.975	625.21
619.424	628.41
619.873	623.11
620.322	629.41
620.771	612.01
621.22	612.31
621.669	599.01
622.118	595.41
622.567	588.81
623.015	574.61
623.464	569.21
623.913	562.61
624.361	565.31
624.81	557.41
625.259	552.91
625.707	560.91
626.156	558.31
626.604	568.01
627.053	558.21
627.501	575.81
627.95	572.71
628.398	584.81
628.847	572.41
629.295	572.81
629.744	584.01
630.192	576.21
630.64	575.01
631.089	571.81
631.537	590.41
631.985	591.01
632.433	599.71
632.881	608.01
633.33	661.91
633.778	641.41
634.226	579.91
634.674	579.31
635.122	586.51
635.57	603.01
636.018	641.41
636.466	587.41
636.914	565.31
637.362	567.11
637.81	581.11
638.258	582.01
638.705	586.31
639.153	607.61
639.601	619.51
640.049	644.91
640.497	674.31
640.944	696.11
641.392	639.91
641.84	615.31
642.287	590.41
642.735	572.11
643.182	573.31
643.63	577.61
644.078	579.91
644.525	598.31
644.973	599.41
645.42	603.81
645.867	629.41
646.315	645.41
646.762	669.71
647.21	701.51
647.657	716.91
648.104	751.01
648.551	768.01
648.999	854.81
649.446	928.21
649.893	1015.81
650.34	1178.31
650.787	1408.31
651.234	1743.11
651.682	2277.91
652.129	3123.11
652.576	4474.61
653.023	6621.81
653.47	9091.21
653.917	11404.31
654.363	13088.01
654.81	14513.21
655.257	13792.11
655.704	9028.61
656.151	5351.91
656.598	3445.91
657.044	2451.31
657.491	1882.11
657.938	1506.41
658.385	1252.41
658.831	1092.11
659.278	985.91
659.724	862.71
660.171	798.11
660.618	731.31
661.064	697.81
661.511	666.31
661.957	656.91
662.404	649.01
662.85	654.91
663.296	626.01
663.743	559.51
664.189	543.31
664.635	542.51
665.082	532.71
665.528	533.21
665.974	520.21
666.42	516.71
666.867	514.61
667.313	488.31
667.759	484.41
668.205	485.51
668.651	490.51
669.097	481.71
669.543	505.91
669.989	476.01
670.435	465.21
670.881	451.71
671.327	449.91
671.773	466.81
672.219	494.41
672.665	547.21
673.11	579.41
673.556	630.81
674.002	671.91
674.448	660.11
674.893	545.31
675.339	472.01
675.785	438.31
676.23	423.31
676.676	390.81
677.122	378.61
677.567	367.01
678.013	370.01
678.458	359.91
678.904	359.51
679.349	348.51
679.794	349.61
680.24	342.51
680.685	355.21
681.131	343.91
681.576	351.61
682.021	357.11
682.466	347.01
682.912	344.31
683.357	353.81
683.802	381.91
684.247	415.01
684.692	458.01
685.137	496.71
685.583	536.71
686.028	563.21
686.473	527.51
686.918	445.51
687.363	413.41
687.807	391.91
688.252	369.41
688.697	354.71
689.142	336.21
689.587	328.91
690.032	321.61
690.477	341.71
690.921	346.71
691.366	380.21
691.811	394.61
692.255	436.91
692.7	466.01
693.145	500.31
693.589	691.81
694.034	1122.61
694.478	1526.21
694.923	1741.81
695.367	2269.61
695.812	1192.01
696.256	494.01
696.701	380.21
697.145	346.61
697.59	327.61
698.034	314.81
698.478	324.11
698.922	322.91
699.367	332.61
699.811	338.41
700.255	352.41
700.699	376.81
701.143	428.51
701.588	478.21
702.032	516.01
702.476	509.91
702.92	484.91
703.364	493.61
703.808	639.51
704.252	1030.11
704.696	1444.01
705.14	1677.41
705.584	2148.71
706.027	1061.41
706.471	519.91
706.915	395.61
707.359	348.51
707.803	323.11
708.246	307.41
708.69	316.31
709.134	307.61
709.577	313.11
710.021	321.21
710.465	308.41
710.908	297.41
711.352	296.21
711.795	306.51
712.239	348.41
712.682	379.21
713.126	415.61
713.569	462.51
714.012	369.91
714.456	320.81
714.899	297.01
715.342	269.61
715.786	266.21
716.229	260.61
716.672	253.91
717.115	251.91
717.558	254.61
718.002	254.51
718.445	263.91
718.888	282.21
719.331	293.71
719.774	306.41
720.217	302.01
720.66	279.31
721.103	264.81
721.546	250.41
721.989	242.41
722.432	222.31
722.874	240.11
723.317	230.71
723.76	233.41
724.203	258.41
724.645	317.61
725.088	437.81
725.531	565.41
725.974	640.21
726.416	548.51
726.859	297.41
727.301	234.11
727.744	240.61
728.187	223.51
728.629	237.51
729.071	240.71
729.514	257.01
729.956	272.91
730.399	284.21
730.841	288.91
731.283	272.21
731.726	269.11
732.168	259.91
732.61	269.61
733.053	283.21
733.495	309.91
733.937	350.91
734.379	402.51
734.821	432.11
735.263	532.41
735.705	827.81
736.148	1563.31
736.59	2564.91
737.032	3050.31
737.474	2476.91
737.916	799.11
738.357	419.41
738.799	325.11
739.241	292.71
739.683	283.41
740.125	286.41
740.567	301.91
741.008	311.41
741.45	314.11
741.892	316.51
742.334	338.61
742.775	358.41
743.217	342.61
743.658	274.81
744.1	252.91
744.542	262.51
744.983	302.21
745.425	351.01
745.866	339.31
746.307	283.41
746.749	278.91
747.19	327.11
747.632	454.61
748.073	872.91
748.514	1837.91
748.956	2845.61
749.397	3538.31
749.838	2965.31
750.279	2955.61
750.72	1490.41
751.162	542.51
751.603	320.41
752.044	249.71
752.485	218.51
752.926	209.11
753.367	199.71
753.808	192.71
754.249	179.21
754.69	186.71
755.131	175.91
755.572	184.21
756.013	173.91
756.453	185.41
756.894	186.01
757.335	192.61
757.776	191.41
758.216	191.51
758.657	198.11
759.098	208.01
759.538	223.51
759.979	263.41
760.42	371.41
760.86	705.81
761.301	1797.91
761.741	4364.81
762.182	6419.31
762.622	4498.91
763.063	1300.31
763.503	535.91
763.943	344.81
764.384	330.81
764.824	399.81
765.264	436.21
765.705	315.81
766.145	207.01
766.585	181.91
767.025	178.51
767.465	182.91
767.906	234.11
768.346	313.11
768.786	337.51
769.226	256.91
769.666	317.91
770.106	615.71
770.546	1545.61
770.986	2634.61
771.426	2362.81
771.866	794.01
772.306	326.41
772.745	205.21
773.185	167.31
773.625	169.81
774.065	162.91
774.505	200.21
774.944	301.51
775.384	660.31
775.824	1212.11
776.263	1183.01
776.703	497.31
777.142	214.21
777.582	152.41
778.021	139.01
778.461	136.61
778.9	132.31
779.34	135.11
779.779	112.41
780.219	115.51
780.658	108.91
781.097	113.71
781.537	114.01
781.976	111.91
782.415	105.71
782.855	107.31
783.294	103.11
783.733	105.01
784.172	107.81
784.611	100.41
785.05	104.31
785.489	112.61
785.928	119.81
786.367	112.41
786.806	117.71
787.245	126.91
787.684	134.61
788.123	145.91
788.562	130.41
789.001	125.81
789.44	119.01
789.879	117.71
790.317	121.21
790.756	129.81
791.195	127.51
791.634	147.71
792.072	193.41
792.511	366.81
792.95	985.91
793.388	2137.91
793.827	1923.91
794.265	682.41
794.704	284.61
795.142	182.21
795.581	151.01
796.019	136.21
796.458	130.41
796.896	117.41
797.334	128.01
797.773	155.61
798.211	216.81
798.649	432.01
799.087	1005.01
799.526	1571.41
799.964	1989.01
800.402	1992.81
800.84	756.81
801.278	299.71
801.716	186.21
802.154	150.41
802.592	149.11
803.03	137.71
803.468	126.71
803.906	141.81
804.344	150.61
804.782	136.01
805.22	129.11
805.658	124.81
806.096	144.31
806.533	159.21
806.971	176.91
807.409	212.21
807.847	299.61
808.284	634.31
808.722	1826.91
809.16	3284.01
809.597	3085.51
810.035	5356.71
810.472	5751.61
810.91	2062.91
811.347	780.41
811.785	404.71
812.222	254.41
812.66	187.61
813.097	157.51
813.535	137.91
813.972	120.91
814.409	114.81
814.846	109.61
815.284	101.21
815.721	102.51
816.158	103.31
816.595	121.61
817.032	171.91
817.47	198.21
817.907	175.01
818.344	148.41
818.781	116.31
819.218	104.51
819.655	115.71
820.092	178.11
820.529	209.71
820.966	180.41
821.403	128.31
821.839	102.71
822.276	102.41
822.713	123.01
823.15	131.31
823.587	119.31
824.023	146.01
824.46	301.11
824.897	882.31
825.333	1339.01
825.77	578.61
826.206	228.11
826.643	132.41
827.08	96.71
827.516	75.61
827.953	74.41
828.389	78.51
828.825	69.81
829.262	65.91
829.698	61.71
830.135	64.31
830.571	59.71
831.007	61.11
831.443	63.21
831.88	60.01
832.316	59.41
832.752	60.81
833.188	68.81
833.624	63.31
834.06	66.71
834.497	68.51
834.933	63.71
835.369	70.51
835.805	65.51
836.241	73.01
836.677	78.71
837.112	90.11
837.548	103.21
837.984	128.01
838.42	199.41
838.856	486.51
839.292	1496.51
839.727	2285.31
840.163	1066.51
840.599	909.01
841.034	2000.81
841.47	2116.41
841.906	775.21
842.341	324.31
842.777	222.51
843.212	315.61
843.648	312.41
844.083	154.61
844.519	94.91
844.954	69.61
845.39	64.41
845.825	55.61
846.261	57.21
846.696	52.21
847.131	49.61
847.566	62.41
848.002	50.21
848.437	53.71
848.872	59.01
849.307	59.11
849.742	88.01
850.177	177.41
850.613	554.51
851.048	873.51
851.483	376.11
851.918	154.21
852.353	82.71
852.788	58.01
853.223	55.91
853.657	52.11
854.092	49.41
854.527	35.01
854.962	38.71
855.397	43.11
855.832	47.31
856.266	45.51
856.701	37.01
857.136	42.41
857.57	39.11
858.005	48.71
858.44	61.71
858.874	40.41
859.309	52.31
859.743	42.71
860.178	43.41
860.612	42.61
861.047	51.71
861.481	59.11
861.915	67.21
862.35	45.91
862.784	29.91
863.218	39.11
863.653	34.31
864.087	41.91
864.521	54.21
864.955	66.81
865.39	151.41
865.824	172.21
866.258	110.91
866.692	162.61
867.126	174.21
867.56	104.91
867.994	44.41
868.428	34.21
868.862	51.01
869.296	57.11
869.73	56.91
870.164	45.61
870.598	43.91
871.031	33.01
871.465	24.01
871.899	30.61
872.333	28.61
872.766	28.91
873.2	23.51
873.634	27.41
874.067	18.51
874.501	21.71
874.935	33.41
875.368	28.11
875.802	26.21
876.235	20.11
876.669	20.31
877.102	22.81
877.535	25.31
877.969	20.51
878.402	23.71
878.836	18.11
879.269	24.61
879.702	23.91
880.135	17.91
880.569	17.71
881.002	26.01
881.435	22.81
881.868	21.91
882.301	24.21
882.734	15.01
883.167	20.71
883.601	15.71
884.034	23.41
884.467	17.61
884.899	19.51
885.332	15.31
885.765	13.71
886.198	8.91
886.631	19.11
887.064	17.21
887.497	16.81
887.929	22.21
888.362	12.71
888.795	6.91
889.228	15.31
889.66	24.11
890.093	15.21
890.526	11.21
890.958	14.01
891.391	15.71
891.823	22.01
892.256	19.41
892.688	12.41
893.121	18.51
893.553	13.81
893.985	23.11
894.418	18.41
894.85	8.51
895.282	15.71
895.715	11.61
896.147	11.51
896.579	13.51
897.011	9.71
897.444	12.81
897.876	10.11
898.308	13.21
898.74	10.81
899.172	11.51
899.604	24.71
900.036	19.31
900.468	19.71
900.9	14.21
901.332	8.41
901.764	13.31
902.196	11.91
902.628	15.71
903.06	16.71
903.491	28.31
903.923	18.71
904.355	14.31
904.787	24.01
905.218	24.21
905.65	21.11
906.082	9.81
906.513	10.91
906.945	15.11
907.376	13.81
907.808	17.21
908.239	19.11
908.671	16.81
909.102	23.61
909.534	27.81
909.965	45.51
910.397	84.81
910.828	307.31
911.259	468.41
911.691	211.51
912.122	101.41
912.553	49.21
912.984	34.31
913.415	26.81
913.847	23.51
914.278	17.21
914.709	7.51
915.14	17.51
915.571	14.61
916.002	14.31
916.433	22.31
916.864	16.41
917.295	13.11
917.726	19.71
918.157	20.51
918.587	27.31
919.018	17.21
919.449	21.61
919.88	19.21
920.311	30.01
920.741	47.31
921.172	163.51
921.603	149.31
922.033	69.21
922.464	41.01
922.895	20.91
923.325	18.41
923.756	12.71
924.186	15.11
924.617	25.91
925.047	40.31
925.478	52.21
925.908	41.11
926.338	21.81
926.769	16.21
927.199	15.21
927.629	5.51
928.06	20.41
928.49	13.91
928.92	8.61
929.35	7.81
929.78	7.41
930.21	8.21
930.641	2.91
931.071	12.61
931.501	2.51
931.931	7.01
932.361	4.11
932.791	-0.49
933.221	-4.69
933.651	3.71
934.08	20.31
934.51	31.31
934.94	11.91
935.37	7.41
935.8	9.91
936.229	5.21
936.659	10.21
937.089	3.91
937.519	14.51
937.948	22.71
938.378	13.51
938.807	-2.99
939.237	9.91
939.666	8.21
940.096	-8.29
940.525	0.41
940.955	1.91
941.384	-1.19
941.814	-7.29
942.243	0.01
942.672	5.21
943.102	1.61
943.531	1.11
943.96	4.81
944.39	-2.59
944.819	1.41
945.248	-0.39
945.677	-2.19
946.106	4.31
946.535	0.61
946.964	-4.49
947.393	-0.99
947.822	-0.69
948.251	-4.29
948.68	1.11
949.109	6.31
949.538	3.11
949.967	-0.69
950.396	-4.99
950.825	0.71
951.254	-3.39
951.682	-8.89
952.111	0.61
952.54	0.41
952.969	-6.19
953.397	-7.29
953.826	-2.19
954.254	-8.59
954.683	6.31
955.112	-0.99
955.54	1.71
955.969	3.11
956.397	-3.39
956.826	-5.49
957.254	-0.49
957.682	3.21
958.111	4.61
958.539	1.41
958.967	-2.39
959.396	-7.09
959.824	-6.59
960.252	0.91
960.68	-9.09
961.109	-4.19
961.537	0.81
961.965	-0.89
962.393	-2.39
962.821	-7.89
963.249	-1.79
963.677	3.91
964.105	4.01
964.533	41.51
964.961	46.01
965.389	16.31
965.817	9.81
966.245	3.41
966.672	-8.89
967.1	-6.49
967.528	-4.69
967.956	-1.79
968.383	-2.59
968.811	-2.79
969.239	-6.19
969.666	-3.69
970.094	1.41
970.522	0.31
970.949	-3.79
971.377	-6.19
971.804	-4.09
972.232	-3.29
972.659	-2.59
973.087	-2.49
973.514	-6.39
973.941	-7.39
974.369	-3.39
974.796	-5.49
975.223	2.71
975.651	-8.79
976.078	-3.99
976.505	-2.29
976.932	3.11
977.359	14.91
977.786	13.11
978.214	0.11
978.641	-3.19
979.068	-3.39
979.495	-2.09
979.922	-4.99
980.349	-4.29
980.776	4.91
981.202	-1.29
981.629	4.81
982.056	3.51
982.483	-2.19
982.91	2.81
983.337	-5.69
983.763	6.11
984.19	-6.69
984.617	-4.79
985.043	-4.49
985.47	-1.19
985.897	-6.59
986.323	-5.39
986.75	4.81
987.176	1.01
987.603	-8.09
988.029	-5.19
988.456	-3.69
988.882	-4.29
989.308	-3.69
989.735	-7.29
990.161	-2.69
990.587	-7.69
991.014	-2.79
991.44	6.81
991.866	-4.19
992.292	-6.79
992.719	-6.99
993.145	-2.19
993.571	-8.59
993.997	-4.39
994.423	-2.79
994.849	-8.09
995.275	0.01
995.701	-4.79
996.127	-2.99
996.553	0.31
996.979	-8.79
997.405	-4.49
997.83	-11.09
998.256	-2.99
998.682	-7.99
999.108	-11.89
999.534	-5.09
999.959	-6.59
1000.385	-8.79
1000.811	0.11
1001.236	-8.69
1001.662	-4.99
1002.087	-10.19
1002.513	-4.39
1002.938	3.01
1003.364	-6.69
1003.789	-5.99
1004.215	1.31
1004.64	1.11
1005.066	-4.99
1005.491	-5.59
1005.916	-2.39
1006.342	-3.69
1006.767	-14.39
1007.192	1.21
1007.617	-10.09
1008.042	-5.69
1008.468	-4.59
1008.893	-5.89
1009.318	-1.59
1009.743	-8.79
1010.168	4.41
1010.593	1.01
1011.018	-7.09
1011.443	-3.99
1011.868	-2.79
1012.293	-2.39
1012.718	-7.29
1013.143	0.81
1013.567	-0.29
1013.992	-4.19
1014.417	-15.59
1014.842	-4.29
1015.267	-6.39
1015.691	-6.09
1016.116	-0.79
1016.541	-0.39
1016.965	4.61
1017.39	-1.79
1017.814	-7.89
1018.239	-1.59
1018.663	-7.59
1019.088	-9.09
1019.512	-2.99
1019.937	-1.69
1020.361	-5.09
1020.785	-9.69
1021.21	-3.09
1021.634	-7.59
1022.058	-1.49
1022.483	-4.19
1022.907	-5.19
1023.331	-5.79
1023.755	-6.19
1024.179	-2.39
1024.604	-6.49
1025.028	-8.39
1025.452	-9.89
1025.876	-8.69
1026.3	-3.19
1026.724	-12.49
1027.148	-9.99
1027.572	-8.49
1027.996	-5.39
1028.42	0.71
1028.843	-5.19
1029.267	-6.19
1029.691	-10.09
1030.115	-3.69
1030.539	-14.39
1030.962	-10.09
1031.386	-14.19
1031.81	-6.89
1032.233	-4.79
1032.657	-5.79
1033.08	-8.79
1033.504	-6.69
1033.927	-6.39
1034.351	0.21
1034.774	-4.59
1035.198	-9.49
1035.621	-10.09
1036.045	-10.39
1036.468	-0.59
1036.891	-7.49
1037.315	-12.59
1037.738	-13.09
1038.161	-2.99
1038.584	-5.99
1039.008	-2.89
1039.431	-10.09
1039.854	-7.29
1040.277	-10.39
1040.7	-8.69
1041.123	-4.09
1041.546	-13.89
1041.969	-6.39
1042.392	-8.09
1042.815	-9.89
1043.238	2.01
1043.661	1.91
1044.084	-5.09
1044.507	-9.79
1044.93	-7.59
1045.352	-9.79
1045.775	-6.49
1046.198	-4.79
1046.621	-9.89
1047.043	0.71
1047.466	5.31
1047.889	-7.69
1048.311	-4.29
1048.734	-4.79
1049.156	-7.49
1049.579	-12.29
1050.001	-5.89
1050.424	-0.99
1050.846	-7.49
1051.269	-1.69
1051.691	-7.79
1052.113	-11.99
1052.536	1.71
1052.958	-5.49
1053.38	-6.69
1053.802	-7.79
1054.225	-1.99
1054.647	-7.99
1055.069	-10.39
1055.491	-0.19
1055.913	-10.09
1056.335	-2.49
1056.757	-4.39
1057.179	-8.29
1057.601	-6.69
1058.023	-3.79
1058.445	-11.69
1058.867	-9.69
1059.289	-5.19
1059.711	-9.59
1060.133	-8.99
1060.555	-8.59
1060.976	-8.09
1061.398	-13.99
1061.82	-11.59
1062.241	-9.09
1062.663	-13.49
1063.085	-8.59
1063.506	-2.09
1063.928	-6.49
1064.35	-11.99
1064.771	-11.59
1065.193	-9.09
1065.614	-13.89
1066.035	-3.79
1066.457	-3.19
1066.878	-0.59
1067.3	-4.69
1067.721	-3.19
1068.142	-6.39
1068.564	-5.39
1068.985	-8.99
1069.406	-12.69
1069.827	-14.39
1070.248	-3.49
1070.67	-7.99
1071.091	-6.79
1071.512	-8.09
1071.933	-6.49
1072.354	-10.69
1072.775	-6.39
1073.196	-8.39
1073.617	-4.69
1074.038	-10.79
1074.459	-8.09
1074.88	-13.99
1075.3	1.71
1075.721	-6.09
1076.142	3.61
1076.563	-1.39
1076.983	-7.39
1077.404	-11.09
1077.825	-12.99
1078.246	-9.79
1078.666	-16.49
1079.087	-5.59
1079.507	-8.39
1079.928	-5.09
1080.348	-6.49
1080.769	-8.19
1081.189	3.61
1081.61	-0.29
1082.03	-6.69
1082.451	-12.89
1082.871	-6.29
1083.291	-7.29
1083.711	-14.89
1084.132	-2.89
1084.552	-5.79
1084.972	-2.39
1085.392	-14.19
1085.813	-13.79
1086.233	-8.79
1086.653	-13.49
1087.073	-2.39
1087.493	-12.09
1087.913	-13.29
1088.333	-5.49
1088.753	-6.99
1089.173	-0.49
1089.593	-10.59
1090.013	1.61
1090.433	-0.79
1090.852	-3.39
1091.272	-1.29
1091.692	-6.79
1092.112	-6.39
1092.531	-9.19
1092.951	-14.39
1093.371	-6.69
1093.79	4.41
1094.21	-6.19
1094.63	-4.89
1095.049	-9.19
1095.469	-2.39
1095.888	-4.69
1096.308	0.21
1096.727	3.71
1097.146	-7.89
1097.566	-10.09
1097.985	-5.79
1098.405	-4.89
1098.824	-8.49
1099.243	-6.19
1099.662	-12.39
1100.082	-5.99
1100.501	-0.09
1100.92	-12.49
1101.339	-8.59
1101.758	-11.29
