Data from 20171114-ORNL-Ar_H_NY_Subt18_08-06-16-912.txt Node
Date: Tue Nov 14 08:06:16 EST 2017
User: Ender
Spectrometer: HR+D1039
Trigger mode: 0
Integration Time (sec): 2.730000E-2
Scans to average: 10
Electric dark correction enabled: true
Nonlinearity correction enabled: false
Boxcar width: 0
XAxis mode: Wavelengths
Number of Pixels in Spectrum: 2048
>>>>>Begin Spectral Data<<<<<
187.836	-6.31
188.309	-6.31
188.782	-6.31
189.255	1.09
189.728	2.09
190.201	5.79
190.674	1.39
191.147	6.59
191.619	-10.91
192.092	0.89
192.565	3.09
193.038	-1.81
193.511	2.59
193.984	0.89
194.456	-3.01
194.929	0.69
195.402	-1.31
195.874	-1.71
196.347	1.29
196.82	-7.21
197.292	5.19
197.765	1.19
198.237	-5.41
198.71	4.39
199.182	-0.01
199.655	1.09
200.127	1.99
200.6	5.29
201.072	-0.81
201.544	2.39
202.017	-0.61
202.489	6.89
202.961	3.19
203.433	-1.21
203.906	-5.61
204.378	-8.71
204.85	-3.91
205.322	-8.71
205.794	-3.71
206.266	-1.11
206.739	-7.01
207.211	8.49
207.683	-4.61
208.155	-7.21
208.627	-1.91
209.099	1.39
209.57	-8.51
210.042	-2.91
210.514	-1.61
210.986	-2.21
211.458	-6.41
211.93	-2.91
212.402	4.99
212.873	-7.41
213.345	-6.31
213.817	-8.11
214.288	0.09
214.76	-7.71
215.232	-3.11
215.703	-2.21
216.175	-2.11
216.646	-7.31
217.118	-0.11
217.589	-0.11
218.061	3.19
218.532	-3.81
219.004	4.59
219.475	-2.21
219.946	-1.01
220.418	0.29
220.889	11.99
221.36	-3.21
221.832	-5.31
222.303	-8.31
222.774	-0.21
223.245	-3.81
223.717	-4.31
224.188	-2.81
224.659	-7.41
225.13	-6.11
225.601	-1.61
226.072	-3.21
226.543	-3.91
227.014	1.89
227.485	8.09
227.956	-5.31
228.427	4.69
228.898	0.59
229.369	6.69
229.839	-1.61
230.31	0.79
230.781	3.59
231.252	1.89
231.722	-2.01
232.193	3.19
232.664	1.39
233.135	-3.31
233.605	1.69
234.076	-1.91
234.546	1.99
235.017	5.19
235.487	7.39
235.958	2.09
236.428	-0.51
236.899	1.79
237.369	6.99
237.84	0.39
238.31	8.59
238.78	2.29
239.251	3.99
239.721	8.89
240.191	7.59
240.662	3.99
241.132	10.19
241.602	5.59
242.072	0.99
242.542	8.99
243.013	5.39
243.483	2.89
243.953	2.69
244.423	1.29
244.893	-2.91
245.363	7.69
245.833	0.49
246.303	2.49
246.773	10.69
247.243	9.49
247.712	14.49
248.182	10.59
248.652	10.49
249.122	0.89
249.592	13.49
250.061	22.59
250.531	38.99
251.001	18.19
251.471	28.79
251.94	23.29
252.41	10.49
252.879	8.19
253.349	13.19
253.818	11.49
254.288	7.49
254.757	15.29
255.227	4.09
255.696	0.19
256.166	9.69
256.635	12.29
257.105	9.49
257.574	6.79
258.043	13.39
258.513	14.29
258.982	22.09
259.451	14.29
259.92	20.09
260.389	9.49
260.859	23.99
261.328	19.89
261.797	25.49
262.266	14.59
262.735	13.29
263.204	9.29
263.673	-2.01
264.142	11.99
264.611	-0.01
265.08	6.09
265.549	5.59
266.018	5.19
266.487	4.99
266.955	2.19
267.424	7.49
267.893	5.39
268.362	8.29
268.83	11.59
269.299	8.39
269.768	6.09
270.236	11.39
270.705	7.09
271.174	13.39
271.642	14.19
272.111	8.89
272.579	24.39
273.048	22.39
273.516	29.39
273.985	34.19
274.453	27.19
274.922	22.89
275.39	13.39
275.858	4.39
276.327	17.99
276.795	22.19
277.263	11.79
277.731	40.39
278.2	53.79
278.668	61.09
279.136	51.49
279.604	21.59
280.072	20.09
280.54	12.29
281.008	15.59
281.477	17.99
281.945	13.89
282.413	17.89
282.881	21.49
283.348	14.99
283.816	20.19
284.284	17.29
284.752	19.99
285.22	13.49
285.688	23.69
286.156	22.79
286.623	48.59
287.091	51.69
287.559	33.19
288.026	23.89
288.494	20.69
288.962	9.69
289.429	11.99
289.897	23.69
290.364	20.59
290.832	20.09
291.3	12.39
291.767	21.59
292.234	20.59
292.702	18.69
293.169	20.49
293.637	26.29
294.104	22.99
294.571	10.49
295.039	12.89
295.506	18.49
295.973	19.49
296.44	16.69
296.908	20.79
297.375	25.49
297.842	19.79
298.309	21.69
298.776	18.79
299.243	20.19
299.71	13.69
300.177	25.39
300.644	26.39
301.111	18.89
301.578	24.29
302.045	24.59
302.512	27.09
302.979	28.49
303.446	31.99
303.913	29.09
304.379	20.89
304.846	30.19
305.313	32.19
305.78	24.59
306.246	29.79
306.713	34.79
307.18	36.59
307.646	32.89
308.113	34.99
308.579	32.19
309.046	25.39
309.512	31.39
309.979	19.29
310.445	30.39
310.912	26.79
311.378	33.59
311.845	33.69
312.311	36.79
312.777	31.39
313.244	33.39
313.71	42.99
314.176	33.79
314.642	36.49
315.109	29.69
315.575	42.99
316.041	41.69
316.507	40.09
316.973	39.99
317.439	32.99
317.905	40.39
318.371	40.29
318.837	48.59
319.303	42.59
319.769	39.99
320.235	39.09
320.701	39.69
321.167	38.89
321.633	36.09
322.099	45.99
322.564	48.49
323.03	44.99
323.496	44.29
323.962	48.49
324.427	39.59
324.893	47.79
325.359	39.29
325.824	37.49
326.29	39.39
326.755	45.29
327.221	42.39
327.686	37.79
328.152	54.39
328.617	46.79
329.083	46.59
329.548	54.39
330.014	55.09
330.479	46.39
330.944	52.19
331.41	49.19
331.875	48.49
332.34	44.89
332.805	47.29
333.271	55.79
333.736	48.79
334.201	61.19
334.666	53.39
335.131	52.49
335.596	56.99
336.061	56.89
336.526	48.29
336.991	53.79
337.456	59.49
337.921	50.19
338.386	46.29
338.851	48.49
339.316	47.59
339.781	59.89
340.246	48.99
340.711	52.69
341.175	56.29
341.64	55.69
342.105	58.79
342.569	59.79
343.034	63.59
343.499	65.09
343.963	57.49
344.428	60.99
344.893	67.69
345.357	68.99
345.822	69.59
346.286	71.29
346.751	83.39
347.215	72.89
347.679	80.69
348.144	106.59
348.608	86.79
349.073	77.99
349.537	77.99
350.001	87.39
350.465	94.49
350.93	85.29
351.394	89.19
351.858	81.19
352.322	95.09
352.786	89.49
353.25	109.29
353.715	118.39
354.179	102.39
354.643	121.79
355.107	134.79
355.571	118.59
356.035	107.99
356.498	126.39
356.962	124.29
357.426	141.99
357.89	123.59
358.354	95.79
358.818	89.19
359.281	86.59
359.745	86.79
360.209	81.99
360.673	83.29
361.136	89.79
361.6	89.19
362.064	91.09
362.527	94.99
362.991	90.39
363.454	83.19
363.918	83.99
364.381	88.79
364.845	90.59
365.308	91.79
365.772	90.09
366.235	92.09
366.698	89.29
367.162	93.49
367.625	96.99
368.088	90.69
368.552	96.99
369.015	97.19
369.478	105.49
369.941	110.89
370.404	96.69
370.867	108.49
371.331	112.69
371.794	127.19
372.257	116.29
372.72	120.79
373.183	113.69
373.646	112.19
374.109	106.99
374.572	112.89
375.035	110.69
375.497	113.49
375.96	115.89
376.423	107.09
376.886	120.09
377.349	121.59
377.811	109.79
378.274	112.19
378.737	114.29
379.199	119.49
379.662	119.29
380.125	124.39
380.587	120.19
381.05	129.09
381.512	138.69
381.975	144.49
382.437	133.89
382.9	135.59
383.362	135.59
383.825	148.99
384.287	161.79
384.75	150.29
385.212	149.19
385.674	144.79
386.136	144.79
386.599	131.59
387.061	137.69
387.523	132.49
387.985	144.29
388.447	156.49
388.91	147.59
389.372	169.19
389.834	161.49
390.296	154.49
390.758	160.49
391.22	174.89
391.682	220.79
392.144	315.59
392.606	240.59
393.068	169.49
393.529	175.89
393.991	156.59
394.453	156.39
394.915	162.99
395.377	202.29
395.838	225.59
396.3	166.79
396.762	152.69
397.224	135.99
397.685	135.39
398.147	138.09
398.608	136.49
399.07	134.49
399.531	130.69
399.993	145.79
400.454	160.39
400.916	155.39
401.377	156.39
401.839	164.99
402.3	159.59
402.762	176.69
403.223	190.89
403.684	184.99
404.145	169.49
404.607	172.39
405.068	176.09
405.529	180.79
405.99	200.99
406.451	190.89
406.913	182.49
407.374	173.89
407.835	177.39
408.296	175.99
408.757	186.99
409.218	195.59
409.679	180.29
410.14	190.69
410.601	183.29
411.062	191.99
411.522	199.09
411.983	197.79
412.444	191.09
412.905	184.39
413.366	187.39
413.826	199.49
414.287	231.39
414.748	275.19
415.208	263.99
415.669	221.99
416.13	216.29
416.59	213.39
417.051	229.59
417.511	232.69
417.972	251.99
418.432	268.79
418.893	302.19
419.353	269.29
419.814	204.19
420.274	189.99
420.734	189.69
421.195	207.29
421.655	202.09
422.115	202.99
422.576	206.69
423.036	212.29
423.496	220.09
423.956	222.19
424.416	240.59
424.876	276.09
425.336	277.09
425.797	280.99
426.257	267.09
426.717	262.49
427.177	242.19
427.637	230.49
428.097	247.69
428.556	255.99
429.016	286.19
429.476	279.99
429.936	291.09
430.396	287.89
430.856	303.59
431.315	330.99
431.775	361.19
432.235	402.79
432.694	368.79
433.154	377.39
433.614	411.09
434.073	359.89
434.533	296.09
434.993	285.29
435.452	287.49
435.912	320.59
436.371	299.49
436.83	298.89
437.29	284.89
437.749	260.69
438.209	260.69
438.668	284.99
439.127	302.79
439.587	275.99
440.046	249.19
440.505	276.09
440.964	289.69
441.424	344.09
441.883	333.19
442.342	271.39
442.801	242.79
443.26	228.29
443.719	223.39
444.178	229.19
444.637	216.89
445.096	238.19
445.555	230.89
446.014	235.39
446.473	233.69
446.932	243.49
447.391	229.19
447.849	240.29
448.308	232.99
448.767	230.69
449.226	249.09
449.685	245.79
450.143	259.19
450.602	252.89
451.061	237.29
451.519	243.89
451.978	238.69
452.436	242.89
452.895	247.29
453.353	264.99
453.812	249.39
454.27	255.39
454.729	246.59
455.187	250.39
455.646	251.69
456.104	264.39
456.562	269.99
457.021	280.69
457.479	263.79
457.937	283.69
458.395	282.79
458.854	263.49
459.312	269.39
459.77	287.19
460.228	277.09
460.686	255.79
461.144	258.89
461.602	255.99
462.06	249.29
462.518	271.59
462.976	266.99
463.434	271.89
463.892	274.19
464.35	286.19
464.808	308.69
465.266	277.89
465.724	276.19
466.181	280.99
466.639	285.29
467.097	306.39
467.555	314.89
468.012	312.39
468.47	317.99
468.928	344.99
469.385	353.09
469.843	362.19
470.3	365.99
470.758	385.19
471.215	399.69
471.673	422.89
472.13	423.89
472.588	429.89
473.045	382.29
473.503	393.69
473.96	416.79
474.417	414.49
474.875	450.89
475.332	492.59
475.789	482.89
476.246	484.39
476.704	502.69
477.161	520.69
477.618	555.29
478.075	580.49
478.532	645.69
478.989	726.09
479.446	829.49
479.903	802.59
480.36	839.79
480.817	915.89
481.274	1008.69
481.731	1116.29
482.188	1218.19
482.645	1340.29
483.102	1458.89
483.558	1604.59
484.015	1652.39
484.472	1623.09
484.929	1577.49
485.385	1523.49
485.842	1468.99
486.299	1417.39
486.755	1349.49
487.212	1138.49
487.668	963.49
488.125	891.49
488.582	808.49
489.038	773.49
489.494	741.39
489.951	701.89
490.407	679.19
490.864	672.69
491.32	677.29
491.776	672.79
492.233	667.59
492.689	639.29
493.145	633.39
493.602	619.09
494.058	640.99
494.514	646.39
494.97	660.99
495.426	678.59
495.882	651.99
496.338	635.69
496.794	651.39
497.251	635.39
497.707	655.99
498.163	655.89
498.618	672.69
499.074	666.39
499.53	708.19
499.986	704.59
500.442	677.49
500.898	650.59
501.354	651.49
501.809	665.29
502.265	671.69
502.721	687.59
503.177	688.39
503.632	695.09
504.088	697.09
504.543	737.09
504.999	740.39
505.455	683.79
505.91	657.79
506.366	658.59
506.821	657.19
507.277	648.59
507.732	650.49
508.187	644.49
508.643	663.59
509.098	666.69
509.553	668.89
510.009	686.39
510.464	701.29
510.919	717.39
511.375	721.29
511.83	732.59
512.285	740.59
512.74	784.29
513.195	815.49
513.65	804.99
514.105	795.89
514.56	794.89
515.015	833.49
515.47	840.59
515.925	821.19
516.38	817.19
516.835	833.89
517.29	798.29
517.745	802.59
518.2	792.09
518.655	779.29
519.109	771.79
519.564	760.39
520.019	760.99
520.474	750.69
520.928	752.09
521.383	754.69
521.838	741.19
522.292	732.79
522.747	733.59
523.201	717.49
523.656	726.99
524.11	724.19
524.565	714.39
525.019	722.69
525.474	723.39
525.928	735.39
526.382	720.09
526.837	723.79
527.291	727.69
527.745	735.49
528.2	725.59
528.654	724.99
529.108	712.79
529.562	726.19
530.016	711.69
530.47	714.69
530.925	718.49
531.379	715.09
531.833	725.69
532.287	723.79
532.741	717.79
533.195	722.29
533.649	732.99
534.103	737.69
534.556	737.79
535.01	733.89
535.464	727.69
535.918	743.89
536.372	743.69
536.826	744.39
537.279	722.19
537.733	730.29
538.187	737.09
538.64	733.69
539.094	746.89
539.548	757.69
540.001	750.09
540.455	742.09
540.908	764.09
541.362	767.39
541.815	776.59
542.269	791.79
542.722	777.89
543.175	793.09
543.629	803.59
544.082	812.59
544.536	822.29
544.989	810.89
545.442	822.69
545.895	821.29
546.349	817.69
546.802	818.19
547.255	822.19
547.708	827.99
548.161	837.69
548.614	851.79
549.067	861.29
549.52	850.29
549.973	846.49
550.426	841.39
550.879	817.09
551.332	820.59
551.785	837.09
552.238	840.29
552.691	844.79
553.144	863.49
553.596	871.19
554.049	878.19
554.502	925.59
554.955	939.99
555.407	937.19
555.86	932.39
556.313	925.99
556.765	911.39
557.218	910.19
557.67	920.09
558.123	901.39
558.576	906.49
559.028	919.19
559.48	903.49
559.933	896.79
560.385	869.89
560.838	836.79
561.29	816.29
561.742	802.99
562.195	800.49
562.647	789.29
563.099	795.39
563.551	789.69
564.004	798.69
564.456	797.29
564.908	777.19
565.36	772.49
565.812	755.89
566.264	744.69
566.716	743.89
567.168	735.59
567.62	753.59
568.072	717.99
568.524	715.09
568.976	710.89
569.428	700.99
569.88	709.89
570.332	713.39
570.784	707.59
571.235	703.89
571.687	709.49
572.139	726.69
572.59	732.39
573.042	727.09
573.494	737.99
573.945	726.49
574.397	695.89
574.849	714.29
575.3	711.39
575.752	701.69
576.203	699.79
576.655	711.89
577.106	696.49
577.557	688.49
578.009	680.49
578.46	687.19
578.912	677.19
579.363	681.89
579.814	693.79
580.265	690.59
580.717	696.39
581.168	691.59
581.619	701.09
582.07	695.79
582.521	688.49
582.972	691.69
583.423	700.39
583.875	699.49
584.326	722.39
584.777	764.99
585.227	839.99
585.678	937.19
586.129	1018.59
586.58	1097.39
587.031	1187.69
587.482	1339.49
587.933	1528.69
588.384	1322.99
588.834	989.69
589.285	826.79
589.736	807.19
590.186	799.89
590.637	777.19
591.088	764.99
591.538	755.59
591.989	755.99
592.439	738.49
592.89	732.89
593.34	733.19
593.791	731.09
594.241	735.39
594.692	726.89
595.142	729.39
595.593	719.69
596.043	733.09
596.493	728.09
596.943	743.59
597.394	737.29
597.844	740.19
598.294	758.89
598.744	767.79
599.195	794.89
599.645	841.89
600.095	882.09
600.545	945.09
600.995	983.89
601.445	1046.19
601.895	1112.89
602.345	1163.79
602.795	1138.39
603.245	1092.99
603.695	1034.99
604.145	977.89
604.594	922.89
605.044	885.99
605.494	822.39
605.944	770.39
606.393	755.09
606.843	743.79
607.293	754.89
607.743	753.99
608.192	770.39
608.642	777.99
609.091	781.89
609.541	792.59
609.99	789.99
610.44	788.19
610.889	741.89
611.339	721.29
611.788	699.69
612.238	721.69
612.687	744.29
613.136	726.59
613.586	753.49
614.035	755.99
614.484	780.49
614.933	775.79
615.383	763.69
615.832	750.89
616.281	733.99
616.73	692.59
617.179	682.49
617.628	662.09
618.077	650.59
618.526	637.09
618.975	631.29
619.424	626.29
619.873	624.79
620.322	627.89
620.771	616.89
621.22	626.39
621.669	608.09
622.118	606.09
622.567	588.39
623.015	587.79
623.464	582.09
623.913	569.59
624.361	563.79
624.81	563.39
625.259	563.39
625.707	572.59
626.156	567.29
626.604	578.09
627.053	569.09
627.501	569.09
627.95	582.79
628.398	594.59
628.847	588.69
629.295	580.79
629.744	595.19
630.192	579.29
630.64	585.79
631.089	581.19
631.537	587.49
631.985	600.69
632.433	619.19
632.881	633.99
633.33	670.59
633.778	654.29
634.226	583.99
634.674	582.69
635.122	598.89
635.57	615.09
636.018	641.79
636.466	594.09
636.914	566.89
637.362	582.99
637.81	573.59
638.258	590.79
638.705	589.19
639.153	624.69
639.601	629.99
640.049	648.49
640.497	677.89
640.944	704.49
641.392	665.09
641.84	611.09
642.287	597.69
642.735	573.79
643.182	588.29
643.63	584.49
644.078	587.09
644.525	607.59
644.973	603.79
645.42	621.59
645.867	627.49
646.315	648.39
646.762	675.09
647.21	695.99
647.657	722.29
648.104	769.49
648.551	778.79
648.999	845.29
649.446	925.49
649.893	1021.99
650.34	1181.39
650.787	1415.49
651.234	1752.99
651.682	2272.39
652.129	3122.69
652.576	4508.79
653.023	6641.09
653.47	9132.19
653.917	11370.99
654.363	13135.99
654.81	14487.59
655.257	13779.59
655.704	9047.39
656.151	5361.29
656.598	3465.39
657.044	2449.09
657.491	1878.69
657.938	1514.99
658.385	1263.99
658.831	1100.49
659.278	984.39
659.724	879.19
660.171	800.59
660.618	738.59
661.064	695.49
661.511	674.99
661.957	656.79
662.404	651.49
662.85	658.79
663.296	635.59
663.743	565.79
664.189	546.99
664.635	536.49
665.082	533.99
665.528	533.49
665.974	522.29
666.42	517.89
666.867	517.79
667.313	499.89
667.759	487.89
668.205	484.19
668.651	489.69
669.097	492.29
669.543	505.79
669.989	476.59
670.435	458.39
670.881	453.99
671.327	446.89
671.773	468.89
672.219	491.69
672.665	548.69
673.11	601.59
673.556	635.09
674.002	677.69
674.448	670.49
674.893	555.69
675.339	485.89
675.785	446.39
676.23	427.29
676.676	407.39
677.122	385.79
677.567	377.59
678.013	371.89
678.458	360.29
678.904	364.09
679.349	359.99
679.794	356.49
680.24	357.29
680.685	358.49
681.131	350.39
681.576	353.59
682.021	359.79
682.466	356.79
682.912	360.09
683.357	360.29
683.802	390.99
684.247	418.79
684.692	458.49
685.137	503.19
685.583	543.19
686.028	570.59
686.473	525.99
686.918	451.49
687.363	417.69
687.807	395.79
688.252	370.89
688.697	357.19
689.142	343.39
689.587	340.39
690.032	332.19
690.477	349.79
690.921	356.29
691.366	383.79
691.811	411.19
692.255	440.49
692.7	468.89
693.145	509.49
693.589	697.29
694.034	1128.59
694.478	1538.99
694.923	1739.99
695.367	2285.49
695.812	1201.89
696.256	500.89
696.701	374.59
697.145	345.09
697.59	334.19
698.034	320.79
698.478	331.89
698.922	327.09
699.367	331.19
699.811	339.09
700.255	355.59
700.699	396.39
701.143	439.19
701.588	486.39
702.032	519.89
702.476	517.29
702.92	491.79
703.364	497.69
703.808	641.99
704.252	1035.99
704.696	1456.39
705.14	1678.49
705.584	2135.89
706.027	1072.19
706.471	526.79
706.915	399.39
707.359	345.19
707.803	324.59
708.246	313.29
708.69	316.49
709.134	317.89
709.577	310.49
710.021	318.29
710.465	312.09
710.908	299.89
711.352	298.39
711.795	312.29
712.239	353.29
712.682	382.59
713.126	421.49
713.569	459.69
714.012	375.39
714.456	322.29
714.899	305.29
715.342	276.69
715.786	264.49
716.229	262.49
716.672	261.99
717.115	249.99
717.558	255.59
718.002	249.59
718.445	264.29
718.888	291.49
719.331	297.79
719.774	318.19
720.217	305.39
720.66	286.79
721.103	264.29
721.546	257.39
721.989	254.79
722.432	231.09
722.874	244.99
723.317	236.39
723.76	245.99
724.203	267.19
724.645	318.49
725.088	443.59
725.531	576.69
725.974	662.99
726.416	545.19
726.859	311.29
727.301	251.29
727.744	246.29
728.187	240.99
728.629	241.69
729.071	248.49
729.514	260.79
729.956	277.89
730.399	276.59
730.841	292.19
731.283	275.79
731.726	265.09
732.168	257.89
732.61	263.89
733.053	290.59
733.495	313.19
733.937	358.29
734.379	401.79
734.821	440.79
735.263	537.79
735.705	825.79
736.148	1565.39
736.59	2569.69
737.032	3075.89
737.474	2480.69
737.916	805.99
738.357	429.99
738.799	340.29
739.241	303.89
739.683	286.69
740.125	294.39
740.567	299.89
741.008	323.29
741.45	316.69
741.892	316.89
742.334	344.29
742.775	360.69
743.217	338.59
743.658	273.49
744.1	250.59
744.542	262.49
744.983	315.59
745.425	345.79
745.866	340.29
746.307	283.29
746.749	282.29
747.19	324.39
747.632	453.59
748.073	877.59
748.514	1844.39
748.956	2847.59
749.397	3572.89
749.838	2971.89
750.279	2967.99
750.72	1492.09
751.162	554.19
751.603	326.29
752.044	252.69
752.485	221.39
752.926	211.59
753.367	208.59
753.808	190.79
754.249	192.29
754.69	190.59
755.131	185.79
755.572	183.49
756.013	186.99
756.453	186.79
756.894	195.69
757.335	194.39
757.776	202.59
758.216	196.09
758.657	197.79
759.098	207.69
759.538	227.19
759.979	269.89
760.42	374.19
760.86	707.69
761.301	1806.49
761.741	4418.89
762.182	6444.09
762.622	4560.19
763.063	1313.39
763.503	540.69
763.943	350.59
764.384	339.89
764.824	408.49
765.264	442.59
765.705	305.19
766.145	211.99
766.585	193.49
767.025	184.29
767.465	191.69
767.906	250.09
768.346	314.89
768.786	349.39
769.226	262.79
769.666	327.69
770.106	609.89
770.546	1533.99
770.986	2635.89
771.426	2373.89
771.866	793.99
772.306	327.49
772.745	210.79
773.185	174.69
773.625	174.79
774.065	166.39
774.505	203.09
774.944	305.09
775.384	673.39
775.824	1196.09
776.263	1176.89
776.703	503.59
777.142	223.69
777.582	158.09
778.021	145.99
778.461	149.69
778.9	139.09
779.34	132.59
779.779	122.39
780.219	120.89
780.658	112.79
781.097	114.89
781.537	113.09
781.976	105.29
782.415	111.29
782.855	109.49
783.294	106.19
783.733	106.79
784.172	110.09
784.611	105.09
785.05	110.49
785.489	111.59
785.928	119.49
786.367	125.49
786.806	122.99
787.245	137.39
787.684	141.89
788.123	150.39
788.562	142.59
789.001	135.39
789.44	124.19
789.879	123.99
790.317	127.59
790.756	131.69
791.195	130.89
791.634	146.79
792.072	199.79
792.511	367.89
792.95	997.89
793.388	2135.39
793.827	1938.19
794.265	687.89
794.704	281.29
795.142	191.09
795.581	160.19
796.019	136.79
796.458	131.09
796.896	119.79
797.334	125.59
797.773	155.89
798.211	222.89
798.649	437.79
799.087	1012.99
799.526	1592.49
799.964	2002.29
800.402	2006.89
800.84	747.09
801.278	300.09
801.716	181.59
802.154	158.19
802.592	145.49
803.03	147.29
803.468	147.59
803.906	146.09
804.344	148.09
804.782	143.49
805.22	131.99
805.658	131.29
806.096	152.59
806.533	162.69
806.971	178.59
807.409	218.29
807.847	311.99
808.284	646.69
808.722	1860.29
809.16	3272.29
809.597	3089.49
810.035	5405.29
810.472	5766.79
810.91	2071.29
811.347	792.39
811.785	403.09
812.222	259.99
812.66	193.59
813.097	162.69
813.535	147.09
813.972	131.39
814.409	116.99
814.846	106.99
815.284	109.49
815.721	105.59
816.158	113.89
816.595	113.19
817.032	178.29
817.47	197.29
817.907	174.79
818.344	155.79
818.781	121.59
819.218	106.99
819.655	132.89
820.092	189.09
820.529	218.59
820.966	185.19
821.403	132.99
821.839	109.69
822.276	102.39
822.713	127.79
823.15	137.69
823.587	123.99
824.023	147.59
824.46	304.39
824.897	897.39
825.333	1364.69
825.77	588.69
826.206	230.89
826.643	140.59
827.08	107.39
827.516	87.49
827.953	87.59
828.389	79.49
828.825	77.89
829.262	71.89
829.698	64.99
830.135	65.49
830.571	62.09
831.007	68.19
831.443	62.49
831.88	67.39
832.316	68.29
832.752	66.89
833.188	70.79
833.624	66.29
834.06	66.79
834.497	70.49
834.933	73.89
835.369	73.29
835.805	71.79
836.241	79.99
836.677	86.39
837.112	93.19
837.548	103.29
837.984	132.29
838.42	194.89
838.856	490.69
839.292	1516.29
839.727	2309.79
840.163	1066.59
840.599	911.69
841.034	2013.29
841.47	2134.29
841.906	776.39
842.341	330.49
842.777	231.09
843.212	309.99
843.648	303.89
844.083	153.99
844.519	102.39
844.954	81.39
845.39	61.39
845.825	57.99
846.261	58.89
846.696	54.69
847.131	56.99
847.566	55.09
848.002	55.49
848.437	49.19
848.872	65.39
849.307	64.09
849.742	84.69
850.177	180.89
850.613	558.09
851.048	878.89
851.483	380.39
851.918	149.59
852.353	81.99
852.788	64.69
853.223	63.89
853.657	59.79
854.092	51.69
854.527	41.19
854.962	44.69
855.397	48.39
855.832	49.29
856.266	45.09
856.701	42.59
857.136	34.69
857.57	40.49
858.005	51.69
858.44	61.39
858.874	46.29
859.309	59.09
859.743	42.29
860.178	51.79
860.612	45.89
861.047	56.09
861.481	72.19
861.915	72.39
862.35	48.79
862.784	36.49
863.218	45.49
863.653	32.49
864.087	46.79
864.521	49.59
864.955	67.79
865.39	155.19
865.824	181.09
866.258	116.19
866.692	160.39
867.126	178.89
867.56	103.49
867.994	51.79
868.428	45.69
868.862	46.19
869.296	55.39
869.73	61.89
870.164	48.89
870.598	45.59
871.031	39.19
871.465	34.79
871.899	36.99
872.333	29.39
872.766	26.69
873.2	27.29
873.634	34.09
874.067	31.59
874.501	30.09
874.935	32.19
875.368	38.39
875.802	28.19
876.235	36.39
876.669	28.39
877.102	27.49
877.535	31.89
877.969	26.49
878.402	28.09
878.836	21.59
879.269	25.79
879.702	26.89
880.135	24.69
880.569	32.69
881.002	28.69
881.435	25.39
881.868	21.29
882.301	29.49
882.734	18.59
883.167	30.89
883.601	23.19
884.034	29.69
884.467	18.69
884.899	25.19
885.332	19.59
885.765	18.59
886.198	20.39
886.631	16.99
887.064	21.99
887.497	24.59
887.929	30.49
888.362	15.49
888.795	16.29
889.228	14.49
889.66	24.29
890.093	19.79
890.526	17.19
890.958	20.69
891.391	24.49
891.823	27.79
892.256	19.09
892.688	13.89
893.121	20.99
893.553	22.19
893.985	23.69
894.418	29.19
894.85	13.89
895.282	21.59
895.715	19.09
896.147	14.59
896.579	20.09
897.011	18.69
897.444	18.59
897.876	13.39
898.308	19.79
898.74	14.59
899.172	21.39
899.604	29.39
900.036	25.39
900.468	22.59
900.9	14.69
901.332	19.19
901.764	16.29
902.196	22.79
902.628	18.99
903.06	29.99
903.491	29.59
903.923	28.89
904.355	27.79
904.787	25.79
905.218	24.49
905.65	21.59
906.082	17.29
906.513	18.29
906.945	17.89
907.376	20.69
907.808	24.39
908.239	24.99
908.671	17.29
909.102	21.99
909.534	29.79
909.965	49.99
910.397	96.09
910.828	317.79
911.259	481.99
911.691	219.79
912.122	107.79
912.553	57.69
912.984	40.29
913.415	22.99
913.847	27.99
914.278	23.09
914.709	19.39
915.14	19.39
915.571	22.19
916.002	19.49
916.433	18.69
916.864	17.99
917.295	10.09
917.726	24.19
918.157	20.39
918.587	29.79
919.018	20.49
919.449	26.99
919.88	25.39
920.311	31.79
920.741	50.59
921.172	176.19
921.603	160.19
922.033	75.59
922.464	50.19
922.895	23.49
923.325	25.99
923.756	14.89
924.186	11.89
924.617	30.09
925.047	38.19
925.478	52.19
925.908	44.89
926.338	29.59
926.769	20.89
927.199	22.39
927.629	15.39
928.06	21.69
928.49	19.19
928.92	14.59
929.35	14.19
929.78	16.29
930.21	11.39
930.641	18.89
931.071	10.79
931.501	15.49
931.931	11.19
932.361	14.59
932.791	2.49
933.221	6.29
933.651	12.49
934.08	13.79
934.51	33.99
934.94	12.39
935.37	11.39
935.8	10.99
936.229	11.29
936.659	11.79
937.089	6.59
937.519	16.39
937.948	27.19
938.378	18.89
938.807	9.69
939.237	8.89
939.666	9.59
940.096	-3.11
940.525	2.79
940.955	5.29
941.384	5.09
941.814	-1.31
942.243	5.29
942.672	7.49
943.102	3.39
943.531	-1.11
943.96	8.39
944.39	6.69
944.819	6.59
945.248	2.09
945.677	6.19
946.106	6.09
946.535	11.09
946.964	4.39
947.393	8.69
947.822	2.09
948.251	-3.71
948.68	7.19
949.109	8.39
949.538	11.19
949.967	4.69
950.396	5.89
950.825	-0.91
951.254	2.49
951.682	-4.61
952.111	2.89
952.54	5.09
952.969	2.29
953.397	1.59
953.826	0.79
954.254	-4.81
954.683	0.99
955.112	-5.51
955.54	-0.71
955.969	6.39
956.397	0.39
956.826	5.89
957.254	8.89
957.682	1.59
958.111	4.19
958.539	2.19
958.967	6.99
959.396	6.79
959.824	4.79
960.252	8.69
960.68	-6.21
961.109	1.99
961.537	0.09
961.965	1.99
962.393	2.19
962.821	0.49
963.249	3.59
963.677	7.09
964.105	6.89
964.533	42.59
964.961	44.99
965.389	23.89
965.817	14.79
966.245	5.09
966.672	-1.51
967.1	-1.91
967.528	-1.41
967.956	-0.81
968.383	0.19
968.811	-0.51
969.239	1.99
969.666	-1.01
970.094	5.69
970.522	7.19
970.949	-0.21
971.377	2.19
971.804	0.29
972.232	3.39
972.659	2.89
973.087	2.69
973.514	5.89
973.941	-1.81
974.369	5.09
974.796	4.79
975.223	3.49
975.651	1.99
976.078	1.59
976.505	-0.81
976.932	5.19
977.359	20.19
977.786	17.19
978.214	0.99
978.641	1.09
979.068	-2.51
979.495	-4.51
979.922	-2.31
980.349	0.89
980.776	5.39
981.202	-1.31
981.629	7.39
982.056	5.49
982.483	1.29
982.91	6.89
983.337	-5.11
983.763	8.59
984.19	-0.51
984.617	-1.21
985.043	4.19
985.47	-1.51
985.897	1.09
986.323	-5.01
986.75	5.89
987.176	0.89
987.603	3.09
988.029	2.29
988.456	-1.81
988.882	8.29
989.308	-7.51
989.735	-1.81
990.161	-0.11
990.587	-4.11
991.014	2.49
991.44	6.39
991.866	-0.31
992.292	-5.81
992.719	-2.41
993.145	8.39
993.571	-7.51
993.997	-2.41
994.423	-0.31
994.849	-2.71
995.275	5.79
995.701	2.99
996.127	-3.41
996.553	4.69
996.979	2.89
997.405	1.69
997.83	-7.41
998.256	-0.21
998.682	-5.41
999.108	-7.01
999.534	2.09
999.959	1.19
1000.385	1.09
1000.811	-1.11
1001.236	0.19
1001.662	-5.11
1002.087	-8.01
1002.513	1.99
1002.938	0.49
1003.364	8.39
1003.789	-0.41
1004.215	3.89
1004.64	0.79
1005.066	8.19
1005.491	2.79
1005.916	0.49
1006.342	4.19
1006.767	-1.61
1007.192	8.39
1007.617	-2.71
1008.042	-0.01
1008.468	-2.31
1008.893	-2.21
1009.318	1.79
1009.743	-7.41
1010.168	4.99
1010.593	5.69
1011.018	-1.51
1011.443	-7.51
1011.868	4.39
1012.293	-0.91
1012.718	-2.81
1013.143	2.59
1013.567	-0.31
1013.992	0.19
1014.417	-11.01
1014.842	0.39
1015.267	-7.51
1015.691	4.09
1016.116	7.59
1016.541	1.89
1016.965	4.39
1017.39	4.49
1017.814	-1.71
1018.239	-1.31
1018.663	-2.81
1019.088	-13.91
1019.512	0.19
1019.937	1.49
1020.361	0.29
1020.785	-8.21
1021.21	-1.51
1021.634	-3.41
1022.058	-1.21
1022.483	9.59
1022.907	-8.21
1023.331	-1.01
1023.755	1.39
1024.179	0.49
1024.604	-9.11
1025.028	-3.11
1025.452	-2.51
1025.876	-1.31
1026.3	3.69
1026.724	-9.81
1027.148	2.49
1027.572	-9.81
1027.996	-3.21
1028.42	1.89
1028.843	0.59
1029.267	-0.21
1029.691	0.29
1030.115	-0.61
1030.539	-7.11
1030.962	-4.31
1031.386	-6.41
1031.81	-1.41
1032.233	-0.71
1032.657	1.49
1033.08	-2.31
1033.504	-3.31
1033.927	-2.81
1034.351	-0.31
1034.774	-9.31
1035.198	1.99
1035.621	-0.01
1036.045	-4.21
1036.468	-0.11
1036.891	-10.01
1037.315	-5.21
1037.738	-9.01
1038.161	5.19
1038.584	1.69
1039.008	-6.41
1039.431	1.29
1039.854	-3.91
1040.277	-6.71
1040.7	-13.71
1041.123	0.59
1041.546	-4.11
1041.969	0.09
1042.392	0.19
1042.815	1.19
1043.238	8.39
1043.661	2.39
1044.084	-6.11
1044.507	-4.91
1044.93	-7.91
1045.352	3.59
1045.775	-2.21
1046.198	7.49
1046.621	1.79
1047.043	3.29
1047.466	12.89
1047.889	2.19
1048.311	-6.21
1048.734	0.29
1049.156	0.49
1049.579	-2.61
1050.001	-3.71
1050.424	-0.01
1050.846	-1.31
1051.269	-2.11
1051.691	-5.31
1052.113	-6.71
1052.536	-0.71
1052.958	-1.31
1053.38	-3.81
1053.802	-7.21
1054.225	0.49
1054.647	-9.01
1055.069	-0.91
1055.491	3.89
1055.913	-3.01
1056.335	2.39
1056.757	-1.31
1057.179	-6.41
1057.601	-7.01
1058.023	-6.21
1058.445	-4.81
1058.867	-0.41
1059.289	-2.71
1059.711	-3.71
1060.133	2.49
1060.555	-7.51
1060.976	-4.41
1061.398	-1.31
1061.82	-4.31
1062.241	-7.21
1062.663	-5.51
1063.085	-5.51
1063.506	-1.31
1063.928	-3.81
1064.35	0.29
1064.771	-9.81
1065.193	-3.41
1065.614	-1.01
1066.035	2.49
1066.457	-3.21
1066.878	2.69
1067.3	-4.31
1067.721	-1.01
1068.142	-0.01
1068.564	-0.61
1068.985	-6.81
1069.406	-2.81
1069.827	-4.41
1070.248	-1.71
1070.67	-6.61
1071.091	-9.01
1071.512	0.39
1071.933	-4.51
1072.354	-4.71
1072.775	-2.61
1073.196	-5.71
1073.617	-2.41
1074.038	-6.21
1074.459	0.59
1074.88	-10.41
1075.3	-1.01
1075.721	-8.81
1076.142	-0.21
1076.563	-0.01
1076.983	-9.41
1077.404	-3.31
1077.825	-10.11
1078.246	-4.31
1078.666	-8.41
1079.087	-3.31
1079.507	-5.01
1079.928	-0.01
1080.348	-1.11
1080.769	-2.01
1081.189	-2.71
1081.61	-3.41
1082.03	-4.11
1082.451	-9.81
1082.871	2.09
1083.291	-4.31
1083.711	-5.91
1084.132	-1.31
1084.552	3.19
1084.972	2.19
1085.392	-3.61
1085.813	-0.51
1086.233	-7.01
1086.653	-3.31
1087.073	-4.91
1087.493	-3.71
1087.913	-4.31
1088.333	-2.21
1088.753	-2.01
1089.173	-3.61
1089.593	-2.21
1090.013	2.69
1090.433	3.69
1090.852	-5.91
1091.272	1.39
1091.692	5.59
1092.112	5.29
1092.531	-7.01
1092.951	-10.41
1093.371	-0.51
1093.79	3.99
1094.21	-1.21
1094.63	-5.31
1095.049	-0.31
1095.469	-1.01
1095.888	-3.41
1096.308	-0.31
1096.727	3.79
1097.146	-6.81
1097.566	1.99
1097.985	-4.61
1098.405	1.69
1098.824	-3.81
1099.243	-5.51
1099.662	-8.51
1100.082	4.19
1100.501	0.69
1100.92	-6.11
1101.339	-1.91
1101.758	-3.21
