Data from 20171114-ORNL-Ar_H_NY_Subt18_08-07-23-245.txt Node
Date: Tue Nov 14 08:07:23 EST 2017
User: Ender
Spectrometer: HR+D1039
Trigger mode: 0
Integration Time (sec): 2.730000E-2
Scans to average: 10
Electric dark correction enabled: true
Nonlinearity correction enabled: false
Boxcar width: 0
XAxis mode: Wavelengths
Number of Pixels in Spectrum: 2048
>>>>>Begin Spectral Data<<<<<
187.836	-2.64
188.309	-2.64
188.782	-2.64
189.255	1.96
189.728	-0.34
190.201	6.66
190.674	0.86
191.147	1.16
191.619	-7.64
192.092	-1.34
192.565	2.16
193.038	-0.94
193.511	-5.54
193.984	1.66
194.456	0.26
194.929	4.46
195.402	-0.94
195.874	0.16
196.347	-4.34
196.82	-5.34
197.292	5.46
197.765	1.56
198.237	-9.04
198.71	0.46
199.182	1.86
199.655	1.46
200.127	6.46
200.6	-0.84
201.072	-4.14
201.544	-5.34
202.017	-0.94
202.489	1.36
202.961	1.76
203.433	-5.84
203.906	-9.34
204.378	-10.34
204.85	-2.44
205.322	-11.44
205.794	-3.24
206.266	-7.34
206.739	-8.04
207.211	-1.24
207.683	-10.64
208.155	-9.94
208.627	-6.44
209.099	-0.74
209.57	-10.34
210.042	-5.64
210.514	-5.14
210.986	1.36
211.458	-4.34
211.93	-1.74
212.402	3.06
212.873	-8.84
213.345	-11.14
213.817	-15.24
214.288	-6.04
214.76	-11.04
215.232	-7.74
215.703	-3.64
216.175	-4.54
216.646	-9.54
217.118	-2.94
217.589	-2.74
218.061	-4.64
218.532	-5.64
219.004	-7.24
219.475	-0.24
219.946	-4.54
220.418	-5.24
220.889	3.16
221.36	-1.74
221.832	-8.04
222.303	-11.54
222.774	1.86
223.245	-4.44
223.717	-9.54
224.188	-4.24
224.659	-6.34
225.13	-3.44
225.601	2.16
226.072	-1.34
226.543	-1.94
227.014	0.56
227.485	1.46
227.956	-6.74
228.427	0.56
228.898	-5.74
229.369	-3.94
229.839	-3.04
230.31	-10.34
230.781	-5.94
231.252	-6.94
231.722	-6.74
232.193	-6.64
232.664	-0.34
233.135	-0.64
233.605	-3.54
234.076	-10.34
234.546	-0.84
235.017	-0.84
235.487	3.56
235.958	-4.54
236.428	-4.44
236.899	-1.44
237.369	-2.84
237.84	0.36
238.31	3.76
238.78	-3.24
239.251	-0.24
239.721	-5.44
240.191	-1.34
240.662	-4.44
241.132	-4.44
241.602	-5.84
242.072	-1.04
242.542	8.96
243.013	-7.64
243.483	-3.34
243.953	-1.14
244.423	-3.94
244.893	-7.74
245.363	-0.54
245.833	-0.44
246.303	-4.04
246.773	3.36
247.243	-2.04
247.712	4.86
248.182	0.86
248.652	8.06
249.122	-0.84
249.592	3.66
250.061	11.36
250.531	29.86
251.001	6.06
251.471	10.86
251.94	10.36
252.41	-0.44
252.879	-4.94
253.349	10.16
253.818	7.46
254.288	1.06
254.757	2.16
255.227	-4.74
255.696	1.96
256.166	-0.44
256.635	4.86
257.105	5.86
257.574	0.06
258.043	1.16
258.513	5.56
258.982	12.96
259.451	4.06
259.92	4.36
260.389	3.66
260.859	12.86
261.328	5.66
261.797	6.16
262.266	3.36
262.735	2.56
263.204	3.56
263.673	-5.24
264.142	2.76
264.611	-9.74
265.08	-4.34
265.549	-7.74
266.018	1.26
266.487	-5.34
266.955	-6.14
267.424	-4.04
267.893	3.66
268.362	-0.74
268.83	2.76
269.299	9.06
269.768	3.76
270.236	2.86
270.705	-3.04
271.174	2.26
271.642	4.96
272.111	-1.24
272.579	13.86
273.048	10.46
273.516	16.06
273.985	12.96
274.453	16.86
274.922	12.36
275.39	1.36
275.858	-0.64
276.327	-0.44
276.795	11.96
277.263	6.26
277.731	19.56
278.2	34.16
278.668	33.76
279.136	29.26
279.604	11.16
280.072	9.86
280.54	4.86
281.008	8.16
281.477	10.96
281.945	2.76
282.413	7.86
282.881	9.16
283.348	4.46
283.816	9.06
284.284	8.66
284.752	12.06
285.22	3.26
285.688	6.56
286.156	5.56
286.623	32.26
287.091	41.86
287.559	23.36
288.026	12.06
288.494	9.06
288.962	-1.74
289.429	3.36
289.897	13.26
290.364	6.16
290.832	8.96
291.3	3.66
291.767	8.86
292.234	13.16
292.702	6.76
293.169	7.56
293.637	13.66
294.104	7.46
294.571	6.26
295.039	5.06
295.506	6.06
295.973	13.36
296.44	8.86
296.908	13.96
297.375	5.56
297.842	9.16
298.309	14.96
298.776	5.26
299.243	10.96
299.71	11.06
300.177	15.46
300.644	19.36
301.111	14.36
301.578	11.26
302.045	6.46
302.512	16.16
302.979	16.56
303.446	12.36
303.913	10.46
304.379	8.16
304.846	19.56
305.313	19.16
305.78	13.76
306.246	16.86
306.713	16.16
307.18	19.66
307.646	15.96
308.113	18.36
308.579	11.36
309.046	13.66
309.512	14.66
309.979	10.26
310.445	19.26
310.912	17.16
311.378	24.46
311.845	19.76
312.311	12.96
312.777	19.96
313.244	19.06
313.71	23.86
314.176	20.46
314.642	17.16
315.109	19.86
315.575	22.06
316.041	26.96
316.507	20.26
316.973	28.46
317.439	21.76
317.905	26.26
318.371	22.86
318.837	24.26
319.303	29.66
319.769	21.66
320.235	25.46
320.701	22.86
321.167	30.56
321.633	20.66
322.099	31.56
322.564	32.16
323.03	22.46
323.496	21.36
323.962	22.16
324.427	21.06
324.893	28.76
325.359	28.36
325.824	23.26
326.29	27.76
326.755	29.86
327.221	30.76
327.686	23.46
328.152	27.86
328.617	24.86
329.083	37.76
329.548	37.26
330.014	34.36
330.479	26.86
330.944	36.46
331.41	33.76
331.875	36.16
332.34	33.26
332.805	19.36
333.271	30.96
333.736	25.86
334.201	37.86
334.666	46.26
335.131	42.96
335.596	31.36
336.061	32.16
336.526	29.66
336.991	34.16
337.456	46.56
337.921	38.76
338.386	31.56
338.851	29.76
339.316	35.06
339.781	40.36
340.246	37.66
340.711	34.96
341.175	37.46
341.64	38.46
342.105	41.06
342.569	40.46
343.034	42.96
343.499	41.86
343.963	37.86
344.428	46.96
344.893	45.26
345.357	41.96
345.822	49.66
346.286	50.06
346.751	57.86
347.215	51.56
347.679	56.06
348.144	71.46
348.608	62.86
349.073	52.06
349.537	62.66
350.001	57.96
350.465	76.16
350.93	58.46
351.394	59.16
351.858	57.06
352.322	66.06
352.786	61.36
353.25	75.36
353.715	85.66
354.179	75.86
354.643	90.96
355.107	95.46
355.571	87.26
356.035	84.06
356.498	90.26
356.962	91.16
357.426	103.86
357.89	89.66
358.354	68.36
358.818	64.66
359.281	68.56
359.745	63.86
360.209	60.06
360.673	61.66
361.136	62.96
361.6	68.76
362.064	64.66
362.527	62.56
362.991	75.16
363.454	63.26
363.918	58.46
364.381	60.76
364.845	66.96
365.308	70.06
365.772	74.06
366.235	69.36
366.698	62.26
367.162	66.86
367.625	63.56
368.088	70.66
368.552	69.16
369.015	72.36
369.478	82.16
369.941	83.06
370.404	74.76
370.867	88.46
371.331	89.46
371.794	95.36
372.257	94.16
372.72	91.06
373.183	91.06
373.646	84.86
374.109	86.56
374.572	94.16
375.035	93.36
375.497	87.86
375.96	82.66
376.423	82.26
376.886	93.16
377.349	93.96
377.811	86.96
378.274	87.66
378.737	87.86
379.199	95.16
379.662	90.86
380.125	100.66
380.587	98.06
381.05	103.06
381.512	109.16
381.975	117.16
382.437	109.16
382.9	111.76
383.362	108.56
383.825	117.76
384.287	119.16
384.75	122.96
385.212	125.76
385.674	116.16
386.136	116.16
386.599	104.46
387.061	106.86
387.523	113.26
387.985	111.06
388.447	123.76
388.91	121.66
389.372	135.56
389.834	130.76
390.296	126.56
390.758	134.76
391.22	138.56
391.682	181.36
392.144	249.56
392.606	201.26
393.068	136.86
393.529	149.56
393.991	136.06
394.453	128.06
394.915	132.06
395.377	167.76
395.838	190.66
396.3	134.16
396.762	122.76
397.224	117.16
397.685	115.36
398.147	116.36
398.608	112.46
399.07	113.36
399.531	118.76
399.993	123.46
400.454	136.26
400.916	123.96
401.377	125.66
401.839	128.06
402.3	132.06
402.762	148.86
403.223	160.46
403.684	154.16
404.145	141.76
404.607	141.36
405.068	149.96
405.529	147.26
405.99	151.66
406.451	147.16
406.913	148.56
407.374	143.66
407.835	147.26
408.296	151.96
408.757	152.66
409.218	166.96
409.679	152.46
410.14	159.66
410.601	154.46
411.062	171.86
411.522	173.26
411.983	170.76
412.444	155.96
412.905	167.46
413.366	165.26
413.826	170.36
414.287	199.96
414.748	235.76
415.208	228.56
415.669	187.66
416.13	187.36
416.59	174.06
417.051	190.86
417.511	193.36
417.972	217.16
418.432	220.46
418.893	257.86
419.353	220.66
419.814	182.56
420.274	163.56
420.734	169.76
421.195	175.36
421.655	183.86
422.115	173.56
422.576	177.06
423.036	181.36
423.496	187.36
423.956	200.86
424.416	206.16
424.876	238.46
425.336	235.96
425.797	240.66
426.257	236.66
426.717	218.66
427.177	215.36
427.637	202.66
428.097	214.66
428.556	219.36
429.016	248.46
429.476	246.06
429.936	251.36
430.396	249.36
430.856	269.56
431.315	291.16
431.775	321.36
432.235	347.96
432.694	318.86
433.154	331.26
433.614	350.46
434.073	302.66
434.533	262.86
434.993	244.76
435.452	256.06
435.912	264.36
436.371	264.16
436.83	259.56
437.29	256.56
437.749	228.26
438.209	221.46
438.668	255.46
439.127	260.86
439.587	244.96
440.046	227.26
440.505	239.86
440.964	259.86
441.424	289.76
441.883	279.16
442.342	237.16
442.801	211.56
443.26	207.36
443.719	200.16
444.178	198.46
444.637	195.56
445.096	205.06
445.555	205.16
446.014	201.86
446.473	211.76
446.932	215.96
447.391	211.76
447.849	209.26
448.308	200.36
448.767	210.46
449.226	221.66
449.685	217.36
450.143	222.96
450.602	215.76
451.061	204.86
451.519	216.66
451.978	211.86
452.436	222.26
452.895	220.66
453.353	236.06
453.812	225.56
454.27	222.56
454.729	218.16
455.187	218.96
455.646	218.46
456.104	222.86
456.562	241.56
457.021	245.86
457.479	239.26
457.937	250.86
458.395	244.96
458.854	237.06
459.312	241.46
459.77	253.76
460.228	233.76
460.686	221.16
461.144	234.86
461.602	228.66
462.06	220.96
462.518	233.86
462.976	239.76
463.434	239.56
463.892	244.96
464.35	253.86
464.808	267.06
465.266	250.06
465.724	247.56
466.181	249.36
466.639	251.66
467.097	269.06
467.555	280.76
468.012	281.96
468.47	290.26
468.928	303.66
469.385	320.46
469.843	331.66
470.3	326.86
470.758	334.36
471.215	353.06
471.673	380.36
472.13	377.56
472.588	394.56
473.045	361.36
473.503	353.46
473.96	361.46
474.417	375.66
474.875	407.96
475.332	447.96
475.789	436.86
476.246	439.96
476.704	452.66
477.161	474.36
477.618	488.86
478.075	534.66
478.532	572.66
478.989	650.56
479.446	744.86
479.903	732.46
480.36	769.96
480.817	814.56
481.274	921.86
481.731	1011.56
482.188	1109.96
482.645	1231.86
483.102	1335.66
483.558	1471.96
484.015	1518.66
484.472	1503.16
484.929	1458.46
485.385	1396.86
485.842	1361.26
486.299	1290.56
486.755	1223.76
487.212	1027.96
487.668	870.46
488.125	806.36
488.582	728.16
489.038	701.06
489.494	667.66
489.951	646.56
490.407	629.76
490.864	601.56
491.32	604.46
491.776	613.36
492.233	608.66
492.689	583.66
493.145	578.46
493.602	559.36
494.058	581.26
494.514	582.36
494.97	600.46
495.426	612.56
495.882	588.76
496.338	579.66
496.794	586.46
497.251	581.46
497.707	600.16
498.163	598.66
498.618	597.76
499.074	617.06
499.53	627.96
499.986	631.06
500.442	622.26
500.898	600.36
501.354	594.46
501.809	597.46
502.265	603.36
502.721	623.76
503.177	622.86
503.632	622.06
504.088	636.06
504.543	668.66
504.999	664.36
505.455	622.06
505.91	593.16
506.366	604.56
506.821	591.46
507.277	589.06
507.732	597.36
508.187	596.96
508.643	604.86
509.098	611.76
509.553	612.46
510.009	629.86
510.464	637.16
510.919	650.86
511.375	658.46
511.83	665.66
512.285	679.36
512.74	721.26
513.195	741.76
513.65	725.86
514.105	722.56
514.56	727.26
515.015	747.36
515.47	773.26
515.925	754.46
516.38	748.86
516.835	750.26
517.29	746.16
517.745	742.96
518.2	718.96
518.655	721.66
519.109	706.46
519.564	698.26
520.019	695.66
520.474	683.86
520.928	681.76
521.383	680.86
521.838	671.46
522.292	674.96
522.747	678.66
523.201	669.56
523.656	666.26
524.11	660.96
524.565	653.66
525.019	653.66
525.474	668.56
525.928	661.06
526.382	662.66
526.837	664.86
527.291	674.16
527.745	651.16
528.2	667.46
528.654	658.06
529.108	657.76
529.562	660.86
530.016	657.56
530.47	658.66
530.925	661.26
531.379	659.26
531.833	674.66
532.287	673.96
532.741	662.06
533.195	666.06
533.649	675.46
534.103	680.16
534.556	684.56
535.01	675.46
535.464	673.76
535.918	686.66
536.372	679.26
536.826	686.56
537.279	678.66
537.733	676.06
538.187	694.36
538.64	679.76
539.094	690.36
539.548	695.26
540.001	689.36
540.455	690.16
540.908	688.56
541.362	706.76
541.815	718.26
542.269	721.96
542.722	716.96
543.175	741.46
543.629	736.56
544.082	747.16
544.536	758.56
544.989	746.06
545.442	763.76
545.895	759.66
546.349	762.56
546.802	759.06
547.255	768.36
547.708	781.06
548.161	769.86
548.614	782.16
549.067	784.76
549.52	777.86
549.973	768.46
550.426	770.96
550.879	762.86
551.332	754.76
551.785	767.16
552.238	774.16
552.691	789.26
553.144	796.96
553.596	810.36
554.049	818.96
554.502	844.76
554.955	861.26
555.407	868.76
555.86	863.86
556.313	854.06
556.765	840.36
557.218	841.46
557.67	833.86
558.123	838.46
558.576	834.26
559.028	835.76
559.48	838.96
559.933	829.56
560.385	800.16
560.838	775.76
561.29	746.16
561.742	756.16
562.195	732.56
562.647	727.36
563.099	749.66
563.551	743.16
564.004	755.76
564.456	744.56
564.908	732.96
565.36	715.06
565.812	705.86
566.264	692.06
566.716	685.76
567.168	679.16
567.62	689.16
568.072	666.86
568.524	666.06
568.976	661.06
569.428	642.06
569.88	652.76
570.332	651.76
570.784	661.16
571.235	653.96
571.687	670.26
572.139	665.16
572.59	687.36
573.042	678.66
573.494	687.26
573.945	684.86
574.397	647.16
574.849	666.96
575.3	659.36
575.752	650.46
576.203	643.16
576.655	655.56
577.106	642.36
577.557	628.96
578.009	640.96
578.46	630.96
578.912	631.26
579.363	629.46
579.814	644.06
580.265	629.76
580.717	630.16
581.168	639.06
581.619	648.06
582.07	652.36
582.521	644.86
582.972	640.06
583.423	644.36
583.875	649.26
584.326	675.46
584.777	713.56
585.227	787.46
585.678	871.16
586.129	968.56
586.58	1035.86
587.031	1110.66
587.482	1256.96
587.933	1440.76
588.384	1254.76
588.834	934.46
589.285	776.06
589.736	756.16
590.186	747.66
590.637	735.86
591.088	709.76
591.538	722.86
591.989	702.56
592.439	685.96
592.89	688.16
593.34	683.86
593.791	689.46
594.241	670.26
594.692	684.86
595.142	675.16
595.593	671.16
596.043	680.26
596.493	684.56
596.943	680.76
597.394	691.86
597.844	687.16
598.294	696.06
598.744	717.26
599.195	748.16
599.645	782.76
600.095	822.16
600.545	885.46
600.995	926.16
601.445	987.96
601.895	1047.06
602.345	1090.36
602.795	1068.96
603.245	1029.16
603.695	962.76
604.145	915.46
604.594	882.76
605.044	827.36
605.494	756.36
605.944	721.76
606.393	718.46
606.843	698.06
607.293	698.46
607.743	698.66
608.192	711.66
608.642	731.16
609.091	734.56
609.541	740.06
609.99	747.66
610.44	731.46
610.889	689.26
611.339	667.06
611.788	661.86
612.238	663.46
612.687	694.26
613.136	691.76
613.586	711.26
614.035	693.46
614.484	720.66
614.933	722.36
615.383	719.56
615.832	700.56
616.281	691.46
616.73	656.76
617.179	628.36
617.628	621.76
618.077	602.16
618.526	604.76
618.975	590.86
619.424	588.36
619.873	589.06
620.322	590.96
620.771	586.66
621.22	575.06
621.669	570.66
622.118	559.96
622.567	556.86
623.015	542.06
623.464	548.26
623.913	535.76
624.361	528.36
624.81	528.76
625.259	530.86
625.707	534.36
626.156	529.96
626.604	539.26
627.053	537.36
627.501	546.56
627.95	549.26
628.398	561.06
628.847	545.26
629.295	545.86
629.744	551.56
630.192	554.96
630.64	545.86
631.089	535.26
631.537	547.96
631.985	552.66
632.433	567.26
632.881	583.36
633.33	613.06
633.778	597.86
634.226	530.96
634.674	546.16
635.122	546.66
635.57	561.36
636.018	597.46
636.466	552.96
636.914	528.16
637.362	551.06
637.81	548.76
638.258	555.46
638.705	557.36
639.153	594.86
639.601	596.46
640.049	621.36
640.497	645.36
640.944	662.46
641.392	620.86
641.84	590.06
642.287	565.86
642.735	539.06
643.182	544.96
643.63	553.36
644.078	544.86
644.525	554.56
644.973	564.46
645.42	574.96
645.867	589.36
646.315	602.66
646.762	635.66
647.21	667.26
647.657	680.86
648.104	720.56
648.551	747.16
648.999	808.06
649.446	887.56
649.893	965.76
650.34	1114.46
650.787	1347.96
651.234	1666.86
651.682	2192.06
652.129	3020.76
652.576	4344.26
653.023	6453.76
653.47	8830.56
653.917	10992.96
654.363	12681.76
654.81	14003.56
655.257	13276.26
655.704	8645.36
656.151	5083.26
656.598	3285.76
657.044	2323.06
657.491	1785.26
657.938	1422.76
658.385	1176.86
658.831	1035.56
659.278	921.46
659.724	829.56
660.171	756.56
660.618	687.06
661.064	654.16
661.511	635.36
661.957	626.96
662.404	618.96
662.85	628.76
663.296	598.46
663.743	538.86
664.189	511.56
664.635	519.86
665.082	508.76
665.528	500.06
665.974	499.96
666.42	487.86
666.867	486.96
667.313	458.56
667.759	465.86
668.205	453.26
668.651	462.76
669.097	460.76
669.543	475.76
669.989	446.76
670.435	429.36
670.881	434.06
671.327	435.46
671.773	453.86
672.219	468.26
672.665	528.46
673.11	559.76
673.556	601.46
674.002	645.16
674.448	625.66
674.893	523.76
675.339	453.16
675.785	420.96
676.23	396.86
676.676	380.66
677.122	365.06
677.567	355.06
678.013	345.96
678.458	343.56
678.904	338.36
679.349	330.36
679.794	336.66
680.24	336.06
680.685	332.76
681.131	332.56
681.576	336.26
682.021	332.36
682.466	327.46
682.912	333.56
683.357	336.96
683.802	377.36
684.247	394.26
684.692	443.36
685.137	474.26
685.583	507.86
686.028	550.26
686.473	497.66
686.918	428.06
687.363	393.16
687.807	372.66
688.252	349.16
688.697	332.96
689.142	317.66
689.587	316.26
690.032	308.86
690.477	325.76
690.921	336.46
691.366	368.56
691.811	390.96
692.255	413.46
692.7	448.76
693.145	484.76
693.589	671.26
694.034	1095.66
694.478	1482.16
694.923	1661.06
695.367	2165.36
695.812	1136.66
696.256	478.96
696.701	360.06
697.145	328.56
697.59	321.36
698.034	306.46
698.478	320.26
698.922	314.46
699.367	318.66
699.811	322.16
700.255	345.56
700.699	377.26
701.143	413.96
701.588	456.96
702.032	501.96
702.476	494.86
702.92	467.76
703.364	470.66
703.808	618.56
704.252	1010.46
704.696	1411.86
705.14	1605.56
705.584	2042.86
706.027	1017.66
706.471	497.26
706.915	374.66
707.359	335.26
707.803	314.46
708.246	294.76
708.69	297.36
709.134	302.46
709.577	304.76
710.021	303.56
710.465	300.06
710.908	290.76
711.352	285.26
711.795	294.56
712.239	336.06
712.682	370.06
713.126	398.06
713.569	438.76
714.012	352.56
714.456	305.86
714.899	288.06
715.342	260.76
715.786	250.46
716.229	246.56
716.672	244.46
717.115	241.96
717.558	236.26
718.002	240.36
718.445	246.66
718.888	279.66
719.331	283.76
719.774	292.36
720.217	291.26
720.66	271.76
721.103	247.46
721.546	243.66
721.989	233.26
722.432	217.86
722.874	220.46
723.317	219.36
723.76	220.36
724.203	248.66
724.645	308.16
725.088	433.06
725.531	551.66
725.974	611.56
726.416	521.36
726.859	288.06
727.301	234.26
727.744	220.76
728.187	225.26
728.629	229.66
729.071	228.16
729.514	249.96
729.956	259.36
730.399	269.56
730.841	269.96
731.283	261.16
731.726	253.86
732.168	248.36
732.61	256.46
733.053	275.16
733.495	303.36
733.937	332.66
734.379	391.46
734.821	415.46
735.263	521.76
735.705	807.56
736.148	1551.46
736.59	2506.06
737.032	2934.16
737.474	2381.66
737.916	771.36
738.357	413.16
738.799	318.36
739.241	283.06
739.683	279.26
740.125	272.16
740.567	284.76
741.008	296.56
741.45	306.36
741.892	302.86
742.334	327.76
742.775	340.16
743.217	327.56
743.658	255.36
744.1	249.76
744.542	251.26
744.983	297.56
745.425	319.76
745.866	322.26
746.307	274.16
746.749	266.16
747.19	313.46
747.632	447.56
748.073	866.86
748.514	1827.66
748.956	2753.16
749.397	3451.36
749.838	2855.16
750.279	2835.26
750.72	1433.36
751.162	522.56
751.603	306.76
752.044	238.66
752.485	208.46
752.926	197.06
753.367	198.56
753.808	183.56
754.249	186.26
754.69	180.26
755.131	175.56
755.572	168.06
756.013	175.36
756.453	173.46
756.894	174.76
757.335	181.96
757.776	189.56
758.216	188.16
758.657	186.96
759.098	195.46
759.538	220.56
759.979	258.66
760.42	362.66
760.86	704.26
761.301	1809.86
761.741	4325.06
762.182	6206.56
762.622	4331.56
763.063	1258.46
763.503	508.56
763.943	332.66
764.384	325.06
764.824	373.86
765.264	407.66
765.705	291.76
766.145	205.36
766.585	178.86
767.025	174.86
767.465	179.46
767.906	227.56
768.346	293.06
768.786	316.06
769.226	254.36
769.666	304.06
770.106	611.06
770.546	1526.16
770.986	2544.56
771.426	2265.26
771.866	765.36
772.306	317.46
772.745	203.66
773.185	163.56
773.625	160.96
774.065	159.56
774.505	189.26
774.944	294.46
775.384	663.76
775.824	1176.26
776.263	1128.16
776.703	480.76
777.142	204.26
777.582	153.86
778.021	130.56
778.461	134.86
778.9	130.16
779.34	127.16
779.779	108.46
780.219	109.26
780.658	106.26
781.097	102.56
781.537	114.26
781.976	100.76
782.415	103.06
782.855	103.66
783.294	102.76
783.733	99.56
784.172	108.26
784.611	94.96
785.05	105.86
785.489	109.46
785.928	113.46
786.367	114.56
786.806	113.66
787.245	129.26
787.684	131.66
788.123	136.06
788.562	139.36
789.001	129.36
789.44	115.16
789.879	107.36
790.317	113.36
790.756	117.26
791.195	123.66
791.634	137.16
792.072	198.46
792.511	356.36
792.95	993.56
793.388	2073.96
793.827	1865.86
794.265	665.76
794.704	272.16
795.142	179.86
795.581	150.16
796.019	128.76
796.458	121.16
796.896	116.26
797.334	130.46
797.773	147.16
798.211	209.56
798.649	422.76
799.087	1002.16
799.526	1546.46
799.964	1957.66
800.402	1931.96
800.84	725.96
801.278	294.96
801.716	175.76
802.154	149.66
802.592	141.26
803.03	135.96
803.468	124.06
803.906	141.26
804.344	139.56
804.782	134.86
805.22	127.46
805.658	128.16
806.096	147.46
806.533	149.76
806.971	170.46
807.409	213.76
807.847	305.06
808.284	648.56
808.722	1823.06
809.16	3179.06
809.597	3063.06
810.035	5294.76
810.472	5562.36
810.91	2002.96
811.347	760.46
811.785	388.36
812.222	249.96
812.66	186.06
813.097	157.76
813.535	132.86
813.972	125.06
814.409	110.26
814.846	102.66
815.284	108.46
815.721	88.96
816.158	100.56
816.595	112.06
817.032	171.86
817.47	185.56
817.907	151.76
818.344	136.56
818.781	109.86
819.218	96.76
819.655	112.86
820.092	180.76
820.529	200.56
820.966	174.16
821.403	129.26
821.839	102.26
822.276	95.46
822.713	119.46
823.15	128.66
823.587	102.06
824.023	138.76
824.46	290.66
824.897	873.66
825.333	1304.66
825.77	556.66
826.206	217.66
826.643	127.86
827.08	93.26
827.516	80.06
827.953	75.26
828.389	79.56
828.825	68.86
829.262	68.16
829.698	54.36
830.135	56.36
830.571	61.76
831.007	56.66
831.443	61.86
831.88	60.46
832.316	58.16
832.752	63.16
833.188	64.46
833.624	67.46
834.06	64.56
834.497	67.86
834.933	69.86
835.369	69.36
835.805	63.86
836.241	80.96
836.677	78.76
837.112	80.36
837.548	100.76
837.984	129.16
838.42	192.26
838.856	488.96
839.292	1486.36
839.727	2201.56
840.163	1021.26
840.599	898.06
841.034	1975.36
841.47	2037.56
841.906	749.96
842.341	319.16
842.777	222.16
843.212	300.16
843.648	297.86
844.083	146.96
844.519	92.96
844.954	69.16
845.39	55.36
845.825	52.86
846.261	55.06
846.696	51.56
847.131	51.86
847.566	54.06
848.002	47.96
848.437	49.46
848.872	56.46
849.307	62.26
849.742	84.26
850.177	175.26
850.613	541.06
851.048	839.16
851.483	363.56
851.918	146.86
852.353	82.86
852.788	56.96
853.223	52.26
853.657	48.96
854.092	46.46
854.527	36.56
854.962	43.66
855.397	38.26
855.832	48.66
856.266	41.76
856.701	33.76
857.136	37.26
857.57	40.06
858.005	46.96
858.44	57.56
858.874	43.76
859.309	52.26
859.743	41.56
860.178	45.56
860.612	38.66
861.047	46.56
861.481	67.06
861.915	70.26
862.35	50.76
862.784	35.56
863.218	36.06
863.653	32.96
864.087	38.06
864.521	50.06
864.955	68.86
865.39	154.06
865.824	169.96
866.258	108.16
866.692	155.76
867.126	167.06
867.56	99.16
867.994	54.06
868.428	34.36
868.862	45.36
869.296	57.56
869.73	58.36
870.164	48.86
870.598	39.96
871.031	36.76
871.465	26.56
871.899	28.06
872.333	20.46
872.766	22.26
873.2	29.86
873.634	25.16
874.067	28.76
874.501	25.46
874.935	30.46
875.368	31.56
875.802	26.36
876.235	23.26
876.669	21.76
877.102	19.66
877.535	21.96
877.969	23.76
878.402	24.86
878.836	15.26
879.269	19.86
879.702	20.66
880.135	20.06
880.569	26.86
881.002	23.46
881.435	23.96
881.868	15.36
882.301	24.16
882.734	15.86
883.167	24.76
883.601	21.36
884.034	25.16
884.467	9.66
884.899	22.46
885.332	17.46
885.765	17.66
886.198	9.66
886.631	14.86
887.064	18.16
887.497	16.56
887.929	23.56
888.362	14.96
888.795	7.46
889.228	14.66
889.66	17.56
890.093	20.06
890.526	19.16
890.958	19.86
891.391	17.16
891.823	20.16
892.256	15.86
892.688	5.76
893.121	13.36
893.553	16.76
893.985	18.16
894.418	12.76
894.85	7.16
895.282	15.16
895.715	17.36
896.147	17.86
896.579	12.66
897.011	22.06
897.444	19.86
897.876	13.26
898.308	21.66
898.74	10.16
899.172	9.76
899.604	22.36
900.036	20.06
900.468	13.16
900.9	11.66
901.332	10.36
901.764	12.46
902.196	20.36
902.628	14.26
903.06	14.16
903.491	26.26
903.923	19.76
904.355	15.56
904.787	22.76
905.218	22.06
905.65	22.26
906.082	13.66
906.513	12.06
906.945	15.66
907.376	13.56
907.808	19.36
908.239	18.46
908.671	20.16
909.102	16.26
909.534	19.36
909.965	45.16
910.397	85.26
910.828	307.36
911.259	453.56
911.691	211.76
912.122	103.66
912.553	55.06
912.984	35.16
913.415	29.86
913.847	19.86
914.278	16.56
914.709	11.96
915.14	15.86
915.571	10.46
916.002	12.36
916.433	15.46
916.864	14.06
917.295	18.86
917.726	20.36
918.157	13.36
918.587	31.86
919.018	19.16
919.449	18.06
919.88	19.86
920.311	28.16
920.741	45.46
921.172	157.86
921.603	145.16
922.033	74.36
922.464	44.16
922.895	23.76
923.325	16.06
923.756	19.36
924.186	17.26
924.617	20.66
925.047	35.26
925.478	56.26
925.908	40.16
926.338	26.06
926.769	21.56
927.199	20.96
927.629	4.86
928.06	15.96
928.49	16.16
928.92	16.86
929.35	11.66
929.78	13.26
930.21	8.26
930.641	6.66
931.071	6.26
931.501	0.16
931.931	3.96
932.361	9.36
932.791	3.46
933.221	9.46
933.651	4.06
934.08	17.86
934.51	29.76
934.94	9.46
935.37	11.86
935.8	8.06
936.229	10.06
936.659	9.96
937.089	1.06
937.519	13.56
937.948	21.46
938.378	19.86
938.807	1.56
939.237	-2.64
939.666	5.26
940.096	-1.74
940.525	-1.44
940.955	1.56
941.384	2.76
941.814	-5.24
942.243	1.56
942.672	5.56
943.102	-3.74
943.531	1.66
943.96	5.96
944.39	2.16
944.819	2.46
945.248	5.96
945.677	-0.04
946.106	5.06
946.535	5.36
946.964	-0.54
947.393	5.16
947.822	-2.14
948.251	-7.74
948.68	1.66
949.109	4.56
949.538	5.26
949.967	1.66
950.396	1.66
950.825	-1.74
951.254	0.56
951.682	-5.34
952.111	2.16
952.54	3.06
952.969	-3.94
953.397	-4.24
953.826	1.46
954.254	-8.24
954.683	-0.64
955.112	-5.34
955.54	5.76
955.969	2.46
956.397	3.16
956.826	0.16
957.254	-2.24
957.682	4.46
958.111	9.36
958.539	1.36
958.967	0.86
959.396	-2.44
959.824	3.16
960.252	0.46
960.68	-8.04
961.109	-1.84
961.537	-4.04
961.965	-6.54
962.393	3.06
962.821	-2.84
963.249	-4.04
963.677	0.76
964.105	4.06
964.533	43.36
964.961	39.66
965.389	17.76
965.817	3.06
966.245	-0.44
966.672	-7.14
967.1	-1.84
967.528	-2.24
967.956	-6.54
968.383	-4.44
968.811	-4.94
969.239	1.36
969.666	-4.64
970.094	-5.54
970.522	-0.64
970.949	-4.54
971.377	-3.24
971.804	0.16
972.232	-1.14
972.659	3.96
973.087	-1.64
973.514	0.46
973.941	-9.34
974.369	4.06
974.796	-0.64
975.223	-5.14
975.651	-1.74
976.078	-5.64
976.505	-3.64
976.932	3.76
977.359	13.66
977.786	16.26
978.214	2.76
978.641	-7.54
979.068	-6.14
979.495	-2.74
979.922	-2.84
980.349	-1.94
980.776	0.66
981.202	-4.84
981.629	6.86
982.056	2.06
982.483	-0.04
982.91	6.36
983.337	-5.84
983.763	6.56
984.19	-5.64
984.617	-6.14
985.043	-2.14
985.47	-1.24
985.897	-3.34
986.323	-8.34
986.75	2.36
987.176	-5.54
987.603	1.96
988.029	0.86
988.456	-1.24
988.882	0.26
989.308	-0.44
989.735	-0.34
990.161	1.36
990.587	-4.94
991.014	0.76
991.44	10.06
991.866	4.56
992.292	0.46
992.719	0.66
993.145	9.76
993.571	-8.74
993.997	-7.04
994.423	2.36
994.849	-1.74
995.275	1.46
995.701	-0.84
996.127	-3.14
996.553	2.46
996.979	-4.14
997.405	0.06
997.83	1.66
998.256	-2.34
998.682	-5.14
999.108	-5.84
999.534	-2.74
999.959	-6.14
1000.385	-7.14
1000.811	1.66
1001.236	-5.34
1001.662	-8.84
1002.087	-11.04
1002.513	1.96
1002.938	5.06
1003.364	-0.94
1003.789	-9.34
1004.215	-0.74
1004.64	-4.94
1005.066	6.26
1005.491	-0.44
1005.916	-9.14
1006.342	-7.84
1006.767	-9.64
1007.192	10.96
1007.617	-5.24
1008.042	-5.04
1008.468	-7.64
1008.893	-3.14
1009.318	-7.84
1009.743	-5.44
1010.168	4.16
1010.593	-3.24
1011.018	-5.54
1011.443	-2.74
1011.868	2.06
1012.293	-5.54
1012.718	-9.14
1013.143	1.06
1013.567	5.66
1013.992	-3.34
1014.417	-12.04
1014.842	2.36
1015.267	-0.54
1015.691	-6.34
1016.116	2.76
1016.541	-4.84
1016.965	-0.84
1017.39	0.86
1017.814	-6.24
1018.239	-3.84
1018.663	-4.54
1019.088	-10.54
1019.512	-5.34
1019.937	-3.54
1020.361	-2.64
1020.785	-5.84
1021.21	0.06
1021.634	-2.54
1022.058	-5.94
1022.483	-0.14
1022.907	-1.54
1023.331	-7.84
1023.755	-1.34
1024.179	-2.34
1024.604	-9.24
1025.028	-4.64
1025.452	-1.84
1025.876	-3.14
1026.3	-1.54
1026.724	-5.54
1027.148	-3.04
1027.572	-10.34
1027.996	-9.44
1028.42	-7.04
1028.843	-5.14
1029.267	-5.74
1029.691	-3.64
1030.115	-5.34
1030.539	-7.54
1030.962	-13.64
1031.386	-3.24
1031.81	-6.14
1032.233	-2.24
1032.657	-1.84
1033.08	-2.94
1033.504	0.16
1033.927	-5.74
1034.351	-1.84
1034.774	-10.94
1035.198	-5.74
1035.621	-11.64
1036.045	-4.94
1036.468	-1.94
1036.891	-9.64
1037.315	-11.84
1037.738	-7.74
1038.161	0.86
1038.584	-6.74
1039.008	-8.54
1039.431	-5.04
1039.854	-4.24
1040.277	-7.94
1040.7	-9.74
1041.123	3.06
1041.546	-6.54
1041.969	-1.84
1042.392	-4.84
1042.815	-0.04
1043.238	1.46
1043.661	3.06
1044.084	-7.94
1044.507	-6.64
1044.93	-10.04
1045.352	-3.34
1045.775	1.36
1046.198	-8.84
1046.621	-4.14
1047.043	0.76
1047.466	0.86
1047.889	-4.44
1048.311	-6.64
1048.734	-3.94
1049.156	0.36
1049.579	-2.94
1050.001	-7.64
1050.424	-2.14
1050.846	-7.04
1051.269	-6.14
1051.691	-11.74
1052.113	-1.54
1052.536	-11.04
1052.958	-2.14
1053.38	-6.04
1053.802	-12.54
1054.225	0.86
1054.647	-7.34
1055.069	-5.24
1055.491	1.26
1055.913	-6.94
1056.335	1.76
1056.757	-3.54
1057.179	-7.34
1057.601	-4.44
1058.023	-3.74
1058.445	-6.94
1058.867	-8.34
1059.289	-4.24
1059.711	-12.34
1060.133	-1.94
1060.555	-4.44
1060.976	-10.44
1061.398	-10.84
1061.82	-6.74
1062.241	-6.94
1062.663	-6.44
1063.085	-7.74
1063.506	-2.24
1063.928	-7.24
1064.35	-4.74
1064.771	-10.04
1065.193	-0.24
1065.614	-10.64
1066.035	-3.64
1066.457	-8.84
1066.878	-1.84
1067.3	-10.44
1067.721	-7.54
1068.142	-2.24
1068.564	-4.24
1068.985	-4.74
1069.406	-9.14
1069.827	-6.64
1070.248	-0.54
1070.67	-8.34
1071.091	-4.04
1071.512	0.56
1071.933	-8.54
1072.354	-11.64
1072.775	-6.44
1073.196	-11.74
1073.617	-1.34
1074.038	-10.64
1074.459	-6.54
1074.88	-11.74
1075.3	-2.04
1075.721	-8.64
1076.142	-2.34
1076.563	-4.04
1076.983	-13.04
1077.404	-3.34
1077.825	-6.54
1078.246	-6.94
1078.666	-12.64
1079.087	-9.94
1079.507	-8.54
1079.928	-2.24
1080.348	0.26
1080.769	-0.34
1081.189	1.26
1081.61	-1.14
1082.03	-4.74
1082.451	-3.04
1082.871	-7.24
1083.291	-11.24
1083.711	-12.84
1084.132	-7.24
1084.552	-6.84
1084.972	-2.14
1085.392	-6.74
1085.813	-13.84
1086.233	-7.44
1086.653	-7.84
1087.073	-8.44
1087.493	-10.44
1087.913	-10.24
1088.333	-6.24
1088.753	-5.74
1089.173	0.06
1089.593	-6.04
1090.013	-1.74
1090.433	3.16
1090.852	-4.34
1091.272	2.26
1091.692	0.16
1092.112	-7.44
1092.531	-7.14
1092.951	-14.94
1093.371	1.16
1093.79	5.16
1094.21	-2.44
1094.63	-5.44
1095.049	-8.74
1095.469	-4.84
1095.888	-5.14
1096.308	-2.14
1096.727	7.46
1097.146	-8.14
1097.566	-3.24
1097.985	-7.94
1098.405	-4.04
1098.824	-2.94
1099.243	-9.14
1099.662	-10.54
1100.082	-4.34
1100.501	-6.04
1100.92	-6.54
1101.339	-2.14
1101.758	-1.44
