Data from 20171114-ORNL-Ar_H_NY_Subt18_08-05-41-152.txt Node
Date: Tue Nov 14 08:05:41 EST 2017
User: Ender
Spectrometer: HR+D1039
Trigger mode: 0
Integration Time (sec): 2.730000E-2
Scans to average: 10
Electric dark correction enabled: true
Nonlinearity correction enabled: false
Boxcar width: 0
XAxis mode: Wavelengths
Number of Pixels in Spectrum: 2048
>>>>>Begin Spectral Data<<<<<
187.836	-3.43
188.309	-3.43
188.782	-3.43
189.255	3.77
189.728	-3.73
190.201	-0.23
190.674	-0.33
191.147	-0.93
191.619	-6.43
192.092	-0.73
192.565	3.87
193.038	3.57
193.511	-5.13
193.984	7.07
194.456	-0.03
194.929	4.77
195.402	-1.43
195.874	-0.63
196.347	0.07
196.82	-9.13
197.292	7.87
197.765	-2.03
198.237	-4.03
198.71	1.47
199.182	-1.93
199.655	2.47
200.127	3.97
200.6	-1.23
201.072	-1.83
201.544	-0.53
202.017	-0.83
202.489	1.67
202.961	-7.73
203.433	-0.83
203.906	-1.43
204.378	-0.33
204.85	-5.33
205.322	-7.13
205.794	-0.63
206.266	1.97
206.739	-3.03
207.211	6.07
207.683	-3.63
208.155	-9.83
208.627	-10.03
209.099	-6.03
209.57	-9.43
210.042	-5.73
210.514	-5.93
210.986	0.07
211.458	-7.63
211.93	-1.43
212.402	1.17
212.873	-6.53
213.345	-5.53
213.817	-10.63
214.288	-2.83
214.76	-12.83
215.232	-0.03
215.703	-7.03
216.175	-1.63
216.646	-8.13
217.118	-6.43
217.589	-5.23
218.061	-2.73
218.532	-4.83
219.004	-2.43
219.475	-2.43
219.946	-3.63
220.418	-4.33
220.889	-1.83
221.36	-1.93
221.832	-6.13
222.303	-7.43
222.774	2.67
223.245	-11.53
223.717	-3.03
224.188	-1.83
224.659	0.27
225.13	-5.53
225.601	-1.83
226.072	-2.43
226.543	1.17
227.014	-0.13
227.485	-1.13
227.956	-4.63
228.427	-9.43
228.898	0.57
229.369	2.47
229.839	-5.03
230.31	-1.93
230.781	3.47
231.252	-6.13
231.722	-5.13
232.193	-0.43
232.664	2.47
233.135	1.77
233.605	-1.73
234.076	-3.83
234.546	5.27
235.017	6.27
235.487	4.47
235.958	1.77
236.428	0.87
236.899	4.17
237.369	2.67
237.84	1.37
238.31	10.77
238.78	2.67
239.251	2.67
239.721	4.27
240.191	1.37
240.662	1.67
241.132	1.27
241.602	-2.33
242.072	4.07
242.542	2.57
243.013	-3.33
243.483	8.17
243.953	1.97
244.423	4.07
244.893	-5.23
245.363	6.87
245.833	6.07
246.303	0.57
246.773	4.67
247.243	0.17
247.712	11.77
248.182	11.77
248.652	11.37
249.122	1.97
249.592	9.07
250.061	21.97
250.531	38.07
251.001	16.67
251.471	24.27
251.94	23.97
252.41	6.57
252.879	-0.73
253.349	9.47
253.818	15.67
254.288	2.17
254.757	2.67
255.227	3.17
255.696	6.67
256.166	8.47
256.635	8.57
257.105	8.57
257.574	9.17
258.043	11.07
258.513	20.27
258.982	15.87
259.451	15.57
259.92	10.77
260.389	10.77
260.859	20.57
261.328	12.57
261.797	18.97
262.266	6.47
262.735	13.17
263.204	6.17
263.673	2.27
264.142	4.37
264.611	4.27
265.08	-6.03
265.549	0.67
266.018	6.87
266.487	-1.63
266.955	3.87
267.424	0.77
267.893	12.47
268.362	6.37
268.83	7.47
269.299	8.47
269.768	14.97
270.236	5.87
270.705	0.17
271.174	5.67
271.642	7.07
272.111	9.27
272.579	20.97
273.048	32.67
273.516	33.47
273.985	31.57
274.453	22.07
274.922	19.97
275.39	11.87
275.858	5.17
276.327	11.47
276.795	17.17
277.263	16.87
277.731	29.27
278.2	56.67
278.668	63.07
279.136	50.57
279.604	24.07
280.072	17.27
280.54	16.77
281.008	12.27
281.477	19.87
281.945	13.67
282.413	18.57
282.881	18.67
283.348	14.97
283.816	22.47
284.284	17.87
284.752	23.77
285.22	17.57
285.688	19.07
286.156	20.97
286.623	49.17
287.091	61.07
287.559	33.47
288.026	23.47
288.494	17.07
288.962	7.77
289.429	11.87
289.897	22.27
290.364	17.57
290.832	19.17
291.3	15.07
291.767	24.57
292.234	17.37
292.702	17.87
293.169	23.37
293.637	23.37
294.104	23.97
294.571	18.87
295.039	9.97
295.506	16.27
295.973	19.97
296.44	18.17
296.908	23.17
297.375	20.57
297.842	24.77
298.309	17.97
298.776	13.97
299.243	23.07
299.71	16.97
300.177	24.17
300.644	23.17
301.111	24.07
301.578	21.47
302.045	17.77
302.512	23.37
302.979	27.17
303.446	26.97
303.913	18.77
304.379	17.77
304.846	25.87
305.313	32.57
305.78	24.67
306.246	28.47
306.713	29.57
307.18	27.47
307.646	28.97
308.113	24.17
308.579	22.57
309.046	25.17
309.512	36.17
309.979	19.17
310.445	32.67
310.912	28.87
311.378	35.17
311.845	30.67
312.311	32.77
312.777	39.57
313.244	36.17
313.71	39.07
314.176	28.47
314.642	35.37
315.109	36.97
315.575	39.87
316.041	40.57
316.507	40.27
316.973	46.07
317.439	42.57
317.905	43.77
318.371	42.37
318.837	42.37
319.303	35.17
319.769	30.37
320.235	34.67
320.701	39.47
321.167	40.87
321.633	38.17
322.099	45.07
322.564	49.07
323.03	42.17
323.496	42.27
323.962	40.97
324.427	38.87
324.893	47.87
325.359	42.77
325.824	38.17
326.29	42.77
326.755	41.97
327.221	43.87
327.686	41.27
328.152	50.97
328.617	47.27
329.083	50.77
329.548	62.67
330.014	52.67
330.479	41.67
330.944	41.67
331.41	39.37
331.875	45.47
332.34	42.17
332.805	47.97
333.271	40.37
333.736	45.27
334.201	55.37
334.666	58.37
335.131	57.87
335.596	57.87
336.061	55.37
336.526	43.27
336.991	54.17
337.456	61.67
337.921	57.27
338.386	44.37
338.851	49.87
339.316	47.07
339.781	52.47
340.246	58.37
340.711	49.07
341.175	57.87
341.64	49.57
342.105	56.17
342.569	57.07
343.034	65.77
343.499	53.87
343.963	55.57
344.428	61.57
344.893	65.07
345.357	58.07
345.822	68.77
346.286	71.07
346.751	75.47
347.215	73.87
347.679	73.67
348.144	100.17
348.608	84.97
349.073	68.47
349.537	80.57
350.001	84.97
350.465	97.47
350.93	84.77
351.394	76.47
351.858	73.47
352.322	90.87
352.786	81.47
353.25	97.67
353.715	116.97
354.179	103.37
354.643	129.97
355.107	124.97
355.571	113.07
356.035	112.57
356.498	120.47
356.962	122.27
357.426	132.97
357.89	119.87
358.354	89.67
358.818	90.67
359.281	82.57
359.745	85.37
360.209	83.67
360.673	77.47
361.136	81.57
361.6	85.47
362.064	89.47
362.527	92.17
362.991	89.07
363.454	83.57
363.918	82.27
364.381	83.77
364.845	86.37
365.308	86.57
365.772	89.77
366.235	93.17
366.698	83.47
367.162	83.27
367.625	94.57
368.088	85.47
368.552	84.57
369.015	93.27
369.478	102.87
369.941	97.37
370.404	93.17
370.867	104.27
371.331	110.87
371.794	123.77
372.257	116.87
372.72	114.67
373.183	112.87
373.646	106.77
374.109	113.07
374.572	105.37
375.035	110.17
375.497	112.77
375.96	108.57
376.423	109.57
376.886	110.97
377.349	109.67
377.811	102.27
378.274	109.07
378.737	105.67
379.199	122.67
379.662	111.17
380.125	122.07
380.587	127.47
381.05	122.17
381.512	136.87
381.975	130.57
382.437	124.87
382.9	124.07
383.362	138.57
383.825	149.87
384.287	151.27
384.75	143.57
385.212	140.57
385.674	139.17
386.136	135.57
386.599	129.47
387.061	127.67
387.523	134.67
387.985	136.57
388.447	144.67
388.91	140.77
389.372	160.67
389.834	155.57
390.296	148.47
390.758	163.07
391.22	173.97
391.682	216.17
392.144	294.67
392.606	234.17
393.068	169.87
393.529	168.97
393.991	157.17
394.453	151.47
394.915	161.37
395.377	196.77
395.838	215.07
396.3	159.77
396.762	148.27
397.224	140.27
397.685	136.27
398.147	138.27
398.608	134.07
399.07	135.97
399.531	134.47
399.993	145.37
400.454	154.87
400.916	152.97
401.377	153.27
401.839	156.57
402.3	153.17
402.762	166.57
403.223	190.57
403.684	178.17
404.145	170.87
404.607	165.67
405.068	167.37
405.529	170.37
405.99	192.07
406.451	175.57
406.913	179.77
407.374	169.17
407.835	170.07
408.296	174.87
408.757	174.97
409.218	184.97
409.679	181.97
410.14	181.07
410.601	178.77
411.062	195.07
411.522	187.97
411.983	190.67
412.444	177.57
412.905	173.67
413.366	187.17
413.826	192.87
414.287	219.87
414.748	267.07
415.208	249.87
415.669	214.47
416.13	211.37
416.59	201.77
417.051	217.97
417.511	224.87
417.972	243.87
418.432	249.47
418.893	296.07
419.353	251.27
419.814	204.07
420.274	182.17
420.734	187.57
421.195	201.77
421.655	194.57
422.115	197.17
422.576	197.17
423.036	194.57
423.496	207.67
423.956	214.17
424.416	235.87
424.876	261.27
425.336	262.07
425.797	271.87
426.257	261.07
426.717	244.97
427.177	243.27
427.637	226.77
428.097	237.67
428.556	257.17
429.016	273.67
429.476	265.97
429.936	278.37
430.396	279.57
430.856	299.77
431.315	319.37
431.775	355.97
432.235	387.37
432.694	353.57
433.154	371.77
433.614	394.67
434.073	344.97
434.533	290.37
434.993	278.57
435.452	288.37
435.912	295.47
436.371	296.37
436.83	288.07
437.29	278.77
437.749	256.17
438.209	258.97
438.668	282.07
439.127	291.27
439.587	266.97
440.046	254.97
440.505	264.37
440.964	285.37
441.424	328.97
441.883	325.67
442.342	263.07
442.801	230.87
443.26	225.47
443.719	219.77
444.178	224.57
444.637	215.07
445.096	220.27
445.555	228.37
446.014	221.77
446.473	227.07
446.932	237.07
447.391	230.07
447.849	235.37
448.308	230.77
448.767	225.67
449.226	240.77
449.685	238.07
450.143	255.97
450.602	247.07
451.061	230.57
451.519	232.17
451.978	238.27
452.436	239.47
452.895	242.87
453.353	259.07
453.812	245.47
454.27	251.37
454.729	240.77
455.187	243.97
455.646	254.67
456.104	249.77
456.562	262.17
457.021	274.07
457.479	262.77
457.937	276.07
458.395	270.07
458.854	258.27
459.312	261.47
459.77	282.97
460.228	259.27
460.686	245.77
461.144	245.57
461.602	235.37
462.06	252.67
462.518	256.07
462.976	260.97
463.434	266.87
463.892	264.97
464.35	284.97
464.808	291.57
465.266	275.67
465.724	275.77
466.181	284.07
466.639	275.17
467.097	287.27
467.555	298.57
468.012	312.77
468.47	320.67
468.928	332.57
469.385	349.27
469.843	350.07
470.3	351.67
470.758	374.07
471.215	383.47
471.673	417.77
472.13	422.87
472.588	424.57
473.045	381.47
473.503	378.87
473.96	403.87
474.417	411.27
474.875	442.07
475.332	480.87
475.789	472.77
476.246	477.07
476.704	499.07
477.161	519.27
477.618	531.57
478.075	569.27
478.532	635.07
478.989	701.77
479.446	820.67
479.903	782.67
480.36	819.07
480.817	887.17
481.274	990.67
481.731	1097.07
482.188	1194.77
482.645	1328.57
483.102	1437.77
483.558	1566.67
484.015	1623.67
484.472	1612.67
484.929	1544.17
485.385	1502.57
485.842	1462.17
486.299	1387.17
486.755	1328.07
487.212	1121.67
487.668	941.47
488.125	874.77
488.582	791.67
489.038	759.67
489.494	719.97
489.951	700.97
490.407	676.67
490.864	666.57
491.32	661.17
491.776	646.17
492.233	649.27
492.689	616.07
493.145	622.17
493.602	613.17
494.058	626.77
494.514	620.17
494.97	647.37
495.426	660.47
495.882	635.67
496.338	627.77
496.794	640.27
497.251	639.67
497.707	649.07
498.163	651.47
498.618	652.17
499.074	656.07
499.53	687.17
499.986	686.97
500.442	653.37
500.898	641.37
501.354	632.47
501.809	649.27
502.265	654.57
502.721	674.67
503.177	682.97
503.632	669.97
504.088	684.07
504.543	712.17
504.999	721.97
505.455	670.57
505.91	644.57
506.366	648.77
506.821	651.17
507.277	632.97
507.732	635.07
508.187	632.57
508.643	654.27
509.098	637.47
509.553	663.17
510.009	677.97
510.464	683.97
510.919	704.67
511.375	705.17
511.83	722.97
512.285	739.87
512.74	769.67
513.195	805.37
513.65	788.27
514.105	773.57
514.56	786.07
515.015	804.87
515.47	823.87
515.925	793.57
516.38	802.57
516.835	810.77
517.29	801.27
517.745	788.57
518.2	774.37
518.655	764.57
519.109	760.77
519.564	747.37
520.019	733.57
520.474	725.87
520.928	733.67
521.383	729.07
521.838	719.27
522.292	720.97
522.747	716.97
523.201	720.17
523.656	702.27
524.11	701.17
524.565	703.67
525.019	694.17
525.474	703.57
525.928	711.17
526.382	708.37
526.837	701.37
527.291	712.17
527.745	714.17
528.2	709.87
528.654	705.37
529.108	700.27
529.562	702.77
530.016	703.17
530.47	704.77
530.925	703.47
531.379	713.57
531.833	718.17
532.287	710.27
532.741	721.37
533.195	724.87
533.649	727.07
534.103	724.27
534.556	729.77
535.01	718.37
535.464	721.17
535.918	735.07
536.372	726.37
536.826	721.97
537.279	713.27
537.733	715.57
538.187	714.07
538.64	731.87
539.094	726.47
539.548	742.77
540.001	732.97
540.455	738.97
540.908	742.37
541.362	746.57
541.815	753.67
542.269	769.07
542.722	766.57
543.175	781.07
543.629	780.87
544.082	788.87
544.536	795.97
544.989	791.77
545.442	807.07
545.895	798.87
546.349	791.37
546.802	801.97
547.255	799.97
547.708	805.67
548.161	826.67
548.614	827.77
549.067	831.97
549.52	836.17
549.973	817.47
550.426	818.27
550.879	808.17
551.332	805.47
551.785	816.67
552.238	821.17
552.691	821.87
553.144	841.47
553.596	859.27
554.049	856.37
554.502	902.57
554.955	924.87
555.407	911.37
555.86	912.87
556.313	890.67
556.765	885.47
557.218	886.17
557.67	901.27
558.123	885.07
558.576	883.37
559.028	890.17
559.48	883.07
559.933	883.37
560.385	843.57
560.838	818.17
561.29	787.97
561.742	793.07
562.195	779.37
562.647	766.97
563.099	783.97
563.551	781.47
564.004	796.57
564.456	776.87
564.908	765.37
565.36	748.57
565.812	744.67
566.264	732.77
566.716	729.57
567.168	713.67
567.62	735.17
568.072	720.87
568.524	704.47
568.976	698.67
569.428	678.07
569.88	682.57
570.332	687.37
570.784	687.37
571.235	690.47
571.687	696.07
572.139	704.17
572.59	718.07
573.042	714.87
573.494	708.77
573.945	703.37
574.397	687.97
574.849	702.57
575.3	697.37
575.752	692.77
576.203	685.77
576.655	689.97
577.106	679.17
577.557	673.17
578.009	681.77
578.46	673.57
578.912	664.37
579.363	669.57
579.814	664.17
580.265	664.27
580.717	667.67
581.168	666.97
581.619	684.67
582.07	681.67
582.521	673.17
582.972	668.57
583.423	679.97
583.875	672.07
584.326	702.57
584.777	752.27
585.227	827.17
585.678	918.57
586.129	1000.17
586.58	1067.27
587.031	1155.67
587.482	1299.87
587.933	1487.67
588.384	1303.97
588.834	974.77
589.285	796.57
589.736	774.47
590.186	777.47
590.637	768.07
591.088	746.47
591.538	734.27
591.989	732.47
592.439	730.87
592.89	719.27
593.34	709.17
593.791	710.07
594.241	703.27
594.692	703.27
595.142	699.27
595.593	692.07
596.043	701.77
596.493	714.07
596.943	713.57
597.394	720.47
597.844	708.47
598.294	726.57
598.744	750.57
599.195	772.47
599.645	806.57
600.095	853.67
600.545	895.97
600.995	961.37
601.445	1017.77
601.895	1074.27
602.345	1131.17
602.795	1099.27
603.245	1066.97
603.695	1016.07
604.145	953.87
604.594	909.57
605.044	834.67
605.494	787.77
605.944	744.97
606.393	732.47
606.843	718.87
607.293	736.37
607.743	728.17
608.192	739.17
608.642	742.97
609.091	770.97
609.541	776.87
609.99	757.77
610.44	763.07
610.889	713.07
611.339	699.57
611.788	673.77
612.238	701.67
612.687	717.77
613.136	712.17
613.586	730.87
614.035	728.67
614.484	744.17
614.933	747.97
615.383	743.77
615.832	738.77
616.281	729.77
616.73	685.27
617.179	672.87
617.628	660.27
618.077	635.87
618.526	623.37
618.975	611.37
619.424	609.97
619.873	610.17
620.322	616.07
620.771	600.97
621.22	600.57
621.669	592.27
622.118	582.67
622.567	568.97
623.015	562.97
623.464	565.97
623.913	550.57
624.361	545.67
624.81	546.17
625.259	547.47
625.707	543.27
626.156	551.87
626.604	563.17
627.053	548.07
627.501	558.17
627.95	556.87
628.398	570.47
628.847	568.07
629.295	562.87
629.744	564.57
630.192	555.17
630.64	558.07
631.089	549.27
631.537	565.37
631.985	574.97
632.433	587.97
632.881	584.07
633.33	644.37
633.778	615.87
634.226	550.47
634.674	556.47
635.122	564.97
635.57	588.47
636.018	608.67
636.466	569.07
636.914	552.77
637.362	562.17
637.81	563.77
638.258	563.67
638.705	572.87
639.153	599.77
639.601	600.47
640.049	630.27
640.497	661.27
640.944	683.57
641.392	636.47
641.84	597.47
642.287	570.27
642.735	556.97
643.182	556.37
643.63	565.07
644.078	569.17
644.525	588.07
644.973	589.17
645.42	601.37
645.867	606.97
646.315	626.57
646.762	655.17
647.21	678.07
647.657	707.37
648.104	737.97
648.551	769.17
648.999	828.77
649.446	908.07
649.893	987.47
650.34	1153.67
650.787	1372.37
651.234	1697.67
651.682	2212.67
652.129	3030.47
652.576	4368.17
653.023	6465.27
653.47	8856.77
653.917	11131.87
654.363	12915.87
654.81	14298.47
655.257	13633.67
655.704	8902.47
656.151	5272.07
656.598	3406.27
657.044	2415.57
657.491	1857.17
657.938	1480.67
658.385	1230.97
658.831	1074.27
659.278	948.07
659.724	846.47
660.171	776.87
660.618	711.77
661.064	681.67
661.511	649.47
661.957	646.87
662.404	626.07
662.85	638.67
663.296	610.97
663.743	549.87
664.189	522.47
664.635	523.37
665.082	516.87
665.528	523.87
665.974	519.27
666.42	501.57
666.867	495.77
667.313	482.87
667.759	475.77
668.205	468.07
668.651	469.17
669.097	470.87
669.543	493.77
669.989	463.87
670.435	448.97
670.881	436.07
671.327	440.27
671.773	456.87
672.219	483.87
672.665	529.67
673.11	574.27
673.556	605.47
674.002	645.17
674.448	636.47
674.893	529.27
675.339	464.77
675.785	424.27
676.23	404.97
676.676	386.37
677.122	374.97
677.567	370.47
678.013	355.87
678.458	348.57
678.904	352.37
679.349	338.67
679.794	338.37
680.24	350.97
680.685	340.07
681.131	341.87
681.576	343.97
682.021	340.37
682.466	337.97
682.912	340.77
683.357	347.57
683.802	378.17
684.247	405.37
684.692	445.57
685.137	482.87
685.583	524.27
686.028	552.07
686.473	502.47
686.918	426.27
687.363	400.37
687.807	379.17
688.252	362.27
688.697	352.37
689.142	329.77
689.587	318.27
690.032	320.27
690.477	329.87
690.921	343.47
691.366	375.97
691.811	389.27
692.255	417.07
692.7	441.37
693.145	478.67
693.589	669.77
694.034	1069.47
694.478	1493.17
694.923	1678.07
695.367	2213.37
695.812	1165.97
696.256	486.17
696.701	352.77
697.145	335.37
697.59	324.57
698.034	313.87
698.478	314.77
698.922	310.77
699.367	319.87
699.811	323.07
700.255	348.17
700.699	370.97
701.143	408.67
701.588	469.47
702.032	498.47
702.476	494.97
702.92	462.07
703.364	471.57
703.808	601.97
704.252	984.07
704.696	1386.27
705.14	1614.17
705.584	2081.57
706.027	1020.97
706.471	505.87
706.915	387.97
707.359	341.77
707.803	306.17
708.246	298.97
708.69	309.47
709.134	309.07
709.577	305.37
710.021	308.47
710.465	297.97
710.908	293.87
711.352	286.27
711.795	304.77
712.239	335.87
712.682	367.47
713.126	399.97
713.569	445.57
714.012	359.37
714.456	312.27
714.899	293.47
715.342	267.37
715.786	251.07
716.229	247.27
716.672	245.27
717.115	241.77
717.558	243.37
718.002	238.57
718.445	252.87
718.888	270.27
719.331	280.77
719.774	301.37
720.217	298.27
720.66	274.57
721.103	255.87
721.546	239.67
721.989	243.37
722.432	224.27
722.874	222.47
723.317	217.87
723.76	230.67
724.203	246.67
724.645	301.37
725.088	423.17
725.531	552.47
725.974	629.57
726.416	536.27
726.859	294.07
727.301	245.17
727.744	229.07
728.187	227.27
728.629	234.17
729.071	235.37
729.514	252.57
729.956	261.47
730.399	271.47
730.841	284.37
731.283	268.57
731.726	260.47
732.168	246.17
732.61	255.57
733.053	276.67
733.495	297.27
733.937	335.67
734.379	383.67
734.821	415.07
735.263	522.17
735.705	789.17
736.148	1493.87
736.59	2472.67
737.032	2978.17
737.474	2412.77
737.916	782.57
738.357	410.67
738.799	309.97
739.241	286.37
739.683	275.27
740.125	284.07
740.567	286.17
741.008	299.17
741.45	305.07
741.892	297.07
742.334	331.07
742.775	343.77
743.217	324.17
743.658	253.47
744.1	247.57
744.542	247.47
744.983	302.07
745.425	326.77
745.866	331.07
746.307	272.77
746.749	276.57
747.19	313.37
747.632	423.37
748.073	825.57
748.514	1766.27
748.956	2732.17
749.397	3413.37
749.838	2855.67
750.279	2895.87
750.72	1443.67
751.162	530.47
751.603	309.97
752.044	251.37
752.485	207.17
752.926	199.07
753.367	193.57
753.808	181.57
754.249	187.27
754.69	179.97
755.131	176.77
755.572	181.67
756.013	175.47
756.453	173.97
756.894	178.37
757.335	182.47
757.776	189.57
758.216	197.67
758.657	195.57
759.098	196.67
759.538	215.07
759.979	262.67
760.42	356.47
760.86	665.97
761.301	1706.67
761.741	4176.37
762.182	6211.07
762.622	4403.17
763.063	1265.67
763.503	518.97
763.943	338.07
764.384	319.67
764.824	390.37
765.264	422.37
765.705	299.77
766.145	204.67
766.585	176.87
767.025	173.37
767.465	175.97
767.906	232.37
768.346	312.67
768.786	333.97
769.226	251.17
769.666	302.57
770.106	589.67
770.546	1455.17
770.986	2539.97
771.426	2297.27
771.866	766.87
772.306	317.97
772.745	209.07
773.185	168.37
773.625	170.17
774.065	160.27
774.505	184.07
774.944	285.87
775.384	646.07
775.824	1190.67
776.263	1174.07
776.703	495.27
777.142	215.17
777.582	158.87
778.021	130.77
778.461	137.27
778.9	131.07
779.34	128.27
779.779	111.77
780.219	109.97
780.658	105.87
781.097	101.57
781.537	113.67
781.976	107.47
782.415	104.97
782.855	107.07
783.294	103.37
783.733	105.97
784.172	106.07
784.611	97.77
785.05	98.57
785.489	109.67
785.928	109.67
786.367	118.57
786.806	116.17
787.245	122.87
787.684	132.77
788.123	147.27
788.562	128.47
789.001	122.97
789.44	118.17
789.879	114.57
790.317	110.07
790.756	122.77
791.195	126.87
791.634	136.57
792.072	186.27
792.511	342.37
792.95	944.27
793.388	2070.07
793.827	1889.27
794.265	654.17
794.704	270.57
795.142	182.47
795.581	151.27
796.019	127.87
796.458	123.37
796.896	117.07
797.334	127.87
797.773	144.87
798.211	204.77
798.649	410.77
799.087	968.47
799.526	1531.27
799.964	1931.37
800.402	1957.67
800.84	728.77
801.278	288.67
801.716	177.37
802.154	149.87
802.592	139.97
803.03	140.87
803.468	127.27
803.906	134.47
804.344	141.57
804.782	133.07
805.22	127.97
805.658	122.67
806.096	147.47
806.533	159.37
806.971	167.97
807.409	207.37
807.847	293.87
808.284	620.47
808.722	1743.27
809.16	3174.57
809.597	2949.07
810.035	5140.67
810.472	5653.37
810.91	2022.37
811.347	770.17
811.785	385.37
812.222	242.67
812.66	179.27
813.097	164.67
813.535	137.17
813.972	133.07
814.409	115.97
814.846	111.27
815.284	101.87
815.721	97.67
816.158	99.07
816.595	108.37
817.032	167.67
817.47	188.67
817.907	168.37
818.344	144.87
818.781	112.67
819.218	94.37
819.655	119.07
820.092	174.37
820.529	204.17
820.966	173.57
821.403	126.47
821.839	111.77
822.276	101.47
822.713	119.37
823.15	130.47
823.587	109.77
824.023	140.97
824.46	281.17
824.897	837.57
825.333	1321.27
825.77	564.27
826.206	219.87
826.643	126.57
827.08	100.07
827.516	77.77
827.953	79.57
828.389	73.27
828.825	71.27
829.262	64.77
829.698	61.87
830.135	63.37
830.571	64.87
831.007	62.37
831.443	62.97
831.88	65.07
832.316	56.97
832.752	69.37
833.188	57.57
833.624	59.47
834.06	69.17
834.497	71.17
834.933	68.97
835.369	77.87
835.805	66.37
836.241	64.37
836.677	75.27
837.112	84.57
837.548	96.07
837.984	123.57
838.42	194.67
838.856	468.87
839.292	1420.87
839.727	2216.17
840.163	1038.07
840.599	867.37
841.034	1936.07
841.47	2071.47
841.906	752.67
842.341	324.47
842.777	218.77
843.212	300.57
843.648	305.97
844.083	149.17
844.519	92.67
844.954	76.27
845.39	58.67
845.825	54.77
846.261	58.77
846.696	52.67
847.131	51.67
847.566	53.07
848.002	42.27
848.437	51.47
848.872	65.77
849.307	70.17
849.742	80.57
850.177	175.07
850.613	520.97
851.048	840.77
851.483	364.97
851.918	149.17
852.353	82.97
852.788	61.27
853.223	59.77
853.657	55.27
854.092	47.57
854.527	34.27
854.962	37.27
855.397	45.67
855.832	52.27
856.266	40.57
856.701	41.47
857.136	34.37
857.57	36.97
858.005	52.27
858.44	51.77
858.874	41.47
859.309	50.47
859.743	47.87
860.178	49.17
860.612	40.47
861.047	55.47
861.481	66.97
861.915	63.67
862.35	53.17
862.784	36.87
863.218	34.47
863.653	34.07
864.087	44.57
864.521	51.77
864.955	64.97
865.39	144.47
865.824	171.17
866.258	106.77
866.692	157.57
867.126	173.27
867.56	98.57
867.994	51.37
868.428	32.67
868.862	45.67
869.296	53.37
869.73	50.47
870.164	53.27
870.598	46.67
871.031	37.57
871.465	30.97
871.899	31.87
872.333	25.97
872.766	22.17
873.2	15.17
873.634	32.67
874.067	21.97
874.501	23.77
874.935	32.97
875.368	28.47
875.802	26.17
876.235	24.97
876.669	22.47
877.102	18.57
877.535	31.87
877.969	23.17
878.402	28.77
878.836	19.87
879.269	28.27
879.702	27.97
880.135	29.47
880.569	22.37
881.002	23.47
881.435	19.17
881.868	12.97
882.301	23.57
882.734	18.67
883.167	28.17
883.601	15.87
884.034	24.87
884.467	17.67
884.899	20.47
885.332	15.77
885.765	12.77
886.198	22.77
886.631	18.47
887.064	17.67
887.497	18.57
887.929	24.27
888.362	19.27
888.795	6.37
889.228	18.97
889.66	19.47
890.093	23.97
890.526	21.47
890.958	15.17
891.391	12.17
891.823	17.07
892.256	17.67
892.688	13.47
893.121	15.47
893.553	18.07
893.985	19.87
894.418	20.57
894.85	11.97
895.282	13.37
895.715	19.87
896.147	13.37
896.579	14.17
897.011	12.87
897.444	19.57
897.876	14.47
898.308	15.67
898.74	16.27
899.172	19.87
899.604	31.07
900.036	18.67
900.468	15.87
900.9	19.07
901.332	17.87
901.764	15.37
902.196	17.07
902.628	19.57
903.06	15.97
903.491	30.47
903.923	25.47
904.355	23.97
904.787	26.77
905.218	19.07
905.65	25.47
906.082	12.87
906.513	17.77
906.945	14.07
907.376	19.97
907.808	20.07
908.239	20.17
908.671	24.37
909.102	23.97
909.534	23.17
909.965	41.57
910.397	84.27
910.828	293.57
911.259	459.67
911.691	205.47
912.122	98.07
912.553	51.47
912.984	34.17
913.415	26.37
913.847	22.87
914.278	12.07
914.709	15.17
915.14	21.57
915.571	17.67
916.002	16.37
916.433	17.27
916.864	18.27
917.295	11.57
917.726	18.27
918.157	16.37
918.587	29.17
919.018	25.47
919.449	18.27
919.88	24.87
920.311	28.67
920.741	49.07
921.172	159.97
921.603	147.37
922.033	75.27
922.464	41.67
922.895	23.97
923.325	21.17
923.756	16.67
924.186	17.17
924.617	29.97
925.047	44.37
925.478	51.57
925.908	47.17
926.338	28.47
926.769	15.77
927.199	16.37
927.629	12.27
928.06	18.37
928.49	16.57
928.92	17.67
929.35	10.37
929.78	11.97
930.21	6.27
930.641	8.37
931.071	6.47
931.501	4.67
931.931	0.87
932.361	7.17
932.791	5.57
933.221	8.67
933.651	8.47
934.08	16.67
934.51	30.07
934.94	6.47
935.37	9.57
935.8	8.97
936.229	8.67
936.659	8.97
937.089	7.27
937.519	21.27
937.948	21.57
938.378	17.77
938.807	10.47
939.237	3.57
939.666	4.27
940.096	-0.43
940.525	7.37
940.955	7.27
941.384	3.77
941.814	-9.83
942.243	-1.13
942.672	2.77
943.102	-3.73
943.531	0.17
943.96	4.27
944.39	5.67
944.819	-2.03
945.248	5.67
945.677	4.57
946.106	8.47
946.535	1.87
946.964	2.17
947.393	1.97
947.822	-1.13
948.251	-2.23
948.68	3.67
949.109	9.77
949.538	2.17
949.967	1.27
950.396	-0.03
950.825	8.27
951.254	-1.63
951.682	-9.33
952.111	5.37
952.54	6.07
952.969	-2.13
953.397	-7.53
953.826	3.37
954.254	-0.23
954.683	5.07
955.112	-0.83
955.54	5.97
955.969	4.77
956.397	4.37
956.826	-4.13
957.254	8.27
957.682	-3.73
958.111	-0.33
958.539	2.77
958.967	1.07
959.396	-1.93
959.824	2.37
960.252	1.57
960.68	-4.03
961.109	-2.43
961.537	-8.73
961.965	-1.73
962.393	-2.33
962.821	-1.53
963.249	2.07
963.677	2.07
964.105	6.57
964.533	46.47
964.961	36.07
965.389	19.07
965.817	9.87
966.245	5.77
966.672	0.37
967.1	-6.23
967.528	5.27
967.956	3.47
968.383	-1.43
968.811	-1.93
969.239	-0.83
969.666	-7.43
970.094	6.37
970.522	-3.93
970.949	2.37
971.377	-5.33
971.804	-1.43
972.232	-1.33
972.659	2.17
973.087	-3.13
973.514	-1.93
973.941	0.77
974.369	-0.03
974.796	6.17
975.223	0.87
975.651	3.87
976.078	3.77
976.505	3.17
976.932	7.07
977.359	18.17
977.786	18.27
978.214	2.97
978.641	0.47
979.068	1.57
979.495	-4.63
979.922	1.27
980.349	-4.43
980.776	4.07
981.202	-0.33
981.629	10.27
982.056	4.47
982.483	-1.63
982.91	2.77
983.337	-5.63
983.763	1.07
984.19	0.37
984.617	-0.73
985.043	-1.73
985.47	2.27
985.897	2.17
986.323	-0.43
986.75	1.27
987.176	2.57
987.603	5.37
988.029	2.47
988.456	-0.43
988.882	2.77
989.308	-1.43
989.735	-4.83
990.161	-0.43
990.587	-5.03
991.014	5.87
991.44	9.57
991.866	3.27
992.292	-8.43
992.719	0.37
993.145	3.57
993.571	-10.43
993.997	-0.33
994.423	-2.33
994.849	-0.93
995.275	-4.53
995.701	3.47
996.127	-2.43
996.553	3.17
996.979	-1.13
997.405	-2.93
997.83	-5.73
998.256	-3.63
998.682	1.47
999.108	-6.93
999.534	1.17
999.959	-4.03
1000.385	-5.83
1000.811	4.37
1001.236	-9.93
1001.662	-10.23
1002.087	-8.33
1002.513	2.77
1002.938	-2.43
1003.364	-3.93
1003.789	-1.93
1004.215	3.97
1004.64	-1.33
1005.066	-1.03
1005.491	-4.93
1005.916	-3.03
1006.342	-2.13
1006.767	-7.83
1007.192	11.37
1007.617	1.67
1008.042	-0.13
1008.468	-2.93
1008.893	-3.13
1009.318	-0.43
1009.743	-4.23
1010.168	0.27
1010.593	-1.33
1011.018	-1.03
1011.443	-2.83
1011.868	2.27
1012.293	-2.83
1012.718	-4.33
1013.143	-0.93
1013.567	-1.43
1013.992	-1.03
1014.417	-15.23
1014.842	7.57
1015.267	-9.63
1015.691	1.97
1016.116	4.17
1016.541	1.77
1016.965	-3.03
1017.39	3.07
1017.814	0.57
1018.239	-3.93
1018.663	-5.83
1019.088	-9.83
1019.512	2.27
1019.937	-7.03
1020.361	-5.53
1020.785	-13.13
1021.21	-0.53
1021.634	-2.93
1022.058	2.97
1022.483	8.87
1022.907	-5.13
1023.331	-4.13
1023.755	-3.33
1024.179	-2.63
1024.604	-3.13
1025.028	-7.53
1025.452	-3.53
1025.876	-6.83
1026.3	6.17
1026.724	-13.03
1027.148	-7.03
1027.572	-10.03
1027.996	-2.43
1028.42	-0.53
1028.843	-10.73
1029.267	-2.73
1029.691	-3.23
1030.115	-8.63
1030.539	-2.53
1030.962	-4.23
1031.386	-10.63
1031.81	2.17
1032.233	3.77
1032.657	-6.43
1033.08	-3.03
1033.504	-0.63
1033.927	1.47
1034.351	-1.63
1034.774	-0.73
1035.198	-3.63
1035.621	0.07
1036.045	-3.03
1036.468	3.87
1036.891	-11.03
1037.315	-13.53
1037.738	-11.63
1038.161	2.07
1038.584	-7.83
1039.008	-2.63
1039.431	-6.43
1039.854	1.77
1040.277	-12.03
1040.7	-8.93
1041.123	-0.63
1041.546	-4.63
1041.969	-9.63
1042.392	-1.13
1042.815	-3.03
1043.238	-0.33
1043.661	-2.73
1044.084	-6.83
1044.507	1.57
1044.93	-4.73
1045.352	-5.43
1045.775	0.47
1046.198	-2.13
1046.621	2.47
1047.043	1.37
1047.466	7.27
1047.889	-3.73
1048.311	-3.53
1048.734	-4.03
1049.156	4.57
1049.579	3.67
1050.001	-6.43
1050.424	-1.93
1050.846	-0.53
1051.269	-3.23
1051.691	-4.43
1052.113	-2.83
1052.536	1.17
1052.958	3.47
1053.38	-0.53
1053.802	-7.63
1054.225	6.87
1054.647	-8.53
1055.069	-7.93
1055.491	0.47
1055.913	-7.13
1056.335	-4.83
1056.757	-3.73
1057.179	-10.73
1057.601	-2.23
1058.023	-1.13
1058.445	-9.83
1058.867	-6.13
1059.289	-3.13
1059.711	-5.43
1060.133	-4.43
1060.555	1.37
1060.976	-7.63
1061.398	-3.43
1061.82	-9.53
1062.241	-1.43
1062.663	-8.63
1063.085	-1.03
1063.506	3.17
1063.928	-6.73
1064.35	-1.73
1064.771	-14.33
1065.193	2.47
1065.614	-4.53
1066.035	-1.03
1066.457	-3.63
1066.878	-1.33
1067.3	-2.53
1067.721	-6.73
1068.142	-5.53
1068.564	-5.93
1068.985	-0.13
1069.406	-0.93
1069.827	-5.63
1070.248	-0.43
1070.67	-7.73
1071.091	-8.33
1071.512	-3.73
1071.933	-4.73
1072.354	-7.33
1072.775	-3.83
1073.196	-15.83
1073.617	-3.63
1074.038	-6.53
1074.459	-0.23
1074.88	-9.13
1075.3	1.97
1075.721	-10.53
1076.142	-1.63
1076.563	1.87
1076.983	-12.93
1077.404	-9.43
1077.825	-10.23
1078.246	-9.53
1078.666	-12.33
1079.087	-0.83
1079.507	-8.43
1079.928	2.07
1080.348	6.47
1080.769	-6.33
1081.189	0.37
1081.61	-2.93
1082.03	-4.93
1082.451	-9.93
1082.871	-6.93
1083.291	-3.43
1083.711	-7.93
1084.132	-5.73
1084.552	-6.43
1084.972	-2.83
1085.392	-9.63
1085.813	-3.13
1086.233	-9.03
1086.653	-5.33
1087.073	-0.13
1087.493	-8.93
1087.913	-7.53
1088.333	-15.33
1088.753	-1.23
1089.173	-2.13
1089.593	-4.03
1090.013	-2.33
1090.433	2.87
1090.852	-3.73
1091.272	1.27
1091.692	1.97
1092.112	-2.33
1092.531	-10.83
1092.951	-10.73
1093.371	-3.53
1093.79	-4.03
1094.21	-2.93
1094.63	-4.33
1095.049	-10.23
1095.469	-1.73
1095.888	-3.13
1096.308	1.07
1096.727	1.87
1097.146	-3.63
1097.566	-1.53
1097.985	-5.13
1098.405	-7.43
1098.824	-3.73
1099.243	-4.03
1099.662	-13.73
1100.082	-5.03
1100.501	-2.03
1100.92	-5.73
1101.339	-4.93
1101.758	-8.83
