Data from 20171114-ORNL-Ar_H_NY_Subt18_08-08-50-080.txt Node
Date: Tue Nov 14 08:08:50 EST 2017
User: Ender
Spectrometer: HR+D1039
Trigger mode: 0
Integration Time (sec): 2.730000E-2
Scans to average: 10
Electric dark correction enabled: true
Nonlinearity correction enabled: false
Boxcar width: 0
XAxis mode: Wavelengths
Number of Pixels in Spectrum: 2048
>>>>>Begin Spectral Data<<<<<
187.836	-2.59
188.309	-2.59
188.782	-2.59
189.255	3.51
189.728	4.41
190.201	7.21
190.674	0.61
191.147	3.41
191.619	-8.99
192.092	5.11
192.565	1.51
193.038	-4.29
193.511	1.11
193.984	-1.19
194.456	1.81
194.929	-0.59
195.402	-3.29
195.874	-7.79
196.347	-3.59
196.82	-10.09
197.292	1.91
197.765	2.81
198.237	-4.69
198.71	0.71
199.182	-6.89
199.655	3.91
200.127	3.71
200.6	-4.99
201.072	-3.69
201.544	-1.79
202.017	-5.19
202.489	1.11
202.961	-1.39
203.433	-3.19
203.906	-7.69
204.378	-2.79
204.85	2.41
205.322	-10.99
205.794	-9.59
206.266	-1.99
206.739	-14.19
207.211	-0.39
207.683	-1.89
208.155	-2.49
208.627	-6.39
209.099	-0.89
209.57	-6.49
210.042	-5.79
210.514	-7.19
210.986	1.51
211.458	-9.09
211.93	-5.99
212.402	6.21
212.873	-4.09
213.345	0.61
213.817	-6.39
214.288	-5.29
214.76	-11.29
215.232	-5.59
215.703	-2.69
216.175	-2.29
216.646	-6.19
217.118	-12.79
217.589	-6.79
218.061	-5.29
218.532	-6.19
219.004	-1.39
219.475	-1.49
219.946	-1.09
220.418	-3.39
220.889	4.71
221.36	2.91
221.832	-3.69
222.303	-8.59
222.774	-0.99
223.245	-15.49
223.717	-5.59
224.188	-1.29
224.659	-5.89
225.13	-3.99
225.601	-3.99
226.072	0.21
226.543	1.71
227.014	0.31
227.485	-4.49
227.956	3.01
228.427	-1.99
228.898	-1.79
229.369	2.91
229.839	-5.49
230.31	-7.79
230.781	1.31
231.252	-0.39
231.722	-3.49
232.193	-1.39
232.664	-0.49
233.135	1.01
233.605	2.61
234.076	-5.89
234.546	-4.49
235.017	-0.09
235.487	-4.79
235.958	-1.79
236.428	-3.09
236.899	0.71
237.369	-3.39
237.84	-1.09
238.31	-0.39
238.78	-3.19
239.251	-4.69
239.721	-3.49
240.191	-3.29
240.662	-4.89
241.132	0.01
241.602	-4.79
242.072	-1.79
242.542	-0.99
243.013	-6.29
243.483	4.51
243.953	-2.59
244.423	-2.69
244.893	-7.09
245.363	0.81
245.833	-2.19
246.303	-5.69
246.773	2.31
247.243	-0.19
247.712	3.31
248.182	2.11
248.652	-2.69
249.122	-6.79
249.592	-2.59
250.061	7.41
250.531	14.21
251.001	1.11
251.471	0.71
251.94	3.31
252.41	-1.89
252.879	-7.09
253.349	4.11
253.818	6.11
254.288	1.71
254.757	2.01
255.227	-8.29
255.696	-3.19
256.166	3.01
256.635	1.61
257.105	-0.59
257.574	0.31
258.043	-0.19
258.513	-3.89
258.982	7.11
259.451	-5.19
259.92	-0.59
260.389	3.81
260.859	10.21
261.328	4.41
261.797	0.51
262.266	-2.59
262.735	4.51
263.204	8.21
263.673	-2.49
264.142	3.21
264.611	-10.19
265.08	-3.49
265.549	-5.09
266.018	6.51
266.487	-5.29
266.955	-7.89
267.424	-4.39
267.893	3.31
268.362	1.51
268.83	2.21
269.299	8.81
269.768	-0.49
270.236	-0.79
270.705	1.91
271.174	1.61
271.642	4.41
272.111	1.11
272.579	4.81
273.048	6.21
273.516	7.51
273.985	1.31
274.453	9.11
274.922	3.11
275.39	3.51
275.858	0.21
276.327	3.71
276.795	10.91
277.263	0.71
277.731	11.11
278.2	14.61
278.668	11.81
279.136	12.91
279.604	5.11
280.072	6.01
280.54	5.61
281.008	4.01
281.477	12.71
281.945	8.51
282.413	4.81
282.881	13.51
283.348	3.61
283.816	10.81
284.284	10.61
284.752	11.41
285.22	7.41
285.688	12.01
286.156	10.21
286.623	19.31
287.091	12.81
287.559	7.71
288.026	6.91
288.494	7.91
288.962	4.81
289.429	4.41
289.897	14.21
290.364	8.71
290.832	11.01
291.3	9.71
291.767	8.71
292.234	15.91
292.702	4.11
293.169	12.41
293.637	19.21
294.104	13.81
294.571	4.61
295.039	10.71
295.506	7.41
295.973	13.01
296.44	11.61
296.908	9.01
297.375	4.61
297.842	12.31
298.309	10.41
298.776	9.01
299.243	11.71
299.71	5.51
300.177	16.81
300.644	18.01
301.111	13.71
301.578	19.91
302.045	10.51
302.512	15.21
302.979	19.61
303.446	12.91
303.913	10.81
304.379	2.11
304.846	19.11
305.313	16.01
305.78	16.21
306.246	14.81
306.713	22.71
307.18	14.61
307.646	15.01
308.113	22.51
308.579	12.81
309.046	17.51
309.512	23.81
309.979	12.21
310.445	14.11
310.912	24.91
311.378	22.21
311.845	19.01
312.311	21.51
312.777	27.81
313.244	24.81
313.71	27.01
314.176	20.51
314.642	19.71
315.109	24.01
315.575	21.71
316.041	26.51
316.507	22.61
316.973	26.31
317.439	24.81
317.905	29.01
318.371	27.41
318.837	20.51
319.303	24.81
319.769	25.81
320.235	25.61
320.701	22.41
321.167	26.21
321.633	24.11
322.099	32.01
322.564	31.51
323.03	29.71
323.496	28.31
323.962	26.41
324.427	27.01
324.893	32.51
325.359	31.31
325.824	28.51
326.29	27.21
326.755	27.11
327.221	25.31
327.686	31.31
328.152	31.71
328.617	27.51
329.083	39.01
329.548	46.91
330.014	39.91
330.479	33.21
330.944	34.71
331.41	35.11
331.875	29.81
332.34	38.71
332.805	36.11
333.271	33.81
333.736	27.51
334.201	37.51
334.666	38.41
335.131	42.81
335.596	43.71
336.061	36.21
336.526	32.11
336.991	37.31
337.456	45.01
337.921	42.01
338.386	31.51
338.851	36.41
339.316	39.61
339.781	40.31
340.246	39.81
340.711	37.11
341.175	50.81
341.64	34.81
342.105	42.61
342.569	43.01
343.034	45.51
343.499	46.61
343.963	44.21
344.428	52.11
344.893	52.51
345.357	47.71
345.822	48.11
346.286	54.61
346.751	58.81
347.215	57.51
347.679	60.11
348.144	77.21
348.608	66.51
349.073	55.21
349.537	60.01
350.001	64.81
350.465	67.61
350.93	66.61
351.394	71.71
351.858	60.81
352.322	69.21
352.786	70.31
353.25	85.01
353.715	92.01
354.179	84.51
354.643	101.31
355.107	99.41
355.571	83.21
356.035	86.21
356.498	93.71
356.962	99.21
357.426	109.41
357.89	94.91
358.354	72.61
358.818	68.41
359.281	74.31
359.745	59.91
360.209	69.51
360.673	62.31
361.136	64.41
361.6	72.81
362.064	72.51
362.527	77.01
362.991	79.71
363.454	66.91
363.918	64.61
364.381	64.21
364.845	71.61
365.308	72.51
365.772	82.71
366.235	77.61
366.698	74.71
367.162	75.01
367.625	73.81
368.088	74.91
368.552	77.41
369.015	81.71
369.478	82.91
369.941	92.21
370.404	80.91
370.867	88.11
371.331	90.71
371.794	91.41
372.257	88.91
372.72	95.81
373.183	87.51
373.646	79.61
374.109	84.21
374.572	95.61
375.035	84.91
375.497	90.51
375.96	93.61
376.423	94.41
376.886	101.41
377.349	97.81
377.811	89.31
378.274	95.21
378.737	89.91
379.199	101.51
379.662	93.71
380.125	101.11
380.587	99.21
381.05	97.01
381.512	108.31
381.975	116.11
382.437	111.81
382.9	112.11
383.362	117.51
383.825	121.01
384.287	113.51
384.75	110.91
385.212	120.21
385.674	120.11
386.136	125.01
386.599	111.51
387.061	113.01
387.523	112.41
387.985	113.01
388.447	125.61
388.91	122.21
389.372	122.31
389.834	121.31
390.296	121.41
390.758	127.61
391.22	131.71
391.682	143.71
392.144	167.41
392.606	158.81
393.068	137.51
393.529	147.31
393.991	131.31
394.453	133.41
394.915	124.31
395.377	135.61
395.838	143.41
396.3	124.51
396.762	136.01
397.224	127.71
397.685	124.81
398.147	123.51
398.608	119.81
399.07	127.31
399.531	130.21
399.993	129.91
400.454	146.61
400.916	138.71
401.377	136.91
401.839	144.11
402.3	143.81
402.762	148.81
403.223	166.01
403.684	161.81
404.145	157.91
404.607	152.01
405.068	153.31
405.529	157.61
405.99	175.41
406.451	163.51
406.913	165.41
407.374	160.71
407.835	154.61
408.296	163.31
408.757	168.61
409.218	172.61
409.679	173.81
410.14	165.51
410.601	171.21
411.062	171.71
411.522	177.71
411.983	175.31
412.444	174.41
412.905	173.91
413.366	179.11
413.826	193.61
414.287	213.01
414.748	255.41
415.208	235.91
415.669	208.31
416.13	207.11
416.59	204.41
417.051	214.51
417.511	224.71
417.972	233.51
418.432	246.91
418.893	288.51
419.353	248.91
419.814	202.91
420.274	178.61
420.734	176.01
421.195	193.91
421.655	190.41
422.115	188.01
422.576	191.41
423.036	195.31
423.496	207.81
423.956	213.21
424.416	228.81
424.876	259.01
425.336	256.81
425.797	251.91
426.257	245.51
426.717	229.61
427.177	229.91
427.637	217.71
428.097	230.61
428.556	236.21
429.016	263.31
429.476	250.01
429.936	262.81
430.396	267.91
430.856	281.31
431.315	296.21
431.775	334.41
432.235	358.51
432.694	334.81
433.154	347.31
433.614	383.91
434.073	327.41
434.533	277.11
434.993	266.71
435.452	273.81
435.912	287.81
436.371	279.51
436.83	270.61
437.29	258.51
437.749	240.91
438.209	238.61
438.668	274.91
439.127	283.11
439.587	258.61
440.046	243.21
440.505	251.31
440.964	277.71
441.424	311.51
441.883	305.41
442.342	253.01
442.801	223.91
443.26	229.91
443.719	224.41
444.178	222.01
444.637	215.11
445.096	225.11
445.555	228.51
446.014	224.91
446.473	223.91
446.932	234.91
447.391	231.21
447.849	233.21
448.308	224.21
448.767	224.31
449.226	242.41
449.685	239.21
450.143	252.51
450.602	243.21
451.061	219.81
451.519	234.71
451.978	231.01
452.436	239.91
452.895	235.41
453.353	251.71
453.812	239.61
454.27	242.71
454.729	242.81
455.187	236.41
455.646	248.81
456.104	255.61
456.562	258.21
457.021	274.71
457.479	259.01
457.937	273.41
458.395	264.21
458.854	248.91
459.312	250.91
459.77	267.81
460.228	253.61
460.686	245.61
461.144	249.91
461.602	245.21
462.06	248.71
462.518	262.91
462.976	255.41
463.434	259.61
463.892	267.51
464.35	276.71
464.808	297.41
465.266	266.91
465.724	269.61
466.181	272.31
466.639	280.91
467.097	296.01
467.555	300.41
468.012	301.41
468.47	311.91
468.928	332.81
469.385	343.71
469.843	351.81
470.3	349.61
470.758	369.51
471.215	379.61
471.673	410.91
472.13	402.91
472.588	417.51
473.045	376.91
473.503	380.61
473.96	402.01
474.417	406.81
474.875	429.01
475.332	481.11
475.789	459.21
476.246	469.41
476.704	488.31
477.161	506.61
477.618	514.71
478.075	551.21
478.532	612.31
478.989	666.71
479.446	777.91
479.903	753.41
480.36	777.11
480.817	828.01
481.274	914.21
481.731	1006.71
482.188	1076.91
482.645	1196.21
483.102	1294.91
483.558	1411.11
484.015	1454.81
484.472	1420.31
484.929	1387.31
485.385	1337.91
485.842	1312.61
486.299	1260.01
486.755	1227.61
487.212	1051.31
487.668	892.41
488.125	820.71
488.582	751.91
489.038	728.01
489.494	697.91
489.951	677.91
490.407	665.01
490.864	638.51
491.32	638.61
491.776	644.41
492.233	641.61
492.689	609.91
493.145	601.71
493.602	604.71
494.058	608.51
494.514	614.91
494.97	640.01
495.426	643.51
495.882	625.51
496.338	609.31
496.794	625.41
497.251	608.91
497.707	620.41
498.163	632.01
498.618	634.81
499.074	640.01
499.53	661.81
499.986	669.01
500.442	637.41
500.898	617.71
501.354	615.41
501.809	629.21
502.265	624.41
502.721	639.51
503.177	646.71
503.632	649.71
504.088	657.51
504.543	671.21
504.999	696.81
505.455	667.81
505.91	633.91
506.366	638.51
506.821	638.71
507.277	635.11
507.732	627.41
508.187	633.41
508.643	651.21
509.098	642.81
509.553	664.31
510.009	669.31
510.464	687.31
510.919	708.01
511.375	704.41
511.83	718.81
512.285	725.41
512.74	764.91
513.195	781.81
513.65	773.41
514.105	765.11
514.56	763.71
515.015	793.91
515.47	808.31
515.925	787.61
516.38	792.11
516.835	791.21
517.29	787.81
517.745	780.11
518.2	766.11
518.655	763.91
519.109	759.21
519.564	748.11
520.019	738.91
520.474	737.51
520.928	727.21
521.383	721.91
521.838	725.81
522.292	725.71
522.747	703.41
523.201	712.11
523.656	708.71
524.11	705.31
524.565	715.51
525.019	702.81
525.474	708.51
525.928	700.11
526.382	707.51
526.837	705.11
527.291	708.91
527.745	697.11
528.2	707.01
528.654	704.21
529.108	690.31
529.562	700.61
530.016	699.21
530.47	695.51
530.925	699.81
531.379	694.51
531.833	698.11
532.287	708.01
532.741	704.71
533.195	708.91
533.649	714.31
534.103	723.61
534.556	720.01
535.01	724.21
535.464	711.01
535.918	721.71
536.372	729.11
536.826	714.31
537.279	717.81
537.733	724.51
538.187	717.21
538.64	721.01
539.094	728.81
539.548	739.11
540.001	744.21
540.455	730.91
540.908	737.51
541.362	749.21
541.815	763.01
542.269	773.91
542.722	767.91
543.175	775.71
543.629	778.01
544.082	797.51
544.536	800.01
544.989	789.81
545.442	801.31
545.895	803.91
546.349	802.91
546.802	806.11
547.255	815.01
547.708	829.21
548.161	834.41
548.614	839.71
549.067	837.11
549.52	829.71
549.973	826.81
550.426	820.41
550.879	805.11
551.332	812.91
551.785	816.01
552.238	824.71
552.691	831.41
553.144	857.71
553.596	864.91
554.049	868.11
554.502	904.41
554.955	920.41
555.407	916.41
555.86	914.31
556.313	897.81
556.765	893.81
557.218	886.11
557.67	890.51
558.123	891.21
558.576	884.51
559.028	896.51
559.48	904.81
559.933	893.11
560.385	850.91
560.838	821.11
561.29	803.11
561.742	804.11
562.195	785.11
562.647	779.81
563.099	795.01
563.551	793.01
564.004	801.61
564.456	787.81
564.908	765.71
565.36	751.71
565.812	745.31
566.264	730.01
566.716	742.11
567.168	714.11
567.62	724.31
568.072	709.41
568.524	713.01
568.976	706.41
569.428	693.51
569.88	685.11
570.332	706.61
570.784	707.71
571.235	704.01
571.687	708.71
572.139	708.11
572.59	729.21
573.042	723.11
573.494	726.91
573.945	724.71
574.397	698.51
574.849	703.01
575.3	707.71
575.752	700.61
576.203	698.21
576.655	699.21
577.106	673.31
577.557	673.11
578.009	683.61
578.46	687.61
578.912	678.91
579.363	675.71
579.814	673.21
580.265	678.31
580.717	690.61
581.168	683.71
581.619	693.11
582.07	692.21
582.521	686.01
582.972	681.41
583.423	694.41
583.875	692.71
584.326	690.81
584.777	730.91
585.227	763.71
585.678	789.61
586.129	814.51
586.58	839.81
587.031	886.81
587.482	943.81
587.933	994.31
588.384	931.61
588.834	839.91
589.285	791.81
589.736	790.41
590.186	790.11
590.637	780.91
591.088	760.61
591.538	762.41
591.989	744.81
592.439	740.91
592.89	736.21
593.34	726.01
593.791	729.21
594.241	717.31
594.692	721.21
595.142	710.31
595.593	706.91
596.043	714.11
596.493	734.11
596.943	717.31
597.394	735.31
597.844	730.61
598.294	746.71
598.744	773.31
599.195	803.91
599.645	834.11
600.095	885.51
600.545	946.71
600.995	1001.21
601.445	1052.81
601.895	1112.91
602.345	1155.01
602.795	1140.71
603.245	1102.51
603.695	1039.71
604.145	975.11
604.594	927.41
605.044	873.31
605.494	817.71
605.944	761.11
606.393	763.51
606.843	746.91
607.293	741.81
607.743	746.81
608.192	761.21
608.642	771.21
609.091	778.31
609.541	773.71
609.99	784.21
610.44	783.41
610.889	737.11
611.339	714.21
611.788	692.11
612.238	714.61
612.687	721.21
613.136	707.51
613.586	722.81
614.035	717.31
614.484	730.81
614.933	729.41
615.383	730.51
615.832	727.71
616.281	721.51
616.73	694.11
617.179	666.51
617.628	669.31
618.077	646.71
618.526	640.11
618.975	627.81
619.424	622.61
619.873	620.21
620.322	631.71
620.771	628.61
621.22	612.31
621.669	604.31
622.118	599.61
622.567	598.21
623.015	586.81
623.464	588.51
623.913	576.11
624.361	562.21
624.81	555.21
625.259	571.51
625.707	566.11
626.156	574.31
626.604	585.61
627.053	576.01
627.501	576.51
627.95	576.51
628.398	601.01
628.847	589.11
629.295	593.01
629.744	589.91
630.192	583.11
630.64	573.41
631.089	563.81
631.537	559.81
631.985	553.91
632.433	559.91
632.881	549.51
633.33	571.01
633.778	556.31
634.226	544.81
634.674	562.81
635.122	568.01
635.57	574.21
636.018	588.51
636.466	575.31
636.914	567.81
637.362	589.31
637.81	590.01
638.258	604.01
638.705	598.81
639.153	628.81
639.601	635.31
640.049	659.31
640.497	691.61
640.944	718.11
641.392	653.71
641.84	626.71
642.287	599.71
642.735	575.11
643.182	585.61
643.63	586.41
644.078	577.51
644.525	586.31
644.973	602.71
645.42	611.31
645.867	634.01
646.315	646.71
646.762	671.31
647.21	706.11
647.657	719.31
648.104	759.41
648.551	774.91
648.999	826.61
649.446	917.51
649.893	990.31
650.34	1146.81
650.787	1359.31
651.234	1680.11
651.682	2158.51
652.129	2955.41
652.576	4206.41
653.023	6121.11
653.47	8233.71
653.917	10229.01
654.363	11669.41
654.81	12823.51
655.257	12174.21
655.704	8072.51
656.151	4854.31
656.598	3178.01
657.044	2283.71
657.491	1778.51
657.938	1418.71
658.385	1212.31
658.831	1058.21
659.278	950.01
659.724	845.91
660.171	774.11
660.618	721.01
661.064	689.81
661.511	670.11
661.957	659.61
662.404	638.91
662.85	656.81
663.296	629.01
663.743	575.11
664.189	554.91
664.635	542.71
665.082	541.01
665.528	538.51
665.974	528.81
666.42	528.51
666.867	522.11
667.313	506.41
667.759	482.11
668.205	468.01
668.651	466.01
669.097	456.11
669.543	465.01
669.989	470.21
670.435	466.71
670.881	454.91
671.327	469.51
671.773	482.41
672.219	514.11
672.665	560.81
673.11	607.31
673.556	652.51
674.002	691.41
674.448	685.11
674.893	574.01
675.339	502.11
675.785	462.61
676.23	426.01
676.676	416.41
677.122	403.01
677.567	388.71
678.013	379.31
678.458	378.31
678.904	369.51
679.349	359.01
679.794	370.71
680.24	362.91
680.685	362.61
681.131	357.41
681.576	366.51
682.021	367.01
682.466	357.31
682.912	358.41
683.357	370.41
683.802	399.51
684.247	427.71
684.692	477.41
685.137	515.01
685.583	557.51
686.028	584.31
686.473	538.91
686.918	471.91
687.363	441.81
687.807	403.61
688.252	384.11
688.697	373.21
689.142	347.31
689.587	348.71
690.032	342.91
690.477	351.11
690.921	367.71
691.366	390.41
691.811	421.11
692.255	446.11
692.7	482.91
693.145	528.01
693.589	753.71
694.034	1215.91
694.478	1622.91
694.923	1799.41
695.367	2337.01
695.812	1248.61
696.256	522.31
696.701	385.81
697.145	359.71
697.59	339.71
698.034	330.91
698.478	337.71
698.922	336.31
699.367	337.21
699.811	348.81
700.255	367.51
700.699	404.31
701.143	441.11
701.588	486.71
702.032	536.41
702.476	535.71
702.92	519.01
703.364	518.01
703.808	691.51
704.252	1126.61
704.696	1548.51
705.14	1724.91
705.584	2200.01
706.027	1120.91
706.471	552.21
706.915	410.21
707.359	368.81
707.803	337.71
708.246	327.91
708.69	328.01
709.134	319.41
709.577	327.51
710.021	331.41
710.465	324.61
710.908	321.81
711.352	309.41
711.795	334.91
712.239	371.01
712.682	397.01
713.126	425.61
713.569	476.51
714.012	370.71
714.456	317.01
714.899	294.21
715.342	281.91
715.786	273.21
716.229	266.11
716.672	264.11
717.115	260.91
717.558	267.11
718.002	263.21
718.445	268.41
718.888	290.91
719.331	305.31
719.774	319.81
720.217	308.41
720.66	291.71
721.103	274.21
721.546	258.61
721.989	265.91
722.432	243.51
722.874	246.11
723.317	246.11
723.76	247.81
724.203	262.21
724.645	334.31
725.088	474.61
725.531	595.61
725.974	662.41
726.416	554.71
726.859	313.81
727.301	252.71
727.744	249.61
728.187	243.11
728.629	251.61
729.071	250.31
729.514	268.51
729.956	288.91
730.399	303.11
730.841	299.41
731.283	280.51
731.726	281.51
732.168	270.71
732.61	283.21
733.053	304.31
733.495	331.61
733.937	372.51
734.379	426.11
734.821	466.91
735.263	583.71
735.705	915.71
736.148	1724.61
736.59	2741.01
737.032	3140.11
737.474	2575.91
737.916	856.01
738.357	451.21
738.799	351.01
739.241	307.91
739.683	300.21
740.125	303.81
740.567	317.31
741.008	337.41
741.45	326.21
741.892	330.11
742.334	368.01
742.775	376.31
743.217	364.51
743.658	286.81
744.1	266.11
744.542	277.81
744.983	332.91
745.425	367.21
745.866	356.21
746.307	294.21
746.749	298.61
747.19	341.31
747.632	487.61
748.073	979.11
748.514	2037.71
748.956	3026.41
749.397	3787.71
749.838	3139.81
750.279	3045.31
750.72	1571.81
751.162	581.71
751.603	341.51
752.044	265.51
752.485	239.81
752.926	227.01
753.367	214.01
753.808	205.81
754.249	205.51
754.69	194.51
755.131	190.11
755.572	194.31
756.013	185.11
756.453	189.91
756.894	197.21
757.335	206.61
757.776	199.91
758.216	200.11
758.657	211.71
759.098	214.11
759.538	237.21
759.979	294.81
760.42	410.11
760.86	782.11
761.301	2049.11
761.741	4774.41
762.182	6632.71
762.622	4664.11
763.063	1387.11
763.503	566.21
763.943	342.41
764.384	306.11
764.824	285.31
765.264	283.01
765.705	239.41
766.145	193.11
766.585	186.21
767.025	181.41
767.465	176.71
767.906	205.11
768.346	241.21
768.786	247.01
769.226	238.61
769.666	333.91
770.106	685.51
770.546	1715.31
770.986	2751.81
771.426	2426.41
771.866	834.11
772.306	348.21
772.745	212.01
773.185	178.11
773.625	170.21
774.065	157.21
774.505	174.81
774.944	241.71
775.384	430.31
775.824	708.01
776.263	672.21
776.703	325.01
777.142	178.21
777.582	145.81
778.021	131.11
778.461	131.31
778.9	132.41
779.34	129.81
779.779	125.71
780.219	119.71
780.658	113.21
781.097	111.81
781.537	114.41
781.976	108.61
782.415	110.71
782.855	112.51
783.294	105.61
783.733	106.21
784.172	113.81
784.611	105.61
785.05	114.91
785.489	116.71
785.928	127.91
786.367	124.31
786.806	123.01
787.245	135.01
787.684	138.51
788.123	152.01
788.562	136.21
789.001	133.01
789.44	127.31
789.879	122.31
790.317	125.21
790.756	129.31
791.195	128.61
791.634	155.81
792.072	219.91
792.511	392.81
792.95	1109.91
793.388	2220.01
793.827	1976.41
794.265	711.31
794.704	294.61
795.142	197.21
795.581	158.91
796.019	151.51
796.458	136.81
796.896	129.01
797.334	140.01
797.773	172.01
798.211	232.51
798.649	484.01
799.087	1099.81
799.526	1699.51
799.964	2133.91
800.402	2073.91
800.84	796.31
801.278	320.31
801.716	200.11
802.154	155.81
802.592	156.11
803.03	146.21
803.468	148.01
803.906	153.51
804.344	154.81
804.782	143.21
805.22	144.61
805.658	139.61
806.096	154.31
806.533	165.91
806.971	187.91
807.409	233.71
807.847	341.91
808.284	743.31
808.722	2044.61
809.16	3426.91
809.597	3409.71
810.035	5773.71
810.472	5916.21
810.91	2195.21
811.347	845.61
811.785	431.61
812.222	270.41
812.66	209.11
813.097	178.51
813.535	147.81
813.972	138.81
814.409	126.61
814.846	116.31
815.284	122.21
815.721	105.71
816.158	109.61
816.595	120.01
817.032	169.71
817.47	185.41
817.907	133.01
818.344	113.81
818.781	103.51
819.218	106.61
819.655	129.71
820.092	203.51
820.529	224.31
820.966	176.01
821.403	133.81
821.839	108.41
822.276	107.21
822.713	128.21
823.15	136.61
823.587	129.21
824.023	165.01
824.46	333.31
824.897	977.81
825.333	1401.01
825.77	609.61
826.206	246.31
826.643	143.51
827.08	105.01
827.516	82.11
827.953	83.21
828.389	89.31
828.825	75.11
829.262	70.41
829.698	65.51
830.135	68.51
830.571	66.81
831.007	62.51
831.443	65.61
831.88	64.81
832.316	64.21
832.752	67.31
833.188	68.61
833.624	66.61
834.06	65.61
834.497	71.51
834.933	76.01
835.369	77.81
835.805	73.11
836.241	81.51
836.677	82.21
837.112	93.61
837.548	117.61
837.984	139.41
838.42	214.81
838.856	546.91
839.292	1639.11
839.727	2383.31
840.163	1126.91
840.599	1017.31
841.034	2171.41
841.47	2182.21
841.906	815.61
842.341	345.91
842.777	216.01
843.212	232.01
843.648	204.01
844.083	124.91
844.519	85.31
844.954	73.01
845.39	58.71
845.825	53.81
846.261	62.81
846.696	59.91
847.131	50.71
847.566	56.11
848.002	52.71
848.437	52.91
848.872	65.11
849.307	62.41
849.742	91.71
850.177	197.91
850.613	602.21
851.048	910.91
851.483	396.71
851.918	167.21
852.353	89.11
852.788	56.21
853.223	52.01
853.657	54.71
854.092	42.61
854.527	47.81
854.962	44.71
855.397	44.11
855.832	51.21
856.266	46.11
856.701	50.91
857.136	40.11
857.57	45.31
858.005	59.61
858.44	58.01
858.874	46.91
859.309	49.41
859.743	46.61
860.178	56.31
860.612	46.91
861.047	53.01
861.481	69.71
861.915	75.81
862.35	52.91
862.784	36.01
863.218	39.61
863.653	39.71
864.087	47.11
864.521	54.91
864.955	69.21
865.39	173.81
865.824	178.71
866.258	128.11
866.692	186.21
867.126	191.41
867.56	111.61
867.994	56.11
868.428	39.01
868.862	52.41
869.296	61.11
869.73	58.81
870.164	60.61
870.598	53.01
871.031	40.61
871.465	34.81
871.899	29.61
872.333	26.71
872.766	29.61
873.2	29.01
873.634	28.41
874.067	29.71
874.501	26.21
874.935	39.11
875.368	31.51
875.802	29.91
876.235	29.11
876.669	28.01
877.102	22.61
877.535	24.11
877.969	24.51
878.402	25.81
878.836	22.21
879.269	27.91
879.702	23.91
880.135	25.71
880.569	23.81
881.002	23.11
881.435	16.71
881.868	19.31
882.301	23.11
882.734	15.61
883.167	24.81
883.601	16.91
884.034	25.11
884.467	19.61
884.899	22.51
885.332	20.91
885.765	15.51
886.198	15.21
886.631	19.11
887.064	17.31
887.497	18.21
887.929	23.21
888.362	13.61
888.795	12.11
889.228	21.11
889.66	24.71
890.093	15.41
890.526	18.31
890.958	18.01
891.391	16.51
891.823	17.51
892.256	15.81
892.688	12.51
893.121	19.01
893.553	13.91
893.985	18.61
894.418	24.21
894.85	18.41
895.282	13.91
895.715	20.31
896.147	16.51
896.579	18.51
897.011	10.81
897.444	22.51
897.876	12.81
898.308	18.31
898.74	20.91
899.172	12.31
899.604	23.01
900.036	21.81
900.468	17.01
900.9	16.11
901.332	23.51
901.764	16.11
902.196	16.61
902.628	16.11
903.06	14.21
903.491	38.51
903.923	25.61
904.355	19.01
904.787	28.31
905.218	26.51
905.65	28.01
906.082	17.71
906.513	17.91
906.945	19.91
907.376	15.91
907.808	23.91
908.239	24.11
908.671	16.61
909.102	17.21
909.534	23.61
909.965	52.21
910.397	102.81
910.828	334.71
911.259	486.61
911.691	231.31
912.122	117.21
912.553	47.61
912.984	39.01
913.415	32.51
913.847	25.41
914.278	15.61
914.709	15.81
915.14	20.31
915.571	18.01
916.002	14.21
916.433	19.01
916.864	17.51
917.295	11.31
917.726	20.41
918.157	15.11
918.587	32.51
919.018	24.21
919.449	19.51
919.88	22.11
920.311	29.51
920.741	47.41
921.172	174.11
921.603	153.01
922.033	71.21
922.464	51.61
922.895	26.91
923.325	20.31
923.756	18.31
924.186	11.31
924.617	20.61
925.047	22.41
925.478	25.31
925.908	27.81
926.338	20.61
926.769	13.61
927.199	19.41
927.629	11.61
928.06	14.21
928.49	14.21
928.92	16.01
929.35	12.91
929.78	11.01
930.21	5.71
930.641	12.11
931.071	8.91
931.501	7.21
931.931	6.21
932.361	7.31
932.791	0.31
933.221	8.11
933.651	6.71
934.08	19.91
934.51	29.51
934.94	7.91
935.37	9.01
935.8	9.71
936.229	8.21
936.659	9.11
937.089	11.21
937.519	14.81
937.948	31.01
938.378	15.41
938.807	8.11
939.237	4.61
939.666	6.01
940.096	-4.99
940.525	5.31
940.955	9.31
941.384	2.51
941.814	-7.59
942.243	0.81
942.672	3.51
943.102	-0.59
943.531	2.61
943.96	0.51
944.39	0.51
944.819	-5.69
945.248	4.41
945.677	2.31
946.106	11.21
946.535	8.11
946.964	-0.39
947.393	6.41
947.822	3.51
948.251	-4.59
948.68	1.71
949.109	4.61
949.538	1.51
949.967	-2.39
950.396	-2.99
950.825	-2.19
951.254	1.21
951.682	-8.69
952.111	5.41
952.54	6.11
952.969	1.61
953.397	-3.49
953.826	-0.49
954.254	0.01
954.683	3.31
955.112	-8.19
955.54	-1.49
955.969	5.01
956.397	2.61
956.826	0.01
957.254	3.41
957.682	1.81
958.111	8.31
958.539	1.81
958.967	-0.49
959.396	1.61
959.824	4.71
960.252	-4.39
960.68	-6.29
961.109	-8.89
961.537	-3.59
961.965	5.21
962.393	-1.69
962.821	-1.49
963.249	4.31
963.677	3.41
964.105	6.61
964.533	47.01
964.961	47.81
965.389	21.21
965.817	11.11
966.245	2.11
966.672	-2.49
967.1	-4.29
967.528	3.71
967.956	0.21
968.383	1.21
968.811	-5.19
969.239	3.91
969.666	-7.89
970.094	-1.09
970.522	2.21
970.949	-2.49
971.377	-1.99
971.804	0.41
972.232	-4.29
972.659	-1.39
973.087	-4.69
973.514	3.01
973.941	-4.09
974.369	4.91
974.796	3.41
975.223	3.41
975.651	-3.39
976.078	4.01
976.505	-5.39
976.932	-0.59
977.359	18.11
977.786	10.41
978.214	1.21
978.641	-7.39
979.068	-3.29
979.495	-2.99
979.922	-0.89
980.349	-3.09
980.776	4.01
981.202	-0.39
981.629	6.91
982.056	3.51
982.483	0.21
982.91	1.11
983.337	-8.39
983.763	0.21
984.19	0.41
984.617	-1.29
985.043	-1.19
985.47	-2.89
985.897	-9.29
986.323	-2.59
986.75	0.11
987.176	-3.99
987.603	-2.69
988.029	-2.29
988.456	-5.39
988.882	0.61
989.308	-7.69
989.735	-0.29
990.161	0.31
990.587	-4.39
991.014	-0.89
991.44	8.21
991.866	-5.09
992.292	-3.89
992.719	-6.29
993.145	-0.19
993.571	-8.09
993.997	-6.19
994.423	-4.99
994.849	-3.29
995.275	-2.39
995.701	-2.09
996.127	-1.29
996.553	0.01
996.979	-4.19
997.405	-1.89
997.83	1.01
998.256	-3.09
998.682	-4.89
999.108	-10.49
999.534	-4.99
999.959	-5.59
1000.385	-0.59
1000.811	6.71
1001.236	-6.29
1001.662	-3.99
1002.087	-8.09
1002.513	-2.29
1002.938	-1.29
1003.364	0.81
1003.789	-7.59
1004.215	2.21
1004.64	-2.39
1005.066	4.41
1005.491	-2.79
1005.916	-1.59
1006.342	-2.79
1006.767	-4.79
1007.192	4.31
1007.617	-0.09
1008.042	-1.39
1008.468	-8.29
1008.893	-2.69
1009.318	-4.89
1009.743	-4.59
1010.168	7.61
1010.593	3.71
1011.018	-4.19
1011.443	-1.79
1011.868	-0.29
1012.293	-5.59
1012.718	-4.59
1013.143	1.21
1013.567	-2.09
1013.992	3.71
1014.417	-12.79
1014.842	4.01
1015.267	-6.39
1015.691	-3.29
1016.116	-1.19
1016.541	4.11
1016.965	4.51
1017.39	-0.69
1017.814	4.11
1018.239	-1.09
1018.663	-7.49
1019.088	-10.19
1019.512	-2.79
1019.937	-2.69
1020.361	0.91
1020.785	-10.99
1021.21	-0.29
1021.634	-5.29
1022.058	-1.19
1022.483	9.01
1022.907	-3.99
1023.331	-0.89
1023.755	-2.89
1024.179	-3.09
1024.604	-4.79
1025.028	-8.29
1025.452	0.81
1025.876	2.11
1026.3	-2.29
1026.724	-10.79
1027.148	-0.69
1027.572	-3.49
1027.996	-5.69
1028.42	-2.09
1028.843	-4.49
1029.267	-1.69
1029.691	-3.69
1030.115	-6.29
1030.539	-2.89
1030.962	-8.39
1031.386	-11.49
1031.81	-4.19
1032.233	0.21
1032.657	0.21
1033.08	-7.89
1033.504	-6.29
1033.927	-4.59
1034.351	-7.39
1034.774	-3.99
1035.198	-1.39
1035.621	-4.59
1036.045	-9.49
1036.468	-0.89
1036.891	-10.39
1037.315	-15.59
1037.738	-7.89
1038.161	-5.99
1038.584	-3.39
1039.008	-2.39
1039.431	0.21
1039.854	-1.99
1040.277	-7.39
1040.7	-9.59
1041.123	-4.59
1041.546	-8.99
1041.969	-5.99
1042.392	-6.89
1042.815	-4.59
1043.238	2.51
1043.661	0.11
1044.084	-10.49
1044.507	-6.49
1044.93	-6.19
1045.352	-8.99
1045.775	-2.19
1046.198	-5.39
1046.621	1.01
1047.043	0.61
1047.466	6.41
1047.889	-4.99
1048.311	-5.99
1048.734	-7.89
1049.156	-0.99
1049.579	-0.69
1050.001	-0.69
1050.424	4.11
1050.846	-2.89
1051.269	-0.99
1051.691	-6.79
1052.113	-1.99
1052.536	-1.59
1052.958	5.91
1053.38	-8.69
1053.802	-5.29
1054.225	-6.69
1054.647	-10.49
1055.069	-6.29
1055.491	0.51
1055.913	-8.99
1056.335	-1.39
1056.757	-3.49
1057.179	-3.49
1057.601	-7.19
1058.023	-3.79
1058.445	-1.39
1058.867	-2.39
1059.289	-5.19
1059.711	-6.49
1060.133	-1.09
1060.555	-7.39
1060.976	-7.49
1061.398	-10.19
1061.82	-7.99
1062.241	-9.19
1062.663	-6.39
1063.085	-2.29
1063.506	2.01
1063.928	-0.79
1064.35	-5.39
1064.771	-13.29
1065.193	0.11
1065.614	-11.79
1066.035	-3.69
1066.457	-4.69
1066.878	3.41
1067.3	-3.59
1067.721	-1.99
1068.142	-2.99
1068.564	-3.59
1068.985	-4.69
1069.406	-2.39
1069.827	-7.29
1070.248	-0.09
1070.67	-9.99
1071.091	-9.59
1071.512	-3.29
1071.933	-1.49
1072.354	-4.99
1072.775	-7.19
1073.196	-5.59
1073.617	-4.89
1074.038	-2.69
1074.459	-5.49
1074.88	-11.39
1075.3	1.01
1075.721	-9.49
1076.142	-1.99
1076.563	-5.69
1076.983	-8.19
1077.404	-10.79
1077.825	-10.79
1078.246	-5.49
1078.666	-13.99
1079.087	-4.19
1079.507	-3.69
1079.928	-1.99
1080.348	-3.59
1080.769	-6.19
1081.189	-1.09
1081.61	-5.39
1082.03	-6.79
1082.451	-8.09
1082.871	-0.79
1083.291	-5.29
1083.711	-6.59
1084.132	-8.19
1084.552	-6.79
1084.972	0.61
1085.392	-13.69
1085.813	-9.29
1086.233	-7.99
1086.653	-7.49
1087.073	5.41
1087.493	-5.29
1087.913	-8.59
1088.333	-8.79
1088.753	-0.49
1089.173	-2.79
1089.593	-3.19
1090.013	-1.29
1090.433	-1.69
1090.852	-7.19
1091.272	3.31
1091.692	-4.59
1092.112	-0.29
1092.531	-12.39
1092.951	-7.59
1093.371	-7.69
1093.79	-0.99
1094.21	-3.29
1094.63	-11.19
1095.049	-5.49
1095.469	-3.09
1095.888	-2.09
1096.308	-1.29
1096.727	-3.09
1097.146	-3.99
1097.566	-3.99
1097.985	-12.39
1098.405	-7.69
1098.824	3.41
1099.243	-7.69
1099.662	-15.39
1100.082	-0.89
1100.501	-5.79
1100.92	-8.49
1101.339	-4.09
1101.758	-10.29
