Data from 20171114-ORNL-Ar_H_NY_Subt18_08-07-01-134.txt Node
Date: Tue Nov 14 08:07:01 EST 2017
User: Ender
Spectrometer: HR+D1039
Trigger mode: 0
Integration Time (sec): 2.730000E-2
Scans to average: 10
Electric dark correction enabled: true
Nonlinearity correction enabled: false
Boxcar width: 0
XAxis mode: Wavelengths
Number of Pixels in Spectrum: 2048
>>>>>Begin Spectral Data<<<<<
187.836	-4.88
188.309	-4.88
188.782	-4.88
189.255	3.62
189.728	-2.08
190.201	4.42
190.674	-0.18
191.147	0.82
191.619	-2.68
192.092	-1.08
192.565	3.42
193.038	2.72
193.511	-0.38
193.984	1.72
194.456	-1.58
194.929	3.02
195.402	-4.48
195.874	-2.38
196.347	-3.18
196.82	-4.28
197.292	1.32
197.765	1.02
198.237	-4.98
198.71	1.12
199.182	-1.58
199.655	-0.68
200.127	0.52
200.6	-0.78
201.072	-1.38
201.544	-9.28
202.017	1.92
202.489	0.62
202.961	-1.88
203.433	-5.18
203.906	-3.58
204.378	-1.68
204.85	-2.58
205.322	-4.68
205.794	-1.08
206.266	-3.98
206.739	-7.48
207.211	4.82
207.683	-10.38
208.155	-10.08
208.627	-4.28
209.099	-2.48
209.57	-6.98
210.042	-5.28
210.514	-4.58
210.986	-4.98
211.458	-12.78
211.93	-5.78
212.402	2.82
212.873	-3.18
213.345	-5.98
213.817	-13.38
214.288	-7.48
214.76	-13.08
215.232	-3.78
215.703	-5.98
216.175	-5.18
216.646	-6.28
217.118	-5.68
217.589	-6.38
218.061	-1.58
218.532	-12.88
219.004	-1.18
219.475	-4.78
219.946	-3.88
220.418	-4.78
220.889	-1.28
221.36	-1.58
221.832	-5.48
222.303	-10.68
222.774	-7.98
223.245	-9.58
223.717	-10.88
224.188	-2.88
224.659	-4.88
225.13	-10.28
225.601	-4.68
226.072	-2.98
226.543	-5.18
227.014	-2.68
227.485	0.92
227.956	-7.98
228.427	-1.18
228.898	0.82
229.369	0.32
229.839	-5.18
230.31	-5.38
230.781	0.92
231.252	-3.08
231.722	-4.48
232.193	-0.08
232.664	-6.98
233.135	-4.78
233.605	-0.58
234.076	-0.78
234.546	-1.58
235.017	2.72
235.487	-2.18
235.958	0.12
236.428	-7.78
236.899	-5.18
237.369	-1.08
237.84	-6.48
238.31	4.72
238.78	-7.78
239.251	-4.88
239.721	-9.68
240.191	-5.28
240.662	-7.48
241.132	-5.68
241.602	-4.78
242.072	-7.38
242.542	-1.98
243.013	-5.18
243.483	-2.58
243.953	-1.18
244.423	-3.38
244.893	-12.98
245.363	-0.68
245.833	4.82
246.303	-3.98
246.773	0.22
247.243	0.92
247.712	-4.68
248.182	7.62
248.652	2.42
249.122	-11.58
249.592	0.22
250.061	0.02
250.531	10.22
251.001	0.62
251.471	2.82
251.94	10.82
252.41	-4.28
252.879	-3.38
253.349	9.32
253.818	4.72
254.288	-1.98
254.757	-0.38
255.227	-9.58
255.696	-7.38
256.166	1.22
256.635	-2.58
257.105	2.62
257.574	-8.48
258.043	-0.48
258.513	-6.28
258.982	3.02
259.451	-4.08
259.92	4.82
260.389	3.22
260.859	4.72
261.328	3.22
261.797	0.72
262.266	-4.48
262.735	4.32
263.204	1.12
263.673	-2.68
264.142	0.52
264.611	-2.28
265.08	-3.78
265.549	-2.28
266.018	1.62
266.487	2.22
266.955	-7.18
267.424	-5.38
267.893	5.52
268.362	1.12
268.83	1.02
269.299	6.52
269.768	6.42
270.236	0.82
270.705	-1.08
271.174	3.02
271.642	5.32
272.111	2.42
272.579	0.22
273.048	1.62
273.516	3.82
273.985	2.82
274.453	5.42
274.922	14.42
275.39	7.82
275.858	-0.38
276.327	6.22
276.795	9.82
277.263	-2.18
277.731	10.02
278.2	3.72
278.668	8.22
279.136	7.82
279.604	0.82
280.072	7.42
280.54	2.32
281.008	2.32
281.477	12.12
281.945	8.92
282.413	10.52
282.881	8.22
283.348	1.12
283.816	7.02
284.284	9.72
284.752	13.52
285.22	6.02
285.688	12.92
286.156	6.22
286.623	16.62
287.091	2.22
287.559	9.42
288.026	5.32
288.494	16.52
288.962	2.82
289.429	4.32
289.897	16.22
290.364	9.52
290.832	12.52
291.3	10.92
291.767	10.82
292.234	13.02
292.702	5.12
293.169	12.72
293.637	16.92
294.104	15.62
294.571	0.42
295.039	9.92
295.506	8.32
295.973	19.62
296.44	4.02
296.908	8.12
297.375	10.02
297.842	14.22
298.309	10.02
298.776	2.82
299.243	18.92
299.71	8.72
300.177	17.82
300.644	10.52
301.111	14.82
301.578	15.72
302.045	13.62
302.512	18.52
302.979	20.22
303.446	13.12
303.913	6.52
304.379	13.72
304.846	13.62
305.313	19.52
305.78	18.72
306.246	22.02
306.713	19.72
307.18	18.82
307.646	16.42
308.113	22.92
308.579	22.32
309.046	21.02
309.512	22.22
309.979	9.82
310.445	21.52
310.912	23.72
311.378	20.12
311.845	21.52
312.311	24.92
312.777	25.12
313.244	24.32
313.71	27.32
314.176	22.12
314.642	25.92
315.109	24.62
315.575	26.62
316.041	29.02
316.507	29.62
316.973	25.32
317.439	20.32
317.905	28.32
318.371	21.42
318.837	29.12
319.303	25.72
319.769	25.92
320.235	27.62
320.701	31.32
321.167	31.52
321.633	22.02
322.099	36.02
322.564	31.02
323.03	25.92
323.496	27.32
323.962	28.22
324.427	32.22
324.893	33.82
325.359	27.52
325.824	32.72
326.29	29.42
326.755	32.52
327.221	35.32
327.686	27.42
328.152	44.62
328.617	34.92
329.083	40.42
329.548	48.32
330.014	41.92
330.479	39.32
330.944	38.12
331.41	34.52
331.875	38.42
332.34	34.92
332.805	36.12
333.271	42.62
333.736	33.12
334.201	44.92
334.666	45.62
335.131	47.52
335.596	44.92
336.061	42.22
336.526	35.52
336.991	41.62
337.456	47.82
337.921	38.92
338.386	37.12
338.851	46.12
339.316	41.42
339.781	42.72
340.246	50.22
340.711	39.42
341.175	48.32
341.64	38.72
342.105	44.42
342.569	54.42
343.034	51.32
343.499	48.32
343.963	43.12
344.428	57.12
344.893	48.42
345.357	54.92
345.822	50.32
346.286	65.22
346.751	56.62
347.215	53.42
347.679	60.52
348.144	79.52
348.608	74.52
349.073	60.62
349.537	62.42
350.001	63.72
350.465	81.02
350.93	65.92
351.394	70.02
351.858	64.02
352.322	77.22
352.786	70.82
353.25	81.92
353.715	89.32
354.179	81.02
354.643	102.02
355.107	103.32
355.571	87.92
356.035	83.32
356.498	105.32
356.962	98.92
357.426	107.22
357.89	93.82
358.354	80.92
358.818	78.32
359.281	72.92
359.745	70.52
360.209	70.82
360.673	64.22
361.136	73.82
361.6	80.12
362.064	71.72
362.527	76.32
362.991	83.82
363.454	79.82
363.918	73.12
364.381	71.62
364.845	72.02
365.308	76.22
365.772	84.82
366.235	82.82
366.698	76.72
367.162	78.22
367.625	78.82
368.088	81.32
368.552	80.82
369.015	83.82
369.478	91.92
369.941	84.52
370.404	82.12
370.867	88.92
371.331	94.62
371.794	98.62
372.257	91.12
372.72	99.12
373.183	92.82
373.646	86.12
374.109	91.32
374.572	90.42
375.035	97.42
375.497	95.22
375.96	99.72
376.423	95.22
376.886	102.02
377.349	101.12
377.811	94.02
378.274	100.32
378.737	94.12
379.199	102.62
379.662	104.02
380.125	104.52
380.587	100.82
381.05	98.62
381.512	109.72
381.975	117.72
382.437	115.72
382.9	106.92
383.362	117.02
383.825	114.72
384.287	115.32
384.75	109.42
385.212	119.12
385.674	121.72
386.136	121.32
386.599	125.32
387.061	109.62
387.523	116.52
387.985	113.52
388.447	127.12
388.91	114.02
389.372	120.12
389.834	120.22
390.296	111.92
390.758	127.62
391.22	127.92
391.682	139.32
392.144	147.72
392.606	139.02
393.068	135.52
393.529	150.32
393.991	136.22
394.453	123.92
394.915	122.62
395.377	130.22
395.838	137.82
396.3	129.72
396.762	141.02
397.224	129.02
397.685	129.12
398.147	126.62
398.608	129.12
399.07	132.92
399.531	141.42
399.993	145.62
400.454	153.92
400.916	144.52
401.377	141.72
401.839	155.02
402.3	148.92
402.762	164.22
403.223	167.12
403.684	165.22
404.145	161.32
404.607	153.42
405.068	164.22
405.529	166.82
405.99	187.52
406.451	169.82
406.913	169.82
407.374	161.72
407.835	150.22
408.296	169.12
408.757	163.62
409.218	181.22
409.679	174.62
410.14	176.42
410.601	181.42
411.062	184.52
411.522	180.12
411.983	170.72
412.444	169.42
412.905	182.92
413.366	181.22
413.826	198.22
414.287	220.32
414.748	265.32
415.208	255.12
415.669	214.32
416.13	215.22
416.59	214.52
417.051	215.12
417.511	218.52
417.972	236.32
418.432	253.32
418.893	292.22
419.353	257.02
419.814	205.52
420.274	183.32
420.734	182.12
421.195	196.72
421.655	191.82
422.115	192.72
422.576	195.92
423.036	204.62
423.496	212.92
423.956	222.22
424.416	240.02
424.876	277.02
425.336	262.72
425.797	265.12
426.257	260.62
426.717	244.92
427.177	235.92
427.637	227.82
428.097	236.32
428.556	243.02
429.016	267.62
429.476	262.12
429.936	273.02
430.396	275.32
430.856	284.82
431.315	309.22
431.775	336.22
432.235	373.72
432.694	345.12
433.154	355.22
433.614	376.52
434.073	335.02
434.533	290.02
434.993	270.62
435.452	279.32
435.912	290.62
436.371	284.52
436.83	280.12
437.29	264.92
437.749	245.12
438.209	247.42
438.668	273.02
439.127	296.92
439.587	266.72
440.046	248.02
440.505	264.82
440.964	282.32
441.424	318.42
441.883	313.32
442.342	262.32
442.801	232.72
443.26	228.62
443.719	224.12
444.178	224.52
444.637	222.22
445.096	230.52
445.555	232.32
446.014	232.32
446.473	230.42
446.932	240.52
447.391	229.82
447.849	241.82
448.308	233.82
448.767	234.72
449.226	247.22
449.685	247.62
450.143	263.22
450.602	249.82
451.061	234.52
451.519	241.82
451.978	244.52
452.436	245.02
452.895	249.02
453.353	263.52
453.812	255.82
454.27	249.92
454.729	255.62
455.187	250.52
455.646	254.72
456.104	257.22
456.562	272.12
457.021	281.42
457.479	271.52
457.937	287.72
458.395	271.22
458.854	257.52
459.312	265.42
459.77	286.32
460.228	262.52
460.686	260.42
461.144	264.02
461.602	258.62
462.06	261.32
462.518	262.32
462.976	265.72
463.434	262.12
463.892	278.42
464.35	285.32
464.808	301.82
465.266	277.52
465.724	287.82
466.181	286.52
466.639	285.02
467.097	306.52
467.555	307.72
468.012	308.62
468.47	323.92
468.928	341.22
469.385	348.42
469.843	362.32
470.3	371.22
470.758	387.22
471.215	402.22
471.673	419.12
472.13	425.02
472.588	426.92
473.045	392.32
473.503	401.82
473.96	405.92
474.417	426.42
474.875	451.42
475.332	506.92
475.789	481.12
476.246	489.22
476.704	503.92
477.161	526.72
477.618	546.52
478.075	581.02
478.532	633.62
478.989	709.12
479.446	824.02
479.903	770.02
480.36	813.42
480.817	854.52
481.274	950.52
481.731	1036.62
482.188	1123.82
482.645	1260.12
483.102	1343.62
483.558	1454.02
484.015	1484.82
484.472	1463.82
484.929	1413.62
485.385	1390.92
485.842	1354.12
486.299	1300.52
486.755	1264.52
487.212	1082.32
487.668	924.42
488.125	855.32
488.582	786.42
489.038	764.52
489.494	731.32
489.951	706.72
490.407	691.12
490.864	676.82
491.32	674.82
491.776	669.62
492.233	675.62
492.689	644.72
493.145	643.42
493.602	623.42
494.058	639.72
494.514	636.42
494.97	666.72
495.426	669.92
495.882	647.52
496.338	637.42
496.794	655.92
497.251	646.72
497.707	668.52
498.163	660.02
498.618	665.82
499.074	673.02
499.53	705.32
499.986	696.02
500.442	677.92
500.898	644.52
501.354	652.72
501.809	666.12
502.265	655.42
502.721	663.72
503.177	675.62
503.632	678.32
504.088	677.52
504.543	707.02
504.999	728.52
505.455	684.22
505.91	665.12
506.366	677.22
506.821	670.42
507.277	664.32
507.732	666.92
508.187	671.82
508.643	671.82
509.098	680.12
509.553	697.82
510.009	707.02
510.464	717.92
510.919	733.32
511.375	740.32
511.83	743.72
512.285	768.22
512.74	799.22
513.195	835.42
513.65	806.42
514.105	804.72
514.56	813.72
515.015	831.72
515.47	850.02
515.925	818.32
516.38	841.62
516.835	832.92
517.29	832.62
517.745	816.92
518.2	815.72
518.655	783.02
519.109	790.62
519.564	782.42
520.019	770.62
520.474	766.02
520.928	760.92
521.383	764.42
521.838	757.62
522.292	760.92
522.747	759.52
523.201	755.72
523.656	736.52
524.11	725.62
524.565	730.32
525.019	726.02
525.474	744.52
525.928	741.32
526.382	744.12
526.837	732.72
527.291	744.22
527.745	732.22
528.2	741.32
528.654	728.02
529.108	716.52
529.562	733.62
530.016	724.52
530.47	732.12
530.925	739.52
531.379	737.52
531.833	737.22
532.287	741.32
532.741	743.82
533.195	744.22
533.649	753.42
534.103	760.92
534.556	749.92
535.01	759.62
535.464	747.32
535.918	747.32
536.372	758.02
536.826	758.22
537.279	745.02
537.733	751.52
538.187	748.32
538.64	759.72
539.094	768.62
539.548	780.12
540.001	769.12
540.455	767.72
540.908	767.12
541.362	788.62
541.815	788.92
542.269	802.82
542.722	804.52
543.175	802.92
543.629	820.42
544.082	833.02
544.536	847.52
544.989	838.62
545.442	842.82
545.895	833.42
546.349	841.62
546.802	834.82
547.255	844.62
547.708	853.62
548.161	868.72
548.614	873.72
549.067	879.62
549.52	870.22
549.973	865.62
550.426	861.02
550.879	855.02
551.332	856.22
551.785	871.32
552.238	869.42
552.691	878.52
553.144	888.22
553.596	904.32
554.049	924.42
554.502	950.12
554.955	971.92
555.407	969.12
555.86	971.92
556.313	960.12
556.765	942.72
557.218	932.32
557.67	932.92
558.123	938.92
558.576	933.22
559.028	935.82
559.48	950.62
559.933	934.62
560.385	900.02
560.838	871.42
561.29	828.82
561.742	841.92
562.195	813.52
562.647	814.82
563.099	822.32
563.551	830.62
564.004	831.52
564.456	812.92
564.908	801.22
565.36	786.42
565.812	774.12
566.264	760.82
566.716	755.02
567.168	746.32
567.62	750.62
568.072	739.32
568.524	735.22
568.976	729.72
569.428	718.72
569.88	722.32
570.332	725.72
570.784	740.02
571.235	726.22
571.687	740.12
572.139	747.82
572.59	756.52
573.042	759.92
573.494	756.42
573.945	752.92
574.397	731.42
574.849	726.92
575.3	733.42
575.752	727.52
576.203	726.52
576.655	736.12
577.106	718.52
577.557	715.42
578.009	711.72
578.46	713.02
578.912	704.32
579.363	702.52
579.814	705.32
580.265	716.02
580.717	706.82
581.168	712.22
581.619	718.02
582.07	722.52
582.521	721.52
582.972	711.02
583.423	716.12
583.875	716.22
584.326	722.12
584.777	748.32
585.227	756.62
585.678	762.02
586.129	780.92
586.58	805.22
587.031	818.82
587.482	848.72
587.933	872.82
588.384	856.52
588.834	832.52
589.285	819.92
589.736	813.42
590.186	817.42
590.637	804.62
591.088	789.32
591.538	777.32
591.989	763.92
592.439	762.02
592.89	756.32
593.34	756.22
593.791	731.82
594.241	737.02
594.692	737.12
595.142	733.02
595.593	731.02
596.043	740.62
596.493	742.12
596.943	735.32
597.394	757.32
597.844	753.42
598.294	773.72
598.744	793.02
599.195	819.72
599.645	880.62
600.095	908.02
600.545	969.52
600.995	1031.02
601.445	1094.82
601.895	1152.02
602.345	1200.32
602.795	1182.32
603.245	1136.22
603.695	1078.22
604.145	1004.12
604.594	962.52
605.044	912.62
605.494	852.02
605.944	808.62
606.393	785.82
606.843	774.72
607.293	771.22
607.743	781.52
608.192	772.32
608.642	795.62
609.091	802.42
609.541	808.52
609.99	796.82
610.44	799.42
610.889	747.92
611.339	734.02
611.788	713.82
612.238	730.22
612.687	739.02
613.136	727.42
613.586	735.72
614.035	722.52
614.484	740.32
614.933	735.62
615.383	740.02
615.832	742.62
616.281	737.32
616.73	701.92
617.179	689.62
617.628	673.22
618.077	669.12
618.526	656.82
618.975	632.12
619.424	648.02
619.873	647.22
620.322	649.92
620.771	635.32
621.22	633.72
621.669	620.92
622.118	613.72
622.567	608.32
623.015	603.72
623.464	593.62
623.913	587.22
624.361	582.62
624.81	576.22
625.259	581.02
625.707	590.22
626.156	592.42
626.604	598.52
627.053	589.92
627.501	598.22
627.95	595.42
628.398	613.82
628.847	599.42
629.295	607.12
629.744	603.92
630.192	582.92
630.64	584.52
631.089	572.22
631.537	566.22
631.985	554.72
632.433	556.82
632.881	548.92
633.33	557.32
633.778	554.42
634.226	547.62
634.674	560.52
635.122	563.42
635.57	583.22
636.018	584.52
636.466	595.22
636.914	586.32
637.362	602.12
637.81	597.42
638.258	606.42
638.705	608.62
639.153	637.62
639.601	649.52
640.049	670.52
640.497	706.12
640.944	727.52
641.392	680.82
641.84	643.62
642.287	606.72
642.735	589.02
643.182	598.52
643.63	585.42
644.078	591.12
644.525	607.92
644.973	599.62
645.42	620.22
645.867	639.32
646.315	656.82
646.762	678.02
647.21	700.62
647.657	729.12
648.104	767.42
648.551	785.52
648.999	840.92
649.446	919.42
649.893	997.22
650.34	1144.42
650.787	1356.52
651.234	1677.52
651.682	2151.12
652.129	2924.62
652.576	4146.32
653.023	6043.72
653.47	8189.32
653.917	10142.82
654.363	11685.62
654.81	12880.92
655.257	12231.02
655.704	8086.92
656.151	4878.52
656.598	3208.22
657.044	2289.02
657.491	1781.42
657.938	1445.72
658.385	1228.42
658.831	1064.62
659.278	967.52
659.724	856.52
660.171	803.12
660.618	728.62
661.064	698.22
661.511	684.52
661.957	667.32
662.404	660.42
662.85	667.42
663.296	652.82
663.743	583.42
664.189	566.62
664.635	548.62
665.082	549.82
665.528	550.02
665.974	547.52
666.42	531.02
666.867	527.62
667.313	503.42
667.759	490.02
668.205	472.52
668.651	467.22
669.097	461.82
669.543	469.22
669.989	466.72
670.435	470.22
670.881	466.92
671.327	468.52
671.773	497.72
672.219	515.52
672.665	573.52
673.11	616.72
673.556	670.92
674.002	696.32
674.448	687.32
674.893	582.12
675.339	504.22
675.785	465.92
676.23	434.72
676.676	415.72
677.122	402.32
677.567	395.12
678.013	385.42
678.458	376.22
678.904	374.32
679.349	366.52
679.794	375.72
680.24	370.02
680.685	366.42
681.131	359.82
681.576	370.32
682.021	374.62
682.466	376.42
682.912	368.32
683.357	374.72
683.802	406.02
684.247	433.92
684.692	488.12
685.137	514.92
685.583	564.82
686.028	590.12
686.473	549.22
686.918	468.92
687.363	438.62
687.807	421.52
688.252	383.12
688.697	378.12
689.142	345.72
689.587	351.42
690.032	342.32
690.477	363.12
690.921	372.72
691.366	398.42
691.811	421.62
692.255	457.32
692.7	486.52
693.145	525.52
693.589	745.52
694.034	1199.32
694.478	1640.72
694.923	1856.42
695.367	2415.72
695.812	1262.42
696.256	517.42
696.701	385.42
697.145	363.22
697.59	348.22
698.034	344.62
698.478	345.22
698.922	334.72
699.367	345.12
699.811	347.62
700.255	370.62
700.699	407.72
701.143	437.22
701.588	496.82
702.032	539.32
702.476	545.42
702.92	515.42
703.364	533.02
703.808	681.22
704.252	1105.82
704.696	1556.02
705.14	1769.52
705.584	2265.62
706.027	1132.22
706.471	556.22
706.915	424.92
707.359	372.12
707.803	338.62
708.246	324.02
708.69	325.72
709.134	329.12
709.577	329.42
710.021	328.92
710.465	320.22
710.908	315.42
711.352	308.62
711.795	328.12
712.239	375.02
712.682	410.62
713.126	440.12
713.569	480.22
714.012	379.52
714.456	316.12
714.899	299.12
715.342	292.02
715.786	285.02
716.229	279.82
716.672	267.42
717.115	258.52
717.558	263.72
718.002	266.02
718.445	278.92
718.888	303.52
719.331	297.92
719.774	320.22
720.217	317.62
720.66	295.42
721.103	270.92
721.546	268.22
721.989	256.62
722.432	241.52
722.874	254.52
723.317	241.32
723.76	244.82
724.203	264.32
724.645	330.92
725.088	465.82
725.531	596.52
725.974	684.52
726.416	582.12
726.859	330.62
727.301	265.02
727.744	247.52
728.187	247.22
728.629	253.82
729.071	253.72
729.514	269.12
729.956	290.92
730.399	298.12
730.841	306.02
731.283	283.22
731.726	278.42
732.168	278.72
732.61	289.12
733.053	295.62
733.495	341.12
733.937	371.12
734.379	421.12
734.821	474.32
735.263	587.72
735.705	894.52
736.148	1685.32
736.59	2771.62
737.032	3244.12
737.474	2651.02
737.916	859.52
738.357	461.82
738.799	351.42
739.241	312.82
739.683	303.12
740.125	306.12
740.567	311.92
741.008	332.72
741.45	341.92
741.892	332.82
742.334	369.92
742.775	381.82
743.217	374.22
743.658	285.32
744.1	271.82
744.542	282.82
744.983	333.72
745.425	366.12
745.866	362.32
746.307	297.42
746.749	289.42
747.19	342.02
747.632	489.72
748.073	946.12
748.514	1994.22
748.956	3048.92
749.397	3819.22
749.838	3172.02
750.279	3149.52
750.72	1597.32
751.162	584.62
751.603	345.62
752.044	267.02
752.485	222.62
752.926	214.62
753.367	207.52
753.808	203.02
754.249	194.22
754.69	196.72
755.131	190.32
755.572	190.92
756.013	191.42
756.453	196.62
756.894	198.62
757.335	205.82
757.776	201.62
758.216	211.92
758.657	212.72
759.098	217.62
759.538	241.32
759.979	281.92
760.42	405.22
760.86	752.92
761.301	1968.82
761.741	4762.72
762.182	6846.32
762.622	4829.72
763.063	1404.02
763.503	567.22
763.943	339.02
764.384	286.82
764.824	252.12
765.264	236.42
765.705	214.72
766.145	191.72
766.585	183.22
767.025	175.92
767.465	172.52
767.906	183.02
768.346	201.52
768.786	202.52
769.226	225.92
769.666	328.42
770.106	669.52
770.546	1655.62
770.986	2817.72
771.426	2512.12
771.866	839.52
772.306	344.42
772.745	217.52
773.185	172.72
773.625	174.82
774.065	161.82
774.505	172.72
774.944	217.32
775.384	367.62
775.824	606.92
776.263	585.42
776.703	288.22
777.142	159.82
777.582	142.92
778.021	129.12
778.461	134.62
778.9	135.32
779.34	134.22
779.779	115.72
780.219	115.92
780.658	107.92
781.097	114.82
781.537	121.62
781.976	117.62
782.415	107.12
782.855	108.82
783.294	107.72
783.733	111.92
784.172	105.42
784.611	104.92
785.05	111.52
785.489	110.72
785.928	119.62
786.367	123.32
786.806	122.62
787.245	133.12
787.684	143.32
788.123	152.12
788.562	145.72
789.001	131.62
789.44	130.62
789.879	125.52
790.317	122.32
790.756	137.72
791.195	137.52
791.634	151.12
792.072	214.42
792.511	388.52
792.95	1067.32
793.388	2237.02
793.827	2030.82
794.265	710.42
794.704	299.02
795.142	200.02
795.581	163.52
796.019	142.32
796.458	134.22
796.896	127.22
797.334	139.02
797.773	158.62
798.211	233.82
798.649	470.52
799.087	1079.62
799.526	1695.42
799.964	2135.92
800.402	2139.82
800.84	812.92
801.278	323.62
801.716	201.32
802.154	163.22
802.592	152.12
803.03	148.42
803.468	146.92
803.906	148.22
804.344	156.82
804.782	145.72
805.22	144.82
805.658	139.82
806.096	157.72
806.533	166.22
806.971	193.92
807.409	238.12
807.847	341.82
808.284	710.52
808.722	2001.52
809.16	3497.92
809.597	3354.42
810.035	5769.92
810.472	6148.92
810.91	2216.62
811.347	858.52
811.785	432.72
812.222	278.02
812.66	204.32
813.097	173.62
813.535	151.82
813.972	135.62
814.409	122.32
814.846	119.52
815.284	114.92
815.721	110.12
816.158	111.12
816.595	114.52
817.032	157.42
817.47	187.22
817.907	142.42
818.344	111.62
818.781	108.72
819.218	98.22
819.655	130.82
820.092	202.02
820.529	224.32
820.966	186.52
821.403	129.12
821.839	110.52
822.276	104.82
822.713	124.12
823.15	142.12
823.587	119.02
824.023	158.12
824.46	319.82
824.897	958.72
825.333	1428.02
825.77	622.82
826.206	251.52
826.643	142.52
827.08	104.62
827.516	86.52
827.953	75.72
828.389	81.52
828.825	78.82
829.262	71.92
829.698	70.52
830.135	68.72
830.571	68.52
831.007	64.02
831.443	68.52
831.88	67.52
832.316	62.02
832.752	67.72
833.188	67.82
833.624	68.52
834.06	68.02
834.497	69.62
834.933	72.42
835.369	74.42
835.805	70.62
836.241	75.32
836.677	84.02
837.112	90.32
837.548	110.22
837.984	143.42
838.42	213.52
838.856	521.42
839.292	1618.72
839.727	2442.72
840.163	1145.32
840.599	993.72
841.034	2163.02
841.47	2258.32
841.906	831.02
842.341	351.82
842.777	212.72
843.212	211.52
843.648	193.22
844.083	118.32
844.519	80.82
844.954	76.22
845.39	56.42
845.825	59.02
846.261	61.02
846.696	60.32
847.131	50.22
847.566	57.32
848.002	55.42
848.437	58.92
848.872	66.52
849.307	66.12
849.742	88.42
850.177	188.52
850.613	597.42
851.048	936.42
851.483	408.32
851.918	163.42
852.353	90.22
852.788	56.82
853.223	50.42
853.657	56.72
854.092	53.32
854.527	44.42
854.962	43.02
855.397	45.42
855.832	51.12
856.266	42.62
856.701	41.02
857.136	41.22
857.57	45.12
858.005	53.22
858.44	58.92
858.874	48.42
859.309	60.42
859.743	42.42
860.178	47.52
860.612	43.92
861.047	57.92
861.481	74.22
861.915	81.22
862.35	55.12
862.784	41.32
863.218	41.32
863.653	39.52
864.087	48.52
864.521	57.12
864.955	70.52
865.39	170.72
865.824	185.82
866.258	120.72
866.692	184.42
867.126	201.72
867.56	114.62
867.994	60.32
868.428	43.52
868.862	52.52
869.296	57.02
869.73	66.32
870.164	56.82
870.598	48.72
871.031	39.32
871.465	34.12
871.899	38.22
872.333	21.52
872.766	29.72
873.2	28.62
873.634	30.52
874.067	25.82
874.501	30.32
874.935	42.32
875.368	28.92
875.802	36.72
876.235	27.72
876.669	25.92
877.102	24.32
877.535	28.12
877.969	21.42
878.402	28.92
878.836	16.22
879.269	29.82
879.702	27.72
880.135	24.22
880.569	26.02
881.002	23.02
881.435	26.62
881.868	13.82
882.301	23.52
882.734	16.52
883.167	26.22
883.601	23.12
884.034	21.52
884.467	15.92
884.899	20.42
885.332	19.92
885.765	14.02
886.198	19.12
886.631	18.22
887.064	25.62
887.497	21.22
887.929	21.02
888.362	19.72
888.795	9.52
889.228	17.12
889.66	23.32
890.093	21.42
890.526	17.62
890.958	14.82
891.391	20.02
891.823	26.72
892.256	21.02
892.688	16.32
893.121	17.92
893.553	10.42
893.985	28.92
894.418	16.22
894.85	13.82
895.282	22.72
895.715	16.42
896.147	21.12
896.579	24.92
897.011	19.72
897.444	15.12
897.876	12.12
898.308	19.42
898.74	14.62
899.172	15.82
899.604	23.52
900.036	24.22
900.468	12.72
900.9	19.32
901.332	19.42
901.764	14.32
902.196	17.02
902.628	19.62
903.06	13.82
903.491	36.52
903.923	18.42
904.355	24.02
904.787	23.92
905.218	23.62
905.65	20.02
906.082	14.12
906.513	11.22
906.945	18.92
907.376	9.52
907.808	21.92
908.239	18.82
908.671	23.12
909.102	24.12
909.534	26.62
909.965	50.02
910.397	94.62
910.828	340.92
911.259	500.32
911.691	230.52
912.122	109.52
912.553	51.82
912.984	32.72
913.415	29.92
913.847	31.42
914.278	19.02
914.709	16.22
915.14	23.22
915.571	17.12
916.002	16.52
916.433	22.02
916.864	18.02
917.295	16.22
917.726	25.62
918.157	17.12
918.587	25.02
919.018	20.92
919.449	23.22
919.88	25.52
920.311	38.72
920.741	50.02
921.172	176.42
921.603	160.22
922.033	78.32
922.464	46.62
922.895	23.82
923.325	18.92
923.756	17.52
924.186	14.52
924.617	13.32
925.047	20.92
925.478	15.42
925.908	22.32
926.338	12.22
926.769	11.12
927.199	16.32
927.629	4.52
928.06	12.52
928.49	11.82
928.92	13.92
929.35	11.82
929.78	12.82
930.21	8.82
930.641	8.92
931.071	8.22
931.501	3.22
931.931	12.52
932.361	9.12
932.791	5.02
933.221	1.92
933.651	6.62
934.08	20.62
934.51	29.12
934.94	13.92
935.37	6.62
935.8	16.12
936.229	9.02
936.659	6.52
937.089	-0.48
937.519	17.12
937.948	21.52
938.378	18.22
938.807	9.52
939.237	6.42
939.666	5.02
940.096	-4.18
940.525	0.72
940.955	3.52
941.384	8.32
941.814	-6.88
942.243	-1.48
942.672	3.92
943.102	1.52
943.531	8.42
943.96	6.02
944.39	3.62
944.819	2.32
945.248	2.42
945.677	2.02
946.106	11.42
946.535	5.62
946.964	-0.98
947.393	7.22
947.822	1.32
948.251	-3.98
948.68	1.82
949.109	10.82
949.538	1.92
949.967	-2.28
950.396	0.72
950.825	-5.48
951.254	-0.78
951.682	-6.58
952.111	1.72
952.54	2.92
952.969	0.02
953.397	-8.78
953.826	4.32
954.254	-0.98
954.683	3.32
955.112	-4.48
955.54	-1.58
955.969	-2.18
956.397	-1.58
956.826	-0.68
957.254	3.42
957.682	5.72
958.111	5.12
958.539	-1.78
958.967	-1.48
959.396	-5.38
959.824	2.32
960.252	6.82
960.68	-4.28
961.109	-2.68
961.537	-4.48
961.965	2.32
962.393	3.22
962.821	-4.78
963.249	2.62
963.677	5.02
964.105	1.82
964.533	47.92
964.961	47.32
965.389	21.02
965.817	9.12
966.245	3.82
966.672	1.22
967.1	-4.98
967.528	1.72
967.956	-7.28
968.383	2.02
968.811	-11.48
969.239	-2.48
969.666	-5.08
970.094	2.12
970.522	0.42
970.949	0.62
971.377	-5.18
971.804	-1.78
972.232	0.72
972.659	-0.18
973.087	-0.48
973.514	-4.48
973.941	-3.38
974.369	-0.18
974.796	-0.18
975.223	-3.68
975.651	3.22
976.078	3.22
976.505	0.92
976.932	4.32
977.359	12.92
977.786	15.32
978.214	3.82
978.641	-3.08
979.068	-4.98
979.495	-0.68
979.922	-3.68
980.349	-4.88
980.776	4.52
981.202	-0.78
981.629	7.12
982.056	2.02
982.483	1.32
982.91	4.52
983.337	-10.48
983.763	5.52
984.19	-4.28
984.617	-1.68
985.043	-8.28
985.47	-6.18
985.897	-0.88
986.323	-5.48
986.75	7.82
987.176	-2.88
987.603	-7.08
988.029	-4.18
988.456	-5.58
988.882	0.82
989.308	-4.28
989.735	-6.98
990.161	-2.18
990.587	-10.08
991.014	0.92
991.44	5.52
991.866	-5.68
992.292	-2.08
992.719	-3.48
993.145	-0.88
993.571	-9.78
993.997	-4.48
994.423	-1.98
994.849	-0.08
995.275	-2.48
995.701	2.52
996.127	2.72
996.553	4.42
996.979	-0.38
997.405	-0.58
997.83	-5.48
998.256	0.62
998.682	-2.18
999.108	-5.88
999.534	-3.28
999.959	-4.38
1000.385	-3.98
1000.811	-4.98
1001.236	-10.38
1001.662	-10.78
1002.087	-8.88
1002.513	1.82
1002.938	7.32
1003.364	-6.68
1003.789	-2.08
1004.215	-0.48
1004.64	-4.28
1005.066	1.32
1005.491	5.32
1005.916	1.42
1006.342	-4.18
1006.767	-2.18
1007.192	-3.88
1007.617	-8.18
1008.042	-4.08
1008.468	-2.18
1008.893	-3.48
1009.318	-4.98
1009.743	7.02
1010.168	6.42
1010.593	3.12
1011.018	-8.68
1011.443	-1.78
1011.868	0.82
1012.293	-6.68
1012.718	-5.58
1013.143	0.62
1013.567	0.62
1013.992	-8.18
1014.417	-7.78
1014.842	5.82
1015.267	-6.48
1015.691	-4.18
1016.116	4.72
1016.541	-3.88
1016.965	1.92
1017.39	1.22
1017.814	-2.68
1018.239	0.42
1018.663	-10.38
1019.088	-6.28
1019.512	-6.18
1019.937	-3.88
1020.361	-5.18
1020.785	-11.58
1021.21	-1.28
1021.634	-4.48
1022.058	-1.58
1022.483	4.72
1022.907	-0.68
1023.331	-9.28
1023.755	-0.38
1024.179	-1.08
1024.604	-10.58
1025.028	-3.78
1025.452	-5.58
1025.876	-4.88
1026.3	0.92
1026.724	-9.78
1027.148	-6.18
1027.572	-6.08
1027.996	-1.98
1028.42	-2.38
1028.843	-6.48
1029.267	-4.98
1029.691	-3.28
1030.115	-10.18
1030.539	-6.08
1030.962	-8.58
1031.386	-8.48
1031.81	-5.68
1032.233	-2.48
1032.657	-0.68
1033.08	1.82
1033.504	-3.38
1033.927	-5.58
1034.351	-0.68
1034.774	-10.78
1035.198	-2.58
1035.621	-3.58
1036.045	-6.88
1036.468	1.02
1036.891	-6.68
1037.315	-10.98
1037.738	-8.38
1038.161	-3.58
1038.584	-6.38
1039.008	-6.28
1039.431	-3.98
1039.854	1.02
1040.277	-12.98
1040.7	-9.58
1041.123	-1.18
1041.546	-5.78
1041.969	-1.28
1042.392	-6.78
1042.815	-8.18
1043.238	1.42
1043.661	0.92
1044.084	-8.28
1044.507	-3.28
1044.93	-7.08
1045.352	-9.18
1045.775	-3.98
1046.198	-7.18
1046.621	-3.48
1047.043	-2.98
1047.466	3.12
1047.889	-3.48
1048.311	-1.78
1048.734	-4.18
1049.156	-3.88
1049.579	0.72
1050.001	-5.68
1050.424	-1.68
1050.846	-3.18
1051.269	3.52
1051.691	-5.18
1052.113	-4.78
1052.536	-6.08
1052.958	-2.58
1053.38	-3.98
1053.802	-10.28
1054.225	-1.68
1054.647	-6.48
1055.069	-2.18
1055.491	1.02
1055.913	-7.08
1056.335	-4.48
1056.757	-3.68
1057.179	-5.58
1057.601	-8.68
1058.023	-4.38
1058.445	-1.98
1058.867	0.12
1059.289	-2.88
1059.711	-6.28
1060.133	-4.38
1060.555	-3.78
1060.976	-2.68
1061.398	-11.48
1061.82	-5.78
1062.241	-11.28
1062.663	-7.58
1063.085	-4.68
1063.506	2.72
1063.928	-1.68
1064.35	3.02
1064.771	-15.28
1065.193	-4.88
1065.614	-12.58
1066.035	3.52
1066.457	-0.78
1066.878	-3.08
1067.3	-4.88
1067.721	-6.88
1068.142	-7.78
1068.564	-7.28
1068.985	-7.58
1069.406	-5.88
1069.827	-6.28
1070.248	-7.08
1070.67	-6.68
1071.091	-3.18
1071.512	-3.88
1071.933	-4.28
1072.354	-7.48
1072.775	-5.58
1073.196	-6.18
1073.617	-1.78
1074.038	-5.48
1074.459	-1.28
1074.88	-6.48
1075.3	-5.08
1075.721	-4.08
1076.142	-0.98
1076.563	-4.98
1076.983	-13.98
1077.404	-8.88
1077.825	-10.18
1078.246	-3.88
1078.666	-8.28
1079.087	-5.18
1079.507	-9.78
1079.928	-4.28
1080.348	-0.88
1080.769	-7.58
1081.189	-0.38
1081.61	-5.08
1082.03	-4.38
1082.451	-10.18
1082.871	-3.88
1083.291	-9.58
1083.711	-13.28
1084.132	-8.98
1084.552	-5.58
1084.972	-1.08
1085.392	-6.88
1085.813	-9.08
1086.233	-6.38
1086.653	-6.38
1087.073	0.12
1087.493	-8.48
1087.913	-3.88
1088.333	-5.08
1088.753	-6.38
1089.173	-0.78
1089.593	-1.18
1090.013	3.02
1090.433	0.42
1090.852	-5.58
1091.272	-3.18
1091.692	0.02
1092.112	0.62
1092.531	-9.18
1092.951	-8.68
1093.371	-3.08
1093.79	4.52
1094.21	-9.08
1094.63	-6.78
1095.049	-2.78
1095.469	-0.38
1095.888	-0.68
1096.308	0.62
1096.727	4.82
1097.146	-6.78
1097.566	1.62
1097.985	-5.78
1098.405	2.92
1098.824	-12.38
1099.243	-4.68
1099.662	-9.18
1100.082	1.72
1100.501	-3.58
1100.92	-6.78
1101.339	-7.08
1101.758	-9.38
