Data from 20171114-ORNL-Ar_H_NY_Subt18_08-06-45-029.txt Node
Date: Tue Nov 14 08:06:45 EST 2017
User: Ender
Spectrometer: HR+D1039
Trigger mode: 0
Integration Time (sec): 2.730000E-2
Scans to average: 10
Electric dark correction enabled: true
Nonlinearity correction enabled: false
Boxcar width: 0
XAxis mode: Wavelengths
Number of Pixels in Spectrum: 2048
>>>>>Begin Spectral Data<<<<<
187.836	-0.69
188.309	-0.69
188.782	-0.69
189.255	-1.19
189.728	3.11
190.201	7.91
190.674	4.01
191.147	3.71
191.619	-9.69
192.092	-2.59
192.565	1.41
193.038	0.11
193.511	1.51
193.984	3.21
194.456	-1.09
194.929	0.61
195.402	-3.79
195.874	-6.59
196.347	3.01
196.82	-8.29
197.292	7.31
197.765	0.11
198.237	-5.59
198.71	2.91
199.182	-0.49
199.655	0.71
200.127	0.01
200.6	-1.59
201.072	-5.39
201.544	-4.99
202.017	-3.99
202.489	4.81
202.961	-2.49
203.433	-8.99
203.906	-7.09
204.378	-12.19
204.85	-8.69
205.322	-6.39
205.794	-4.29
206.266	-7.29
206.739	-9.99
207.211	3.61
207.683	-6.39
208.155	-1.89
208.627	-14.49
209.099	-4.09
209.57	-12.19
210.042	-3.19
210.514	-5.79
210.986	-2.39
211.458	-14.99
211.93	-4.99
212.402	1.31
212.873	-3.39
213.345	-5.99
213.817	-10.19
214.288	-4.49
214.76	-6.49
215.232	-6.09
215.703	-2.69
216.175	-3.59
216.646	-6.69
217.118	-9.49
217.589	-0.79
218.061	-1.29
218.532	-7.39
219.004	0.21
219.475	-4.69
219.946	-5.19
220.418	-4.99
220.889	-0.29
221.36	-0.99
221.832	-3.99
222.303	-12.09
222.774	-5.59
223.245	-10.09
223.717	-7.09
224.188	-3.29
224.659	-11.39
225.13	-7.39
225.601	-0.79
226.072	1.81
226.543	0.11
227.014	1.01
227.485	-3.19
227.956	-2.69
228.427	-1.09
228.898	-5.49
229.369	1.01
229.839	-3.69
230.31	-3.89
230.781	4.41
231.252	-4.09
231.722	-5.19
232.193	-2.69
232.664	-4.29
233.135	-2.29
233.605	-2.49
234.076	-6.09
234.546	-1.29
235.017	4.21
235.487	-2.49
235.958	-3.89
236.428	-4.59
236.899	-7.09
237.369	-4.19
237.84	-5.29
238.31	2.51
238.78	-6.49
239.251	-10.39
239.721	-8.39
240.191	-7.09
240.662	-2.19
241.132	2.31
241.602	-2.69
242.072	-1.49
242.542	7.51
243.013	-1.89
243.483	-3.49
243.953	0.21
244.423	-5.29
244.893	-4.59
245.363	1.91
245.833	-3.39
246.303	1.11
246.773	2.41
247.243	-0.89
247.712	2.11
248.182	1.51
248.652	2.21
249.122	-7.89
249.592	1.41
250.061	-0.19
250.531	8.11
251.001	-2.09
251.471	6.31
251.94	6.21
252.41	1.61
252.879	-1.49
253.349	8.41
253.818	1.91
254.288	6.21
254.757	-0.59
255.227	-1.69
255.696	0.51
256.166	-0.79
256.635	-3.59
257.105	1.11
257.574	-2.59
258.043	-0.29
258.513	-3.69
258.982	8.71
259.451	0.71
259.92	0.41
260.389	-2.99
260.859	11.11
261.328	-2.79
261.797	5.21
262.266	-0.79
262.735	10.31
263.204	4.91
263.673	-1.89
264.142	6.41
264.611	-3.29
265.08	-6.29
265.549	-5.69
266.018	3.71
266.487	-2.39
266.955	-1.29
267.424	1.01
267.893	5.41
268.362	0.81
268.83	2.51
269.299	11.41
269.768	2.51
270.236	4.41
270.705	-1.79
271.174	0.71
271.642	4.81
272.111	5.11
272.579	1.81
273.048	3.71
273.516	5.21
273.985	7.51
274.453	9.21
274.922	22.21
275.39	3.61
275.858	-0.39
276.327	8.71
276.795	12.21
277.263	2.41
277.731	9.41
278.2	7.41
278.668	14.11
279.136	16.51
279.604	1.61
280.072	13.61
280.54	12.71
281.008	9.81
281.477	11.91
281.945	11.41
282.413	12.31
282.881	13.71
283.348	6.51
283.816	14.41
284.284	11.21
284.752	18.81
285.22	11.01
285.688	11.51
286.156	11.61
286.623	17.41
287.091	14.01
287.559	16.21
288.026	11.81
288.494	12.71
288.962	6.71
289.429	11.41
289.897	15.41
290.364	12.41
290.832	15.41
291.3	16.61
291.767	14.41
292.234	17.61
292.702	8.71
293.169	18.31
293.637	23.01
294.104	19.51
294.571	13.21
295.039	6.71
295.506	16.31
295.973	10.21
296.44	14.21
296.908	16.31
297.375	17.01
297.842	15.91
298.309	15.71
298.776	14.71
299.243	19.61
299.71	13.21
300.177	20.71
300.644	19.51
301.111	13.11
301.578	19.71
302.045	11.91
302.512	21.51
302.979	19.71
303.446	18.41
303.913	19.01
304.379	20.41
304.846	27.11
305.313	27.81
305.78	22.61
306.246	18.11
306.713	29.01
307.18	27.11
307.646	23.01
308.113	28.01
308.579	22.31
309.046	23.31
309.512	26.01
309.979	18.31
310.445	22.81
310.912	26.71
311.378	32.81
311.845	30.81
312.311	28.51
312.777	30.51
313.244	32.51
313.71	36.51
314.176	24.01
314.642	32.71
315.109	26.51
315.575	33.01
316.041	37.71
316.507	29.71
316.973	31.11
317.439	27.91
317.905	35.91
318.371	35.21
318.837	30.71
319.303	30.61
319.769	36.91
320.235	32.31
320.701	35.51
321.167	34.41
321.633	33.81
322.099	38.11
322.564	37.01
323.03	34.81
323.496	31.21
323.962	41.31
324.427	34.91
324.893	43.31
325.359	37.61
325.824	32.61
326.29	35.41
326.755	37.31
327.221	40.81
327.686	37.01
328.152	41.51
328.617	40.91
329.083	51.51
329.548	42.71
330.014	46.11
330.479	36.81
330.944	41.91
331.41	44.31
331.875	45.11
332.34	40.41
332.805	38.71
333.271	39.91
333.736	40.81
334.201	53.11
334.666	49.01
335.131	53.41
335.596	44.01
336.061	44.51
336.526	42.21
336.991	48.21
337.456	48.61
337.921	47.81
338.386	40.51
338.851	43.51
339.316	49.01
339.781	46.11
340.246	49.41
340.711	47.61
341.175	52.31
341.64	48.91
342.105	53.11
342.569	54.41
343.034	57.61
343.499	53.41
343.963	59.11
344.428	63.51
344.893	66.41
345.357	62.31
345.822	63.91
346.286	67.41
346.751	69.21
347.215	67.51
347.679	72.51
348.144	95.81
348.608	78.61
349.073	69.41
349.537	71.81
350.001	79.61
350.465	91.31
350.93	78.81
351.394	85.61
351.858	73.71
352.322	85.31
352.786	81.91
353.25	100.91
353.715	115.41
354.179	100.91
354.643	118.31
355.107	124.21
355.571	104.21
356.035	101.61
356.498	112.91
356.962	118.71
357.426	124.41
357.89	113.91
358.354	84.51
358.818	84.31
359.281	82.11
359.745	84.01
360.209	80.31
360.673	71.91
361.136	80.51
361.6	81.41
362.064	82.71
362.527	83.31
362.991	97.61
363.454	87.21
363.918	76.41
364.381	76.21
364.845	86.01
365.308	88.11
365.772	94.41
366.235	89.21
366.698	86.71
367.162	94.71
367.625	90.81
368.088	94.31
368.552	93.51
369.015	84.51
369.478	101.11
369.941	99.81
370.404	93.31
370.867	102.71
371.331	103.01
371.794	109.61
372.257	98.91
372.72	108.01
373.183	100.91
373.646	91.41
374.109	98.21
374.572	105.61
375.035	95.81
375.497	110.31
375.96	113.71
376.423	104.71
376.886	111.51
377.349	111.31
377.811	107.31
378.274	107.91
378.737	104.21
379.199	109.61
379.662	113.11
380.125	112.71
380.587	107.61
381.05	108.71
381.512	113.61
381.975	116.71
382.437	117.71
382.9	124.31
383.362	127.91
383.825	138.01
384.287	132.11
384.75	118.51
385.212	132.41
385.674	137.21
386.136	129.81
386.599	129.81
387.061	128.01
387.523	125.91
387.985	129.31
388.447	140.11
388.91	133.81
389.372	134.31
389.834	141.51
390.296	129.31
390.758	138.01
391.22	149.31
391.682	150.01
392.144	159.01
392.606	151.01
393.068	154.01
393.529	157.81
393.991	141.51
394.453	136.71
394.915	141.31
395.377	137.61
395.838	140.81
396.3	143.81
396.762	144.81
397.224	141.81
397.685	139.21
398.147	141.91
398.608	133.91
399.07	135.01
399.531	140.11
399.993	151.81
400.454	153.71
400.916	160.91
401.377	158.71
401.839	163.01
402.3	162.01
402.762	173.31
403.223	177.31
403.684	179.61
404.145	171.21
404.607	172.51
405.068	167.31
405.529	175.81
405.99	203.01
406.451	184.31
406.913	189.81
407.374	174.91
407.835	170.71
408.296	176.91
408.757	187.41
409.218	188.01
409.679	190.01
410.14	185.91
410.601	191.31
411.062	189.31
411.522	187.91
411.983	189.31
412.444	188.31
412.905	193.51
413.366	195.31
413.826	210.71
414.287	239.61
414.748	288.21
415.208	265.41
415.669	225.81
416.13	219.31
416.59	215.11
417.051	239.51
417.511	237.61
417.972	258.61
418.432	261.91
418.893	307.61
419.353	270.51
419.814	212.61
420.274	197.91
420.734	196.11
421.195	206.71
421.655	203.41
422.115	208.31
422.576	208.81
423.036	216.61
423.496	228.41
423.956	236.11
424.416	248.61
424.876	286.31
425.336	280.11
425.797	280.61
426.257	279.91
426.717	262.81
427.177	248.01
427.637	236.01
428.097	243.31
428.556	260.71
429.016	280.01
429.476	273.61
429.936	285.11
430.396	288.41
430.856	304.51
431.315	321.01
431.775	364.31
432.235	399.91
432.694	370.61
433.154	376.91
433.614	400.41
434.073	353.91
434.533	300.61
434.993	283.81
435.452	289.41
435.912	310.71
436.371	298.81
436.83	289.81
437.29	278.41
437.749	266.81
438.209	267.81
438.668	292.61
439.127	307.51
439.587	278.71
440.046	268.81
440.505	281.51
440.964	302.71
441.424	337.81
441.883	329.01
442.342	280.01
442.801	243.81
443.26	245.51
443.719	241.71
444.178	235.71
444.637	229.71
445.096	236.71
445.555	236.21
446.014	247.51
446.473	247.31
446.932	250.81
447.391	248.61
447.849	255.21
448.308	239.01
448.767	238.81
449.226	265.01
449.685	263.41
450.143	279.71
450.602	257.61
451.061	259.71
451.519	250.91
451.978	256.71
452.436	258.51
452.895	264.81
453.353	278.21
453.812	266.11
454.27	257.01
454.729	261.21
455.187	264.81
455.646	270.91
456.104	269.41
456.562	284.41
457.021	288.41
457.479	281.51
457.937	296.61
458.395	287.71
458.854	271.01
459.312	284.51
459.77	296.41
460.228	277.51
460.686	269.41
461.144	273.81
461.602	272.21
462.06	273.71
462.518	273.81
462.976	273.31
463.434	282.91
463.892	295.91
464.35	303.51
464.808	314.91
465.266	296.61
465.724	293.81
466.181	298.21
466.639	291.01
467.097	318.21
467.555	341.71
468.012	332.31
468.47	342.51
468.928	364.31
469.385	364.11
469.843	381.51
470.3	379.61
470.758	394.41
471.215	418.11
471.673	439.81
472.13	453.01
472.588	446.91
473.045	411.01
473.503	405.21
473.96	431.31
474.417	441.11
474.875	468.01
475.332	508.71
475.789	498.71
476.246	511.51
476.704	524.21
477.161	539.41
477.618	565.51
478.075	600.31
478.532	659.41
478.989	734.51
479.446	839.61
479.903	804.41
480.36	830.41
480.817	890.31
481.274	985.21
481.731	1089.51
482.188	1169.61
482.645	1287.71
483.102	1390.31
483.558	1512.51
484.015	1553.71
484.472	1512.61
484.929	1481.61
485.385	1436.61
485.842	1417.81
486.299	1355.71
486.755	1319.91
487.212	1108.11
487.668	947.21
488.125	888.81
488.582	825.61
489.038	783.31
489.494	750.11
489.951	730.81
490.407	717.31
490.864	698.91
491.32	692.61
491.776	698.11
492.233	694.01
492.689	657.41
493.145	655.51
493.602	638.71
494.058	655.61
494.514	663.31
494.97	687.31
495.426	694.41
495.882	670.41
496.338	658.51
496.794	672.91
497.251	664.91
497.707	676.91
498.163	689.41
498.618	693.71
499.074	692.81
499.53	731.71
499.986	728.51
500.442	695.51
500.898	666.01
501.354	671.21
501.809	677.11
502.265	677.91
502.721	687.71
503.177	693.11
503.632	695.71
504.088	691.31
504.543	726.71
504.999	746.41
505.455	705.31
505.91	699.01
506.366	696.81
506.821	689.51
507.277	679.91
507.732	681.41
508.187	683.41
508.643	693.21
509.098	689.81
509.553	715.61
510.009	725.21
510.464	732.21
510.919	742.31
511.375	749.31
511.83	768.21
512.285	784.31
512.74	829.11
513.195	850.51
513.65	830.71
514.105	836.61
514.56	832.51
515.015	859.01
515.47	859.21
515.925	855.01
516.38	853.61
516.835	853.81
517.29	844.11
517.745	842.71
518.2	825.91
518.655	826.01
519.109	807.41
519.564	800.41
520.019	795.41
520.474	781.71
520.928	791.61
521.383	775.71
521.838	772.11
522.292	772.91
522.747	765.51
523.201	760.81
523.656	752.51
524.11	745.61
524.565	760.31
525.019	759.11
525.474	761.81
525.928	755.71
526.382	747.81
526.837	751.71
527.291	766.11
527.745	766.11
528.2	762.01
528.654	752.61
529.108	751.81
529.562	744.11
530.016	743.01
530.47	747.31
530.925	739.71
531.379	758.31
531.833	758.71
532.287	758.11
532.741	759.41
533.195	760.21
533.649	766.31
534.103	789.21
534.556	777.01
535.01	765.91
535.464	768.01
535.918	765.21
536.372	776.51
536.826	775.31
537.279	762.21
537.733	773.31
538.187	766.51
538.64	778.51
539.094	771.41
539.548	774.21
540.001	789.91
540.455	782.31
540.908	786.61
541.362	786.51
541.815	802.21
542.269	816.31
542.722	826.31
543.175	843.81
543.629	846.61
544.082	839.81
544.536	849.41
544.989	847.51
545.442	861.01
545.895	863.41
546.349	859.71
546.802	849.41
547.255	865.61
547.708	874.11
548.161	886.01
548.614	887.11
549.067	893.91
549.52	889.61
549.973	882.31
550.426	880.11
550.879	871.41
551.332	874.01
551.785	874.11
552.238	871.31
552.691	885.41
553.144	898.51
553.596	924.01
554.049	929.91
554.502	968.81
554.955	992.31
555.407	981.01
555.86	965.21
556.313	963.91
556.765	957.41
557.218	950.11
557.67	951.31
558.123	949.21
558.576	941.91
559.028	954.31
559.48	959.01
559.933	942.91
560.385	910.81
560.838	877.51
561.29	842.61
561.742	842.31
562.195	842.31
562.647	832.11
563.099	832.31
563.551	832.81
564.004	851.21
564.456	823.61
564.908	822.21
565.36	815.41
565.812	786.41
566.264	787.61
566.716	763.91
567.168	757.11
567.62	756.51
568.072	747.61
568.524	751.01
568.976	741.11
569.428	723.71
569.88	733.81
570.332	730.81
570.784	730.21
571.235	742.91
571.687	746.91
572.139	759.21
572.59	768.91
573.042	774.71
573.494	764.61
573.945	764.01
574.397	743.11
574.849	747.31
575.3	753.01
575.752	741.91
576.203	739.81
576.655	738.81
577.106	724.61
577.557	722.11
578.009	722.61
578.46	711.71
578.912	722.91
579.363	720.51
579.814	717.61
580.265	714.51
580.717	725.81
581.168	718.21
581.619	729.91
582.07	732.91
582.521	731.61
582.972	729.11
583.423	720.51
583.875	725.21
584.326	731.11
584.777	755.71
585.227	780.21
585.678	786.11
586.129	807.71
586.58	821.71
587.031	847.81
587.482	888.61
587.933	906.71
588.384	886.61
588.834	841.31
589.285	829.21
589.736	832.31
590.186	838.81
590.637	819.81
591.088	797.71
591.538	800.01
591.989	777.11
592.439	777.41
592.89	768.81
593.34	756.51
593.791	756.31
594.241	752.41
594.692	752.41
595.142	746.11
595.593	740.61
596.043	750.61
596.493	751.61
596.943	753.51
597.394	765.61
597.844	763.21
598.294	783.01
598.744	807.61
599.195	833.51
599.645	894.41
600.095	922.01
600.545	983.11
600.995	1031.81
601.445	1078.91
601.895	1144.71
602.345	1212.61
602.795	1189.91
603.245	1152.71
603.695	1092.51
604.145	1026.81
604.594	990.21
605.044	922.21
605.494	882.61
605.944	814.21
606.393	797.91
606.843	782.21
607.293	782.71
607.743	776.11
608.192	784.41
608.642	801.81
609.091	802.01
609.541	805.01
609.99	818.21
610.44	812.31
610.889	759.11
611.339	737.71
611.788	720.61
612.238	733.41
612.687	742.91
613.136	739.41
613.586	753.91
614.035	741.11
614.484	755.81
614.933	753.91
615.383	746.51
615.832	749.71
616.281	745.91
616.73	710.61
617.179	698.91
617.628	683.81
618.077	672.61
618.526	672.11
618.975	650.01
619.424	653.01
619.873	650.21
620.322	656.71
620.771	641.11
621.22	638.11
621.669	634.71
622.118	626.41
622.567	618.11
623.015	599.91
623.464	605.31
623.913	603.31
624.361	585.81
624.81	578.91
625.259	582.31
625.707	581.41
626.156	593.41
626.604	605.31
627.053	596.31
627.501	603.41
627.95	606.01
628.398	613.81
628.847	606.91
629.295	597.11
629.744	605.21
630.192	605.11
630.64	588.41
631.089	579.41
631.537	576.31
631.985	564.71
632.433	563.51
632.881	553.31
633.33	562.21
633.778	554.61
634.226	554.51
634.674	562.61
635.122	571.01
635.57	590.61
636.018	595.61
636.466	584.11
636.914	584.81
637.362	601.41
637.81	612.61
638.258	618.71
638.705	611.01
639.153	633.21
639.601	657.71
640.049	681.21
640.497	715.31
640.944	730.31
641.392	688.21
641.84	646.91
642.287	606.21
642.735	596.61
643.182	595.11
643.63	595.81
644.078	593.51
644.525	611.81
644.973	617.31
645.42	627.61
645.867	644.91
646.315	667.81
646.762	688.11
647.21	715.91
647.657	742.41
648.104	779.81
648.551	794.41
648.999	848.91
649.446	925.71
649.893	1009.21
650.34	1155.21
650.787	1370.31
651.234	1687.61
651.682	2162.31
652.129	2936.11
652.576	4171.31
653.023	6062.41
653.47	8223.71
653.917	10232.81
654.363	11777.51
654.81	13011.81
655.257	12365.11
655.704	8193.31
656.151	4933.61
656.598	3261.81
657.044	2329.31
657.491	1797.51
657.938	1480.41
658.385	1228.01
658.831	1089.91
659.278	975.41
659.724	867.71
660.171	799.91
660.618	734.61
661.064	711.71
661.511	689.91
661.957	679.51
662.404	669.81
662.85	672.41
663.296	632.51
663.743	583.31
664.189	558.51
664.635	559.01
665.082	544.11
665.528	552.91
665.974	541.91
666.42	536.51
666.867	526.81
667.313	512.51
667.759	487.71
668.205	479.51
668.651	477.61
669.097	466.81
669.543	471.31
669.989	469.61
670.435	470.61
670.881	473.91
671.327	476.91
671.773	503.51
672.219	518.21
672.665	572.11
673.11	621.21
673.556	666.71
674.002	712.31
674.448	693.41
674.893	578.01
675.339	508.51
675.785	465.21
676.23	438.21
676.676	418.51
677.122	410.11
677.567	392.11
678.013	395.21
678.458	378.61
678.904	382.31
679.349	370.61
679.794	379.31
680.24	370.01
680.685	370.41
681.131	373.51
681.576	374.91
682.021	376.71
682.466	369.71
682.912	368.11
683.357	373.01
683.802	405.51
684.247	431.21
684.692	482.81
685.137	533.31
685.583	568.81
686.028	600.01
686.473	549.91
686.918	474.51
687.363	437.51
687.807	410.61
688.252	387.51
688.697	371.21
689.142	360.41
689.587	354.51
690.032	346.31
690.477	373.41
690.921	377.01
691.366	409.71
691.811	428.61
692.255	458.71
692.7	487.91
693.145	529.31
693.589	739.01
694.034	1202.91
694.478	1640.21
694.923	1847.41
695.367	2425.81
695.812	1269.11
696.256	533.41
696.701	390.81
697.145	361.61
697.59	355.71
698.034	331.91
698.478	338.91
698.922	336.91
699.367	347.01
699.811	355.71
700.255	370.31
700.699	407.51
701.143	444.41
701.588	497.41
702.032	547.31
702.476	542.01
702.92	517.41
703.364	528.31
703.808	690.81
704.252	1100.31
704.696	1550.51
705.14	1783.11
705.584	2271.51
706.027	1131.81
706.471	555.91
706.915	423.51
707.359	364.31
707.803	340.91
708.246	333.31
708.69	331.71
709.134	332.91
709.577	338.91
710.021	332.61
710.465	313.71
710.908	320.71
711.352	323.01
711.795	334.71
712.239	374.81
712.682	405.21
713.126	437.71
713.569	487.81
714.012	378.31
714.456	312.61
714.899	304.21
715.342	288.71
715.786	274.61
716.229	278.31
716.672	270.41
717.115	260.31
717.558	267.91
718.002	261.41
718.445	275.01
718.888	300.11
719.331	307.01
719.774	333.01
720.217	324.51
720.66	300.01
721.103	280.41
721.546	271.71
721.989	265.61
722.432	247.51
722.874	254.41
723.317	243.41
723.76	249.81
724.203	267.21
724.645	331.71
725.088	462.41
725.531	596.41
725.974	690.11
726.416	587.21
726.859	327.61
727.301	263.81
727.744	249.01
728.187	245.91
728.629	253.31
729.071	258.31
729.514	268.01
729.956	281.21
730.399	297.21
730.841	301.51
731.283	287.01
731.726	288.11
732.168	279.31
732.61	282.81
733.053	296.31
733.495	329.31
733.937	382.51
734.379	427.61
734.821	463.91
735.263	573.61
735.705	891.51
736.148	1685.21
736.59	2762.81
737.032	3271.11
737.474	2645.71
737.916	862.71
738.357	460.41
738.799	345.61
739.241	318.51
739.683	306.01
740.125	309.21
740.567	318.81
741.008	340.81
741.45	339.61
741.892	336.51
742.334	372.81
742.775	385.31
743.217	366.81
743.658	292.61
744.1	275.41
744.542	282.81
744.983	333.51
745.425	365.51
745.866	369.51
746.307	298.61
746.749	294.41
747.19	346.01
747.632	484.71
748.073	941.21
748.514	1987.81
748.956	3037.21
749.397	3815.11
749.838	3160.41
750.279	3158.01
750.72	1601.61
751.162	589.41
751.603	347.51
752.044	272.11
752.485	229.51
752.926	220.41
753.367	217.51
753.808	204.71
754.249	198.01
754.69	203.71
755.131	195.71
755.572	193.11
756.013	199.21
756.453	193.71
756.894	197.61
757.335	204.31
757.776	203.71
758.216	209.41
758.657	207.71
759.098	218.51
759.538	245.11
759.979	285.11
760.42	401.81
760.86	753.31
761.301	1959.61
761.741	4760.51
762.182	6865.61
762.622	4872.61
763.063	1403.21
763.503	574.51
763.943	342.81
764.384	291.11
764.824	268.41
765.264	259.31
765.705	229.61
766.145	195.41
766.585	181.81
767.025	180.21
767.465	172.51
767.906	194.91
768.346	208.11
768.786	221.91
769.226	227.01
769.666	329.81
770.106	658.71
770.546	1651.51
770.986	2807.41
771.426	2523.01
771.866	837.41
772.306	346.61
772.745	213.81
773.185	179.51
773.625	182.71
774.065	162.71
774.505	169.21
774.944	221.11
775.384	378.41
775.824	628.41
776.263	601.21
776.703	297.91
777.142	164.41
777.582	143.31
778.021	132.71
778.461	129.31
778.9	130.11
779.34	131.61
779.779	118.01
780.219	109.91
780.658	109.01
781.097	113.61
781.537	115.41
781.976	112.81
782.415	114.51
782.855	107.71
783.294	108.91
783.733	105.41
784.172	110.61
784.611	107.81
785.05	114.71
785.489	119.91
785.928	123.41
786.367	123.91
786.806	120.61
787.245	138.21
787.684	142.31
788.123	150.91
788.562	140.11
789.001	133.41
789.44	127.01
789.879	128.01
790.317	128.61
790.756	128.11
791.195	136.21
791.634	153.71
792.072	216.51
792.511	393.01
792.95	1069.11
793.388	2255.51
793.827	2029.01
794.265	713.81
794.704	298.31
795.142	191.71
795.581	160.81
796.019	145.61
796.458	136.91
796.896	127.71
797.334	138.91
797.773	164.51
798.211	229.41
798.649	465.41
799.087	1082.01
799.526	1718.41
799.964	2157.31
800.402	2132.11
800.84	811.41
801.278	318.61
801.716	201.61
802.154	167.71
802.592	163.21
803.03	151.01
803.468	142.71
803.906	154.11
804.344	155.01
804.782	149.21
805.22	147.41
805.658	131.31
806.096	157.41
806.533	167.81
806.971	180.71
807.409	228.01
807.847	334.41
808.284	708.11
808.722	1990.81
809.16	3509.11
809.597	3355.51
810.035	5795.11
810.472	6165.51
810.91	2231.61
811.347	856.51
811.785	430.51
812.222	280.31
812.66	212.11
813.097	174.51
813.535	149.71
813.972	141.71
814.409	126.11
814.846	117.01
815.284	114.41
815.721	107.31
816.158	113.01
816.595	117.71
817.032	163.91
817.47	192.21
817.907	151.91
818.344	104.41
818.781	107.51
819.218	103.01
819.655	134.41
820.092	200.11
820.529	226.41
820.966	192.61
821.403	142.61
821.839	105.51
822.276	103.31
822.713	131.41
823.15	142.71
823.587	120.01
824.023	156.11
824.46	321.91
824.897	958.31
825.333	1439.01
825.77	618.51
826.206	244.41
826.643	144.41
827.08	108.11
827.516	94.41
827.953	83.51
828.389	81.01
828.825	76.71
829.262	66.91
829.698	73.11
830.135	64.91
830.571	63.31
831.007	67.31
831.443	65.31
831.88	64.41
832.316	65.91
832.752	64.51
833.188	64.91
833.624	70.91
834.06	67.61
834.497	73.01
834.933	78.21
835.369	76.81
835.805	72.91
836.241	79.51
836.677	88.61
837.112	95.41
837.548	116.51
837.984	135.51
838.42	212.91
838.856	520.51
839.292	1607.81
839.727	2452.01
840.163	1154.31
840.599	983.71
841.034	2167.41
841.47	2263.61
841.906	828.61
842.341	349.51
842.777	212.61
843.212	212.01
843.648	195.81
844.083	108.71
844.519	87.91
844.954	80.51
845.39	66.81
845.825	56.81
846.261	60.91
846.696	57.31
847.131	58.81
847.566	64.81
848.002	55.41
848.437	55.21
848.872	65.51
849.307	62.71
849.742	89.01
850.177	189.51
850.613	591.51
851.048	942.81
851.483	403.71
851.918	163.31
852.353	89.31
852.788	54.81
853.223	53.31
853.657	53.81
854.092	54.41
854.527	42.31
854.962	45.91
855.397	50.61
855.832	49.91
856.266	51.91
856.701	42.81
857.136	39.91
857.57	38.61
858.005	56.31
858.44	62.31
858.874	46.71
859.309	48.01
859.743	40.21
860.178	52.11
860.612	44.81
861.047	57.31
861.481	76.01
861.915	77.31
862.35	49.61
862.784	31.41
863.218	35.81
863.653	35.11
864.087	47.51
864.521	50.21
864.955	71.01
865.39	163.31
865.824	188.71
866.258	126.61
866.692	184.81
867.126	195.21
867.56	118.61
867.994	58.61
868.428	41.61
868.862	55.21
869.296	62.11
869.73	60.01
870.164	59.31
870.598	56.81
871.031	49.01
871.465	34.71
871.899	37.11
872.333	27.11
872.766	26.11
873.2	26.11
873.634	33.51
874.067	30.21
874.501	25.51
874.935	31.31
875.368	30.21
875.802	33.41
876.235	27.61
876.669	24.31
877.102	24.91
877.535	28.71
877.969	24.61
878.402	23.91
878.836	16.11
879.269	25.61
879.702	23.61
880.135	22.41
880.569	25.41
881.002	22.61
881.435	19.61
881.868	18.41
882.301	26.61
882.734	20.31
883.167	21.31
883.601	19.01
884.034	21.41
884.467	20.31
884.899	21.91
885.332	19.61
885.765	21.71
886.198	14.91
886.631	17.61
887.064	20.11
887.497	25.31
887.929	27.11
888.362	11.21
888.795	16.81
889.228	24.51
889.66	22.51
890.093	15.31
890.526	22.41
890.958	16.31
891.391	18.01
891.823	19.61
892.256	18.11
892.688	15.71
893.121	20.51
893.553	16.21
893.985	24.31
894.418	19.41
894.85	16.41
895.282	15.91
895.715	17.91
896.147	19.21
896.579	15.71
897.011	12.51
897.444	15.81
897.876	15.11
898.308	14.61
898.74	6.91
899.172	18.31
899.604	29.61
900.036	19.01
900.468	17.91
900.9	13.71
901.332	19.51
901.764	15.01
902.196	20.11
902.628	19.51
903.06	17.71
903.491	32.81
903.923	23.71
904.355	17.71
904.787	22.91
905.218	20.81
905.65	15.11
906.082	18.21
906.513	17.11
906.945	15.11
907.376	20.41
907.808	24.61
908.239	18.51
908.671	23.81
909.102	23.41
909.534	30.81
909.965	59.11
910.397	95.21
910.828	340.61
911.259	499.31
911.691	227.11
912.122	111.11
912.553	55.11
912.984	37.01
913.415	28.51
913.847	19.11
914.278	16.31
914.709	10.51
915.14	15.91
915.571	26.71
916.002	13.31
916.433	17.41
916.864	14.81
917.295	14.01
917.726	18.21
918.157	22.81
918.587	32.61
919.018	22.71
919.449	21.71
919.88	15.91
920.311	26.81
920.741	51.91
921.172	173.91
921.603	162.61
922.033	75.21
922.464	45.61
922.895	26.81
923.325	21.11
923.756	9.11
924.186	12.81
924.617	21.11
925.047	19.91
925.478	22.41
925.908	22.61
926.338	11.91
926.769	14.51
927.199	22.41
927.629	10.51
928.06	17.41
928.49	16.11
928.92	12.91
929.35	12.31
929.78	15.71
930.21	8.81
930.641	9.81
931.071	9.41
931.501	-1.29
931.931	11.11
932.361	7.51
932.791	7.51
933.221	8.41
933.651	7.21
934.08	20.31
934.51	29.01
934.94	12.51
935.37	14.41
935.8	12.51
936.229	8.81
936.659	13.51
937.089	6.31
937.519	16.41
937.948	26.41
938.378	21.81
938.807	6.21
939.237	3.21
939.666	10.21
940.096	1.21
940.525	-1.19
940.955	4.31
941.384	6.91
941.814	0.31
942.243	1.11
942.672	3.11
943.102	-4.29
943.531	2.81
943.96	8.21
944.39	-0.69
944.819	7.21
945.248	1.71
945.677	5.81
946.106	3.71
946.535	5.71
946.964	6.11
947.393	3.91
947.822	2.01
948.251	1.21
948.68	6.51
949.109	4.81
949.538	5.91
949.967	4.11
950.396	3.01
950.825	-0.59
951.254	-0.49
951.682	-9.89
952.111	5.11
952.54	8.21
952.969	-1.99
953.397	-12.19
953.826	-0.69
954.254	-4.19
954.683	3.01
955.112	4.41
955.54	1.51
955.969	-2.09
956.397	2.31
956.826	0.11
957.254	11.01
957.682	7.21
958.111	5.81
958.539	-0.29
958.967	0.91
959.396	-2.19
959.824	5.61
960.252	-0.29
960.68	-2.69
961.109	-3.69
961.537	1.01
961.965	1.11
962.393	1.21
962.821	-0.09
963.249	3.41
963.677	4.21
964.105	5.61
964.533	54.01
964.961	44.51
965.389	22.91
965.817	9.51
966.245	3.11
966.672	5.91
967.1	-3.79
967.528	-0.29
967.956	-1.99
968.383	1.81
968.811	-1.09
969.239	4.41
969.666	-4.79
970.094	0.51
970.522	-1.19
970.949	-7.39
971.377	-5.89
971.804	-4.69
972.232	0.61
972.659	6.51
973.087	2.21
973.514	-2.59
973.941	-3.39
974.369	6.81
974.796	-3.89
975.223	-3.09
975.651	-2.89
976.078	0.31
976.505	-0.09
976.932	6.71
977.359	16.51
977.786	12.61
978.214	5.51
978.641	-2.39
979.068	0.81
979.495	-1.89
979.922	-3.59
980.349	-7.59
980.776	1.61
981.202	-4.59
981.629	6.81
982.056	3.71
982.483	1.41
982.91	4.61
983.337	-8.39
983.763	4.41
984.19	-4.99
984.617	-5.19
985.043	-9.19
985.47	-3.29
985.897	-3.39
986.323	-12.59
986.75	4.71
987.176	1.11
987.603	-3.39
988.029	-0.59
988.456	0.51
988.882	4.81
989.308	-4.49
989.735	0.41
990.161	1.21
990.587	-6.09
991.014	2.81
991.44	-0.69
991.866	-2.79
992.292	-3.09
992.719	-2.19
993.145	4.11
993.571	-9.09
993.997	-2.29
994.423	-1.89
994.849	-4.39
995.275	-2.69
995.701	1.31
996.127	-5.29
996.553	4.71
996.979	-3.39
997.405	-2.09
997.83	-7.09
998.256	-5.69
998.682	-7.09
999.108	-10.69
999.534	-5.79
999.959	-2.69
1000.385	-0.09
1000.811	0.81
1001.236	-6.19
1001.662	-7.09
1002.087	-10.69
1002.513	-1.09
1002.938	4.21
1003.364	-5.29
1003.789	-0.79
1004.215	2.61
1004.64	-3.39
1005.066	1.21
1005.491	-1.19
1005.916	0.21
1006.342	-0.99
1006.767	-7.79
1007.192	1.61
1007.617	-1.99
1008.042	-1.89
1008.468	-4.59
1008.893	-5.99
1009.318	-3.59
1009.743	-1.89
1010.168	0.51
1010.593	2.31
1011.018	-6.19
1011.443	-0.99
1011.868	-3.69
1012.293	-4.69
1012.718	-5.49
1013.143	-1.59
1013.567	2.21
1013.992	-3.19
1014.417	-14.79
1014.842	-1.19
1015.267	-3.99
1015.691	-2.99
1016.116	0.31
1016.541	-6.09
1016.965	1.41
1017.39	2.31
1017.814	0.11
1018.239	-1.39
1018.663	-9.29
1019.088	-7.59
1019.512	-7.69
1019.937	-1.09
1020.361	-5.29
1020.785	-9.69
1021.21	-4.79
1021.634	-9.29
1022.058	-0.09
1022.483	-0.99
1022.907	-7.69
1023.331	-7.69
1023.755	-5.49
1024.179	-2.59
1024.604	-7.09
1025.028	-7.99
1025.452	-0.09
1025.876	1.81
1026.3	1.01
1026.724	-16.79
1027.148	-1.59
1027.572	-5.39
1027.996	1.11
1028.42	-3.99
1028.843	-0.89
1029.267	-6.49
1029.691	-1.79
1030.115	-12.39
1030.539	-4.59
1030.962	-5.39
1031.386	-4.29
1031.81	5.41
1032.233	1.11
1032.657	-3.09
1033.08	-4.69
1033.504	1.11
1033.927	-3.69
1034.351	0.81
1034.774	-4.19
1035.198	-0.69
1035.621	-7.99
1036.045	-4.69
1036.468	-3.09
1036.891	-12.69
1037.315	-7.49
1037.738	-11.89
1038.161	0.21
1038.584	-10.69
1039.008	-1.59
1039.431	-6.69
1039.854	-0.09
1040.277	-15.69
1040.7	-6.19
1041.123	-0.29
1041.546	-10.79
1041.969	-6.89
1042.392	-8.49
1042.815	-0.29
1043.238	-0.89
1043.661	2.91
1044.084	-10.09
1044.507	-2.99
1044.93	-9.79
1045.352	-8.99
1045.775	-1.99
1046.198	-1.79
1046.621	-2.89
1047.043	2.41
1047.466	9.01
1047.889	-1.49
1048.311	-8.09
1048.734	-7.49
1049.156	-0.19
1049.579	-1.39
1050.001	-8.99
1050.424	-2.59
1050.846	-4.79
1051.269	0.31
1051.691	-7.59
1052.113	-5.89
1052.536	-0.29
1052.958	1.61
1053.38	-1.09
1053.802	-3.59
1054.225	-0.79
1054.647	-8.99
1055.069	-0.59
1055.491	3.11
1055.913	-8.69
1056.335	-1.09
1056.757	-2.79
1057.179	-7.69
1057.601	-5.99
1058.023	-1.69
1058.445	-6.59
1058.867	-2.29
1059.289	1.01
1059.711	-6.99
1060.133	-3.69
1060.555	-4.69
1060.976	-6.79
1061.398	-3.89
1061.82	-3.79
1062.241	-3.59
1062.663	-3.79
1063.085	-4.99
1063.506	-4.29
1063.928	-2.89
1064.35	-3.79
1064.771	-7.59
1065.193	-3.79
1065.614	-6.19
1066.035	1.31
1066.457	1.21
1066.878	-4.29
1067.3	-7.29
1067.721	0.41
1068.142	-4.99
1068.564	-7.49
1068.985	-7.89
1069.406	-5.29
1069.827	-0.29
1070.248	-0.79
1070.67	-5.29
1071.091	-1.69
1071.512	-3.49
1071.933	-6.69
1072.354	-6.89
1072.775	-8.09
1073.196	-8.09
1073.617	2.81
1074.038	-5.29
1074.459	-4.89
1074.88	-3.09
1075.3	3.41
1075.721	-7.79
1076.142	-2.29
1076.563	-1.19
1076.983	-10.89
1077.404	-8.79
1077.825	-8.49
1078.246	3.71
1078.666	-9.19
1079.087	-9.79
1079.507	-6.39
1079.928	1.21
1080.348	3.41
1080.769	-4.59
1081.189	-1.89
1081.61	-3.29
1082.03	-6.59
1082.451	-2.29
1082.871	-4.49
1083.291	-7.49
1083.711	-9.49
1084.132	-5.19
1084.552	-1.19
1084.972	-6.89
1085.392	-9.29
1085.813	-8.59
1086.233	-11.89
1086.653	-3.49
1087.073	-4.09
1087.493	-9.39
1087.913	-13.79
1088.333	-13.19
1088.753	-7.89
1089.173	5.31
1089.593	-6.39
1090.013	-0.99
1090.433	6.61
1090.852	-3.69
1091.272	-2.89
1091.692	-5.59
1092.112	-4.29
1092.531	-11.29
1092.951	-15.89
1093.371	-0.89
1093.79	-3.69
1094.21	-6.19
1094.63	-3.79
1095.049	-6.29
1095.469	-0.39
1095.888	-2.29
1096.308	-3.19
1096.727	-0.09
1097.146	0.61
1097.566	-0.19
1097.985	-7.99
1098.405	-0.59
1098.824	-8.39
1099.243	-9.49
1099.662	-11.89
1100.082	-6.69
1100.501	-2.39
1100.92	-0.39
1101.339	-1.49
1101.758	-8.09
