Data from 20171114-ORNL-Ar_H_NY_Subt18_08-04-43-555.txt Node
Date: Tue Nov 14 08:04:43 EST 2017
User: Ender
Spectrometer: HR+D1039
Trigger mode: 0
Integration Time (sec): 2.730000E-2
Scans to average: 10
Electric dark correction enabled: true
Nonlinearity correction enabled: false
Boxcar width: 0
XAxis mode: Wavelengths
Number of Pixels in Spectrum: 2048
>>>>>Begin Spectral Data<<<<<
187.836	-5.88
188.309	-5.88
188.782	-5.88
189.255	3.32
189.728	-1.18
190.201	4.92
190.674	5.72
191.147	1.72
191.619	-9.78
192.092	-1.58
192.565	-0.78
193.038	-1.98
193.511	0.12
193.984	5.02
194.456	-2.88
194.929	-0.98
195.402	2.52
195.874	1.72
196.347	-9.58
196.82	-5.28
197.292	0.12
197.765	-0.58
198.237	-5.98
198.71	1.42
199.182	-8.18
199.655	2.52
200.127	0.82
200.6	-5.08
201.072	0.42
201.544	-2.98
202.017	-4.88
202.489	1.42
202.961	-1.38
203.433	-2.98
203.906	-5.58
204.378	-0.98
204.85	-1.98
205.322	-5.58
205.794	5.42
206.266	-2.58
206.739	-8.38
207.211	0.12
207.683	-12.78
208.155	-7.18
208.627	-9.28
209.099	-1.28
209.57	-4.48
210.042	-3.38
210.514	3.02
210.986	2.02
211.458	-3.38
211.93	3.02
212.402	3.32
212.873	-3.68
213.345	-7.58
213.817	-4.38
214.288	-3.18
214.76	-9.48
215.232	-3.78
215.703	4.42
216.175	1.92
216.646	-5.28
217.118	-10.88
217.589	-3.58
218.061	5.52
218.532	-3.48
219.004	0.02
219.475	-1.38
219.946	0.12
220.418	-5.78
220.889	2.52
221.36	-0.78
221.832	-0.38
222.303	-3.58
222.774	3.72
223.245	-5.18
223.717	-6.98
224.188	-7.98
224.659	-9.08
225.13	-4.58
225.601	-2.78
226.072	6.62
226.543	0.32
227.014	4.62
227.485	-1.78
227.956	-2.58
228.427	1.42
228.898	1.72
229.369	5.02
229.839	-6.08
230.31	-7.38
230.781	4.62
231.252	-4.68
231.722	-3.38
232.193	1.82
232.664	-4.18
233.135	3.62
233.605	5.02
234.076	-5.28
234.546	-2.58
235.017	7.62
235.487	0.02
235.958	-0.28
236.428	-1.68
236.899	2.32
237.369	4.12
237.84	-3.78
238.31	8.52
238.78	0.62
239.251	-2.88
239.721	6.02
240.191	6.82
240.662	-2.38
241.132	2.22
241.602	-0.18
242.072	5.72
242.542	7.72
243.013	6.42
243.483	6.82
243.953	0.42
244.423	1.22
244.893	0.02
245.363	5.12
245.833	5.52
246.303	-2.38
246.773	7.02
247.243	7.42
247.712	2.52
248.182	14.22
248.652	13.52
249.122	-6.08
249.592	12.22
250.061	28.02
250.531	37.22
251.001	19.42
251.471	24.42
251.94	27.62
252.41	11.02
252.879	7.42
253.349	12.22
253.818	11.72
254.288	9.52
254.757	7.02
255.227	3.82
255.696	5.02
256.166	8.92
256.635	5.02
257.105	12.62
257.574	5.42
258.043	15.02
258.513	14.82
258.982	17.82
259.451	11.12
259.92	15.92
260.389	17.12
260.859	22.42
261.328	14.92
261.797	20.42
262.266	5.02
262.735	11.22
263.204	8.12
263.673	5.62
264.142	6.72
264.611	-7.58
265.08	2.52
265.549	1.02
266.018	6.62
266.487	5.72
266.955	2.02
267.424	3.62
267.893	9.42
268.362	6.22
268.83	5.72
269.299	19.12
269.768	7.92
270.236	10.82
270.705	7.32
271.174	10.02
271.642	11.22
272.111	12.92
272.579	20.82
273.048	23.52
273.516	36.22
273.985	33.42
274.453	26.62
274.922	22.82
275.39	14.72
275.858	7.32
276.327	10.12
276.795	21.32
277.263	6.22
277.731	32.42
278.2	62.32
278.668	59.42
279.136	46.32
279.604	27.12
280.072	18.32
280.54	13.02
281.008	8.72
281.477	19.42
281.945	13.22
282.413	16.22
282.881	18.42
283.348	8.62
283.816	20.62
284.284	20.32
284.752	19.52
285.22	13.32
285.688	15.52
286.156	21.22
286.623	42.22
287.091	53.82
287.559	30.72
288.026	21.62
288.494	18.92
288.962	9.52
289.429	9.72
289.897	21.22
290.364	13.02
290.832	20.02
291.3	15.42
291.767	19.22
292.234	22.12
292.702	13.02
293.169	23.82
293.637	26.32
294.104	14.12
294.571	11.82
295.039	22.52
295.506	20.52
295.973	18.72
296.44	11.82
296.908	20.12
297.375	19.82
297.842	26.22
298.309	19.12
298.776	21.82
299.243	27.22
299.71	16.92
300.177	25.52
300.644	24.12
301.111	21.02
301.578	24.82
302.045	15.02
302.512	25.52
302.979	25.22
303.446	24.12
303.913	17.02
304.379	18.62
304.846	30.82
305.313	31.62
305.78	20.62
306.246	23.22
306.713	20.42
307.18	22.52
307.646	29.22
308.113	32.72
308.579	25.02
309.046	26.92
309.512	33.22
309.979	22.82
310.445	33.02
310.912	29.32
311.378	33.22
311.845	26.32
312.311	33.82
312.777	33.22
313.244	37.22
313.71	42.32
314.176	31.92
314.642	37.02
315.109	30.32
315.575	39.12
316.041	41.32
316.507	38.92
316.973	45.32
317.439	32.52
317.905	37.32
318.371	42.62
318.837	35.72
319.303	34.62
319.769	40.72
320.235	36.02
320.701	37.62
321.167	41.32
321.633	29.62
322.099	39.02
322.564	47.52
323.03	40.72
323.496	42.12
323.962	42.42
324.427	33.02
324.893	37.82
325.359	40.62
325.824	40.82
326.29	39.32
326.755	38.82
327.221	40.32
327.686	35.82
328.152	55.02
328.617	42.32
329.083	43.02
329.548	46.32
330.014	50.62
330.479	37.72
330.944	42.82
331.41	44.32
331.875	47.22
332.34	38.92
332.805	44.52
333.271	55.22
333.736	46.02
334.201	56.92
334.666	55.62
335.131	54.32
335.596	50.82
336.061	48.82
336.526	43.72
336.991	45.72
337.456	55.42
337.921	54.22
338.386	41.12
338.851	47.62
339.316	51.42
339.781	49.32
340.246	54.02
340.711	49.82
341.175	53.72
341.64	49.52
342.105	48.42
342.569	59.02
343.034	62.92
343.499	52.62
343.963	48.62
344.428	57.32
344.893	70.02
345.357	61.42
345.822	58.82
346.286	64.42
346.751	71.12
347.215	66.22
347.679	75.42
348.144	93.52
348.608	87.22
349.073	68.42
349.537	80.22
350.001	78.02
350.465	80.72
350.93	83.22
351.394	81.62
351.858	74.02
352.322	90.42
352.786	82.32
353.25	95.62
353.715	110.82
354.179	104.42
354.643	119.42
355.107	126.92
355.571	106.82
356.035	101.62
356.498	117.82
356.962	121.42
357.426	130.42
357.89	115.42
358.354	90.02
358.818	90.02
359.281	78.62
359.745	76.62
360.209	75.02
360.673	76.42
361.136	81.42
361.6	84.02
362.064	88.82
362.527	86.42
362.991	89.02
363.454	80.22
363.918	72.12
364.381	82.72
364.845	80.22
365.308	87.62
365.772	86.12
366.235	88.12
366.698	77.82
367.162	85.22
367.625	90.42
368.088	88.62
368.552	88.02
369.015	85.92
369.478	98.22
369.941	97.22
370.404	95.12
370.867	101.02
371.331	99.42
371.794	113.12
372.257	101.82
372.72	114.62
373.183	104.12
373.646	103.72
374.109	103.82
374.572	109.32
375.035	105.52
375.497	102.32
375.96	103.22
376.423	107.62
376.886	114.12
377.349	114.12
377.811	95.52
378.274	103.52
378.737	105.42
379.199	108.72
379.662	110.62
380.125	115.12
380.587	114.92
381.05	118.12
381.512	118.42
381.975	133.82
382.437	123.62
382.9	128.32
383.362	125.32
383.825	137.42
384.287	142.12
384.75	132.82
385.212	136.02
385.674	136.52
386.136	133.32
386.599	125.22
387.061	121.92
387.523	124.22
387.985	134.12
388.447	132.52
388.91	132.22
389.372	150.02
389.834	150.42
390.296	146.22
390.758	149.22
391.22	173.52
391.682	201.82
392.144	286.52
392.606	218.82
393.068	166.32
393.529	161.92
393.991	139.52
394.453	138.82
394.915	144.12
395.377	189.02
395.838	206.22
396.3	148.12
396.762	140.12
397.224	130.02
397.685	126.92
398.147	119.42
398.608	123.52
399.07	128.22
399.531	125.82
399.993	133.82
400.454	148.62
400.916	143.42
401.377	135.72
401.839	139.92
402.3	153.52
402.762	157.12
403.223	168.52
403.684	165.12
404.145	152.02
404.607	156.52
405.068	161.72
405.529	162.72
405.99	177.82
406.451	169.62
406.913	166.32
407.374	149.62
407.835	155.02
408.296	164.42
408.757	160.52
409.218	181.72
409.679	167.92
410.14	172.32
410.601	165.12
411.062	173.62
411.522	180.32
411.983	172.72
412.444	169.02
412.905	170.02
413.366	173.82
413.826	182.72
414.287	208.72
414.748	245.62
415.208	231.52
415.669	198.22
416.13	188.72
416.59	188.12
417.051	204.32
417.511	207.82
417.972	228.12
418.432	235.92
418.893	278.02
419.353	237.62
419.814	189.12
420.274	176.92
420.734	175.32
421.195	191.52
421.655	186.72
422.115	184.42
422.576	184.72
423.036	186.52
423.496	196.82
423.956	205.12
424.416	216.02
424.876	245.72
425.336	246.62
425.797	249.52
426.257	236.32
426.717	229.62
427.177	220.02
427.637	213.42
428.097	226.22
428.556	231.52
429.016	250.82
429.476	249.72
429.936	263.32
430.396	261.72
430.856	281.02
431.315	297.32
431.775	331.02
432.235	360.92
432.694	328.82
433.154	343.22
433.614	364.42
434.073	313.02
434.533	266.22
434.993	255.42
435.452	276.72
435.912	280.92
436.371	279.32
436.83	272.42
437.29	247.12
437.749	237.22
438.209	230.22
438.668	260.52
439.127	265.02
439.587	247.72
440.046	234.82
440.505	252.82
440.964	259.22
441.424	308.22
441.883	296.72
442.342	242.72
442.801	208.12
443.26	203.62
443.719	214.62
444.178	205.52
444.637	199.72
445.096	203.42
445.555	204.22
446.014	209.32
446.473	213.42
446.932	221.92
447.391	208.12
447.849	215.32
448.308	204.72
448.767	209.22
449.226	225.82
449.685	224.62
450.143	241.02
450.602	221.42
451.061	212.22
451.519	213.12
451.978	220.32
452.436	218.32
452.895	230.82
453.353	235.02
453.812	225.72
454.27	223.92
454.729	222.62
455.187	228.92
455.646	232.72
456.104	230.92
456.562	244.62
457.021	249.92
457.479	244.22
457.937	248.22
458.395	245.92
458.854	235.62
459.312	242.52
459.77	254.32
460.228	235.92
460.686	223.52
461.144	237.52
461.602	237.42
462.06	233.62
462.518	243.02
462.976	236.32
463.434	242.52
463.892	247.92
464.35	260.92
464.808	279.42
465.266	251.62
465.724	263.62
466.181	252.42
466.639	255.52
467.097	276.42
467.555	283.92
468.012	282.42
468.47	292.52
468.928	315.42
469.385	320.12
469.843	323.52
470.3	322.72
470.758	342.92
471.215	366.02
471.673	389.32
472.13	375.52
472.588	395.92
473.045	342.62
473.503	350.92
473.96	368.42
474.417	381.72
474.875	408.82
475.332	440.12
475.789	439.62
476.246	434.12
476.704	453.72
477.161	472.12
477.618	494.92
478.075	526.82
478.532	583.82
478.989	654.92
479.446	758.72
479.903	727.82
480.36	766.12
480.817	829.02
481.274	920.72
481.731	1013.62
482.188	1103.72
482.645	1252.72
483.102	1341.62
483.558	1480.42
484.015	1532.52
484.472	1505.52
484.929	1471.22
485.385	1409.02
485.842	1371.62
486.299	1309.82
486.755	1239.12
487.212	1043.22
487.668	876.02
488.125	802.72
488.582	740.42
489.038	710.32
489.494	680.12
489.951	652.62
490.407	636.22
490.864	616.82
491.32	610.22
491.776	600.42
492.233	608.02
492.689	572.82
493.145	571.92
493.602	564.32
494.058	584.12
494.514	579.92
494.97	605.82
495.426	611.02
495.882	589.42
496.338	579.62
496.794	594.82
497.251	588.32
497.707	599.82
498.163	610.62
498.618	611.32
499.074	610.62
499.53	638.82
499.986	644.02
500.442	615.52
500.898	599.22
501.354	591.62
501.809	605.82
502.265	603.42
502.721	628.22
503.177	629.42
503.632	619.42
504.088	633.62
504.543	672.62
504.999	664.82
505.455	618.82
505.91	595.72
506.366	597.82
506.821	594.82
507.277	598.22
507.732	590.32
508.187	591.92
508.643	603.12
509.098	596.82
509.553	620.02
510.009	627.82
510.464	633.62
510.919	656.22
511.375	653.02
511.83	667.12
512.285	678.22
512.74	726.42
513.195	745.02
513.65	738.32
514.105	729.52
514.56	729.52
515.015	756.12
515.47	773.02
515.925	751.92
516.38	750.62
516.835	751.12
517.29	741.72
517.745	739.52
518.2	719.22
518.655	716.32
519.109	708.52
519.564	706.52
520.019	697.02
520.474	686.22
520.928	685.32
521.383	681.02
521.838	679.92
522.292	670.22
522.747	666.92
523.201	667.12
523.656	652.52
524.11	644.32
524.565	650.32
525.019	647.42
525.474	656.12
525.928	664.12
526.382	663.12
526.837	646.62
527.291	661.02
527.745	655.52
528.2	653.82
528.654	645.42
529.108	655.02
529.562	644.32
530.016	655.02
530.47	652.82
530.925	649.12
531.379	656.82
531.833	666.62
532.287	657.02
532.741	659.82
533.195	669.32
533.649	674.62
534.103	681.92
534.556	663.12
535.01	669.42
535.464	663.72
535.918	675.22
536.372	676.32
536.826	685.42
537.279	661.62
537.733	657.22
538.187	673.72
538.64	668.22
539.094	676.42
539.548	684.12
540.001	682.22
540.455	676.72
540.908	682.42
541.362	695.22
541.815	693.12
542.269	706.32
542.722	705.92
543.175	717.02
543.629	716.82
544.082	724.62
544.536	731.72
544.989	729.72
545.442	734.82
545.895	735.02
546.349	724.72
546.802	732.42
547.255	739.62
547.708	747.62
548.161	756.62
548.614	753.12
549.067	785.42
549.52	762.82
549.973	750.62
550.426	758.42
550.879	743.02
551.332	739.62
551.785	749.12
552.238	752.12
552.691	756.92
553.144	760.12
553.596	785.22
554.049	798.82
554.502	833.22
554.955	838.62
555.407	831.52
555.86	835.72
556.313	838.22
556.765	820.32
557.218	822.12
557.67	814.82
558.123	818.42
558.576	795.92
559.028	809.32
559.48	812.32
559.933	809.42
560.385	779.12
560.838	742.02
561.29	717.12
561.742	719.52
562.195	711.12
562.647	702.22
563.099	716.02
563.551	716.52
564.004	726.22
564.456	712.82
564.908	703.42
565.36	688.02
565.812	676.02
566.264	664.02
566.716	665.22
567.168	662.02
567.62	686.52
568.072	650.72
568.524	636.02
568.976	637.02
569.428	613.62
569.88	615.92
570.332	626.12
570.784	625.32
571.235	625.12
571.687	637.02
572.139	646.62
572.59	656.22
573.042	655.02
573.494	652.12
573.945	645.92
574.397	624.22
574.849	619.02
575.3	638.32
575.752	615.82
576.203	622.52
576.655	623.82
577.106	615.42
577.557	604.12
578.009	602.52
578.46	607.82
578.912	611.52
579.363	605.22
579.814	608.42
580.265	612.42
580.717	607.12
581.168	610.22
581.619	612.22
582.07	617.02
582.521	617.62
582.972	610.12
583.423	618.92
583.875	619.72
584.326	646.62
584.777	683.82
585.227	758.02
585.678	842.62
586.129	933.62
586.58	1006.12
587.031	1084.02
587.482	1246.72
587.933	1430.42
588.384	1221.42
588.834	903.02
589.285	732.22
589.736	710.22
590.186	702.92
590.637	690.42
591.088	672.82
591.538	667.92
591.989	662.42
592.439	663.72
592.89	653.52
593.34	649.32
593.791	638.32
594.241	629.62
594.692	635.32
595.142	633.22
595.593	631.32
596.043	638.92
596.493	642.82
596.943	643.42
597.394	650.42
597.844	632.32
598.294	649.22
598.744	674.02
599.195	703.42
599.645	733.32
600.095	761.02
600.545	823.02
600.995	872.02
601.445	929.22
601.895	979.22
602.345	1028.62
602.795	1001.82
603.245	962.72
603.695	913.62
604.145	865.72
604.594	822.82
605.044	766.12
605.494	719.12
605.944	677.62
606.393	663.52
606.843	653.72
607.293	648.92
607.743	653.02
608.192	663.72
608.642	670.62
609.091	680.22
609.541	692.62
609.99	688.92
610.44	680.32
610.889	646.12
611.339	629.32
611.788	610.42
612.238	616.42
612.687	644.52
613.136	641.32
613.586	658.02
614.035	663.32
614.484	670.32
614.933	677.62
615.383	669.22
615.832	655.62
616.281	650.32
616.73	611.72
617.179	598.42
617.628	583.02
618.077	559.22
618.526	556.02
618.975	550.82
619.424	546.42
619.873	544.92
620.322	549.22
620.771	540.82
621.22	536.42
621.669	529.22
622.118	520.82
622.567	506.22
623.015	506.02
623.464	504.22
623.913	495.92
624.361	481.92
624.81	485.72
625.259	484.72
625.707	496.42
626.156	489.32
626.604	509.92
627.053	502.52
627.501	501.32
627.95	495.72
628.398	505.62
628.847	502.12
629.295	506.32
629.744	503.62
630.192	506.82
630.64	503.32
631.089	499.12
631.537	517.32
631.985	521.62
632.433	523.02
632.881	537.82
633.33	584.02
633.778	559.22
634.226	500.72
634.674	506.22
635.122	503.42
635.57	525.72
636.018	556.12
636.466	511.02
636.914	486.62
637.362	499.72
637.81	504.32
638.258	510.22
638.705	507.02
639.153	534.12
639.601	536.82
640.049	556.72
640.497	589.42
640.944	612.42
641.392	565.12
641.84	542.92
642.287	515.82
642.735	505.72
643.182	504.12
643.63	507.02
644.078	506.32
644.525	525.32
644.973	527.92
645.42	528.42
645.867	546.22
646.315	559.42
646.762	587.52
647.21	599.52
647.657	632.82
648.104	658.52
648.551	672.02
648.999	732.62
649.446	794.12
649.893	882.92
650.34	1010.22
650.787	1211.32
651.234	1494.72
651.682	1942.12
652.129	2681.72
652.576	3843.02
653.023	5700.42
653.47	7845.72
653.917	9952.22
654.363	11607.82
654.81	13068.12
655.257	12433.72
655.704	8047.42
656.151	4737.02
656.598	3071.72
657.044	2167.72
657.491	1658.62
657.938	1323.12
658.385	1088.82
658.831	946.62
659.278	849.02
659.724	751.62
660.171	692.52
660.618	629.82
661.064	599.92
661.511	568.72
661.957	563.52
662.404	563.12
662.85	564.42
663.296	544.02
663.743	487.52
664.189	470.72
664.635	454.72
665.082	451.82
665.528	457.72
665.974	445.42
666.42	444.62
666.867	435.32
667.313	430.02
667.759	420.62
668.205	415.12
668.651	418.72
669.097	429.22
669.543	443.82
669.989	408.62
670.435	388.22
670.881	386.32
671.327	392.22
671.773	403.22
672.219	422.22
672.665	466.92
673.11	497.82
673.556	548.52
674.002	586.12
674.448	573.22
674.893	490.32
675.339	407.22
675.785	389.52
676.23	362.52
676.676	336.82
677.122	325.92
677.567	318.82
678.013	318.72
678.458	307.62
678.904	307.22
679.349	292.42
679.794	309.02
680.24	296.82
680.685	299.62
681.131	298.82
681.576	301.32
682.021	310.82
682.466	303.42
682.912	298.62
683.357	301.42
683.802	328.02
684.247	350.32
684.692	386.52
685.137	417.12
685.583	461.32
686.028	489.62
686.473	444.12
686.918	389.62
687.363	353.22
687.807	332.32
688.252	310.52
688.697	310.42
689.142	289.92
689.587	284.02
690.032	280.72
690.477	286.52
690.921	299.92
691.366	322.42
691.811	341.52
692.255	375.62
692.7	402.62
693.145	433.12
693.589	579.62
694.034	940.52
694.478	1314.92
694.923	1510.32
695.367	2002.62
695.812	1035.62
696.256	432.52
696.701	317.82
697.145	298.92
697.59	282.12
698.034	275.32
698.478	281.52
698.922	284.52
699.367	283.32
699.811	292.02
700.255	301.32
700.699	330.52
701.143	365.62
701.588	411.42
702.032	436.32
702.476	437.02
702.92	415.02
703.364	420.32
703.808	528.02
704.252	860.92
704.696	1236.22
705.14	1445.82
705.584	1863.72
706.027	917.42
706.471	448.42
706.915	340.12
707.359	302.02
707.803	272.22
708.246	270.72
708.69	267.82
709.134	272.22
709.577	273.02
710.021	268.12
710.465	263.02
710.908	250.82
711.352	257.02
711.795	278.32
712.239	301.92
712.682	324.02
713.126	354.72
713.569	407.72
714.012	312.12
714.456	274.42
714.899	253.52
715.342	236.22
715.786	217.42
716.229	214.22
716.672	216.02
717.115	211.52
717.558	209.42
718.002	214.32
718.445	221.52
718.888	237.92
719.331	242.02
719.774	264.52
720.217	260.12
720.66	249.12
721.103	229.02
721.546	217.52
721.989	216.92
722.432	197.02
722.874	199.02
723.317	192.22
723.76	204.92
724.203	216.82
724.645	269.42
725.088	381.02
725.531	479.12
725.974	553.22
726.416	472.32
726.859	263.12
727.301	210.52
727.744	204.92
728.187	197.32
728.629	205.22
729.071	203.12
729.514	218.82
729.956	231.32
730.399	243.12
730.841	254.42
731.283	226.12
731.726	222.42
732.168	218.12
732.61	222.42
733.053	236.12
733.495	270.02
733.937	294.02
734.379	333.62
734.821	364.92
735.263	457.22
735.705	689.42
736.148	1307.22
736.59	2169.02
737.032	2671.52
737.474	2165.82
737.916	693.22
738.357	373.02
738.799	275.82
739.241	255.42
739.683	236.02
740.125	253.72
740.567	250.12
741.008	267.12
741.45	273.72
741.892	269.72
742.334	298.12
742.775	305.62
743.217	299.62
743.658	225.42
744.1	217.82
744.542	221.32
744.983	263.32
745.425	285.42
745.866	295.42
746.307	238.72
746.749	235.62
747.19	272.52
747.632	367.92
748.073	715.32
748.514	1547.82
748.956	2422.52
749.397	3028.52
749.838	2518.42
750.279	2592.52
750.72	1303.62
751.162	473.22
751.603	276.52
752.044	214.52
752.485	181.02
752.926	175.22
753.367	172.72
753.808	167.12
754.249	157.12
754.69	162.22
755.131	150.32
755.572	153.92
756.013	148.12
756.453	157.92
756.894	155.12
757.335	161.32
757.776	162.62
758.216	164.42
758.657	172.12
759.098	176.22
759.538	191.72
759.979	222.82
760.42	314.12
760.86	570.82
761.301	1496.12
761.741	3700.92
762.182	5670.62
762.622	3968.12
763.063	1130.92
763.503	457.02
763.943	297.02
764.384	292.02
764.824	356.92
765.264	392.82
765.705	261.92
766.145	183.02
766.585	158.12
767.025	156.62
767.465	157.92
767.906	211.02
768.346	280.82
768.786	307.72
769.226	223.52
769.666	274.52
770.106	501.52
770.546	1287.02
770.986	2286.52
771.426	2072.62
771.866	678.72
772.306	277.52
772.745	177.12
773.185	144.82
773.625	142.52
774.065	142.32
774.505	164.52
774.944	258.52
775.384	582.72
775.824	1097.72
776.263	1092.72
776.703	454.32
777.142	195.82
777.582	136.52
778.021	122.82
778.461	117.62
778.9	120.92
779.34	109.32
779.779	102.82
780.219	92.92
780.658	89.32
781.097	94.22
781.537	100.92
781.976	93.82
782.415	89.72
782.855	83.32
783.294	85.52
783.733	89.72
784.172	91.12
784.611	84.32
785.05	95.82
785.489	91.62
785.928	94.92
786.367	105.02
786.806	101.42
787.245	115.52
787.684	112.72
788.123	125.82
788.562	111.72
789.001	103.42
789.44	103.22
789.879	102.82
790.317	99.72
790.756	110.02
791.195	107.02
791.634	125.02
792.072	172.22
792.511	293.52
792.95	820.12
793.388	1845.72
793.827	1696.92
794.265	580.22
794.704	240.42
795.142	154.82
795.581	133.12
796.019	117.12
796.458	103.72
796.896	100.42
797.334	107.62
797.773	126.62
798.211	178.22
798.649	354.62
799.087	856.82
799.526	1355.42
799.964	1697.62
800.402	1755.02
800.84	638.62
801.278	251.52
801.716	165.72
802.154	127.12
802.592	124.12
803.03	113.42
803.468	109.42
803.906	119.62
804.344	126.72
804.782	120.02
805.22	116.12
805.658	106.92
806.096	120.12
806.533	135.12
806.971	150.82
807.409	180.92
807.847	260.82
808.284	539.62
808.722	1560.92
809.16	2833.42
809.597	2606.42
810.035	4631.92
810.472	5143.52
810.91	1811.02
811.347	690.42
811.785	342.02
812.222	224.62
812.66	159.52
813.097	137.42
813.535	113.62
813.972	108.02
814.409	103.82
814.846	95.62
815.284	92.22
815.721	84.62
816.158	91.92
816.595	109.22
817.032	149.62
817.47	174.42
817.907	151.12
818.344	137.92
818.781	98.92
819.218	82.72
819.655	104.82
820.092	153.72
820.529	188.02
820.966	163.02
821.403	116.42
821.839	93.22
822.276	86.52
822.713	104.42
823.15	118.92
823.587	100.22
824.023	127.52
824.46	245.12
824.897	753.32
825.333	1177.92
825.77	509.42
826.206	194.22
826.643	114.92
827.08	87.72
827.516	65.22
827.953	68.32
828.389	69.02
828.825	58.42
829.262	56.22
829.698	53.22
830.135	55.72
830.571	54.32
831.007	44.22
831.443	53.22
831.88	53.32
832.316	49.72
832.752	53.52
833.188	53.02
833.624	51.52
834.06	56.72
834.497	56.52
834.933	58.62
835.369	65.92
835.805	57.32
836.241	64.62
836.677	67.82
837.112	73.22
837.548	82.02
837.984	107.82
838.42	162.02
838.856	405.32
839.292	1272.82
839.727	2017.02
840.163	931.82
840.599	772.32
841.034	1722.72
841.47	1885.22
841.906	673.52
842.341	283.92
842.777	200.92
843.212	274.82
843.648	280.62
844.083	133.52
844.519	84.62
844.954	65.52
845.39	51.62
845.825	52.32
846.261	47.22
846.696	45.42
847.131	45.22
847.566	49.82
848.002	38.92
848.437	44.32
848.872	56.82
849.307	53.92
849.742	71.12
850.177	147.52
850.613	467.62
851.048	769.32
851.483	334.72
851.918	131.32
852.353	72.62
852.788	49.02
853.223	47.12
853.657	45.42
854.092	44.62
854.527	40.82
854.962	39.12
855.397	36.62
855.832	43.42
856.266	36.22
856.701	35.52
857.136	29.22
857.57	36.92
858.005	38.12
858.44	52.92
858.874	33.92
859.309	44.02
859.743	33.22
860.178	40.92
860.612	37.72
861.047	42.72
861.481	57.52
861.915	58.52
862.35	39.42
862.784	26.62
863.218	36.02
863.653	25.12
864.087	37.82
864.521	49.32
864.955	59.72
865.39	126.42
865.824	154.02
866.258	96.62
866.692	130.52
867.126	159.02
867.56	94.12
867.994	45.42
868.428	29.62
868.862	40.62
869.296	46.12
869.73	51.52
870.164	51.72
870.598	39.62
871.031	32.02
871.465	28.82
871.899	26.32
872.333	16.92
872.766	22.22
873.2	22.32
873.634	26.62
874.067	24.22
874.501	21.12
874.935	33.92
875.368	22.82
875.802	24.82
876.235	18.82
876.669	20.02
877.102	22.02
877.535	21.62
877.969	19.32
878.402	22.92
878.836	14.12
879.269	20.82
879.702	22.82
880.135	13.32
880.569	17.72
881.002	20.62
881.435	22.52
881.868	14.52
882.301	12.62
882.734	10.82
883.167	17.32
883.601	20.72
884.034	17.72
884.467	12.22
884.899	17.32
885.332	16.32
885.765	13.72
886.198	7.02
886.631	10.42
887.064	18.82
887.497	9.02
887.929	18.42
888.362	8.92
888.795	7.72
889.228	16.12
889.66	18.82
890.093	9.62
890.526	15.32
890.958	10.12
891.391	10.32
891.823	23.02
892.256	16.02
892.688	9.42
893.121	15.02
893.553	17.32
893.985	18.42
894.418	10.02
894.85	10.82
895.282	13.72
895.715	14.32
896.147	17.72
896.579	12.82
897.011	15.82
897.444	10.02
897.876	7.92
898.308	12.32
898.74	10.02
899.172	11.12
899.604	17.12
900.036	17.12
900.468	17.02
900.9	11.42
901.332	12.32
901.764	11.82
902.196	13.72
902.628	12.72
903.06	19.62
903.491	26.22
903.923	24.02
904.355	18.22
904.787	24.72
905.218	21.02
905.65	21.32
906.082	11.82
906.513	4.62
906.945	13.42
907.376	10.42
907.808	14.72
908.239	15.22
908.671	16.92
909.102	17.22
909.534	20.62
909.965	38.62
910.397	75.02
910.828	264.12
911.259	406.62
911.691	189.72
912.122	86.52
912.553	41.12
912.984	27.02
913.415	24.32
913.847	23.12
914.278	12.52
914.709	10.62
915.14	13.22
915.571	16.02
916.002	7.72
916.433	23.52
916.864	17.12
917.295	6.12
917.726	17.42
918.157	9.62
918.587	19.72
919.018	17.52
919.449	15.62
919.88	22.32
920.311	25.82
920.741	39.02
921.172	143.62
921.603	124.02
922.033	63.22
922.464	41.32
922.895	16.82
923.325	13.52
923.756	11.12
924.186	16.12
924.617	22.42
925.047	40.22
925.478	42.32
925.908	46.12
926.338	20.02
926.769	14.22
927.199	21.52
927.629	12.32
928.06	15.72
928.49	15.32
928.92	11.72
929.35	10.32
929.78	8.62
930.21	10.22
930.641	6.32
931.071	5.52
931.501	3.72
931.931	13.22
932.361	7.12
932.791	2.52
933.221	-0.78
933.651	1.02
934.08	11.82
934.51	29.42
934.94	8.82
935.37	5.02
935.8	5.62
936.229	10.62
936.659	12.22
937.089	-2.68
937.519	10.72
937.948	16.82
938.378	15.42
938.807	1.62
939.237	-1.18
939.666	5.22
940.096	-3.38
940.525	5.12
940.955	1.52
941.384	6.72
941.814	-3.98
942.243	-4.98
942.672	7.12
943.102	-0.78
943.531	-1.68
943.96	4.22
944.39	6.22
944.819	-0.38
945.248	2.02
945.677	4.22
946.106	2.82
946.535	4.82
946.964	3.62
947.393	2.72
947.822	2.02
948.251	-5.48
948.68	0.52
949.109	4.32
949.538	5.92
949.967	-0.08
950.396	1.62
950.825	1.82
951.254	0.32
951.682	-10.68
952.111	4.72
952.54	4.72
952.969	0.92
953.397	-6.48
953.826	0.42
954.254	-8.68
954.683	4.92
955.112	-0.88
955.54	0.02
955.969	-6.28
956.397	-1.88
956.826	1.82
957.254	1.52
957.682	0.62
958.111	7.12
958.539	-2.18
958.967	1.42
959.396	-0.68
959.824	3.62
960.252	0.72
960.68	-0.18
961.109	-0.88
961.537	-0.28
961.965	0.82
962.393	1.32
962.821	-3.68
963.249	4.62
963.677	4.12
964.105	8.42
964.533	40.62
964.961	34.82
965.389	18.12
965.817	1.02
966.245	3.82
966.672	1.22
967.1	-6.58
967.528	-0.48
967.956	-1.78
968.383	0.42
968.811	-2.88
969.239	8.02
969.666	-7.48
970.094	2.52
970.522	0.22
970.949	-3.28
971.377	-2.08
971.804	-8.68
972.232	-10.58
972.659	-1.58
973.087	0.62
973.514	0.02
973.941	-3.08
974.369	0.72
974.796	1.42
975.223	-1.38
975.651	-4.28
976.078	2.22
976.505	1.92
976.932	-1.38
977.359	11.02
977.786	15.72
978.214	5.32
978.641	-4.78
979.068	-1.08
979.495	-7.38
979.922	-4.68
980.349	-5.48
980.776	1.22
981.202	-1.98
981.629	-0.58
982.056	4.42
982.483	-1.58
982.91	-1.58
983.337	-5.58
983.763	1.42
984.19	0.42
984.617	2.12
985.043	-10.88
985.47	-5.48
985.897	-6.38
986.323	-5.88
986.75	0.42
987.176	0.12
987.603	-5.38
988.029	-4.28
988.456	-4.38
988.882	1.72
989.308	-5.08
989.735	-3.18
990.161	2.12
990.587	-5.78
991.014	-3.38
991.44	4.22
991.866	-2.48
992.292	-1.98
992.719	-2.48
993.145	6.32
993.571	-12.28
993.997	-4.48
994.423	-7.28
994.849	-4.98
995.275	2.12
995.701	-2.48
996.127	-3.48
996.553	-2.48
996.979	-1.28
997.405	1.22
997.83	-2.48
998.256	-8.78
998.682	-0.38
999.108	-9.28
999.534	1.12
999.959	-1.88
1000.385	-4.28
1000.811	-3.48
1001.236	-10.58
1001.662	-4.18
1002.087	-7.88
1002.513	1.12
1002.938	-1.48
1003.364	2.42
1003.789	-1.78
1004.215	-0.28
1004.64	-2.98
1005.066	4.52
1005.491	-2.18
1005.916	-7.68
1006.342	-1.18
1006.767	-5.48
1007.192	2.52
1007.617	-7.78
1008.042	-3.68
1008.468	-12.08
1008.893	-0.08
1009.318	-0.88
1009.743	-5.28
1010.168	4.62
1010.593	0.82
1011.018	-0.68
1011.443	4.22
1011.868	1.32
1012.293	0.52
1012.718	-7.18
1013.143	1.32
1013.567	1.12
1013.992	-7.38
1014.417	-14.18
1014.842	2.82
1015.267	-7.38
1015.691	-6.28
1016.116	5.72
1016.541	-2.98
1016.965	1.62
1017.39	-4.48
1017.814	-0.08
1018.239	-2.08
1018.663	-11.38
1019.088	-12.58
1019.512	-5.48
1019.937	-0.08
1020.361	-8.18
1020.785	-10.78
1021.21	-3.38
1021.634	-4.08
1022.058	-1.58
1022.483	8.12
1022.907	-1.08
1023.331	-1.28
1023.755	-2.78
1024.179	-3.68
1024.604	-12.58
1025.028	-4.68
1025.452	-6.38
1025.876	-3.08
1026.3	2.12
1026.724	-13.68
1027.148	0.62
1027.572	-11.18
1027.996	-6.88
1028.42	-1.58
1028.843	-4.98
1029.267	-8.88
1029.691	-0.88
1030.115	-2.08
1030.539	-4.78
1030.962	-7.88
1031.386	-8.08
1031.81	4.42
1032.233	-3.78
1032.657	-6.08
1033.08	-3.18
1033.504	-6.48
1033.927	-2.88
1034.351	-3.28
1034.774	-7.98
1035.198	-1.48
1035.621	-2.78
1036.045	-8.48
1036.468	-2.18
1036.891	-8.98
1037.315	-8.48
1037.738	-13.78
1038.161	-0.38
1038.584	-6.18
1039.008	-6.38
1039.431	-7.28
1039.854	0.72
1040.277	-8.08
1040.7	-12.88
1041.123	1.42
1041.546	-8.28
1041.969	-9.28
1042.392	-3.98
1042.815	-2.18
1043.238	1.12
1043.661	0.02
1044.084	-7.08
1044.507	-2.38
1044.93	-5.58
1045.352	-9.68
1045.775	-0.98
1046.198	-0.58
1046.621	1.82
1047.043	-6.28
1047.466	4.62
1047.889	-2.98
1048.311	-8.78
1048.734	-4.78
1049.156	-5.28
1049.579	-0.68
1050.001	-3.88
1050.424	-5.08
1050.846	0.22
1051.269	-0.18
1051.691	-3.78
1052.113	-11.58
1052.536	-2.58
1052.958	-5.28
1053.38	-6.88
1053.802	-8.68
1054.225	-3.38
1054.647	-12.48
1055.069	-7.48
1055.491	4.12
1055.913	-4.18
1056.335	-0.58
1056.757	-3.48
1057.179	-12.38
1057.601	-6.98
1058.023	-6.58
1058.445	-6.88
1058.867	-4.48
1059.289	-2.78
1059.711	-3.18
1060.133	-1.78
1060.555	-2.48
1060.976	-5.98
1061.398	-5.18
1061.82	-5.38
1062.241	-6.88
1062.663	-7.78
1063.085	-3.78
1063.506	-5.28
1063.928	-2.78
1064.35	-3.38
1064.771	-9.18
1065.193	-1.48
1065.614	-11.58
1066.035	1.32
1066.457	-2.58
1066.878	-2.58
1067.3	-5.68
1067.721	-2.18
1068.142	-1.88
1068.564	3.22
1068.985	-4.18
1069.406	-9.98
1069.827	-3.88
1070.248	-6.58
1070.67	-9.18
1071.091	-4.28
1071.512	-3.58
1071.933	-7.48
1072.354	-9.88
1072.775	-3.58
1073.196	-6.48
1073.617	-3.18
1074.038	-5.08
1074.459	0.92
1074.88	-8.48
1075.3	-1.18
1075.721	-4.48
1076.142	3.12
1076.563	-4.88
1076.983	-9.58
1077.404	-3.48
1077.825	-12.98
1078.246	-6.78
1078.666	-11.78
1079.087	-7.58
1079.507	-9.48
1079.928	0.42
1080.348	-0.88
1080.769	-4.08
1081.189	5.12
1081.61	-2.18
1082.03	-0.98
1082.451	-3.28
1082.871	-6.58
1083.291	-4.48
1083.711	-9.58
1084.132	-0.88
1084.552	-8.58
1084.972	-0.38
1085.392	-5.78
1085.813	-5.18
1086.233	-4.38
1086.653	-5.38
1087.073	-8.98
1087.493	-2.68
1087.913	-4.18
1088.333	-3.88
1088.753	-2.98
1089.173	4.22
1089.593	-5.98
1090.013	-3.38
1090.433	-3.28
1090.852	-7.38
1091.272	-6.78
1091.692	-6.38
1092.112	-4.18
1092.531	-9.78
1092.951	-15.88
1093.371	-5.28
1093.79	2.62
1094.21	-9.88
1094.63	-6.68
1095.049	-10.58
1095.469	-2.88
1095.888	-2.68
1096.308	2.52
1096.727	1.82
1097.146	-6.68
1097.566	-5.78
1097.985	-5.58
1098.405	0.22
1098.824	-4.28
1099.243	-3.68
1099.662	-11.58
1100.082	-6.48
1100.501	0.12
1100.92	-4.18
1101.339	-4.28
1101.758	-11.08
