Data from 20171114-ORNL-Ar_H_NY_Subt18_08-07-11-508.txt Node
Date: Tue Nov 14 08:07:11 EST 2017
User: Ender
Spectrometer: HR+D1039
Trigger mode: 0
Integration Time (sec): 2.730000E-2
Scans to average: 10
Electric dark correction enabled: true
Nonlinearity correction enabled: false
Boxcar width: 0
XAxis mode: Wavelengths
Number of Pixels in Spectrum: 2048
>>>>>Begin Spectral Data<<<<<
187.836	-6.01
188.309	-6.01
188.782	-6.01
189.255	4.99
189.728	-2.11
190.201	3.29
190.674	1.89
191.147	3.89
191.619	-10.81
192.092	0.29
192.565	6.69
193.038	6.09
193.511	2.99
193.984	-1.01
194.456	-4.21
194.929	0.39
195.402	-1.01
195.874	-5.41
196.347	-0.61
196.82	-2.01
197.292	9.39
197.765	-2.71
198.237	-6.21
198.71	-0.21
199.182	-6.71
199.655	1.79
200.127	4.59
200.6	-0.31
201.072	-5.51
201.544	-3.61
202.017	-1.41
202.489	-0.91
202.961	-2.61
203.433	-8.91
203.906	-0.91
204.378	-7.71
204.85	-8.01
205.322	-1.81
205.794	-1.91
206.266	-4.11
206.739	-9.31
207.211	0.99
207.683	-12.61
208.155	-7.41
208.627	-4.81
209.099	-5.21
209.57	-9.41
210.042	-5.81
210.514	-2.21
210.986	-2.41
211.458	-13.01
211.93	-2.11
212.402	2.29
212.873	-6.71
213.345	-7.41
213.817	-13.51
214.288	-5.81
214.76	-9.41
215.232	0.79
215.703	-3.31
216.175	-4.21
216.646	-2.21
217.118	-5.31
217.589	-6.61
218.061	-2.81
218.532	-7.81
219.004	-1.01
219.475	-2.11
219.946	-1.01
220.418	-10.61
220.889	1.39
221.36	-3.91
221.832	-5.01
222.303	-7.01
222.774	0.19
223.245	-11.71
223.717	-5.41
224.188	-0.81
224.659	-13.81
225.13	-10.51
225.601	-4.41
226.072	0.79
226.543	-3.21
227.014	-3.81
227.485	-1.31
227.956	-15.01
228.427	0.49
228.898	-3.71
229.369	-1.51
229.839	-7.71
230.31	-5.21
230.781	-5.71
231.252	0.99
231.722	-12.61
232.193	-2.81
232.664	3.59
233.135	-2.21
233.605	1.69
234.076	-9.01
234.546	-3.01
235.017	1.49
235.487	-0.41
235.958	-6.41
236.428	-8.71
236.899	0.19
237.369	-1.51
237.84	0.19
238.31	-3.51
238.78	-8.11
239.251	-7.91
239.721	-7.01
240.191	-4.01
240.662	-8.91
241.132	-0.01
241.602	-7.21
242.072	-5.81
242.542	-2.01
243.013	-3.91
243.483	4.09
243.953	1.69
244.423	-2.71
244.893	-7.01
245.363	1.59
245.833	2.09
246.303	-6.71
246.773	-0.31
247.243	-2.31
247.712	-3.31
248.182	0.39
248.652	4.49
249.122	-10.51
249.592	-1.51
250.061	7.49
250.531	8.89
251.001	-3.41
251.471	-0.51
251.94	-0.11
252.41	-0.41
252.879	-4.31
253.349	6.49
253.818	3.49
254.288	-0.51
254.757	-0.11
255.227	-4.71
255.696	-4.31
256.166	4.09
256.635	4.69
257.105	4.79
257.574	1.09
258.043	-2.91
258.513	-2.71
258.982	-0.51
259.451	-6.31
259.92	5.59
260.389	3.59
260.859	8.09
261.328	2.89
261.797	2.89
262.266	4.09
262.735	4.29
263.204	-2.71
263.673	-1.61
264.142	6.39
264.611	-3.71
265.08	-3.31
265.549	-2.81
266.018	1.59
266.487	-1.51
266.955	-0.61
267.424	-2.31
267.893	-2.21
268.362	-1.51
268.83	-4.81
269.299	3.59
269.768	1.89
270.236	5.49
270.705	-3.61
271.174	-1.31
271.642	-1.21
272.111	1.99
272.579	2.29
273.048	-1.11
273.516	-1.61
273.985	8.29
274.453	10.39
274.922	10.59
275.39	6.99
275.858	5.29
276.327	5.19
276.795	10.59
277.263	3.19
277.731	7.69
278.2	3.49
278.668	4.79
279.136	7.29
279.604	1.99
280.072	6.99
280.54	7.59
281.008	5.69
281.477	7.19
281.945	7.09
282.413	6.89
282.881	10.19
283.348	2.59
283.816	7.19
284.284	8.69
284.752	17.59
285.22	6.59
285.688	9.99
286.156	3.29
286.623	9.99
287.091	5.19
287.559	6.99
288.026	7.29
288.494	15.29
288.962	-0.01
289.429	0.79
289.897	11.19
290.364	10.89
290.832	12.19
291.3	8.99
291.767	13.69
292.234	13.09
292.702	9.19
293.169	15.69
293.637	15.79
294.104	7.49
294.571	2.69
295.039	5.59
295.506	12.09
295.973	13.29
296.44	11.89
296.908	12.09
297.375	13.49
297.842	17.39
298.309	8.79
298.776	11.79
299.243	14.39
299.71	10.29
300.177	14.69
300.644	11.29
301.111	15.49
301.578	15.59
302.045	13.79
302.512	14.19
302.979	16.59
303.446	20.59
303.913	17.89
304.379	10.39
304.846	22.59
305.313	22.49
305.78	18.69
306.246	20.79
306.713	20.69
307.18	16.49
307.646	17.79
308.113	20.09
308.579	15.09
309.046	17.59
309.512	15.99
309.979	10.19
310.445	21.29
310.912	15.99
311.378	27.49
311.845	16.59
312.311	21.79
312.777	27.59
313.244	22.89
313.71	29.29
314.176	18.79
314.642	27.19
315.109	20.39
315.575	27.99
316.041	30.19
316.507	23.99
316.973	26.39
317.439	20.59
317.905	20.89
318.371	26.99
318.837	25.09
319.303	20.49
319.769	20.79
320.235	21.39
320.701	22.99
321.167	25.69
321.633	23.89
322.099	23.59
322.564	32.49
323.03	29.39
323.496	27.39
323.962	29.39
324.427	22.89
324.893	31.29
325.359	28.79
325.824	28.09
326.29	21.29
326.755	31.59
327.221	30.59
327.686	30.39
328.152	38.89
328.617	33.19
329.083	36.49
329.548	38.69
330.014	36.39
330.479	22.89
330.944	35.79
331.41	33.69
331.875	36.49
332.34	31.99
332.805	31.59
333.271	40.09
333.736	30.29
334.201	40.99
334.666	48.59
335.131	47.39
335.596	43.79
336.061	41.09
336.526	33.69
336.991	40.49
337.456	51.29
337.921	40.69
338.386	33.89
338.851	33.09
339.316	48.19
339.781	40.59
340.246	43.29
340.711	42.39
341.175	38.29
341.64	37.69
342.105	45.69
342.569	44.59
343.034	47.39
343.499	52.29
343.963	44.09
344.428	52.79
344.893	54.59
345.357	56.39
345.822	51.09
346.286	57.89
346.751	60.29
347.215	55.19
347.679	56.09
348.144	73.89
348.608	64.19
349.073	61.79
349.537	69.29
350.001	62.29
350.465	75.69
350.93	62.89
351.394	66.69
351.858	63.79
352.322	75.49
352.786	69.89
353.25	83.99
353.715	93.79
354.179	84.29
354.643	93.59
355.107	97.79
355.571	83.39
356.035	83.79
356.498	100.39
356.962	92.19
357.426	101.49
357.89	95.09
358.354	72.29
358.818	68.69
359.281	69.99
359.745	59.99
360.209	69.09
360.673	63.49
361.136	70.99
361.6	73.89
362.064	70.09
362.527	79.89
362.991	79.39
363.454	71.69
363.918	63.59
364.381	70.99
364.845	75.09
365.308	74.49
365.772	81.19
366.235	77.59
366.698	71.59
367.162	72.39
367.625	75.79
368.088	76.69
368.552	80.19
369.015	73.09
369.478	81.79
369.941	86.19
370.404	82.19
370.867	90.39
371.331	88.99
371.794	93.19
372.257	78.59
372.72	96.99
373.183	91.19
373.646	78.49
374.109	83.89
374.572	91.49
375.035	86.69
375.497	97.69
375.96	95.79
376.423	87.59
376.886	100.19
377.349	95.79
377.811	88.39
378.274	94.09
378.737	99.09
379.199	102.59
379.662	95.79
380.125	111.29
380.587	101.69
381.05	102.79
381.512	104.59
381.975	113.19
382.437	110.29
382.9	110.29
383.362	110.39
383.825	117.59
384.287	111.39
384.75	112.49
385.212	115.39
385.674	120.99
386.136	118.29
386.599	111.59
387.061	108.99
387.523	113.19
387.985	113.09
388.447	121.49
388.91	111.09
389.372	114.79
389.834	128.39
390.296	114.49
390.758	121.09
391.22	129.89
391.682	128.39
392.144	140.29
392.606	137.99
393.068	128.49
393.529	145.39
393.991	136.09
394.453	118.39
394.915	123.29
395.377	129.99
395.838	124.39
396.3	129.79
396.762	134.29
397.224	124.79
397.685	129.89
398.147	127.19
398.608	126.19
399.07	124.59
399.531	128.79
399.993	132.79
400.454	142.79
400.916	141.59
401.377	144.79
401.839	141.69
402.3	150.29
402.762	163.39
403.223	170.69
403.684	162.49
404.145	148.89
404.607	147.69
405.068	159.59
405.529	160.09
405.99	180.59
406.451	166.59
406.913	168.49
407.374	165.49
407.835	156.49
408.296	159.79
408.757	166.29
409.218	175.99
409.679	174.19
410.14	170.79
410.601	163.69
411.062	172.99
411.522	178.09
411.983	167.49
412.444	172.39
412.905	171.89
413.366	180.99
413.826	197.99
414.287	216.69
414.748	263.99
415.208	256.09
415.669	219.59
416.13	214.79
416.59	208.09
417.051	217.99
417.511	225.49
417.972	239.99
418.432	256.29
418.893	294.39
419.353	250.29
419.814	198.79
420.274	182.99
420.734	183.89
421.195	191.59
421.655	186.69
422.115	189.49
422.576	189.99
423.036	199.89
423.496	205.79
423.956	215.69
424.416	229.09
424.876	269.89
425.336	263.69
425.797	262.39
426.257	248.09
426.717	241.69
427.177	231.19
427.637	220.19
428.097	233.09
428.556	246.19
429.016	259.79
429.476	254.89
429.936	262.39
430.396	265.89
430.856	292.29
431.315	304.29
431.775	337.49
432.235	369.39
432.694	338.99
433.154	347.19
433.614	371.89
434.073	325.29
434.533	279.29
434.993	268.29
435.452	273.69
435.912	289.59
436.371	281.19
436.83	275.09
437.29	259.89
437.749	250.69
438.209	241.99
438.668	258.99
439.127	284.99
439.587	265.99
440.046	243.29
440.505	258.69
440.964	275.49
441.424	311.89
441.883	310.19
442.342	262.99
442.801	227.79
443.26	229.69
443.719	230.79
444.178	218.49
444.637	217.09
445.096	223.69
445.555	218.89
446.014	229.89
446.473	237.29
446.932	236.49
447.391	230.79
447.849	235.69
448.308	224.19
448.767	228.09
449.226	246.19
449.685	245.19
450.143	258.09
450.602	246.49
451.061	232.79
451.519	239.19
451.978	237.19
452.436	234.99
452.895	249.69
453.353	264.99
453.812	243.19
454.27	241.19
454.729	243.79
455.187	246.79
455.646	254.49
456.104	255.69
456.562	270.89
457.021	274.89
457.479	271.39
457.937	281.69
458.395	266.79
458.854	254.59
459.312	260.89
459.77	280.09
460.228	269.69
460.686	252.99
461.144	261.09
461.602	250.09
462.06	251.99
462.518	256.79
462.976	258.29
463.434	269.69
463.892	267.99
464.35	286.39
464.808	298.29
465.266	282.09
465.724	283.49
466.181	287.89
466.639	281.99
467.097	300.69
467.555	310.59
468.012	311.29
468.47	318.99
468.928	340.29
469.385	351.69
469.843	357.79
470.3	359.99
470.758	373.59
471.215	394.79
471.673	417.89
472.13	411.59
472.588	421.89
473.045	390.69
473.503	395.19
473.96	404.89
474.417	414.29
474.875	441.19
475.332	485.89
475.789	478.59
476.246	480.19
476.704	503.19
477.161	518.89
477.618	525.89
478.075	569.59
478.532	618.79
478.989	692.59
479.446	794.99
479.903	769.49
480.36	797.89
480.817	844.19
481.274	930.09
481.731	1026.29
482.188	1099.99
482.645	1226.79
483.102	1313.69
483.558	1428.09
484.015	1466.49
484.472	1450.29
484.929	1402.59
485.385	1377.49
485.842	1341.89
486.299	1293.29
486.755	1240.59
487.212	1060.09
487.668	915.39
488.125	841.99
488.582	783.39
489.038	749.99
489.494	717.49
489.951	689.49
490.407	685.59
490.864	661.79
491.32	658.29
491.776	660.59
492.233	659.69
492.689	628.79
493.145	618.09
493.602	605.09
494.058	624.79
494.514	631.19
494.97	648.49
495.426	667.49
495.882	645.29
496.338	622.99
496.794	640.99
497.251	630.79
497.707	647.69
498.163	645.99
498.618	673.79
499.074	649.99
499.53	685.09
499.986	692.39
500.442	665.89
500.898	636.39
501.354	637.29
501.809	647.29
502.265	646.79
502.721	659.89
503.177	666.19
503.632	666.09
504.088	661.89
504.543	699.39
504.999	716.79
505.455	673.69
505.91	656.69
506.366	664.19
506.821	654.09
507.277	653.39
507.732	655.79
508.187	659.49
508.643	660.29
509.098	662.29
509.553	691.29
510.009	689.49
510.464	695.59
510.919	723.29
511.375	712.19
511.83	740.29
512.285	746.89
512.74	784.09
513.195	801.49
513.65	788.79
514.105	790.49
514.56	795.99
515.015	820.49
515.47	838.89
515.925	808.29
516.38	811.89
516.835	822.49
517.29	815.09
517.745	811.59
518.2	790.79
518.655	780.99
519.109	775.99
519.564	768.69
520.019	766.09
520.474	745.29
520.928	756.49
521.383	752.19
521.838	747.69
522.292	748.79
522.747	739.59
523.201	735.59
523.656	726.19
524.11	724.39
524.565	725.49
525.019	718.99
525.474	725.39
525.928	725.89
526.382	713.59
526.837	728.69
527.291	718.89
527.745	726.69
528.2	727.29
528.654	722.19
529.108	718.99
529.562	725.39
530.016	716.09
530.47	727.49
530.925	716.69
531.379	725.89
531.833	730.29
532.287	737.89
532.741	728.29
533.195	728.49
533.649	732.49
534.103	752.49
534.556	735.89
535.01	736.39
535.464	737.79
535.918	744.89
536.372	751.29
536.826	748.79
537.279	733.19
537.733	740.09
538.187	735.89
538.64	737.49
539.094	746.79
539.548	757.19
540.001	756.29
540.455	755.09
540.908	763.49
541.362	764.79
541.815	774.69
542.269	789.99
542.722	794.69
543.175	798.09
543.629	801.69
544.082	821.59
544.536	823.19
544.989	824.39
545.442	832.19
545.895	826.99
546.349	821.19
546.802	830.29
547.255	831.79
547.708	841.09
548.161	853.39
548.614	867.99
549.067	867.49
549.52	859.19
549.973	836.69
550.426	847.29
550.879	832.89
551.332	838.89
551.785	836.79
552.238	848.69
552.691	860.89
553.144	876.99
553.596	893.99
554.049	900.79
554.502	933.49
554.955	952.69
555.407	941.39
555.86	942.99
556.313	947.49
556.765	925.19
557.218	924.59
557.67	917.29
558.123	918.79
558.576	903.79
559.028	918.49
559.48	920.09
559.933	911.49
560.385	880.09
560.838	856.59
561.29	819.89
561.742	828.69
562.195	807.69
562.647	796.59
563.099	803.89
563.551	808.29
564.004	818.09
564.456	808.09
564.908	790.29
565.36	768.19
565.812	765.79
566.264	753.09
566.716	753.99
567.168	732.69
567.62	742.49
568.072	733.19
568.524	739.09
568.976	731.09
569.428	707.69
569.88	722.49
570.332	720.29
570.784	705.99
571.235	714.49
571.687	728.29
572.139	735.89
572.59	745.69
573.042	745.29
573.494	745.09
573.945	739.59
574.397	718.29
574.849	725.59
575.3	721.19
575.752	710.29
576.203	706.69
576.655	717.19
577.106	704.89
577.557	689.79
578.009	698.29
578.46	686.49
578.912	690.09
579.363	700.79
579.814	696.89
580.265	697.19
580.717	700.69
581.168	699.49
581.619	704.99
582.07	710.99
582.521	697.09
582.972	695.39
583.423	706.29
583.875	700.89
584.326	706.49
584.777	727.79
585.227	744.39
585.678	750.19
586.129	761.59
586.58	777.99
587.031	807.49
587.482	826.69
587.933	857.89
588.384	837.09
588.834	813.49
589.285	798.99
589.736	807.49
590.186	802.89
590.637	800.59
591.088	781.89
591.538	763.49
591.989	759.49
592.439	745.29
592.89	756.79
593.34	733.69
593.791	723.19
594.241	723.79
594.692	720.09
595.142	728.29
595.593	718.09
596.043	730.69
596.493	740.59
596.943	739.89
597.394	746.99
597.844	741.29
598.294	771.09
598.744	784.39
599.195	805.79
599.645	851.09
600.095	890.89
600.545	956.39
600.995	1001.49
601.445	1064.39
601.895	1131.99
602.345	1174.99
602.795	1156.29
603.245	1115.09
603.695	1065.19
604.145	1005.89
604.594	957.99
605.044	895.49
605.494	834.69
605.944	790.19
606.393	773.69
606.843	753.79
607.293	765.59
607.743	749.29
608.192	760.09
608.642	768.19
609.091	789.29
609.541	790.89
609.99	785.69
610.44	788.19
610.889	739.19
611.339	720.99
611.788	708.89
612.238	717.79
612.687	731.49
613.136	716.59
613.586	726.39
614.035	715.99
614.484	735.89
614.933	736.69
615.383	731.29
615.832	732.99
616.281	729.29
616.73	691.19
617.179	674.49
617.628	671.09
618.077	650.39
618.526	634.79
618.975	648.79
619.424	638.79
619.873	631.19
620.322	639.29
620.771	631.69
621.22	631.39
621.669	618.59
622.118	616.29
622.567	594.69
623.015	591.59
623.464	585.99
623.913	574.69
624.361	574.39
624.81	561.69
625.259	569.09
625.707	576.29
626.156	574.79
626.604	591.99
627.053	581.29
627.501	591.09
627.95	590.49
628.398	606.79
628.847	586.09
629.295	591.29
629.744	589.99
630.192	585.49
630.64	578.49
631.089	565.19
631.537	558.49
631.985	547.89
632.433	545.29
632.881	533.09
633.33	537.49
633.778	534.69
634.226	544.09
634.674	554.69
635.122	550.49
635.57	566.89
636.018	584.39
636.466	580.89
636.914	570.39
637.362	593.29
637.81	599.09
638.258	609.89
638.705	603.99
639.153	638.99
639.601	638.19
640.049	658.49
640.497	695.79
640.944	707.49
641.392	668.69
641.84	631.99
642.287	596.89
642.735	571.59
643.182	575.99
643.63	578.09
644.078	566.79
644.525	586.89
644.973	600.49
645.42	609.39
645.867	625.09
646.315	643.09
646.762	668.39
647.21	704.49
647.657	723.69
648.104	745.59
648.551	762.99
648.999	833.99
649.446	903.89
649.893	984.79
650.34	1122.29
650.787	1339.69
651.234	1647.89
651.682	2136.09
652.129	2873.69
652.576	4073.19
653.023	5933.39
653.47	8016.59
653.917	9967.39
654.363	11460.49
654.81	12653.19
655.257	11990.69
655.704	7924.09
656.151	4802.19
656.598	3142.79
657.044	2251.59
657.491	1760.59
657.938	1426.69
658.385	1198.79
658.831	1039.69
659.278	941.79
659.724	845.29
660.171	776.69
660.618	729.69
661.064	684.79
661.511	662.39
661.957	654.89
662.404	649.29
662.85	662.49
663.296	623.49
663.743	564.59
664.189	556.49
664.635	537.39
665.082	534.49
665.528	542.69
665.974	527.29
666.42	520.19
666.867	512.89
667.313	503.49
667.759	482.39
668.205	465.49
668.651	469.29
669.097	460.69
669.543	454.69
669.989	452.69
670.435	458.99
670.881	463.89
671.327	466.19
671.773	481.79
672.219	508.19
672.665	560.69
673.11	604.89
673.556	644.79
674.002	689.89
674.448	671.79
674.893	570.79
675.339	495.09
675.785	445.89
676.23	432.39
676.676	406.19
677.122	391.49
677.567	397.79
678.013	375.39
678.458	367.29
678.904	378.59
679.349	369.99
679.794	368.29
680.24	365.09
680.685	365.89
681.131	362.39
681.576	370.29
682.021	375.39
682.466	362.79
682.912	365.19
683.357	362.39
683.802	390.69
684.247	425.59
684.692	473.39
685.137	509.09
685.583	552.19
686.028	594.59
686.473	542.29
686.918	473.89
687.363	438.89
687.807	401.19
688.252	377.39
688.697	365.19
689.142	346.19
689.587	337.09
690.032	328.39
690.477	361.79
690.921	365.89
691.366	398.09
691.811	409.89
692.255	450.09
692.7	483.29
693.145	526.89
693.589	730.59
694.034	1193.29
694.478	1610.69
694.923	1817.79
695.367	2340.99
695.812	1234.39
696.256	526.89
696.701	393.19
697.145	358.29
697.59	338.99
698.034	327.69
698.478	336.09
698.922	332.49
699.367	331.99
699.811	344.89
700.255	366.49
700.699	402.29
701.143	441.49
701.588	494.99
702.032	527.89
702.476	534.79
702.92	510.49
703.364	518.89
703.808	677.39
704.252	1091.29
704.696	1527.49
705.14	1740.49
705.584	2219.99
706.027	1112.69
706.471	546.49
706.915	412.79
707.359	362.09
707.803	335.19
708.246	324.39
708.69	323.79
709.134	329.39
709.577	319.69
710.021	330.99
710.465	310.89
710.908	313.89
711.352	317.09
711.795	329.49
712.239	366.09
712.682	405.49
713.126	434.99
713.569	475.99
714.012	371.59
714.456	309.29
714.899	299.29
715.342	281.99
715.786	262.49
716.229	270.59
716.672	265.89
717.115	260.89
717.558	255.19
718.002	258.59
718.445	273.99
718.888	293.79
719.331	301.69
719.774	317.09
720.217	310.99
720.66	295.89
721.103	279.99
721.546	261.29
721.989	259.29
722.432	238.99
722.874	250.09
723.317	239.39
723.76	238.89
724.203	264.09
724.645	325.69
725.088	458.59
725.531	596.09
725.974	665.49
726.416	575.29
726.859	312.89
727.301	256.89
727.744	248.49
728.187	245.59
728.629	249.19
729.071	247.49
729.514	262.79
729.956	278.59
730.399	297.49
730.841	296.69
731.283	282.99
731.726	275.69
732.168	275.19
732.61	277.59
733.053	295.59
733.495	335.49
733.937	372.49
734.379	420.49
734.821	453.99
735.263	570.79
735.705	876.19
736.148	1676.09
736.59	2710.49
737.032	3189.59
737.474	2605.79
737.916	852.79
738.357	447.89
738.799	331.49
739.241	316.19
739.683	297.49
740.125	304.89
740.567	311.99
741.008	331.59
741.45	329.19
741.892	332.09
742.334	369.89
742.775	378.49
743.217	355.39
743.658	285.09
744.1	258.79
744.542	272.49
744.983	331.69
745.425	362.69
745.866	355.39
746.307	284.89
746.749	289.89
747.19	341.09
747.632	482.29
748.073	938.59
748.514	1953.19
748.956	2977.59
749.397	3750.79
749.838	3112.99
750.279	3098.09
750.72	1582.39
751.162	575.79
751.603	340.09
752.044	260.39
752.485	228.79
752.926	217.29
753.367	214.79
753.808	204.59
754.249	194.79
754.69	188.59
755.131	197.29
755.572	185.79
756.013	185.19
756.453	189.29
756.894	187.49
757.335	192.99
757.776	206.69
758.216	201.79
758.657	203.19
759.098	208.19
759.538	237.29
759.979	280.79
760.42	392.59
760.86	758.79
761.301	1938.89
761.741	4672.09
762.182	6712.69
762.622	4741.99
763.063	1385.19
763.503	557.39
763.943	336.19
764.384	274.99
764.824	251.59
765.264	232.79
765.705	215.69
766.145	187.69
766.585	180.29
767.025	173.89
767.465	169.59
767.906	186.39
768.346	191.29
768.786	202.29
769.226	217.79
769.666	319.29
770.106	645.39
770.546	1645.39
770.986	2773.79
771.426	2459.49
771.866	832.69
772.306	343.49
772.745	210.39
773.185	173.89
773.625	165.09
774.065	153.69
774.505	162.89
774.944	207.59
775.384	374.99
775.824	591.49
776.263	580.39
776.703	288.69
777.142	160.09
777.582	137.59
778.021	132.49
778.461	125.99
778.9	124.79
779.34	130.29
779.779	111.99
780.219	117.09
780.658	105.59
781.097	109.29
781.537	121.89
781.976	108.79
782.415	108.39
782.855	102.09
783.294	102.39
783.733	106.29
784.172	108.69
784.611	110.49
785.05	108.99
785.489	112.89
785.928	123.09
786.367	128.89
786.806	122.49
787.245	129.99
787.684	142.49
788.123	153.19
788.562	144.19
789.001	130.39
789.44	125.89
789.879	115.99
790.317	121.69
790.756	133.59
791.195	134.89
791.634	152.89
792.072	215.89
792.511	392.79
792.95	1050.59
793.388	2221.09
793.827	1979.59
794.265	703.29
794.704	285.69
795.142	190.29
795.581	159.89
796.019	141.39
796.458	135.59
796.896	128.49
797.334	134.59
797.773	160.89
798.211	234.69
798.649	467.59
799.087	1071.99
799.526	1673.59
799.964	2110.89
800.402	2101.89
800.84	796.59
801.278	313.69
801.716	198.69
802.154	166.99
802.592	155.89
803.03	143.29
803.468	138.09
803.906	145.69
804.344	147.69
804.782	147.99
805.22	141.59
805.658	138.69
806.096	153.49
806.533	160.69
806.971	185.79
807.409	227.89
807.847	335.79
808.284	698.59
808.722	1986.99
809.16	3461.69
809.597	3318.29
810.035	5724.69
810.472	6039.49
810.91	2187.99
811.347	831.99
811.785	426.59
812.222	265.59
812.66	203.19
813.097	173.49
813.535	148.09
813.972	141.49
814.409	125.79
814.846	113.09
815.284	114.49
815.721	108.59
816.158	106.89
816.595	110.69
817.032	165.49
817.47	183.39
817.907	146.09
818.344	106.39
818.781	101.59
819.218	96.39
819.655	130.39
820.092	193.99
820.529	226.89
820.966	178.19
821.403	138.79
821.839	108.99
822.276	101.59
822.713	127.39
823.15	140.09
823.587	123.69
824.023	148.89
824.46	313.19
824.897	942.69
825.333	1414.79
825.77	607.49
826.206	234.99
826.643	139.69
827.08	102.19
827.516	84.89
827.953	78.49
828.389	82.49
828.825	74.79
829.262	67.39
829.698	63.29
830.135	69.29
830.571	64.49
831.007	69.19
831.443	68.99
831.88	61.59
832.316	66.09
832.752	66.79
833.188	69.69
833.624	62.19
834.06	69.99
834.497	72.09
834.933	71.39
835.369	79.39
835.805	78.69
836.241	83.59
836.677	81.99
837.112	93.59
837.548	104.39
837.984	138.69
838.42	214.09
838.856	527.99
839.292	1597.99
839.727	2409.99
840.163	1126.59
840.599	981.39
841.034	2136.99
841.47	2219.79
841.906	808.29
842.341	346.99
842.777	210.89
843.212	205.49
843.648	189.79
844.083	110.39
844.519	84.39
844.954	70.79
845.39	58.69
845.825	64.59
846.261	55.99
846.696	52.49
847.131	53.09
847.566	60.99
848.002	59.89
848.437	56.89
848.872	62.99
849.307	60.99
849.742	88.99
850.177	193.39
850.613	578.69
851.048	909.79
851.483	397.89
851.918	167.69
852.353	93.29
852.788	59.19
853.223	56.79
853.657	56.09
854.092	55.29
854.527	44.19
854.962	39.59
855.397	47.89
855.832	58.49
856.266	45.89
856.701	47.49
857.136	36.09
857.57	48.99
858.005	55.19
858.44	68.59
858.874	49.69
859.309	57.59
859.743	45.59
860.178	45.09
860.612	47.09
861.047	55.79
861.481	75.09
861.915	79.39
862.35	58.69
862.784	33.19
863.218	37.89
863.653	36.29
864.087	48.59
864.521	56.39
864.955	69.69
865.39	158.29
865.824	180.29
866.258	118.79
866.692	175.49
867.126	190.49
867.56	119.29
867.994	56.79
868.428	41.89
868.862	48.69
869.296	57.79
869.73	61.59
870.164	65.49
870.598	53.69
871.031	44.49
871.465	30.19
871.899	27.29
872.333	29.09
872.766	31.59
873.2	24.29
873.634	30.29
874.067	24.89
874.501	27.49
874.935	29.69
875.368	28.99
875.802	27.29
876.235	24.29
876.669	24.99
877.102	21.29
877.535	26.49
877.969	23.19
878.402	22.39
878.836	22.39
879.269	26.79
879.702	30.39
880.135	22.49
880.569	24.69
881.002	31.09
881.435	23.79
881.868	11.89
882.301	21.79
882.734	15.09
883.167	25.19
883.601	19.09
884.034	20.39
884.467	18.29
884.899	20.19
885.332	19.59
885.765	11.99
886.198	17.29
886.631	19.19
887.064	15.09
887.497	18.19
887.929	25.89
888.362	13.89
888.795	13.49
889.228	20.49
889.66	23.79
890.093	21.99
890.526	20.29
890.958	18.29
891.391	19.29
891.823	21.99
892.256	20.19
892.688	11.69
893.121	16.49
893.553	16.39
893.985	28.39
894.418	14.09
894.85	18.89
895.282	15.49
895.715	21.69
896.147	19.49
896.579	20.69
897.011	15.49
897.444	17.89
897.876	14.59
898.308	15.99
898.74	17.99
899.172	11.19
899.604	19.49
900.036	17.39
900.468	12.49
900.9	17.59
901.332	23.29
901.764	16.99
902.196	19.79
902.628	17.39
903.06	17.89
903.491	29.79
903.923	26.49
904.355	23.59
904.787	29.59
905.218	18.59
905.65	19.89
906.082	12.29
906.513	13.49
906.945	16.09
907.376	11.29
907.808	18.49
908.239	26.09
908.671	21.49
909.102	21.89
909.534	28.69
909.965	49.39
910.397	101.99
910.828	335.59
911.259	492.49
911.691	222.99
912.122	113.79
912.553	52.89
912.984	37.99
913.415	32.49
913.847	25.69
914.278	8.89
914.709	22.79
915.14	28.69
915.571	18.99
916.002	16.49
916.433	21.69
916.864	19.69
917.295	14.29
917.726	19.69
918.157	19.29
918.587	27.89
919.018	27.99
919.449	16.89
919.88	27.89
920.311	26.69
920.741	52.49
921.172	176.79
921.603	148.99
922.033	76.79
922.464	46.99
922.895	20.19
923.325	23.49
923.756	14.59
924.186	13.89
924.617	15.89
925.047	17.69
925.478	18.59
925.908	26.39
926.338	12.69
926.769	14.29
927.199	16.89
927.629	6.69
928.06	10.99
928.49	9.59
928.92	8.79
929.35	11.99
929.78	13.29
930.21	13.19
930.641	11.39
931.071	11.59
931.501	5.19
931.931	11.19
932.361	13.39
932.791	6.69
933.221	0.39
933.651	8.39
934.08	15.79
934.51	27.49
934.94	10.19
935.37	12.89
935.8	6.69
936.229	11.89
936.659	13.29
937.089	1.59
937.519	14.69
937.948	25.49
938.378	16.19
938.807	0.09
939.237	1.69
939.666	4.69
940.096	-4.91
940.525	3.19
940.955	3.89
941.384	1.69
941.814	-3.21
942.243	-4.61
942.672	1.29
943.102	-8.51
943.531	0.49
943.96	3.69
944.39	2.79
944.819	0.69
945.248	4.89
945.677	0.19
946.106	6.09
946.535	10.29
946.964	2.79
947.393	4.89
947.822	6.39
948.251	-4.71
948.68	-2.41
949.109	4.79
949.538	6.89
949.967	-0.11
950.396	6.69
950.825	2.29
951.254	-3.41
951.682	-5.91
952.111	5.09
952.54	9.79
952.969	-4.11
953.397	-6.41
953.826	-4.51
954.254	-6.91
954.683	1.99
955.112	-1.71
955.54	-4.51
955.969	3.49
956.397	-1.41
956.826	-2.31
957.254	5.59
957.682	4.49
958.111	4.69
958.539	1.29
958.967	3.49
959.396	0.69
959.824	-0.41
960.252	1.79
960.68	-3.21
961.109	4.19
961.537	-0.91
961.965	-0.21
962.393	-0.91
962.821	-5.01
963.249	1.69
963.677	8.49
964.105	12.29
964.533	48.39
964.961	46.29
965.389	22.99
965.817	5.79
966.245	3.29
966.672	-3.91
967.1	-3.31
967.528	1.39
967.956	-3.21
968.383	-2.81
968.811	-1.01
969.239	-0.01
969.666	-0.51
970.094	-5.11
970.522	1.79
970.949	-1.11
971.377	-1.21
971.804	-2.31
972.232	-1.31
972.659	-7.01
973.087	-7.01
973.514	-6.51
973.941	-2.31
974.369	6.59
974.796	6.09
975.223	-1.21
975.651	-2.61
976.078	-2.31
976.505	-0.71
976.932	7.69
977.359	10.79
977.786	12.59
978.214	0.19
978.641	-5.01
979.068	-7.31
979.495	-6.71
979.922	-0.01
980.349	-0.61
980.776	2.39
981.202	0.19
981.629	1.59
982.056	5.39
982.483	-2.91
982.91	3.39
983.337	-6.71
983.763	6.89
984.19	-5.11
984.617	1.99
985.043	-5.61
985.47	-0.81
985.897	-7.41
986.323	-6.51
986.75	4.89
987.176	-0.31
987.603	2.09
988.029	-1.21
988.456	-6.41
988.882	1.99
989.308	-10.81
989.735	1.79
990.161	2.59
990.587	-4.71
991.014	2.19
991.44	5.69
991.866	-2.21
992.292	-1.21
992.719	-4.91
993.145	3.59
993.571	-8.51
993.997	-9.11
994.423	0.89
994.849	-5.31
995.275	-1.31
995.701	0.59
996.127	-2.71
996.553	3.99
996.979	-2.11
997.405	0.39
997.83	-4.91
998.256	-4.61
998.682	-3.31
999.108	-5.11
999.534	1.59
999.959	2.49
1000.385	-0.41
1000.811	2.89
1001.236	-7.91
1001.662	-7.31
1002.087	-4.11
1002.513	0.49
1002.938	2.19
1003.364	0.59
1003.789	0.69
1004.215	0.29
1004.64	-1.61
1005.066	0.49
1005.491	-0.51
1005.916	-0.81
1006.342	1.69
1006.767	-5.51
1007.192	4.89
1007.617	-5.21
1008.042	-4.41
1008.468	-3.21
1008.893	-4.51
1009.318	-7.71
1009.743	-3.01
1010.168	4.19
1010.593	-3.91
1011.018	-5.51
1011.443	-0.61
1011.868	3.39
1012.293	-9.01
1012.718	-6.91
1013.143	4.79
1013.567	-3.81
1013.992	-4.51
1014.417	-18.11
1014.842	0.39
1015.267	-10.81
1015.691	-3.51
1016.116	4.99
1016.541	-1.51
1016.965	6.79
1017.39	4.19
1017.814	-1.91
1018.239	-8.31
1018.663	-4.71
1019.088	-7.51
1019.512	-1.01
1019.937	0.49
1020.361	-5.51
1020.785	-9.61
1021.21	-4.91
1021.634	-1.91
1022.058	-1.61
1022.483	1.99
1022.907	-0.61
1023.331	-2.71
1023.755	-6.71
1024.179	-2.21
1024.604	-6.71
1025.028	-7.21
1025.452	-1.31
1025.876	-1.31
1026.3	1.69
1026.724	-8.71
1027.148	-10.81
1027.572	-11.41
1027.996	-2.51
1028.42	0.29
1028.843	-8.11
1029.267	-11.11
1029.691	5.19
1030.115	-5.81
1030.539	-7.71
1030.962	-4.11
1031.386	-5.91
1031.81	-1.01
1032.233	0.29
1032.657	-3.61
1033.08	-3.51
1033.504	-5.91
1033.927	-7.51
1034.351	-7.81
1034.774	-5.41
1035.198	-0.21
1035.621	-4.51
1036.045	-6.01
1036.468	-0.31
1036.891	-7.91
1037.315	-7.41
1037.738	-12.01
1038.161	1.89
1038.584	-6.41
1039.008	-4.81
1039.431	-6.11
1039.854	-2.91
1040.277	-6.61
1040.7	-7.01
1041.123	-2.21
1041.546	-6.11
1041.969	-5.21
1042.392	-1.51
1042.815	-3.11
1043.238	1.19
1043.661	4.19
1044.084	2.59
1044.507	-5.51
1044.93	-5.41
1045.352	-5.01
1045.775	-2.71
1046.198	-2.71
1046.621	-3.31
1047.043	-3.41
1047.466	4.89
1047.889	-6.31
1048.311	-0.51
1048.734	-3.41
1049.156	-4.11
1049.579	-3.11
1050.001	-2.71
1050.424	-0.61
1050.846	-6.81
1051.269	0.59
1051.691	-3.91
1052.113	-7.61
1052.536	-2.31
1052.958	-4.51
1053.38	-4.41
1053.802	-12.51
1054.225	1.09
1054.647	-6.71
1055.069	-8.81
1055.491	1.49
1055.913	-13.71
1056.335	1.39
1056.757	-1.41
1057.179	-12.11
1057.601	-5.01
1058.023	-6.11
1058.445	-6.11
1058.867	2.89
1059.289	0.19
1059.711	-3.01
1060.133	-2.31
1060.555	-5.41
1060.976	-5.71
1061.398	-6.71
1061.82	-3.71
1062.241	-7.51
1062.663	-8.01
1063.085	-5.41
1063.506	-4.91
1063.928	1.89
1064.35	-2.81
1064.771	-11.71
1065.193	-3.51
1065.614	-12.21
1066.035	-3.71
1066.457	-3.81
1066.878	-5.61
1067.3	-2.61
1067.721	-5.21
1068.142	-6.61
1068.564	-3.11
1068.985	-9.21
1069.406	-8.41
1069.827	-3.71
1070.248	-3.81
1070.67	-7.91
1071.091	-10.41
1071.512	-6.31
1071.933	-4.81
1072.354	-7.01
1072.775	-4.21
1073.196	-11.31
1073.617	-3.21
1074.038	-6.31
1074.459	-0.11
1074.88	-6.61
1075.3	-3.11
1075.721	-8.11
1076.142	-0.01
1076.563	-0.81
1076.983	-16.41
1077.404	-4.51
1077.825	-6.41
1078.246	-0.21
1078.666	-10.71
1079.087	-2.71
1079.507	-6.31
1079.928	0.29
1080.348	-6.01
1080.769	-8.91
1081.189	-1.41
1081.61	-0.01
1082.03	-9.31
1082.451	-12.01
1082.871	-3.71
1083.291	-6.51
1083.711	-13.71
1084.132	-6.81
1084.552	-2.21
1084.972	1.89
1085.392	-7.21
1085.813	-10.01
1086.233	-5.81
1086.653	-8.51
1087.073	1.89
1087.493	-8.01
1087.913	-13.51
1088.333	-6.41
1088.753	-5.41
1089.173	0.89
1089.593	-2.91
1090.013	0.79
1090.433	-0.01
1090.852	-2.21
1091.272	-1.91
1091.692	-0.51
1092.112	-5.11
1092.531	-8.11
1092.951	-16.41
1093.371	-2.51
1093.79	-0.21
1094.21	-8.21
1094.63	-7.61
1095.049	-6.71
1095.469	-4.01
1095.888	-4.01
1096.308	4.59
1096.727	1.49
1097.146	-6.31
1097.566	-2.31
1097.985	-5.71
1098.405	-1.21
1098.824	-9.51
1099.243	-3.91
1099.662	-11.91
1100.082	-5.61
1100.501	-4.81
1100.92	-9.71
1101.339	0.79
1101.758	-8.91
