Data from 20171114-ORNL-Ar_H_NY_Subt18_08-08-03-373.txt Node
Date: Tue Nov 14 08:08:03 EST 2017
User: Ender
Spectrometer: HR+D1039
Trigger mode: 0
Integration Time (sec): 2.730000E-2
Scans to average: 10
Electric dark correction enabled: true
Nonlinearity correction enabled: false
Boxcar width: 0
XAxis mode: Wavelengths
Number of Pixels in Spectrum: 2048
>>>>>Begin Spectral Data<<<<<
187.836	-5.97
188.309	-5.97
188.782	-5.97
189.255	2.83
189.728	-0.87
190.201	6.93
190.674	-0.37
191.147	-1.87
191.619	-8.27
192.092	0.73
192.565	3.73
193.038	-1.47
193.511	1.53
193.984	5.13
194.456	-1.07
194.929	1.03
195.402	-1.47
195.874	-0.57
196.347	-2.57
196.82	-7.47
197.292	1.93
197.765	3.63
198.237	-7.27
198.71	2.03
199.182	-8.37
199.655	-1.87
200.127	0.43
200.6	-1.97
201.072	-1.67
201.544	-5.87
202.017	0.83
202.489	3.93
202.961	4.23
203.433	-0.07
203.906	-3.87
204.378	-5.47
204.85	-8.77
205.322	-7.87
205.794	-1.07
206.266	0.33
206.739	-10.27
207.211	-0.37
207.683	-10.87
208.155	-9.77
208.627	-7.07
209.099	-8.47
209.57	-11.97
210.042	-4.07
210.514	-0.17
210.986	-4.17
211.458	-2.17
211.93	-0.57
212.402	5.63
212.873	-5.47
213.345	-5.77
213.817	-10.17
214.288	-1.97
214.76	-11.17
215.232	0.03
215.703	0.13
216.175	-6.67
216.646	0.63
217.118	-7.17
217.589	-4.37
218.061	0.33
218.532	-3.57
219.004	-1.17
219.475	-7.07
219.946	-2.97
220.418	-4.27
220.889	-0.07
221.36	1.33
221.832	-3.87
222.303	-1.37
222.774	3.43
223.245	-11.77
223.717	-7.37
224.188	-2.17
224.659	-6.57
225.13	-8.07
225.601	-5.77
226.072	-0.37
226.543	-1.07
227.014	1.53
227.485	-1.67
227.956	-7.57
228.427	-0.87
228.898	-2.07
229.369	4.73
229.839	-2.87
230.31	-7.97
230.781	-1.47
231.252	-1.97
231.722	-7.37
232.193	-1.57
232.664	-1.57
233.135	2.03
233.605	-4.87
234.076	-3.77
234.546	0.13
235.017	8.33
235.487	1.13
235.958	7.33
236.428	-3.97
236.899	1.93
237.369	-0.87
237.84	-1.77
238.31	5.33
238.78	-1.37
239.251	-0.97
239.721	-0.17
240.191	3.83
240.662	-0.67
241.132	-1.47
241.602	-6.07
242.072	-3.37
242.542	10.63
243.013	-0.97
243.483	2.53
243.953	2.03
244.423	0.13
244.893	-1.67
245.363	6.03
245.833	2.73
246.303	1.33
246.773	5.43
247.243	2.43
247.712	3.63
248.182	5.23
248.652	3.53
249.122	-3.17
249.592	14.63
250.061	18.13
250.531	37.73
251.001	15.23
251.471	20.53
251.94	18.93
252.41	4.23
252.879	2.03
253.349	10.73
253.818	10.33
254.288	6.73
254.757	7.43
255.227	6.83
255.696	-0.37
256.166	10.33
256.635	4.23
257.105	7.53
257.574	4.73
258.043	6.73
258.513	12.33
258.982	19.73
259.451	6.33
259.92	9.53
260.389	15.83
260.859	17.73
261.328	9.63
261.797	17.33
262.266	6.33
262.735	14.13
263.204	6.33
263.673	4.83
264.142	7.13
264.611	-0.17
265.08	1.93
265.549	-3.17
266.018	10.63
266.487	2.23
266.955	-1.67
267.424	0.23
267.893	12.13
268.362	-0.27
268.83	3.13
269.299	13.23
269.768	0.83
270.236	5.63
270.705	2.83
271.174	2.13
271.642	11.83
272.111	7.73
272.579	18.83
273.048	17.03
273.516	28.83
273.985	26.03
274.453	19.73
274.922	17.53
275.39	9.13
275.858	4.43
276.327	11.33
276.795	19.33
277.263	7.03
277.731	28.83
278.2	56.63
278.668	54.13
279.136	48.93
279.604	18.53
280.072	16.03
280.54	3.83
281.008	14.23
281.477	18.83
281.945	14.33
282.413	13.63
282.881	15.93
283.348	5.93
283.816	12.93
284.284	10.73
284.752	13.93
285.22	13.33
285.688	21.33
286.156	25.63
286.623	42.63
287.091	49.53
287.559	23.73
288.026	15.53
288.494	16.53
288.962	4.83
289.429	15.33
289.897	23.03
290.364	11.83
290.832	18.03
291.3	18.93
291.767	17.93
292.234	21.23
292.702	16.23
293.169	23.33
293.637	18.73
294.104	19.23
294.571	9.33
295.039	12.03
295.506	16.53
295.973	21.23
296.44	11.73
296.908	17.63
297.375	22.03
297.842	20.73
298.309	16.53
298.776	17.33
299.243	23.03
299.71	14.83
300.177	23.23
300.644	19.63
301.111	20.13
301.578	24.33
302.045	18.83
302.512	19.63
302.979	20.33
303.446	21.83
303.913	15.63
304.379	13.03
304.846	16.83
305.313	22.03
305.78	23.23
306.246	25.23
306.713	26.33
307.18	25.03
307.646	26.73
308.113	24.13
308.579	22.93
309.046	26.93
309.512	29.13
309.979	19.13
310.445	29.73
310.912	26.63
311.378	33.83
311.845	25.03
312.311	23.73
312.777	30.33
313.244	29.63
313.71	31.83
314.176	31.63
314.642	34.23
315.109	26.73
315.575	38.93
316.041	43.83
316.507	38.53
316.973	40.33
317.439	35.53
317.905	35.23
318.371	31.93
318.837	35.53
319.303	36.73
319.769	33.73
320.235	33.03
320.701	34.83
321.167	38.13
321.633	35.93
322.099	37.23
322.564	40.63
323.03	36.03
323.496	35.73
323.962	38.13
324.427	34.73
324.893	45.23
325.359	41.63
325.824	35.23
326.29	35.23
326.755	35.33
327.221	41.23
327.686	38.03
328.152	47.73
328.617	37.93
329.083	38.83
329.548	53.03
330.014	48.83
330.479	42.53
330.944	48.43
331.41	48.43
331.875	39.83
332.34	41.53
332.805	41.53
333.271	49.53
333.736	40.33
334.201	49.53
334.666	50.03
335.131	54.03
335.596	49.93
336.061	49.03
336.526	42.23
336.991	49.63
337.456	59.83
337.921	48.63
338.386	45.13
338.851	43.63
339.316	46.03
339.781	45.53
340.246	46.23
340.711	48.53
341.175	50.23
341.64	37.73
342.105	52.93
342.569	50.23
343.034	64.13
343.499	53.73
343.963	56.63
344.428	66.53
344.893	59.63
345.357	54.13
345.822	64.33
346.286	65.63
346.751	71.33
347.215	64.43
347.679	67.33
348.144	99.33
348.608	83.53
349.073	70.53
349.537	69.33
350.001	78.43
350.465	89.83
350.93	78.33
351.394	74.83
351.858	77.53
352.322	83.93
352.786	77.33
353.25	99.93
353.715	107.53
354.179	95.23
354.643	124.23
355.107	125.93
355.571	109.83
356.035	101.63
356.498	120.53
356.962	126.33
357.426	131.53
357.89	118.83
358.354	88.73
358.818	81.03
359.281	76.73
359.745	70.13
360.209	66.83
360.673	71.23
361.136	81.43
361.6	84.63
362.064	83.83
362.527	84.33
362.991	92.23
363.454	86.63
363.918	80.73
364.381	75.13
364.845	80.23
365.308	79.03
365.772	88.03
366.235	78.93
366.698	84.43
367.162	83.43
367.625	81.73
368.088	86.03
368.552	89.43
369.015	85.13
369.478	98.33
369.941	97.23
370.404	91.23
370.867	108.23
371.331	111.73
371.794	111.93
372.257	109.93
372.72	120.83
373.183	112.43
373.646	103.13
374.109	112.33
374.572	105.03
375.035	107.23
375.497	105.83
375.96	103.73
376.423	104.63
376.886	108.73
377.349	105.93
377.811	99.63
378.274	104.93
378.737	105.43
379.199	112.23
379.662	119.83
380.125	124.03
380.587	117.73
381.05	123.23
381.512	126.73
381.975	135.93
382.437	133.23
382.9	126.23
383.362	135.23
383.825	142.83
384.287	149.53
384.75	139.83
385.212	143.23
385.674	143.43
386.136	134.73
386.599	130.03
387.061	124.03
387.523	133.23
387.985	137.13
388.447	142.03
388.91	153.83
389.372	158.13
389.834	156.33
390.296	143.53
390.758	163.13
391.22	177.43
391.682	208.23
392.144	303.93
392.606	234.03
393.068	163.03
393.529	163.83
393.991	156.83
394.453	147.93
394.915	155.93
395.377	195.23
395.838	213.93
396.3	161.33
396.762	135.23
397.224	133.63
397.685	130.93
398.147	130.73
398.608	126.93
399.07	127.83
399.531	138.63
399.993	144.83
400.454	160.63
400.916	154.03
401.377	145.63
401.839	150.93
402.3	161.33
402.762	165.83
403.223	190.73
403.684	169.13
404.145	162.03
404.607	161.33
405.068	167.33
405.529	163.23
405.99	185.53
406.451	181.03
406.913	177.53
407.374	166.63
407.835	164.73
408.296	167.03
408.757	171.83
409.218	180.33
409.679	178.03
410.14	177.93
410.601	180.73
411.062	184.73
411.522	190.63
411.983	195.13
412.444	184.83
412.905	180.33
413.366	180.23
413.826	187.43
414.287	216.03
414.748	264.43
415.208	239.33
415.669	210.33
416.13	209.93
416.59	200.03
417.051	207.53
417.511	220.33
417.972	237.03
418.432	238.53
418.893	288.83
419.353	254.83
419.814	199.93
420.274	187.93
420.734	180.83
421.195	200.13
421.655	198.63
422.115	194.13
422.576	199.13
423.036	199.23
423.496	208.03
423.956	219.03
424.416	234.73
424.876	265.83
425.336	265.53
425.797	265.73
426.257	263.33
426.717	244.83
427.177	238.93
427.637	222.73
428.097	232.63
428.556	242.73
429.016	270.93
429.476	270.73
429.936	272.53
430.396	279.43
430.856	301.33
431.315	314.43
431.775	350.33
432.235	386.13
432.694	358.63
433.154	368.53
433.614	397.23
434.073	346.43
434.533	299.53
434.993	273.93
435.452	284.33
435.912	305.13
436.371	287.33
436.83	285.43
437.29	274.53
437.749	250.93
438.209	248.43
438.668	272.33
439.127	281.23
439.587	268.93
440.046	254.63
440.505	264.93
440.964	281.43
441.424	333.23
441.883	316.73
442.342	258.53
442.801	232.53
443.26	218.93
443.719	230.03
444.178	219.83
444.637	208.83
445.096	224.63
445.555	227.13
446.014	223.03
446.473	225.73
446.932	234.63
447.391	227.23
447.849	227.33
448.308	219.13
448.767	226.33
449.226	234.53
449.685	236.93
450.143	248.53
450.602	236.43
451.061	226.43
451.519	230.93
451.978	233.03
452.436	239.93
452.895	239.33
453.353	253.33
453.812	249.23
454.27	242.53
454.729	241.83
455.187	238.23
455.646	241.93
456.104	247.83
456.562	263.03
457.021	271.23
457.479	261.43
457.937	269.53
458.395	262.33
458.854	258.73
459.312	263.23
459.77	272.03
460.228	252.83
460.686	243.13
461.144	244.73
461.602	244.03
462.06	243.73
462.518	255.73
462.976	262.43
463.434	256.23
463.892	257.13
464.35	273.53
464.808	287.63
465.266	263.43
465.724	268.73
466.181	274.83
466.639	272.83
467.097	287.43
467.555	294.73
468.012	300.03
468.47	307.83
468.928	318.03
469.385	339.23
469.843	338.93
470.3	355.23
470.758	359.53
471.215	382.63
471.673	408.53
472.13	410.33
472.588	416.03
473.045	369.13
473.503	378.03
473.96	392.43
474.417	402.53
474.875	437.13
475.332	479.73
475.789	460.63
476.246	471.53
476.704	487.13
477.161	503.23
477.618	520.23
478.075	556.73
478.532	617.03
478.989	691.63
479.446	807.23
479.903	774.23
480.36	806.53
480.817	873.73
481.274	965.53
481.731	1071.53
482.188	1163.43
482.645	1303.03
483.102	1414.23
483.558	1538.03
484.015	1594.03
484.472	1573.73
484.929	1528.33
485.385	1484.43
485.842	1432.13
486.299	1361.53
486.755	1307.43
487.212	1093.73
487.668	933.23
488.125	849.33
488.582	773.23
489.038	733.63
489.494	708.13
489.951	682.63
490.407	654.93
490.864	643.63
491.32	633.43
491.776	639.23
492.233	635.43
492.689	610.43
493.145	601.63
493.602	595.53
494.058	611.13
494.514	606.83
494.97	625.93
495.426	647.13
495.882	617.03
496.338	613.43
496.794	615.43
497.251	610.23
497.707	625.33
498.163	628.63
498.618	638.53
499.074	643.23
499.53	672.13
499.986	664.23
500.442	653.33
500.898	629.23
501.354	626.03
501.809	641.53
502.265	637.73
502.721	653.93
503.177	666.03
503.632	662.03
504.088	670.63
504.543	706.53
504.999	700.83
505.455	649.43
505.91	626.13
506.366	630.53
506.821	629.03
507.277	614.53
507.732	615.73
508.187	623.23
508.643	629.23
509.098	631.33
509.553	645.13
510.009	653.03
510.464	670.63
510.919	682.23
511.375	694.33
511.83	697.93
512.285	714.33
512.74	743.83
513.195	771.43
513.65	762.13
514.105	756.43
514.56	758.23
515.015	780.13
515.47	810.43
515.925	776.93
516.38	780.33
516.835	794.63
517.29	771.53
517.745	770.53
518.2	745.63
518.655	742.03
519.109	724.33
519.564	727.43
520.019	721.03
520.474	718.03
520.928	718.43
521.383	706.13
521.838	707.63
522.292	704.93
522.747	704.23
523.201	705.73
523.656	695.93
524.11	688.83
524.565	689.83
525.019	688.43
525.474	695.73
525.928	698.13
526.382	692.93
526.837	679.73
527.291	698.83
527.745	681.93
528.2	689.73
528.654	678.23
529.108	673.13
529.562	687.23
530.016	688.53
530.47	681.23
530.925	687.93
531.379	692.93
531.833	703.63
532.287	697.73
532.741	696.53
533.195	703.13
533.649	700.43
534.103	702.43
534.556	705.33
535.01	710.33
535.464	699.13
535.918	722.43
536.372	719.13
536.826	713.03
537.279	698.13
537.733	701.93
538.187	705.43
538.64	703.53
539.094	728.03
539.548	724.33
540.001	723.23
540.455	712.83
540.908	729.83
541.362	732.13
541.815	749.93
542.269	758.13
542.722	746.83
543.175	759.33
543.629	756.43
544.082	781.63
544.536	777.83
544.989	776.83
545.442	785.53
545.895	778.33
546.349	785.43
546.802	777.73
547.255	786.23
547.708	797.13
548.161	810.63
548.614	813.23
549.067	816.83
549.52	811.53
549.973	801.93
550.426	800.73
550.879	787.23
551.332	791.03
551.785	801.93
552.238	801.83
552.691	800.93
553.144	826.93
553.596	847.03
554.049	860.23
554.502	896.63
554.955	913.93
555.407	894.23
555.86	892.83
556.313	882.63
556.765	875.73
557.218	873.73
557.67	863.93
558.123	866.53
558.576	857.23
559.028	869.43
559.48	873.53
559.933	870.13
560.385	833.03
560.838	809.83
561.29	773.03
561.742	774.13
562.195	771.03
562.647	760.93
563.099	766.73
563.551	770.63
564.004	778.33
564.456	768.93
564.908	759.53
565.36	746.73
565.812	734.43
566.264	716.23
566.716	710.03
567.168	711.13
567.62	719.73
568.072	699.83
568.524	684.53
568.976	685.73
569.428	672.83
569.88	669.43
570.332	672.93
570.784	683.43
571.235	683.63
571.687	687.33
572.139	702.03
572.59	724.03
573.042	704.13
573.494	703.83
573.945	704.03
574.397	669.13
574.849	687.73
575.3	692.93
575.752	675.93
576.203	675.53
576.655	676.13
577.106	665.93
577.557	657.83
578.009	663.63
578.46	672.43
578.912	658.03
579.363	658.93
579.814	656.13
580.265	661.23
580.717	666.83
581.168	670.83
581.619	667.13
582.07	679.13
582.521	670.53
582.972	675.53
583.423	667.23
583.875	682.33
584.326	713.63
584.777	754.23
585.227	834.13
585.678	934.43
586.129	1027.63
586.58	1099.43
587.031	1197.53
587.482	1341.33
587.933	1543.93
588.384	1327.93
588.834	996.23
589.285	812.63
589.736	781.43
590.186	782.93
590.637	764.43
591.088	740.03
591.538	734.23
591.989	738.73
592.439	724.43
592.89	715.93
593.34	720.13
593.791	706.53
594.241	703.83
594.692	708.03
595.142	700.43
595.593	699.53
596.043	702.23
596.493	713.83
596.943	722.63
597.394	727.83
597.844	716.33
598.294	731.03
598.744	749.23
599.195	771.33
599.645	806.83
600.095	858.23
600.545	914.03
600.995	956.13
601.445	1018.43
601.895	1089.23
602.345	1125.33
602.795	1105.23
603.245	1052.33
603.695	998.93
604.145	946.13
604.594	907.43
605.044	853.73
605.494	790.53
605.944	748.03
606.393	733.83
606.843	722.33
607.293	732.63
607.743	730.43
608.192	737.83
608.642	759.83
609.091	760.43
609.541	772.53
609.99	782.03
610.44	775.33
610.889	725.83
611.339	699.23
611.788	688.63
612.238	701.93
612.687	718.93
613.136	728.03
613.586	737.13
614.035	733.93
614.484	757.33
614.933	761.93
615.383	754.93
615.832	745.63
616.281	726.13
616.73	699.33
617.179	670.83
617.628	644.53
618.077	628.23
618.526	621.53
618.975	620.53
619.424	607.43
619.873	616.73
620.322	615.33
620.771	613.13
621.22	607.03
621.669	595.83
622.118	583.33
622.567	570.43
623.015	567.33
623.464	565.53
623.913	553.93
624.361	546.63
624.81	552.63
625.259	550.03
625.707	552.73
626.156	550.73
626.604	568.23
627.053	566.13
627.501	566.93
627.95	569.53
628.398	586.23
628.847	572.13
629.295	569.33
629.744	569.63
630.192	559.33
630.64	575.93
631.089	555.93
631.537	578.03
631.985	584.43
632.433	615.23
632.881	629.13
633.33	680.63
633.778	658.23
634.226	576.33
634.674	576.03
635.122	582.43
635.57	607.23
636.018	636.03
636.466	584.83
636.914	559.93
637.362	566.53
637.81	571.43
638.258	585.23
638.705	584.73
639.153	610.13
639.601	609.13
640.049	637.93
640.497	681.63
640.944	691.13
641.392	629.73
641.84	614.53
642.287	586.63
642.735	564.63
643.182	584.23
643.63	580.53
644.078	588.43
644.525	594.33
644.973	596.93
645.42	615.73
645.867	631.23
646.315	641.13
646.762	666.93
647.21	702.83
647.657	711.03
648.104	756.13
648.551	774.53
648.999	851.63
649.446	923.73
649.893	1017.73
650.34	1187.83
650.787	1416.33
651.234	1771.73
651.682	2301.73
652.129	3166.93
652.576	4621.03
653.023	6762.13
653.47	9257.73
653.917	11510.93
654.363	13172.53
654.81	14517.23
655.257	13818.53
655.704	9007.93
656.151	5325.23
656.598	3460.73
657.044	2429.23
657.491	1868.13
657.938	1503.93
658.385	1245.43
658.831	1085.03
659.278	969.23
659.724	854.73
660.171	797.43
660.618	730.53
661.064	694.73
661.511	667.63
661.957	656.03
662.404	640.03
662.85	650.03
663.296	631.13
663.743	556.83
664.189	545.53
664.635	534.03
665.082	540.53
665.528	527.83
665.974	519.23
666.42	517.83
666.867	509.33
667.313	492.53
667.759	481.33
668.205	480.33
668.651	490.53
669.097	496.73
669.543	511.93
669.989	486.73
670.435	450.33
670.881	448.93
671.327	456.93
671.773	469.63
672.219	496.83
672.665	545.53
673.11	592.93
673.556	627.73
674.002	673.53
674.448	657.93
674.893	543.63
675.339	475.23
675.785	441.63
676.23	418.43
676.676	387.73
677.122	388.43
677.567	364.33
678.013	364.93
678.458	357.03
678.904	362.13
679.349	347.23
679.794	351.73
680.24	347.63
680.685	350.83
681.131	342.63
681.576	347.93
682.021	357.93
682.466	345.53
682.912	349.83
683.357	350.03
683.802	383.43
684.247	411.83
684.692	457.13
685.137	503.53
685.583	540.13
686.028	566.93
686.473	518.83
686.918	439.83
687.363	417.53
687.807	395.43
688.252	362.43
688.697	355.93
689.142	338.53
689.587	336.63
690.032	331.13
690.477	342.63
690.921	345.63
691.366	385.53
691.811	406.53
692.255	435.73
692.7	467.33
693.145	500.73
693.589	709.23
694.034	1145.63
694.478	1538.03
694.923	1719.93
695.367	2219.23
695.812	1192.93
696.256	503.03
696.701	379.33
697.145	342.23
697.59	324.33
698.034	316.73
698.478	332.13
698.922	326.23
699.367	336.13
699.811	338.03
700.255	356.43
700.699	395.03
701.143	429.13
701.588	484.43
702.032	510.23
702.476	513.03
702.92	490.43
703.364	501.53
703.808	643.23
704.252	1059.03
704.696	1469.43
705.14	1654.53
705.584	2084.63
706.027	1047.43
706.471	523.03
706.915	400.83
707.359	347.23
707.803	316.43
708.246	319.43
708.69	307.63
709.134	312.03
709.577	307.13
710.021	321.43
710.465	310.13
710.908	302.33
711.352	300.43
711.795	320.53
712.239	354.13
712.682	394.13
713.126	414.63
713.569	460.13
714.012	377.43
714.456	337.43
714.899	303.73
715.342	267.83
715.786	261.73
716.229	258.33
716.672	252.03
717.115	244.33
717.558	250.53
718.002	249.83
718.445	258.63
718.888	288.03
719.331	290.53
719.774	304.73
720.217	309.43
720.66	290.63
721.103	266.83
721.546	251.03
721.989	252.83
722.432	236.03
722.874	241.63
723.317	236.73
723.76	240.73
724.203	267.73
724.645	323.03
725.088	457.33
725.531	573.43
725.974	641.03
726.416	547.93
726.859	307.43
727.301	257.33
727.744	237.53
728.187	238.53
728.629	237.83
729.071	243.93
729.514	260.23
729.956	278.93
730.399	280.93
730.841	288.53
731.283	264.63
731.726	268.53
732.168	259.93
732.61	265.13
733.053	288.33
733.495	314.13
733.937	357.13
734.379	395.63
734.821	435.13
735.263	550.93
735.705	854.33
736.148	1623.73
736.59	2589.23
737.032	3001.73
737.474	2422.13
737.916	808.43
738.357	431.73
738.799	325.83
739.241	305.03
739.683	291.63
740.125	290.33
740.567	300.93
741.008	314.83
741.45	315.33
741.892	320.33
742.334	344.63
742.775	361.33
743.217	331.73
743.658	262.93
744.1	254.43
744.542	267.73
744.983	314.63
745.425	340.23
745.866	343.53
746.307	286.43
746.749	279.73
747.19	328.33
747.632	470.53
748.073	907.73
748.514	1904.13
748.956	2819.03
749.397	3561.93
749.838	2955.73
750.279	2897.93
750.72	1474.83
751.162	543.23
751.603	322.23
752.044	254.13
752.485	211.73
752.926	205.83
753.367	207.13
753.808	192.63
754.249	191.13
754.69	185.53
755.131	177.33
755.572	183.63
756.013	182.43
756.453	186.93
756.894	186.93
757.335	190.83
757.776	193.93
758.216	202.83
758.657	201.53
759.098	208.13
759.538	223.43
759.979	273.23
760.42	380.33
760.86	717.93
761.301	1883.33
761.741	4467.33
762.182	6274.03
762.622	4413.83
763.063	1297.93
763.503	540.53
763.943	349.33
764.384	355.23
764.824	423.03
765.264	459.33
765.705	314.93
766.145	215.13
766.585	187.93
767.025	187.93
767.465	190.03
767.906	246.33
768.346	346.63
768.786	358.43
769.226	272.73
769.666	326.53
770.106	639.63
770.546	1601.23
770.986	2596.33
771.426	2321.03
771.866	783.33
772.306	331.43
772.745	207.63
773.185	173.03
773.625	180.53
774.065	170.63
774.505	201.73
774.944	324.53
775.384	725.63
775.824	1281.93
776.263	1216.03
776.703	519.43
777.142	232.03
777.582	157.63
778.021	143.43
778.461	141.33
778.9	143.43
779.34	135.93
779.779	122.13
780.219	113.53
780.658	111.43
781.097	116.93
781.537	114.73
781.976	114.43
782.415	106.43
782.855	106.33
783.294	106.93
783.733	105.03
784.172	108.63
784.611	109.83
785.05	110.73
785.489	113.33
785.928	114.83
786.367	123.33
786.806	120.33
787.245	129.33
787.684	136.73
788.123	146.93
788.562	137.23
789.001	131.63
789.44	122.73
789.879	118.53
790.317	119.83
790.756	127.43
791.195	129.73
791.634	146.23
792.072	202.83
792.511	378.03
792.95	1044.13
793.388	2125.53
793.827	1885.73
794.265	670.33
794.704	276.53
795.142	182.73
795.581	152.63
796.019	133.93
796.458	133.33
796.896	121.93
797.334	130.93
797.773	157.23
798.211	220.23
798.649	450.53
799.087	1032.53
799.526	1593.53
799.964	2019.73
800.402	1942.03
800.84	744.43
801.278	295.23
801.716	188.23
802.154	154.13
802.592	152.03
803.03	144.63
803.468	142.73
803.906	145.93
804.344	150.13
804.782	140.33
805.22	133.23
805.658	132.53
806.096	151.33
806.533	160.13
806.971	177.23
807.409	222.43
807.847	314.53
808.284	676.83
808.722	1899.83
809.16	3255.73
809.597	3140.93
810.035	5379.53
810.472	5600.03
810.91	2034.13
811.347	789.33
811.785	399.63
812.222	253.93
812.66	196.03
813.097	166.63
813.535	143.53
813.972	131.93
814.409	121.53
814.846	110.93
815.284	114.93
815.721	104.53
816.158	108.53
816.595	123.03
817.032	181.23
817.47	199.73
817.907	166.83
818.344	167.33
818.781	122.23
819.218	97.03
819.655	120.83
820.092	185.53
820.529	206.33
820.966	176.43
821.403	137.33
821.839	108.73
822.276	106.03
822.713	117.33
823.15	134.53
823.587	114.73
824.023	149.93
824.46	316.43
824.897	909.43
825.333	1325.13
825.77	569.73
826.206	229.83
826.643	134.83
827.08	102.93
827.516	82.63
827.953	70.63
828.389	82.93
828.825	68.93
829.262	72.03
829.698	59.33
830.135	69.93
830.571	64.33
831.007	65.73
831.443	68.13
831.88	63.23
832.316	67.83
832.752	66.43
833.188	65.83
833.624	68.43
834.06	64.03
834.497	69.73
834.933	68.73
835.369	76.53
835.805	61.43
836.241	86.93
836.677	78.13
837.112	94.43
837.548	103.93
837.984	136.23
838.42	204.63
838.856	510.83
839.292	1525.53
839.727	2258.93
840.163	1047.63
840.599	944.73
841.034	2032.73
841.47	2064.93
841.906	768.63
842.341	330.03
842.777	244.73
843.212	322.43
843.648	318.03
844.083	156.03
844.519	95.63
844.954	73.93
845.39	60.03
845.825	63.03
846.261	61.43
846.696	54.53
847.131	52.43
847.566	58.13
848.002	52.63
848.437	54.73
848.872	64.43
849.307	63.73
849.742	89.23
850.177	184.43
850.613	560.93
851.048	858.33
851.483	372.33
851.918	152.03
852.353	93.13
852.788	69.23
853.223	57.73
853.657	54.43
854.092	53.73
854.527	35.83
854.962	39.93
855.397	44.33
855.832	47.43
856.266	39.83
856.701	41.23
857.136	40.23
857.57	40.63
858.005	49.73
858.44	59.83
858.874	42.13
859.309	54.73
859.743	44.43
860.178	43.83
860.612	48.43
861.047	51.03
861.481	68.23
861.915	69.33
862.35	53.83
862.784	36.33
863.218	39.13
863.653	31.13
864.087	45.53
864.521	52.03
864.955	71.73
865.39	159.33
865.824	173.43
866.258	108.23
866.692	154.93
867.126	165.43
867.56	101.63
867.994	53.33
868.428	32.03
868.862	46.13
869.296	54.13
869.73	55.13
870.164	52.73
870.598	48.63
871.031	33.83
871.465	28.63
871.899	31.83
872.333	18.63
872.766	21.23
873.2	26.83
873.634	28.13
874.067	25.93
874.501	26.73
874.935	31.93
875.368	28.93
875.802	30.73
876.235	24.23
876.669	14.03
877.102	22.73
877.535	24.83
877.969	25.03
878.402	28.23
878.836	22.33
879.269	24.53
879.702	25.43
880.135	26.93
880.569	23.63
881.002	28.83
881.435	24.23
881.868	16.43
882.301	24.33
882.734	11.23
883.167	23.73
883.601	21.03
884.034	22.43
884.467	13.53
884.899	18.23
885.332	20.13
885.765	15.43
886.198	17.93
886.631	19.93
887.064	16.03
887.497	21.53
887.929	28.73
888.362	11.63
888.795	11.93
889.228	20.13
889.66	22.93
890.093	16.93
890.526	16.83
890.958	18.63
891.391	15.53
891.823	23.73
892.256	8.73
892.688	12.03
893.121	16.53
893.553	16.13
893.985	19.03
894.418	22.03
894.85	12.93
895.282	11.83
895.715	20.93
896.147	16.63
896.579	23.63
897.011	10.93
897.444	20.43
897.876	14.63
898.308	15.53
898.74	14.53
899.172	13.73
899.604	26.13
900.036	22.53
900.468	16.53
900.9	14.23
901.332	16.93
901.764	14.63
902.196	19.83
902.628	12.73
903.06	23.93
903.491	30.03
903.923	21.93
904.355	24.93
904.787	28.93
905.218	19.33
905.65	22.03
906.082	7.63
906.513	14.13
906.945	21.33
907.376	13.13
907.808	18.03
908.239	25.33
908.671	18.23
909.102	23.53
909.534	24.13
909.965	42.83
910.397	94.63
910.828	318.63
911.259	469.63
911.691	217.93
912.122	106.13
912.553	53.23
912.984	36.33
913.415	28.83
913.847	29.83
914.278	15.63
914.709	11.53
915.14	21.03
915.571	23.83
916.002	10.33
916.433	23.13
916.864	19.13
917.295	17.93
917.726	25.43
918.157	19.23
918.587	28.93
919.018	20.43
919.449	16.43
919.88	24.23
920.311	31.53
920.741	52.03
921.172	168.13
921.603	155.33
922.033	73.83
922.464	47.13
922.895	21.13
923.325	26.63
923.756	17.03
924.186	17.73
924.617	26.13
925.047	43.83
925.478	57.13
925.908	48.13
926.338	29.53
926.769	24.73
927.199	15.23
927.629	11.93
928.06	12.03
928.49	13.83
928.92	13.33
929.35	13.33
929.78	11.53
930.21	7.13
930.641	3.93
931.071	4.83
931.501	3.13
931.931	4.83
932.361	7.43
932.791	2.83
933.221	11.23
933.651	6.83
934.08	18.63
934.51	29.83
934.94	10.83
935.37	11.83
935.8	10.43
936.229	9.43
936.659	9.33
937.089	3.73
937.519	12.63
937.948	24.43
938.378	14.63
938.807	8.73
939.237	7.23
939.666	12.13
940.096	1.33
940.525	-1.77
940.955	-0.47
941.384	6.53
941.814	-4.47
942.243	1.93
942.672	1.43
943.102	-1.57
943.531	1.63
943.96	-0.27
944.39	4.13
944.819	2.63
945.248	3.53
945.677	-1.27
946.106	4.33
946.535	4.73
946.964	5.03
947.393	2.63
947.822	2.63
948.251	-6.87
948.68	6.83
949.109	11.83
949.538	5.53
949.967	-2.37
950.396	0.73
950.825	2.33
951.254	5.93
951.682	-11.07
952.111	5.03
952.54	12.63
952.969	-4.87
953.397	-4.37
953.826	6.53
954.254	-2.77
954.683	5.13
955.112	-0.07
955.54	0.93
955.969	1.63
956.397	-0.77
956.826	1.33
957.254	1.93
957.682	-1.37
958.111	3.13
958.539	1.03
958.967	3.53
959.396	0.73
959.824	0.73
960.252	3.83
960.68	-4.27
961.109	-3.67
961.537	-8.67
961.965	1.23
962.393	2.93
962.821	-1.57
963.249	-1.57
963.677	5.03
964.105	8.93
964.533	50.93
964.961	37.43
965.389	15.23
965.817	10.73
966.245	1.13
966.672	0.53
967.1	3.53
967.528	5.63
967.956	0.63
968.383	-4.47
968.811	-2.77
969.239	3.03
969.666	-0.77
970.094	0.63
970.522	7.93
970.949	-0.37
971.377	-3.27
971.804	-5.77
972.232	-2.67
972.659	-4.87
973.087	-3.47
973.514	-1.97
973.941	-3.27
974.369	9.63
974.796	-0.87
975.223	-0.67
975.651	-5.57
976.078	0.73
976.505	-2.07
976.932	8.53
977.359	19.83
977.786	13.73
978.214	4.63
978.641	2.73
979.068	-5.17
979.495	-3.07
979.922	-1.17
980.349	-0.87
980.776	6.93
981.202	1.03
981.629	3.03
982.056	4.53
982.483	-2.17
982.91	-0.07
983.337	-5.27
983.763	3.73
984.19	-2.97
984.617	-4.17
985.043	-3.87
985.47	-9.17
985.897	0.73
986.323	-4.37
986.75	9.63
987.176	0.43
987.603	-4.47
988.029	5.83
988.456	-4.27
988.882	0.63
989.308	-3.57
989.735	-1.67
990.161	-1.17
990.587	-4.27
991.014	0.43
991.44	5.53
991.866	-5.17
992.292	-7.97
992.719	-4.47
993.145	2.83
993.571	-9.47
993.997	4.33
994.423	-3.17
994.849	-3.57
995.275	-4.37
995.701	-3.47
996.127	-2.07
996.553	4.73
996.979	-4.97
997.405	-3.47
997.83	-9.67
998.256	-8.67
998.682	-4.07
999.108	-12.37
999.534	-2.37
999.959	1.03
1000.385	-1.27
1000.811	-2.37
1001.236	-8.07
1001.662	-6.37
1002.087	-9.87
1002.513	-4.47
1002.938	1.03
1003.364	-4.47
1003.789	-5.67
1004.215	0.93
1004.64	2.93
1005.066	-1.17
1005.491	3.53
1005.916	0.03
1006.342	-4.37
1006.767	-4.17
1007.192	5.83
1007.617	-3.87
1008.042	-1.57
1008.468	-8.57
1008.893	-0.17
1009.318	-2.97
1009.743	-0.37
1010.168	3.43
1010.593	1.23
1011.018	-8.77
1011.443	0.43
1011.868	1.43
1012.293	-7.57
1012.718	-5.67
1013.143	0.53
1013.567	-2.47
1013.992	-8.67
1014.417	-14.77
1014.842	4.43
1015.267	-0.67
1015.691	-0.47
1016.116	2.23
1016.541	-2.27
1016.965	5.83
1017.39	1.53
1017.814	-2.77
1018.239	0.13
1018.663	-6.27
1019.088	-10.77
1019.512	0.23
1019.937	-3.97
1020.361	-1.07
1020.785	-3.67
1021.21	-0.97
1021.634	-2.57
1022.058	0.63
1022.483	0.73
1022.907	-6.67
1023.331	-2.37
1023.755	-7.47
1024.179	1.93
1024.604	-3.17
1025.028	-2.67
1025.452	0.73
1025.876	-7.97
1026.3	3.53
1026.724	-9.57
1027.148	-6.07
1027.572	-7.97
1027.996	-5.67
1028.42	1.63
1028.843	-5.27
1029.267	-4.27
1029.691	0.23
1030.115	-6.37
1030.539	-5.07
1030.962	-3.97
1031.386	-7.17
1031.81	0.63
1032.233	0.73
1032.657	-3.67
1033.08	2.63
1033.504	-3.57
1033.927	-3.27
1034.351	-8.47
1034.774	-0.47
1035.198	-3.37
1035.621	-5.47
1036.045	-2.57
1036.468	-1.47
1036.891	-10.77
1037.315	-10.87
1037.738	-10.17
1038.161	6.83
1038.584	-5.27
1039.008	-4.77
1039.431	-1.37
1039.854	-2.17
1040.277	-8.07
1040.7	-13.77
1041.123	-4.77
1041.546	-10.77
1041.969	-11.37
1042.392	-5.07
1042.815	-7.97
1043.238	-0.97
1043.661	0.13
1044.084	-3.97
1044.507	-4.47
1044.93	-3.77
1045.352	-9.27
1045.775	-3.27
1046.198	2.13
1046.621	-3.67
1047.043	3.13
1047.466	7.33
1047.889	-2.07
1048.311	-4.27
1048.734	-0.57
1049.156	-5.77
1049.579	-4.97
1050.001	-2.17
1050.424	-1.67
1050.846	-3.87
1051.269	-4.97
1051.691	-6.17
1052.113	-1.67
1052.536	-1.27
1052.958	-1.77
1053.38	0.13
1053.802	-12.77
1054.225	-0.37
1054.647	-8.47
1055.069	-9.57
1055.491	1.23
1055.913	-7.07
1056.335	2.03
1056.757	-6.67
1057.179	-4.37
1057.601	-6.87
1058.023	-3.77
1058.445	3.13
1058.867	-2.17
1059.289	-2.07
1059.711	-6.37
1060.133	-2.57
1060.555	-11.77
1060.976	-8.77
1061.398	-8.37
1061.82	-12.07
1062.241	-3.07
1062.663	-3.37
1063.085	-0.77
1063.506	-2.57
1063.928	-1.37
1064.35	-4.87
1064.771	-14.57
1065.193	-1.57
1065.614	-7.57
1066.035	1.13
1066.457	-2.67
1066.878	2.43
1067.3	-5.37
1067.721	-2.07
1068.142	-2.47
1068.564	-7.47
1068.985	-6.27
1069.406	-7.77
1069.827	-2.97
1070.248	-1.27
1070.67	-8.97
1071.091	-4.77
1071.512	-2.37
1071.933	-4.37
1072.354	1.63
1072.775	-2.67
1073.196	-0.17
1073.617	0.63
1074.038	-6.67
1074.459	0.93
1074.88	-7.27
1075.3	4.13
1075.721	-3.17
1076.142	2.93
1076.563	-2.97
1076.983	-7.97
1077.404	-6.47
1077.825	-8.77
1078.246	0.23
1078.666	-14.07
1079.087	-2.47
1079.507	-3.07
1079.928	2.13
1080.348	2.03
1080.769	-5.47
1081.189	-1.37
1081.61	-2.57
1082.03	-3.97
1082.451	-0.77
1082.871	-4.27
1083.291	-7.07
1083.711	-7.67
1084.132	0.33
1084.552	-2.37
1084.972	1.03
1085.392	-5.57
1085.813	-11.37
1086.233	-4.97
1086.653	-9.87
1087.073	0.63
1087.493	-5.97
1087.913	-9.67
1088.333	-1.57
1088.753	-3.87
1089.173	6.03
1089.593	0.73
1090.013	-5.47
1090.433	-0.27
1090.852	-2.37
1091.272	-7.27
1091.692	-5.27
1092.112	-1.77
1092.531	-8.57
1092.951	-13.57
1093.371	-5.57
1093.79	1.83
1094.21	-2.37
1094.63	-7.07
1095.049	-2.67
1095.469	-2.57
1095.888	-2.17
1096.308	1.23
1096.727	3.53
1097.146	-4.87
1097.566	1.43
1097.985	-3.87
1098.405	2.33
1098.824	-6.77
1099.243	-6.07
1099.662	-1.67
1100.082	-4.97
1100.501	-0.77
1100.92	-3.77
1101.339	-3.77
1101.758	-2.17
