Data from 20171114-ORNL-Ar_H_NY_Subt18_08-06-49-123.txt Node
Date: Tue Nov 14 08:06:49 EST 2017
User: Ender
Spectrometer: HR+D1039
Trigger mode: 0
Integration Time (sec): 2.730000E-2
Scans to average: 10
Electric dark correction enabled: true
Nonlinearity correction enabled: false
Boxcar width: 0
XAxis mode: Wavelengths
Number of Pixels in Spectrum: 2048
>>>>>Begin Spectral Data<<<<<
187.836	-3.23
188.309	-3.23
188.782	-3.23
189.255	4.57
189.728	-4.13
190.201	1.97
190.674	3.67
191.147	0.77
191.619	-7.23
192.092	-0.53
192.565	2.17
193.038	-1.73
193.511	-1.43
193.984	1.47
194.456	1.57
194.929	3.97
195.402	-1.43
195.874	-0.43
196.347	-2.93
196.82	-4.03
197.292	3.47
197.765	-2.63
198.237	-2.33
198.71	5.47
199.182	-5.53
199.655	-0.93
200.127	0.87
200.6	-2.03
201.072	0.37
201.544	-2.63
202.017	-3.53
202.489	2.87
202.961	-8.63
203.433	-3.33
203.906	-3.73
204.378	-7.83
204.85	-0.83
205.322	-8.43
205.794	-5.33
206.266	-6.33
206.739	-10.63
207.211	-2.43
207.683	-13.53
208.155	-7.43
208.627	-8.13
209.099	-7.03
209.57	-10.53
210.042	-8.33
210.514	-0.73
210.986	-2.13
211.458	-10.93
211.93	-8.33
212.402	-0.13
212.873	-6.13
213.345	-8.53
213.817	-13.53
214.288	-3.23
214.76	-15.83
215.232	-2.33
215.703	-6.53
216.175	-2.03
216.646	-5.93
217.118	-5.23
217.589	-4.73
218.061	-5.43
218.532	-3.33
219.004	-5.73
219.475	-5.33
219.946	-7.43
220.418	-4.83
220.889	-1.43
221.36	-1.73
221.832	-0.53
222.303	-7.13
222.774	-1.23
223.245	-9.83
223.717	-9.43
224.188	-5.53
224.659	-9.63
225.13	-4.43
225.601	-6.63
226.072	3.17
226.543	-6.53
227.014	1.77
227.485	-3.73
227.956	-2.83
228.427	-3.13
228.898	-0.83
229.369	6.57
229.839	1.37
230.31	-6.23
230.781	-2.73
231.252	-9.93
231.722	-7.53
232.193	-3.63
232.664	-2.33
233.135	-1.43
233.605	2.87
234.076	-10.93
234.546	-0.93
235.017	-0.53
235.487	-6.93
235.958	-5.83
236.428	-5.23
236.899	-1.13
237.369	2.77
237.84	-4.03
238.31	-1.13
238.78	-1.33
239.251	-4.53
239.721	2.27
240.191	-1.93
240.662	-0.93
241.132	-1.83
241.602	-7.33
242.072	-0.83
242.542	6.57
243.013	-1.43
243.483	1.87
243.953	1.17
244.423	-2.53
244.893	-8.23
245.363	-4.13
245.833	3.67
246.303	-0.43
246.773	1.97
247.243	-2.63
247.712	2.17
248.182	3.77
248.652	-0.63
249.122	-0.83
249.592	0.37
250.061	12.57
250.531	22.87
251.001	9.57
251.471	14.17
251.94	15.67
252.41	-0.13
252.879	-1.13
253.349	10.67
253.818	1.87
254.288	2.67
254.757	1.47
255.227	-0.13
255.696	2.47
256.166	2.27
256.635	12.17
257.105	7.07
257.574	0.07
258.043	4.37
258.513	4.77
258.982	14.07
259.451	6.77
259.92	17.37
260.389	-1.33
260.859	14.57
261.328	9.07
261.797	11.97
262.266	4.17
262.735	13.97
263.204	1.87
263.673	-2.43
264.142	6.67
264.611	-7.53
265.08	0.97
265.549	-2.73
266.018	9.87
266.487	-2.03
266.955	1.97
267.424	-5.23
267.893	3.87
268.362	-3.03
268.83	3.77
269.299	10.67
269.768	3.17
270.236	5.57
270.705	-3.53
271.174	6.87
271.642	12.07
272.111	2.97
272.579	13.77
273.048	13.47
273.516	22.77
273.985	17.97
274.453	17.17
274.922	13.67
275.39	10.57
275.858	1.47
276.327	9.97
276.795	14.97
277.263	-1.73
277.731	17.67
278.2	40.97
278.668	44.87
279.136	36.27
279.604	13.07
280.072	11.07
280.54	8.57
281.008	4.97
281.477	8.47
281.945	9.47
282.413	16.77
282.881	16.07
283.348	4.37
283.816	12.17
284.284	11.57
284.752	17.87
285.22	11.07
285.688	14.17
286.156	13.57
286.623	31.97
287.091	38.57
287.559	23.77
288.026	11.97
288.494	20.27
288.962	2.27
289.429	4.67
289.897	15.77
290.364	14.87
290.832	14.27
291.3	12.17
291.767	15.47
292.234	17.77
292.702	12.37
293.169	7.57
293.637	22.37
294.104	16.17
294.571	9.67
295.039	13.77
295.506	13.47
295.973	15.37
296.44	15.87
296.908	13.27
297.375	12.87
297.842	14.47
298.309	11.47
298.776	10.87
299.243	14.97
299.71	9.67
300.177	16.77
300.644	17.07
301.111	15.17
301.578	18.97
302.045	12.17
302.512	26.97
302.979	19.17
303.446	21.87
303.913	22.07
304.379	14.17
304.846	28.47
305.313	28.17
305.78	19.27
306.246	20.87
306.713	23.27
307.18	24.57
307.646	25.37
308.113	24.67
308.579	22.17
309.046	20.27
309.512	26.47
309.979	16.77
310.445	21.67
310.912	22.87
311.378	29.27
311.845	27.97
312.311	25.47
312.777	24.87
313.244	24.37
313.71	32.77
314.176	28.27
314.642	25.27
315.109	27.57
315.575	32.97
316.041	34.27
316.507	34.17
316.973	33.87
317.439	33.17
317.905	33.67
318.371	36.17
318.837	26.27
319.303	31.57
319.769	26.77
320.235	29.17
320.701	33.17
321.167	30.47
321.633	26.37
322.099	37.87
322.564	41.17
323.03	44.17
323.496	35.67
323.962	39.37
324.427	31.47
324.893	38.07
325.359	30.47
325.824	31.47
326.29	26.37
326.755	32.17
327.221	38.87
327.686	35.57
328.152	38.67
328.617	40.27
329.083	47.27
329.548	44.17
330.014	42.17
330.479	39.67
330.944	41.27
331.41	40.27
331.875	43.27
332.34	39.97
332.805	40.67
333.271	43.07
333.736	35.77
334.201	49.77
334.666	43.87
335.131	47.67
335.596	49.17
336.061	51.17
336.526	42.97
336.991	51.57
337.456	49.57
337.921	41.57
338.386	38.87
338.851	41.87
339.316	45.47
339.781	47.27
340.246	54.17
340.711	42.07
341.175	50.77
341.64	44.67
342.105	48.77
342.569	52.97
343.034	56.07
343.499	55.87
343.963	53.17
344.428	64.57
344.893	61.77
345.357	56.57
345.822	57.67
346.286	66.37
346.751	68.37
347.215	65.77
347.679	71.57
348.144	93.57
348.608	75.47
349.073	72.37
349.537	66.17
350.001	79.57
350.465	83.97
350.93	73.07
351.394	72.17
351.858	67.57
352.322	81.17
352.786	81.47
353.25	93.57
353.715	100.57
354.179	89.57
354.643	116.87
355.107	116.17
355.571	96.87
356.035	96.87
356.498	110.37
356.962	114.17
357.426	118.67
357.89	116.57
358.354	89.57
358.818	82.47
359.281	79.07
359.745	73.57
360.209	73.57
360.673	71.17
361.136	78.67
361.6	84.37
362.064	83.97
362.527	84.67
362.991	92.97
363.454	73.37
363.918	78.27
364.381	71.77
364.845	88.37
365.308	85.67
365.772	86.87
366.235	83.47
366.698	86.37
367.162	83.07
367.625	78.47
368.088	86.37
368.552	83.67
369.015	90.07
369.478	96.07
369.941	104.17
370.404	94.77
370.867	100.17
371.331	102.37
371.794	113.47
372.257	101.77
372.72	112.57
373.183	108.67
373.646	103.27
374.109	103.17
374.572	105.17
375.035	104.77
375.497	102.87
375.96	112.27
376.423	102.67
376.886	106.67
377.349	109.57
377.811	97.47
378.274	108.17
378.737	106.37
379.199	111.17
379.662	110.17
380.125	114.07
380.587	109.67
381.05	121.47
381.512	121.77
381.975	135.67
382.437	131.17
382.9	123.37
383.362	126.17
383.825	137.37
384.287	140.37
384.75	136.07
385.212	141.27
385.674	142.87
386.136	136.07
386.599	121.97
387.061	126.47
387.523	128.17
387.985	140.17
388.447	148.97
388.91	150.07
389.372	152.77
389.834	147.67
390.296	142.17
390.758	148.87
391.22	166.07
391.682	205.07
392.144	281.17
392.606	225.37
393.068	163.97
393.529	170.67
393.991	159.77
394.453	148.57
394.915	150.57
395.377	197.77
395.838	211.57
396.3	157.97
396.762	143.47
397.224	140.87
397.685	126.37
398.147	133.27
398.608	139.97
399.07	136.67
399.531	139.67
399.993	143.27
400.454	158.87
400.916	148.77
401.377	143.17
401.839	146.87
402.3	154.07
402.762	171.87
403.223	182.27
403.684	175.37
404.145	167.17
404.607	156.57
405.068	164.37
405.529	169.07
405.99	191.47
406.451	176.67
406.913	180.47
407.374	173.97
407.835	166.37
408.296	175.47
408.757	179.37
409.218	186.47
409.679	189.37
410.14	186.07
410.601	180.87
411.062	184.07
411.522	190.97
411.983	187.47
412.444	179.37
412.905	186.87
413.366	186.97
413.826	200.37
414.287	226.97
414.748	271.97
415.208	257.37
415.669	217.87
416.13	218.57
416.59	205.87
417.051	224.27
417.511	224.07
417.972	245.67
418.432	257.07
418.893	295.07
419.353	264.17
419.814	205.37
420.274	194.47
420.734	186.57
421.195	199.27
421.655	200.97
422.115	205.97
422.576	204.37
423.036	199.57
423.496	209.07
423.956	230.77
424.416	239.27
424.876	275.77
425.336	264.27
425.797	269.27
426.257	266.97
426.717	251.17
427.177	237.77
427.637	232.97
428.097	239.97
428.556	252.57
429.016	277.07
429.476	279.57
429.936	283.77
430.396	288.77
430.856	303.87
431.315	324.27
431.775	358.57
432.235	390.77
432.694	364.37
433.154	375.07
433.614	400.27
434.073	352.87
434.533	289.17
434.993	278.17
435.452	291.27
435.912	298.37
436.371	293.87
436.83	294.07
437.29	282.17
437.749	252.87
438.209	249.57
438.668	280.87
439.127	292.17
439.587	272.17
440.046	254.47
440.505	264.87
440.964	282.17
441.424	324.07
441.883	316.37
442.342	264.37
442.801	234.97
443.26	226.97
443.719	231.97
444.178	232.47
444.637	219.17
445.096	230.67
445.555	236.97
446.014	236.17
446.473	240.87
446.932	248.27
447.391	239.77
447.849	234.37
448.308	223.47
448.767	226.37
449.226	237.77
449.685	247.57
450.143	259.17
450.602	247.37
451.061	233.97
451.519	240.67
451.978	243.27
452.436	245.37
452.895	252.37
453.353	266.47
453.812	246.17
454.27	253.27
454.729	245.97
455.187	251.57
455.646	253.97
456.104	258.47
456.562	263.17
457.021	281.37
457.479	266.17
457.937	281.87
458.395	276.07
458.854	266.67
459.312	259.77
459.77	286.67
460.228	267.07
460.686	250.97
461.144	261.17
461.602	254.27
462.06	254.97
462.518	272.67
462.976	264.87
463.434	263.47
463.892	270.67
464.35	283.37
464.808	298.27
465.266	280.87
465.724	287.77
466.181	281.77
466.639	282.67
467.097	298.87
467.555	317.87
468.012	311.37
468.47	320.77
468.928	342.97
469.385	355.17
469.843	364.47
470.3	363.87
470.758	375.37
471.215	394.27
471.673	418.77
472.13	419.87
472.588	436.97
473.045	381.47
473.503	395.27
473.96	412.17
474.417	425.37
474.875	457.67
475.332	483.17
475.789	471.47
476.246	491.87
476.704	510.37
477.161	521.97
477.618	545.57
478.075	581.57
478.532	644.27
478.989	708.57
479.446	827.17
479.903	789.17
480.36	830.27
480.817	887.57
481.274	990.77
481.731	1090.67
482.188	1169.97
482.645	1321.57
483.102	1410.37
483.558	1548.97
484.015	1598.37
484.472	1566.87
484.929	1517.37
485.385	1479.77
485.842	1430.07
486.299	1366.77
486.755	1311.87
487.212	1124.87
487.668	952.97
488.125	874.37
488.582	803.67
489.038	764.87
489.494	730.87
489.951	710.17
490.407	697.17
490.864	664.37
491.32	665.07
491.776	662.27
492.233	664.87
492.689	637.37
493.145	630.77
493.602	631.67
494.058	642.17
494.514	631.57
494.97	657.07
495.426	673.97
495.882	645.77
496.338	628.47
496.794	651.47
497.251	642.47
497.707	659.47
498.163	657.87
498.618	657.57
499.074	674.57
499.53	703.67
499.986	692.57
500.442	679.87
500.898	653.37
501.354	641.07
501.809	658.67
502.265	661.67
502.721	671.77
503.177	688.87
503.632	689.87
504.088	694.67
504.543	719.57
504.999	725.87
505.455	675.47
505.91	657.17
506.366	660.07
506.821	661.97
507.277	659.67
507.732	650.97
508.187	644.37
508.643	654.27
509.098	657.97
509.553	683.37
510.009	693.27
510.464	696.47
510.919	713.67
511.375	720.87
511.83	737.67
512.285	747.67
512.74	793.57
513.195	814.47
513.65	799.87
514.105	788.87
514.56	800.07
515.015	817.47
515.47	837.47
515.925	819.77
516.38	832.67
516.835	822.07
517.29	804.97
517.745	809.17
518.2	801.67
518.655	781.47
519.109	770.67
519.564	765.37
520.019	752.67
520.474	761.77
520.928	752.97
521.383	747.07
521.838	749.57
522.292	743.27
522.747	739.57
523.201	727.27
523.656	723.87
524.11	726.87
524.565	722.87
525.019	728.07
525.474	731.67
525.928	729.77
526.382	717.97
526.837	726.47
527.291	725.37
527.745	720.57
528.2	719.47
528.654	718.17
529.108	713.77
529.562	721.17
530.016	718.47
530.47	720.67
530.925	718.17
531.379	719.57
531.833	724.37
532.287	727.97
532.741	733.07
533.195	720.57
533.649	724.87
534.103	753.27
534.556	733.37
535.01	742.77
535.464	728.57
535.918	734.47
536.372	731.67
536.826	739.07
537.279	733.27
537.733	740.17
538.187	739.97
538.64	735.07
539.094	748.17
539.548	761.87
540.001	747.47
540.455	749.07
540.908	759.07
541.362	757.57
541.815	763.97
542.269	791.27
542.722	793.17
543.175	796.77
543.629	794.57
544.082	817.07
544.536	816.47
544.989	819.57
545.442	812.57
545.895	811.57
546.349	815.57
546.802	824.87
547.255	826.67
547.708	827.67
548.161	837.57
548.614	858.57
549.067	860.77
549.52	851.97
549.973	835.67
550.426	840.37
550.879	827.27
551.332	828.87
551.785	835.97
552.238	839.17
552.691	854.87
553.144	866.17
553.596	891.37
554.049	896.07
554.502	922.87
554.955	947.47
555.407	946.27
555.86	932.47
556.313	927.27
556.765	909.67
557.218	908.47
557.67	914.17
558.123	910.97
558.576	890.07
559.028	906.67
559.48	916.97
559.933	905.57
560.385	871.97
560.838	836.67
561.29	813.87
561.742	806.67
562.195	789.87
562.647	787.87
563.099	802.87
563.551	789.47
564.004	815.07
564.456	801.37
564.908	790.37
565.36	771.37
565.812	755.57
566.264	752.07
566.716	751.97
567.168	733.97
567.62	746.57
568.072	724.77
568.524	720.87
568.976	708.47
569.428	704.57
569.88	697.77
570.332	703.17
570.784	708.17
571.235	712.47
571.687	718.27
572.139	730.07
572.59	737.37
573.042	736.17
573.494	731.87
573.945	722.47
574.397	707.57
574.849	709.87
575.3	723.57
575.752	711.47
576.203	696.67
576.655	704.97
577.106	696.77
577.557	694.17
578.009	685.07
578.46	688.07
578.912	676.57
579.363	679.47
579.814	689.17
580.265	681.37
580.717	698.17
581.168	700.67
581.619	697.57
582.07	708.07
582.521	693.17
582.972	697.27
583.423	704.47
583.875	709.07
584.326	719.97
584.777	748.27
585.227	814.27
585.678	897.97
586.129	962.57
586.58	1028.47
587.031	1098.67
587.482	1208.97
587.933	1367.47
588.384	1209.17
588.834	947.67
589.285	825.97
589.736	803.27
590.186	791.67
590.637	784.87
591.088	765.57
591.538	760.07
591.989	751.37
592.439	741.97
592.89	740.27
593.34	732.77
593.791	733.37
594.241	726.77
594.692	732.37
595.142	714.87
595.593	723.67
596.043	725.27
596.493	737.37
596.943	750.07
597.394	744.67
597.844	739.57
598.294	755.97
598.744	771.87
599.195	797.27
599.645	844.37
600.095	888.17
600.545	958.07
600.995	1009.97
601.445	1055.67
601.895	1126.47
602.345	1160.37
602.795	1146.17
603.245	1098.47
603.695	1047.47
604.145	989.37
604.594	929.47
605.044	888.67
605.494	828.77
605.944	775.67
606.393	761.47
606.843	748.97
607.293	751.97
607.743	752.87
608.192	766.07
608.642	777.07
609.091	786.27
609.541	781.57
609.99	783.67
610.44	777.77
610.889	734.87
611.339	712.47
611.788	704.97
612.238	715.47
612.687	732.57
613.136	731.47
613.586	740.77
614.035	741.87
614.484	763.07
614.933	753.87
615.383	740.37
615.832	740.47
616.281	739.07
616.73	705.57
617.179	681.77
617.628	675.07
618.077	648.27
618.526	633.97
618.975	637.57
619.424	632.17
619.873	633.77
620.322	630.57
620.771	628.27
621.22	616.87
621.669	609.07
622.118	603.87
622.567	589.87
623.015	588.07
623.464	577.77
623.913	575.57
624.361	564.57
624.81	575.37
625.259	569.67
625.707	563.67
626.156	571.57
626.604	580.67
627.053	580.77
627.501	576.37
627.95	584.67
628.398	585.67
628.847	588.77
629.295	584.67
629.744	585.77
630.192	584.27
630.64	573.27
631.089	571.87
631.537	586.77
631.985	574.87
632.433	582.67
632.881	602.17
633.33	647.27
633.778	613.17
634.226	566.87
634.674	575.07
635.122	583.77
635.57	599.47
636.018	615.67
636.466	587.17
636.914	577.37
637.362	587.27
637.81	586.17
638.258	589.37
638.705	588.07
639.153	627.77
639.601	627.77
640.049	652.07
640.497	689.67
640.944	710.47
641.392	670.87
641.84	636.27
642.287	601.47
642.735	578.67
643.182	576.37
643.63	579.07
644.078	586.27
644.525	595.17
644.973	608.77
645.42	621.37
645.867	632.47
646.315	652.67
646.762	669.17
647.21	708.87
647.657	729.37
648.104	757.97
648.551	797.07
648.999	849.17
649.446	930.27
649.893	1012.17
650.34	1165.47
650.787	1388.67
651.234	1708.17
651.682	2233.77
652.129	3047.37
652.576	4376.77
653.023	6443.47
653.47	8829.57
653.917	10989.77
654.363	12676.47
654.81	14010.77
655.257	13240.37
655.704	8726.37
656.151	5208.87
656.598	3359.87
657.044	2397.97
657.491	1847.47
657.938	1490.37
658.385	1243.77
658.831	1075.07
659.278	963.97
659.724	861.97
660.171	795.57
660.618	726.47
661.064	698.17
661.511	678.97
661.957	659.97
662.404	649.97
662.85	653.47
663.296	630.47
663.743	569.07
664.189	561.07
664.635	544.67
665.082	542.87
665.528	529.37
665.974	526.57
666.42	517.67
666.867	513.77
667.313	492.47
667.759	470.27
668.205	470.37
668.651	475.27
669.097	482.97
669.543	490.07
669.989	470.47
670.435	452.17
670.881	458.87
671.327	469.17
671.773	480.97
672.219	505.47
672.665	564.17
673.11	593.87
673.556	638.87
674.002	684.67
674.448	668.47
674.893	558.87
675.339	486.07
675.785	447.97
676.23	432.67
676.676	394.97
677.122	394.27
677.567	381.27
678.013	373.07
678.458	364.57
678.904	366.37
679.349	354.17
679.794	366.17
680.24	371.37
680.685	355.97
681.131	355.87
681.576	351.17
682.021	358.07
682.466	354.17
682.912	350.47
683.357	356.17
683.802	387.07
684.247	421.57
684.692	458.67
685.137	498.87
685.583	543.57
686.028	578.17
686.473	525.37
686.918	451.57
687.363	424.87
687.807	401.57
688.252	375.37
688.697	370.17
689.142	348.87
689.587	332.37
690.032	334.27
690.477	351.27
690.921	360.57
691.366	397.57
691.811	416.67
692.255	437.47
692.7	470.47
693.145	516.67
693.589	715.97
694.034	1148.27
694.478	1574.17
694.923	1790.57
695.367	2323.67
695.812	1224.37
696.256	511.27
696.701	378.17
697.145	349.27
697.59	330.97
698.034	332.57
698.478	338.37
698.922	336.07
699.367	336.37
699.811	345.57
700.255	362.87
700.699	388.07
701.143	431.07
701.588	489.77
702.032	529.17
702.476	525.07
702.92	501.87
703.364	507.97
703.808	652.47
704.252	1055.67
704.696	1487.47
705.14	1702.87
705.584	2178.67
706.027	1075.47
706.471	536.17
706.915	402.77
707.359	357.27
707.803	330.27
708.246	319.67
708.69	316.87
709.134	323.37
709.577	315.87
710.021	322.37
710.465	312.97
710.908	302.47
711.352	299.97
711.795	321.97
712.239	362.27
712.682	399.17
713.126	428.17
713.569	469.07
714.012	376.57
714.456	318.07
714.899	297.67
715.342	287.17
715.786	265.07
716.229	267.77
716.672	261.77
717.115	254.87
717.558	253.87
718.002	259.57
718.445	260.87
718.888	287.87
719.331	289.47
719.774	315.17
720.217	310.57
720.66	286.87
721.103	269.47
721.546	259.17
721.989	254.47
722.432	236.47
722.874	250.07
723.317	228.87
723.76	245.47
724.203	264.67
724.645	320.47
725.088	456.57
725.531	574.77
725.974	667.57
726.416	559.57
726.859	312.87
727.301	250.37
727.744	247.57
728.187	239.47
728.629	241.27
729.071	241.27
729.514	261.67
729.956	280.97
730.399	288.27
730.841	293.17
731.283	284.57
731.726	270.17
732.168	268.27
732.61	269.47
733.053	289.57
733.495	317.87
733.937	352.57
734.379	403.67
734.821	446.47
735.263	553.37
735.705	857.57
736.148	1621.97
736.59	2663.87
737.032	3129.27
737.474	2540.77
737.916	829.97
738.357	441.07
738.799	337.67
739.241	308.27
739.683	284.57
740.125	301.57
740.567	306.27
741.008	329.17
741.45	314.37
741.892	326.17
742.334	353.47
742.775	360.37
743.217	347.47
743.658	277.27
744.1	256.37
744.542	267.97
744.983	321.57
745.425	350.97
745.866	349.77
746.307	293.07
746.749	290.77
747.19	333.37
747.632	462.77
748.073	894.97
748.514	1919.07
748.956	2927.27
749.397	3664.07
749.838	3039.77
750.279	3034.67
750.72	1526.97
751.162	561.47
751.603	325.27
752.044	258.87
752.485	217.27
752.926	219.97
753.367	205.27
753.808	200.47
754.249	191.57
754.69	194.97
755.131	182.87
755.572	195.17
756.013	189.17
756.453	188.37
756.894	199.27
757.335	193.37
757.776	191.97
758.216	204.77
758.657	200.87
759.098	202.37
759.538	228.67
759.979	276.37
760.42	379.07
760.86	725.67
761.301	1876.67
761.741	4553.97
762.182	6580.67
762.622	4642.47
763.063	1347.37
763.503	555.77
763.943	342.67
764.384	329.97
764.824	370.37
765.264	392.97
765.705	284.27
766.145	207.97
766.585	184.47
767.025	183.67
767.465	185.57
767.906	229.57
768.346	288.37
768.786	305.97
769.226	255.07
769.666	323.97
770.106	627.87
770.546	1595.57
770.986	2709.37
771.426	2426.37
771.866	812.97
772.306	333.27
772.745	214.47
773.185	177.07
773.625	166.67
774.065	163.07
774.505	183.67
774.944	280.77
775.384	573.57
775.824	1012.57
776.263	983.07
776.703	431.47
777.142	204.27
777.582	151.47
778.021	135.87
778.461	135.37
778.9	135.27
779.34	127.67
779.779	113.77
780.219	111.97
780.658	111.87
781.097	115.27
781.537	117.87
781.976	111.47
782.415	107.57
782.855	104.97
783.294	99.37
783.733	105.67
784.172	110.77
784.611	110.77
785.05	110.37
785.489	115.07
785.928	119.87
786.367	128.57
786.806	112.47
787.245	132.47
787.684	140.97
788.123	150.77
788.562	133.57
789.001	129.07
789.44	123.47
789.879	120.17
790.317	118.77
790.756	136.87
791.195	131.77
791.634	145.07
792.072	200.87
792.511	371.97
792.95	1024.37
793.388	2190.37
793.827	1959.77
794.265	683.97
794.704	282.07
795.142	180.87
795.581	157.37
796.019	137.97
796.458	124.17
796.896	127.17
797.334	128.57
797.773	157.97
798.211	221.47
798.649	447.67
799.087	1044.17
799.526	1637.07
799.964	2060.97
800.402	2057.27
800.84	765.67
801.278	304.87
801.716	182.77
802.154	163.97
802.592	147.27
803.03	147.97
803.468	140.27
803.906	149.37
804.344	155.57
804.782	139.07
805.22	140.07
805.658	134.47
806.096	146.87
806.533	159.97
806.971	174.97
807.409	222.57
807.847	321.97
808.284	692.47
808.722	1916.17
809.16	3372.27
809.597	3212.47
810.035	5563.27
810.472	5897.47
810.91	2135.07
811.347	811.07
811.785	409.87
812.222	269.97
812.66	205.57
813.097	171.57
813.535	146.87
813.972	130.27
814.409	118.87
814.846	111.27
815.284	110.97
815.721	100.97
816.158	107.67
816.595	118.07
817.032	161.27
817.47	198.07
817.907	165.87
818.344	134.77
818.781	110.87
819.218	97.87
819.655	125.07
820.092	190.97
820.529	223.87
820.966	179.17
821.403	127.27
821.839	107.67
822.276	100.27
822.713	124.17
823.15	138.87
823.587	118.97
824.023	154.67
824.46	305.27
824.897	917.27
825.333	1378.97
825.77	600.07
826.206	223.97
826.643	140.17
827.08	100.77
827.516	87.47
827.953	77.37
828.389	82.37
828.825	69.07
829.262	66.97
829.698	64.37
830.135	61.47
830.571	66.37
831.007	60.87
831.443	63.47
831.88	65.57
832.316	67.47
832.752	62.57
833.188	68.87
833.624	61.47
834.06	64.37
834.497	68.07
834.933	78.47
835.369	76.47
835.805	66.17
836.241	73.77
836.677	76.77
837.112	94.47
837.548	104.17
837.984	135.07
838.42	200.97
838.856	508.67
839.292	1554.07
839.727	2350.17
840.163	1101.67
840.599	955.07
841.034	2085.47
841.47	2153.67
841.906	793.47
842.341	338.77
842.777	227.67
843.212	282.17
843.648	265.97
844.083	133.97
844.519	87.47
844.954	72.57
845.39	60.57
845.825	53.17
846.261	54.57
846.696	55.37
847.131	57.07
847.566	55.47
848.002	54.77
848.437	50.57
848.872	67.27
849.307	58.67
849.742	85.97
850.177	182.97
850.613	567.37
851.048	894.87
851.483	387.77
851.918	159.37
852.353	87.87
852.788	64.37
853.223	56.27
853.657	53.67
854.092	51.77
854.527	44.27
854.962	40.37
855.397	49.17
855.832	49.37
856.266	44.07
856.701	41.17
857.136	39.27
857.57	42.77
858.005	56.67
858.44	60.67
858.874	41.97
859.309	55.47
859.743	40.17
860.178	45.87
860.612	39.37
861.047	53.67
861.481	65.57
861.915	70.67
862.35	46.57
862.784	36.47
863.218	40.87
863.653	35.97
864.087	41.97
864.521	55.17
864.955	68.77
865.39	162.97
865.824	186.87
866.258	114.97
866.692	169.17
867.126	180.17
867.56	106.77
867.994	57.27
868.428	41.17
868.862	48.67
869.296	59.87
869.73	59.17
870.164	56.17
870.598	48.47
871.031	34.17
871.465	30.17
871.899	30.57
872.333	23.07
872.766	21.87
873.2	20.37
873.634	26.77
874.067	20.37
874.501	18.77
874.935	29.77
875.368	29.27
875.802	28.97
876.235	23.97
876.669	25.27
877.102	19.77
877.535	32.87
877.969	25.07
878.402	21.17
878.836	17.87
879.269	20.57
879.702	18.77
880.135	23.27
880.569	25.97
881.002	26.27
881.435	14.97
881.868	19.27
882.301	23.47
882.734	12.57
883.167	19.97
883.601	20.77
884.034	24.07
884.467	17.87
884.899	17.37
885.332	18.07
885.765	17.67
886.198	23.07
886.631	16.77
887.064	23.57
887.497	23.87
887.929	23.87
888.362	12.07
888.795	12.27
889.228	20.17
889.66	24.27
890.093	13.57
890.526	19.17
890.958	16.67
891.391	20.97
891.823	25.47
892.256	21.47
892.688	14.87
893.121	13.87
893.553	15.87
893.985	26.97
894.418	18.27
894.85	10.27
895.282	18.77
895.715	14.67
896.147	15.87
896.579	21.87
897.011	14.87
897.444	17.97
897.876	14.47
898.308	18.87
898.74	15.27
899.172	13.87
899.604	29.27
900.036	17.57
900.468	16.57
900.9	16.37
901.332	12.17
901.764	15.47
902.196	15.37
902.628	17.47
903.06	18.67
903.491	28.67
903.923	22.17
904.355	20.27
904.787	26.17
905.218	26.27
905.65	18.97
906.082	14.27
906.513	14.27
906.945	14.57
907.376	13.67
907.808	19.67
908.239	26.97
908.671	18.27
909.102	22.57
909.534	25.57
909.965	48.47
910.397	93.47
910.828	319.67
911.259	482.37
911.691	228.97
912.122	112.37
912.553	58.37
912.984	36.37
913.415	20.07
913.847	26.67
914.278	15.87
914.709	14.97
915.14	15.27
915.571	15.67
916.002	15.87
916.433	19.07
916.864	18.77
917.295	15.47
917.726	19.27
918.157	17.77
918.587	31.37
919.018	23.47
919.449	16.47
919.88	29.77
920.311	35.97
920.741	55.17
921.172	163.87
921.603	149.97
922.033	73.77
922.464	46.07
922.895	18.97
923.325	15.07
923.756	16.27
924.186	14.97
924.617	26.77
925.047	38.17
925.478	40.17
925.908	36.17
926.338	16.77
926.769	18.07
927.199	18.97
927.629	7.87
928.06	18.07
928.49	12.07
928.92	17.27
929.35	13.67
929.78	13.07
930.21	7.77
930.641	6.27
931.071	3.47
931.501	1.77
931.931	8.07
932.361	7.07
932.791	7.07
933.221	6.37
933.651	4.37
934.08	18.57
934.51	29.27
934.94	9.87
935.37	11.27
935.8	10.97
936.229	5.57
936.659	9.57
937.089	3.47
937.519	15.27
937.948	24.47
938.378	15.77
938.807	3.27
939.237	0.27
939.666	7.37
940.096	-2.43
940.525	2.97
940.955	2.47
941.384	4.27
941.814	-6.43
942.243	-6.43
942.672	3.77
943.102	5.07
943.531	0.47
943.96	7.07
944.39	-0.03
944.819	2.37
945.248	-0.73
945.677	4.27
946.106	2.67
946.535	6.17
946.964	-1.23
947.393	0.77
947.822	-4.43
948.251	-0.73
948.68	6.77
949.109	4.37
949.538	8.87
949.967	-1.93
950.396	0.67
950.825	1.17
951.254	-1.33
951.682	-8.13
952.111	5.07
952.54	4.37
952.969	-5.63
953.397	-0.33
953.826	4.27
954.254	-5.23
954.683	3.07
955.112	-1.93
955.54	-3.73
955.969	1.47
956.397	1.07
956.826	-4.93
957.254	1.37
957.682	2.37
958.111	2.97
958.539	0.87
958.967	0.07
959.396	-2.43
959.824	5.87
960.252	5.57
960.68	-4.53
961.109	-0.33
961.537	-5.33
961.965	5.77
962.393	-4.93
962.821	-5.63
963.249	1.67
963.677	6.67
964.105	4.97
964.533	44.57
964.961	41.77
965.389	21.37
965.817	16.37
966.245	1.87
966.672	-1.23
967.1	-5.53
967.528	4.47
967.956	-3.63
968.383	4.77
968.811	0.77
969.239	-8.03
969.666	-0.03
970.094	-2.43
970.522	-2.43
970.949	3.17
971.377	-8.03
971.804	-3.03
972.232	0.27
972.659	-2.03
973.087	-2.83
973.514	-7.83
973.941	-11.43
974.369	6.27
974.796	0.97
975.223	-1.93
975.651	2.97
976.078	6.67
976.505	2.97
976.932	6.77
977.359	18.67
977.786	14.57
978.214	2.97
978.641	-5.03
979.068	-8.03
979.495	-9.13
979.922	-3.43
980.349	0.57
980.776	4.37
981.202	-0.73
981.629	1.07
982.056	3.47
982.483	-2.43
982.91	5.97
983.337	3.77
983.763	2.57
984.19	-7.73
984.617	-2.63
985.043	-2.33
985.47	1.47
985.897	-2.13
986.323	-5.13
986.75	0.07
987.176	-2.63
987.603	-5.63
988.029	-2.03
988.456	-4.73
988.882	2.97
989.308	-8.23
989.735	-1.43
990.161	2.47
990.587	-4.53
991.014	-4.93
991.44	3.17
991.866	-2.33
992.292	-3.93
992.719	1.97
993.145	7.47
993.571	-7.23
993.997	-11.23
994.423	-7.83
994.849	-2.33
995.275	0.17
995.701	2.67
996.127	-6.43
996.553	4.87
996.979	-3.03
997.405	0.67
997.83	-2.13
998.256	-7.23
998.682	-3.73
999.108	-10.13
999.534	-1.93
999.959	0.87
1000.385	-3.13
1000.811	-1.53
1001.236	-5.13
1001.662	-8.43
1002.087	-10.53
1002.513	3.87
1002.938	1.87
1003.364	-2.53
1003.789	2.97
1004.215	7.77
1004.64	-7.03
1005.066	-0.93
1005.491	-4.03
1005.916	-0.83
1006.342	-0.43
1006.767	-10.53
1007.192	1.37
1007.617	1.57
1008.042	-6.53
1008.468	-4.93
1008.893	-3.03
1009.318	-3.33
1009.743	0.47
1010.168	2.47
1010.593	-0.33
1011.018	-8.83
1011.443	-0.63
1011.868	3.87
1012.293	-6.33
1012.718	-10.73
1013.143	0.07
1013.567	-0.73
1013.992	-3.13
1014.417	-13.03
1014.842	1.07
1015.267	-3.43
1015.691	-2.33
1016.116	4.17
1016.541	0.77
1016.965	5.17
1017.39	4.67
1017.814	-2.33
1018.239	-3.63
1018.663	-8.23
1019.088	-12.43
1019.512	-3.73
1019.937	-2.33
1020.361	-4.83
1020.785	-6.43
1021.21	-2.53
1021.634	-0.53
1022.058	-3.83
1022.483	6.37
1022.907	-8.23
1023.331	-0.03
1023.755	-3.13
1024.179	1.37
1024.604	-8.23
1025.028	-4.93
1025.452	-2.63
1025.876	0.37
1026.3	-3.33
1026.724	-13.53
1027.148	-5.13
1027.572	-12.33
1027.996	-2.43
1028.42	-5.13
1028.843	-4.93
1029.267	-9.43
1029.691	-5.33
1030.115	-7.83
1030.539	-7.43
1030.962	-8.73
1031.386	-12.83
1031.81	0.77
1032.233	1.77
1032.657	-5.53
1033.08	-5.23
1033.504	-3.93
1033.927	-4.83
1034.351	-1.23
1034.774	-8.23
1035.198	-5.73
1035.621	-6.93
1036.045	-6.53
1036.468	3.17
1036.891	-5.63
1037.315	-3.13
1037.738	-10.63
1038.161	-3.03
1038.584	-11.33
1039.008	-6.83
1039.431	-4.03
1039.854	0.07
1040.277	-10.73
1040.7	-9.23
1041.123	-3.93
1041.546	-6.13
1041.969	-11.03
1042.392	-4.53
1042.815	-6.03
1043.238	-2.63
1043.661	1.67
1044.084	-1.83
1044.507	-6.03
1044.93	-12.73
1045.352	-4.43
1045.775	-3.13
1046.198	-1.23
1046.621	-3.53
1047.043	-3.93
1047.466	4.47
1047.889	-6.73
1048.311	-7.83
1048.734	-6.73
1049.156	1.37
1049.579	2.37
1050.001	-4.73
1050.424	-1.73
1050.846	-1.23
1051.269	-9.03
1051.691	-6.53
1052.113	-6.43
1052.536	-0.53
1052.958	-2.93
1053.38	-3.53
1053.802	-11.13
1054.225	3.47
1054.647	-4.23
1055.069	-7.93
1055.491	-0.73
1055.913	-12.93
1056.335	-3.13
1056.757	-4.33
1057.179	-10.23
1057.601	-4.13
1058.023	-5.83
1058.445	-6.33
1058.867	-7.03
1059.289	-8.63
1059.711	-12.53
1060.133	1.87
1060.555	-2.43
1060.976	-5.83
1061.398	-7.83
1061.82	-8.63
1062.241	-3.83
1062.663	-4.23
1063.085	-0.43
1063.506	2.87
1063.928	-4.93
1064.35	-6.73
1064.771	-11.03
1065.193	-1.93
1065.614	-8.83
1066.035	-5.53
1066.457	-4.93
1066.878	-2.43
1067.3	-5.03
1067.721	1.27
1068.142	-0.63
1068.564	-8.43
1068.985	-5.63
1069.406	-2.93
1069.827	-7.33
1070.248	0.77
1070.67	-5.73
1071.091	-7.03
1071.512	-3.53
1071.933	-5.93
1072.354	-3.53
1072.775	-7.73
1073.196	-12.53
1073.617	0.77
1074.038	-13.33
1074.459	-1.53
1074.88	-5.13
1075.3	-0.43
1075.721	-3.33
1076.142	-4.93
1076.563	-5.03
1076.983	-8.43
1077.404	-4.63
1077.825	-12.63
1078.246	-6.73
1078.666	-5.23
1079.087	-9.23
1079.507	-9.53
1079.928	0.57
1080.348	-2.13
1080.769	-7.03
1081.189	-3.33
1081.61	-7.93
1082.03	-3.53
1082.451	-7.93
1082.871	-6.13
1083.291	-8.23
1083.711	-5.63
1084.132	-6.03
1084.552	-5.03
1084.972	-6.23
1085.392	-11.23
1085.813	-13.33
1086.233	-10.53
1086.653	-4.93
1087.073	-4.03
1087.493	-5.63
1087.913	-9.73
1088.333	-10.33
1088.753	-4.33
1089.173	-1.63
1089.593	-3.23
1090.013	-0.03
1090.433	6.17
1090.852	-4.53
1091.272	-5.53
1091.692	-0.03
1092.112	-1.23
1092.531	-4.93
1092.951	-11.43
1093.371	-4.43
1093.79	-2.23
1094.21	-8.43
1094.63	-10.73
1095.049	-6.03
1095.469	-8.83
1095.888	-6.73
1096.308	5.97
1096.727	5.77
1097.146	-6.83
1097.566	0.37
1097.985	-3.73
1098.405	-0.23
1098.824	-8.53
1099.243	-8.33
1099.662	-8.13
1100.082	-1.73
1100.501	-4.73
1100.92	-8.83
1101.339	-7.73
1101.758	-7.73
