Data from 20171114-ORNL-Ar_H_NY_Subt18_08-09-05-671.txt Node
Date: Tue Nov 14 08:09:05 EST 2017
User: Ender
Spectrometer: HR+D1039
Trigger mode: 0
Integration Time (sec): 2.730000E-2
Scans to average: 10
Electric dark correction enabled: true
Nonlinearity correction enabled: false
Boxcar width: 0
XAxis mode: Wavelengths
Number of Pixels in Spectrum: 2048
>>>>>Begin Spectral Data<<<<<
187.836	-2.91
188.309	-2.91
188.782	-2.91
189.255	-1.61
189.728	-0.51
190.201	2.19
190.674	-0.51
191.147	1.09
191.619	-1.61
192.092	-1.01
192.565	7.29
193.038	0.39
193.511	-0.61
193.984	-3.21
194.456	-0.41
194.929	2.29
195.402	-1.51
195.874	0.59
196.347	-2.31
196.82	-3.11
197.292	6.49
197.765	-6.01
198.237	-8.81
198.71	-0.11
199.182	-3.21
199.655	-2.51
200.127	0.69
200.6	1.09
201.072	-2.81
201.544	-6.51
202.017	-0.31
202.489	5.79
202.961	-6.31
203.433	-1.91
203.906	-8.11
204.378	-10.71
204.85	-8.91
205.322	-10.31
205.794	-1.11
206.266	-6.11
206.739	-6.11
207.211	-1.31
207.683	-9.21
208.155	-5.81
208.627	-8.31
209.099	-0.71
209.57	-7.11
210.042	-6.91
210.514	-6.71
210.986	-1.41
211.458	-11.31
211.93	-1.11
212.402	4.89
212.873	-10.81
213.345	-5.31
213.817	-9.21
214.288	-5.51
214.76	-10.01
215.232	-3.11
215.703	-5.01
216.175	-5.31
216.646	-2.61
217.118	-4.51
217.589	-3.21
218.061	-5.61
218.532	-4.91
219.004	-4.91
219.475	-4.11
219.946	-4.51
220.418	-6.71
220.889	3.69
221.36	-0.21
221.832	-4.41
222.303	-9.81
222.774	-3.21
223.245	-8.31
223.717	-7.51
224.188	-10.41
224.659	-7.31
225.13	-4.01
225.601	-5.61
226.072	1.39
226.543	0.69
227.014	-2.21
227.485	-1.71
227.956	-6.41
228.427	0.19
228.898	-0.91
229.369	1.59
229.839	-8.21
230.31	-11.51
230.781	-2.91
231.252	-6.91
231.722	-7.01
232.193	-7.31
232.664	-3.41
233.135	-7.01
233.605	-6.21
234.076	-11.41
234.546	-4.91
235.017	0.79
235.487	0.59
235.958	-4.11
236.428	-6.91
236.899	-3.11
237.369	2.79
237.84	-5.31
238.31	3.19
238.78	-3.81
239.251	-11.51
239.721	-2.91
240.191	-3.01
240.662	-4.01
241.132	-2.51
241.602	-7.31
242.072	-0.71
242.542	3.49
243.013	-2.71
243.483	-1.71
243.953	2.59
244.423	-4.81
244.893	-3.81
245.363	-2.71
245.833	4.89
246.303	-7.51
246.773	1.59
247.243	-4.51
247.712	-1.61
248.182	3.19
248.652	6.69
249.122	-11.01
249.592	-3.51
250.061	-2.71
250.531	2.89
251.001	-8.51
251.471	-0.41
251.94	8.69
252.41	2.89
252.879	-4.31
253.349	12.19
253.818	2.99
254.288	-2.01
254.757	-0.71
255.227	-6.71
255.696	-4.41
256.166	2.29
256.635	2.59
257.105	4.69
257.574	0.19
258.043	3.29
258.513	-4.81
258.982	1.69
259.451	-4.61
259.92	-5.61
260.389	2.79
260.859	6.99
261.328	5.09
261.797	2.79
262.266	1.29
262.735	1.19
263.204	-2.31
263.673	-4.21
264.142	6.99
264.611	-5.11
265.08	-3.81
265.549	-2.81
266.018	4.59
266.487	-5.21
266.955	-8.91
267.424	-6.71
267.893	6.39
268.362	-3.41
268.83	1.79
269.299	6.89
269.768	2.09
270.236	1.69
270.705	-5.11
271.174	-5.41
271.642	1.39
272.111	-1.61
272.579	0.59
273.048	2.99
273.516	-5.11
273.985	6.19
274.453	4.59
274.922	4.19
275.39	8.49
275.858	-5.11
276.327	2.89
276.795	7.79
277.263	-0.51
277.731	7.69
278.2	5.79
278.668	-1.71
279.136	5.49
279.604	3.39
280.072	4.59
280.54	4.69
281.008	2.89
281.477	8.69
281.945	4.79
282.413	9.09
282.881	7.39
283.348	2.09
283.816	7.39
284.284	9.09
284.752	13.29
285.22	6.89
285.688	7.79
286.156	7.59
286.623	10.49
287.091	5.99
287.559	13.39
288.026	2.99
288.494	7.29
288.962	-1.31
289.429	4.69
289.897	15.19
290.364	4.09
290.832	8.19
291.3	5.99
291.767	10.49
292.234	12.49
292.702	2.79
293.169	11.09
293.637	15.09
294.104	9.69
294.571	4.19
295.039	3.99
295.506	3.79
295.973	8.59
296.44	3.79
296.908	9.89
297.375	6.49
297.842	7.79
298.309	4.69
298.776	3.39
299.243	8.49
299.71	0.59
300.177	16.19
300.644	14.59
301.111	14.49
301.578	20.19
302.045	9.19
302.512	8.59
302.979	16.49
303.446	13.99
303.913	8.09
304.379	10.39
304.846	20.89
305.313	16.39
305.78	13.59
306.246	10.89
306.713	16.99
307.18	13.59
307.646	22.99
308.113	21.49
308.579	12.79
309.046	20.59
309.512	18.59
309.979	12.09
310.445	22.09
310.912	21.19
311.378	26.49
311.845	20.29
312.311	25.49
312.777	24.89
313.244	21.69
313.71	21.99
314.176	19.59
314.642	18.79
315.109	16.39
315.575	19.29
316.041	29.59
316.507	19.19
316.973	24.59
317.439	25.09
317.905	24.69
318.371	29.39
318.837	21.89
319.303	21.99
319.769	25.29
320.235	19.39
320.701	26.79
321.167	26.79
321.633	26.89
322.099	29.49
322.564	34.89
323.03	27.39
323.496	25.69
323.962	30.29
324.427	23.39
324.893	32.99
325.359	25.59
325.824	25.29
326.29	26.79
326.755	31.19
327.221	33.39
327.686	26.99
328.152	31.59
328.617	28.09
329.083	36.29
329.548	38.59
330.014	37.49
330.479	33.59
330.944	32.89
331.41	32.49
331.875	35.69
332.34	27.79
332.805	33.99
333.271	33.09
333.736	28.69
334.201	37.69
334.666	41.09
335.131	40.99
335.596	38.89
336.061	39.79
336.526	31.79
336.991	37.89
337.456	45.09
337.921	35.69
338.386	36.19
338.851	34.29
339.316	37.09
339.781	42.39
340.246	42.49
340.711	44.39
341.175	40.79
341.64	33.39
342.105	42.19
342.569	39.49
343.034	46.19
343.499	46.29
343.963	38.09
344.428	52.09
344.893	48.89
345.357	44.59
345.822	48.09
346.286	50.89
346.751	56.39
347.215	52.19
347.679	57.89
348.144	70.79
348.608	62.49
349.073	55.69
349.537	60.09
350.001	64.99
350.465	77.99
350.93	63.79
351.394	70.79
351.858	62.69
352.322	69.89
352.786	59.59
353.25	83.39
353.715	86.49
354.179	78.49
354.643	98.09
355.107	91.69
355.571	77.69
356.035	80.29
356.498	89.99
356.962	84.79
357.426	103.89
357.89	93.79
358.354	68.19
358.818	68.39
359.281	65.29
359.745	64.29
360.209	61.19
360.673	62.59
361.136	62.09
361.6	73.49
362.064	68.49
362.527	69.49
362.991	73.69
363.454	69.19
363.918	67.79
364.381	69.99
364.845	72.69
365.308	76.79
365.772	70.89
366.235	76.09
366.698	69.09
367.162	70.49
367.625	71.09
368.088	76.89
368.552	75.29
369.015	73.49
369.478	78.09
369.941	83.59
370.404	82.09
370.867	89.59
371.331	87.89
371.794	91.69
372.257	86.89
372.72	92.69
373.183	96.39
373.646	83.29
374.109	86.29
374.572	89.79
375.035	85.99
375.497	91.89
375.96	95.19
376.423	94.99
376.886	98.89
377.349	91.19
377.811	82.09
378.274	93.79
378.737	93.69
379.199	95.69
379.662	99.09
380.125	102.59
380.587	97.99
381.05	95.79
381.512	95.79
381.975	114.69
382.437	109.49
382.9	106.29
383.362	115.09
383.825	118.39
384.287	114.79
384.75	104.99
385.212	116.89
385.674	117.99
386.136	121.29
386.599	109.79
387.061	112.69
387.523	106.79
387.985	110.59
388.447	117.19
388.91	112.19
389.372	116.19
389.834	117.19
390.296	111.89
390.758	119.09
391.22	118.09
391.682	131.89
392.144	146.99
392.606	132.39
393.068	137.89
393.529	144.89
393.991	128.29
394.453	122.39
394.915	119.79
395.377	126.19
395.838	127.19
396.3	125.29
396.762	130.79
397.224	122.59
397.685	118.29
398.147	119.29
398.608	128.99
399.07	118.69
399.531	126.99
399.993	135.69
400.454	144.99
400.916	142.99
401.377	135.79
401.839	141.29
402.3	138.49
402.762	147.99
403.223	162.79
403.684	156.49
404.145	153.19
404.607	155.59
405.068	150.19
405.529	153.89
405.99	175.79
406.451	171.39
406.913	157.69
407.374	161.99
407.835	154.79
408.296	160.19
408.757	154.79
409.218	168.19
409.679	165.29
410.14	162.89
410.601	161.99
411.062	174.09
411.522	179.69
411.983	163.49
412.444	163.69
412.905	175.49
413.366	179.69
413.826	192.99
414.287	209.09
414.748	256.39
415.208	235.29
415.669	209.69
416.13	204.89
416.59	192.39
417.051	214.79
417.511	220.09
417.972	231.89
418.432	245.79
418.893	283.99
419.353	250.69
419.814	196.59
420.274	185.79
420.734	180.69
421.195	191.49
421.655	183.79
422.115	193.69
422.576	184.79
423.036	192.79
423.496	202.69
423.956	217.19
424.416	228.99
424.876	264.49
425.336	254.99
425.797	251.19
426.257	257.59
426.717	238.79
427.177	228.79
427.637	214.39
428.097	226.39
428.556	236.09
429.016	262.19
429.476	253.69
429.936	261.39
430.396	267.09
430.856	273.49
431.315	302.69
431.775	333.19
432.235	364.79
432.694	331.19
433.154	343.79
433.614	370.49
434.073	321.49
434.533	273.59
434.993	260.69
435.452	275.99
435.912	275.09
436.371	274.59
436.83	266.89
437.29	254.59
437.749	237.99
438.209	239.49
438.668	269.99
439.127	283.29
439.587	262.19
440.046	247.99
440.505	247.49
440.964	264.29
441.424	309.89
441.883	302.29
442.342	249.49
442.801	218.79
443.26	225.89
443.719	223.19
444.178	224.89
444.637	213.59
445.096	219.09
445.555	223.79
446.014	222.99
446.473	224.39
446.932	234.99
447.391	234.29
447.849	238.69
448.308	218.69
448.767	226.29
449.226	237.29
449.685	238.19
450.143	255.09
450.602	236.49
451.061	234.49
451.519	235.29
451.978	236.49
452.436	242.39
452.895	235.89
453.353	249.39
453.812	237.59
454.27	240.89
454.729	241.09
455.187	240.29
455.646	236.19
456.104	249.79
456.562	268.39
457.021	269.29
457.479	265.39
457.937	279.69
458.395	266.09
458.854	257.29
459.312	259.59
459.77	281.49
460.228	260.19
460.686	243.79
461.144	249.49
461.602	252.29
462.06	248.09
462.518	260.79
462.976	258.69
463.434	265.19
463.892	263.59
464.35	275.69
464.808	296.59
465.266	271.09
465.724	277.79
466.181	278.09
466.639	280.99
467.097	287.89
467.555	303.49
468.012	305.29
468.47	313.99
468.928	334.09
469.385	344.09
469.843	350.59
470.3	350.79
470.758	362.29
471.215	389.89
471.673	400.49
472.13	403.59
472.588	413.29
473.045	380.79
473.503	390.29
473.96	396.09
474.417	415.09
474.875	431.39
475.332	474.09
475.789	460.49
476.246	470.99
476.704	485.29
477.161	507.09
477.618	519.89
478.075	555.49
478.532	609.09
478.989	675.79
479.446	794.99
479.903	749.79
480.36	770.69
480.817	820.19
481.274	918.99
481.731	1010.89
482.188	1077.59
482.645	1196.29
483.102	1285.59
483.558	1400.59
484.015	1423.99
484.472	1415.59
484.929	1364.39
485.385	1325.49
485.842	1294.39
486.299	1262.09
486.755	1205.39
487.212	1037.29
487.668	891.99
488.125	829.19
488.582	765.59
489.038	732.99
489.494	707.99
489.951	673.79
490.407	655.59
490.864	648.89
491.32	638.09
491.776	640.39
492.233	653.29
492.689	624.59
493.145	611.49
493.602	606.79
494.058	623.19
494.514	621.79
494.97	646.59
495.426	640.79
495.882	627.39
496.338	616.49
496.794	621.39
497.251	612.09
497.707	634.19
498.163	624.99
498.618	645.39
499.074	637.29
499.53	676.49
499.986	677.29
500.442	650.49
500.898	631.39
501.354	623.49
501.809	627.19
502.265	632.79
502.721	639.49
503.177	652.29
503.632	644.89
504.088	657.19
504.543	670.79
504.999	689.39
505.455	661.39
505.91	653.89
506.366	658.09
506.821	645.09
507.277	646.49
507.732	645.19
508.187	644.49
508.643	652.39
509.098	652.69
509.553	670.79
510.009	678.19
510.464	685.09
510.919	707.99
511.375	707.79
511.83	719.79
512.285	743.09
512.74	773.89
513.195	802.59
513.65	789.49
514.105	772.79
514.56	777.79
515.015	797.69
515.47	811.69
515.925	792.79
516.38	797.59
516.835	799.89
517.29	788.09
517.745	776.69
518.2	772.69
518.655	774.89
519.109	750.39
519.564	760.69
520.019	742.89
520.474	740.99
520.928	748.29
521.383	746.69
521.838	727.89
522.292	720.19
522.747	725.29
523.201	707.89
523.656	717.59
524.11	708.79
524.565	708.19
525.019	706.69
525.474	707.19
525.928	716.79
526.382	710.89
526.837	714.19
527.291	713.89
527.745	709.79
528.2	714.39
528.654	699.49
529.108	702.09
529.562	704.89
530.016	705.79
530.47	704.89
530.925	713.39
531.379	713.09
531.833	720.79
532.287	710.19
532.741	716.79
533.195	718.59
533.649	720.49
534.103	727.89
534.556	721.19
535.01	719.49
535.464	712.09
535.918	723.09
536.372	722.99
536.826	735.59
537.279	718.69
537.733	726.59
538.187	725.29
538.64	726.79
539.094	735.79
539.548	737.79
540.001	742.09
540.455	744.69
540.908	757.09
541.362	756.99
541.815	771.69
542.269	784.89
542.722	782.19
543.175	784.69
543.629	782.79
544.082	814.89
544.536	804.59
544.989	806.69
545.442	819.79
545.895	818.59
546.349	819.29
546.802	817.49
547.255	824.79
547.708	831.49
548.161	849.19
548.614	845.89
549.067	845.59
549.52	841.59
549.973	836.49
550.426	833.39
550.879	817.79
551.332	829.59
551.785	824.39
552.238	833.59
552.691	837.59
553.144	854.39
553.596	873.49
554.049	880.19
554.502	924.69
554.955	940.99
555.407	936.89
555.86	933.79
556.313	923.49
556.765	912.39
557.218	910.69
557.67	905.29
558.123	899.39
558.576	894.79
559.028	896.69
559.48	901.49
559.933	901.19
560.385	870.09
560.838	843.49
561.29	807.29
561.742	806.59
562.195	795.19
562.647	795.89
563.099	802.39
563.551	800.69
564.004	810.59
564.456	803.39
564.908	782.69
565.36	766.09
565.812	745.39
566.264	742.19
566.716	742.29
567.168	731.69
567.62	728.59
568.072	712.89
568.524	719.49
568.976	719.49
569.428	687.89
569.88	697.39
570.332	705.19
570.784	705.69
571.235	710.59
571.687	720.89
572.139	737.79
572.59	740.59
573.042	743.39
573.494	731.09
573.945	731.79
574.397	704.89
574.849	713.69
575.3	721.99
575.752	702.19
576.203	697.99
576.655	709.69
577.106	696.29
577.557	692.19
578.009	694.29
578.46	684.69
578.912	697.29
579.363	680.09
579.814	688.89
580.265	681.79
580.717	687.69
581.168	691.99
581.619	693.19
582.07	697.39
582.521	697.69
582.972	689.29
583.423	705.99
583.875	698.89
584.326	706.19
584.777	728.09
585.227	746.29
585.678	769.39
586.129	775.19
586.58	796.69
587.031	814.69
587.482	837.29
587.933	879.29
588.384	849.69
588.834	812.99
589.285	794.09
589.736	797.39
590.186	795.69
590.637	793.69
591.088	774.59
591.538	771.59
591.989	751.99
592.439	743.59
592.89	739.89
593.34	730.19
593.791	736.29
594.241	725.69
594.692	722.59
595.142	718.69
595.593	724.19
596.043	733.79
596.493	728.89
596.943	733.79
597.394	745.19
597.844	749.79
598.294	764.59
598.744	792.79
599.195	813.79
599.645	852.49
600.095	898.09
600.545	960.19
600.995	1003.89
601.445	1059.29
601.895	1123.49
602.345	1182.39
602.795	1162.49
603.245	1106.79
603.695	1056.89
604.145	982.89
604.594	936.89
605.044	896.19
605.494	826.49
605.944	774.79
606.393	769.89
606.843	758.99
607.293	759.99
607.743	756.69
608.192	771.09
608.642	779.39
609.091	776.49
609.541	784.89
609.99	793.49
610.44	783.19
610.889	745.49
611.339	724.89
611.788	714.99
612.238	715.29
612.687	729.99
613.136	721.99
613.586	730.89
614.035	727.89
614.484	729.49
614.933	740.69
615.383	741.59
615.832	732.09
616.281	729.09
616.73	698.09
617.179	674.09
617.628	664.29
618.077	660.29
618.526	652.89
618.975	636.79
619.424	634.09
619.873	628.49
620.322	648.29
620.771	632.49
621.22	629.19
621.669	611.79
622.118	608.79
622.567	595.89
623.015	588.89
623.464	592.89
623.913	582.39
624.361	569.59
624.81	576.59
625.259	577.49
625.707	576.79
626.156	574.19
626.604	590.59
627.053	583.69
627.501	587.49
627.95	588.29
628.398	596.19
628.847	586.89
629.295	595.29
629.744	592.09
630.192	585.69
630.64	585.99
631.089	569.39
631.537	558.89
631.985	553.89
632.433	551.49
632.881	551.79
633.33	545.59
633.778	549.19
634.226	542.19
634.674	561.99
635.122	558.29
635.57	571.69
636.018	582.49
636.466	582.99
636.914	568.89
637.362	600.79
637.81	598.19
638.258	603.79
638.705	606.69
639.153	649.09
639.601	651.19
640.049	671.99
640.497	699.19
640.944	728.59
641.392	672.69
641.84	638.09
642.287	615.19
642.735	591.39
643.182	585.09
643.63	576.29
644.078	579.79
644.525	595.39
644.973	603.89
645.42	606.09
645.867	642.39
646.315	657.49
646.762	670.19
647.21	703.59
647.657	730.59
648.104	769.79
648.551	770.19
648.999	839.79
649.446	923.99
649.893	1001.49
650.34	1144.69
650.787	1361.99
651.234	1694.19
651.682	2172.19
652.129	2977.89
652.576	4191.89
653.023	6125.59
653.47	8237.79
653.917	10134.49
654.363	11622.79
654.81	12747.29
655.257	12078.39
655.704	8016.19
656.151	4838.39
656.598	3196.59
657.044	2288.99
657.491	1774.59
657.938	1436.09
658.385	1211.49
658.831	1053.09
659.278	953.79
659.724	847.89
660.171	781.09
660.618	720.49
661.064	693.39
661.511	686.89
661.957	672.09
662.404	655.09
662.85	658.29
663.296	637.19
663.743	581.79
664.189	559.29
664.635	546.19
665.082	549.89
665.528	553.79
665.974	540.49
666.42	530.59
666.867	520.09
667.313	497.69
667.759	483.79
668.205	465.39
668.651	474.29
669.097	470.69
669.543	464.89
669.989	459.49
670.435	465.49
670.881	464.29
671.327	467.49
671.773	490.79
672.219	516.89
672.665	573.69
673.11	613.39
673.556	663.79
674.002	706.69
674.448	698.49
674.893	579.89
675.339	502.99
675.785	466.49
676.23	448.09
676.676	415.39
677.122	403.19
677.567	397.59
678.013	387.59
678.458	376.49
678.904	377.59
679.349	360.99
679.794	366.99
680.24	376.39
680.685	374.69
681.131	363.69
681.576	370.79
682.021	366.09
682.466	368.69
682.912	368.99
683.357	376.19
683.802	406.99
684.247	433.39
684.692	474.89
685.137	526.89
685.583	576.39
686.028	586.99
686.473	556.59
686.918	472.09
687.363	444.89
687.807	417.79
688.252	390.09
688.697	378.79
689.142	361.39
689.587	358.99
690.032	354.29
690.477	359.09
690.921	378.79
691.366	407.19
691.811	421.19
692.255	454.19
692.7	488.89
693.145	548.19
693.589	766.59
694.034	1243.29
694.478	1675.09
694.923	1833.59
695.367	2362.39
695.812	1269.09
696.256	533.29
696.701	390.89
697.145	373.09
697.59	344.09
698.034	336.99
698.478	349.79
698.922	343.39
699.367	347.19
699.811	356.29
700.255	378.09
700.699	408.29
701.143	447.59
701.588	501.29
702.032	546.29
702.476	536.39
702.92	526.49
703.364	538.89
703.808	699.09
704.252	1156.99
704.696	1579.19
705.14	1769.79
705.584	2254.19
706.027	1138.69
706.471	555.09
706.915	429.19
707.359	372.79
707.803	342.29
708.246	335.69
708.69	333.39
709.134	338.29
709.577	330.89
710.021	332.09
710.465	323.49
710.908	313.29
711.352	308.29
711.795	333.09
712.239	378.89
712.682	412.19
713.126	434.89
713.569	473.69
714.012	386.29
714.456	328.99
714.899	303.39
715.342	294.49
715.786	281.39
716.229	269.29
716.672	273.19
717.115	268.09
717.558	256.19
718.002	267.09
718.445	274.79
718.888	298.79
719.331	308.29
719.774	321.39
720.217	319.39
720.66	307.99
721.103	288.69
721.546	270.29
721.989	268.19
722.432	253.99
722.874	250.29
723.317	240.39
723.76	251.49
724.203	269.59
724.645	348.99
725.088	485.59
725.531	603.69
725.974	670.09
726.416	582.59
726.859	325.59
727.301	261.89
727.744	253.99
728.187	248.19
728.629	256.79
729.071	259.89
729.514	277.09
729.956	296.39
730.399	302.29
730.841	303.89
731.283	295.99
731.726	281.09
732.168	274.99
732.61	283.49
733.053	311.69
733.495	346.69
733.937	374.09
734.379	429.79
734.821	472.39
735.263	598.59
735.705	931.59
736.148	1772.09
736.59	2831.29
737.032	3224.59
737.474	2630.89
737.916	872.19
738.357	457.09
738.799	352.69
739.241	320.99
739.683	301.79
740.125	314.29
740.567	317.89
741.008	339.29
741.45	335.89
741.892	342.69
742.334	382.49
742.775	389.89
743.217	364.39
743.658	293.39
744.1	271.59
744.542	284.59
744.983	344.69
745.425	373.39
745.866	368.09
746.307	298.39
746.749	296.69
747.19	352.89
747.632	508.29
748.073	1004.59
748.514	2081.39
748.956	3063.69
749.397	3869.19
749.838	3207.69
750.279	3113.59
750.72	1600.69
751.162	594.09
751.603	342.49
752.044	268.19
752.485	228.89
752.926	227.79
753.367	217.99
753.808	206.79
754.249	203.89
754.69	200.99
755.131	196.09
755.572	192.59
756.013	186.29
756.453	189.39
756.894	200.29
757.335	198.29
757.776	210.39
758.216	212.99
758.657	211.19
759.098	215.09
759.538	244.29
759.979	290.29
760.42	420.09
760.86	802.79
761.301	2098.89
761.741	4911.69
762.182	6761.29
762.622	4782.49
763.063	1419.99
763.503	582.09
763.943	348.89
764.384	287.39
764.824	262.29
765.264	249.99
765.705	229.49
766.145	195.79
766.585	188.39
767.025	178.99
767.465	178.59
767.906	197.49
768.346	205.09
768.786	221.79
769.226	233.09
769.666	337.69
770.106	700.39
770.546	1741.89
770.986	2796.99
771.426	2464.89
771.866	849.69
772.306	346.49
772.745	217.29
773.185	177.19
773.625	168.99
774.065	159.49
774.505	170.39
774.944	225.29
775.384	396.19
775.824	609.99
776.263	586.49
776.703	290.99
777.142	164.19
777.582	143.49
778.021	130.79
778.461	135.39
778.9	129.29
779.34	135.19
779.779	117.59
780.219	117.29
780.658	116.99
781.097	111.69
781.537	120.39
781.976	110.49
782.415	113.59
782.855	107.59
783.294	105.99
783.733	107.19
784.172	109.49
784.611	107.79
785.05	108.49
785.489	118.79
785.928	126.99
786.367	122.19
786.806	126.29
787.245	140.29
787.684	151.29
788.123	162.19
788.562	148.09
789.001	137.79
789.44	134.49
789.879	127.59
790.317	126.79
790.756	137.59
791.195	135.49
791.634	157.59
792.072	220.69
792.511	413.59
792.95	1133.19
793.388	2266.79
793.827	1985.79
794.265	710.39
794.704	300.49
795.142	195.39
795.581	165.89
796.019	146.49
796.458	138.59
796.896	131.99
797.334	144.29
797.773	164.79
798.211	244.99
798.649	497.79
799.087	1135.29
799.526	1736.49
799.964	2188.39
800.402	2098.89
800.84	815.09
801.278	331.59
801.716	199.29
802.154	163.89
802.592	154.09
803.03	152.19
803.468	146.79
803.906	146.99
804.344	161.69
804.782	153.19
805.22	152.29
805.658	145.89
806.096	157.19
806.533	166.29
806.971	181.99
807.409	241.69
807.847	361.89
808.284	767.89
808.722	2088.59
809.16	3517.09
809.597	3512.49
810.035	5912.69
810.472	6042.09
810.91	2251.49
811.347	870.09
811.785	430.49
812.222	273.79
812.66	216.49
813.097	173.29
813.535	147.99
813.972	146.99
814.409	122.99
814.846	118.29
815.284	110.09
815.721	102.09
816.158	109.29
816.595	115.89
817.032	163.39
817.47	183.09
817.907	128.79
818.344	106.39
818.781	108.29
819.218	101.29
819.655	128.89
820.092	197.39
820.529	221.19
820.966	180.99
821.403	129.09
821.839	106.69
822.276	110.49
822.713	131.99
823.15	147.99
823.587	129.89
824.023	163.29
824.46	349.69
824.897	1001.49
825.333	1424.59
825.77	619.39
826.206	246.89
826.643	151.69
827.08	107.49
827.516	93.19
827.953	84.69
828.389	84.99
828.825	75.79
829.262	70.89
829.698	65.19
830.135	61.69
830.571	65.09
831.007	68.29
831.443	63.49
831.88	63.89
832.316	71.49
832.752	69.09
833.188	68.59
833.624	61.49
834.06	74.09
834.497	70.49
834.933	75.09
835.369	82.59
835.805	67.39
836.241	80.59
836.677	85.29
837.112	97.89
837.548	112.99
837.984	141.49
838.42	226.49
838.856	562.39
839.292	1675.69
839.727	2427.39
840.163	1156.79
840.599	1042.89
841.034	2217.09
841.47	2221.39
841.906	833.99
842.341	352.99
842.777	212.09
843.212	217.39
843.648	195.99
844.083	117.19
844.519	94.89
844.954	72.59
845.39	63.19
845.825	58.79
846.261	65.19
846.696	54.09
847.131	54.59
847.566	65.89
848.002	61.59
848.437	53.09
848.872	65.09
849.307	69.29
849.742	92.29
850.177	209.49
850.613	622.19
851.048	926.59
851.483	402.19
851.918	170.79
852.353	89.99
852.788	62.69
853.223	63.99
853.657	53.19
854.092	50.49
854.527	42.39
854.962	46.19
855.397	47.39
855.832	47.29
856.266	41.59
856.701	44.39
857.136	41.59
857.57	41.39
858.005	53.99
858.44	64.09
858.874	53.59
859.309	51.49
859.743	40.79
860.178	50.09
860.612	41.19
861.047	51.79
861.481	77.09
861.915	77.99
862.35	54.99
862.784	37.99
863.218	42.19
863.653	32.39
864.087	43.89
864.521	56.59
864.955	76.69
865.39	167.09
865.824	187.39
866.258	126.29
866.692	183.09
867.126	189.79
867.56	107.79
867.994	59.19
868.428	39.59
868.862	46.89
869.296	54.59
869.73	58.99
870.164	56.69
870.598	52.09
871.031	36.39
871.465	34.49
871.899	37.49
872.333	29.39
872.766	27.69
873.2	22.99
873.634	32.39
874.067	31.49
874.501	31.99
874.935	35.99
875.368	33.99
875.802	30.59
876.235	26.69
876.669	30.19
877.102	20.89
877.535	30.19
877.969	28.39
878.402	28.09
878.836	21.79
879.269	20.19
879.702	23.79
880.135	23.59
880.569	22.29
881.002	21.09
881.435	18.09
881.868	13.79
882.301	27.29
882.734	19.09
883.167	23.29
883.601	24.79
884.034	25.89
884.467	15.09
884.899	18.89
885.332	24.59
885.765	19.09
886.198	17.89
886.631	17.99
887.064	21.99
887.497	21.59
887.929	32.99
888.362	21.09
888.795	11.69
889.228	18.29
889.66	21.79
890.093	15.79
890.526	14.69
890.958	13.99
891.391	16.39
891.823	23.69
892.256	18.29
892.688	11.59
893.121	17.29
893.553	12.79
893.985	21.09
894.418	19.89
894.85	12.49
895.282	12.59
895.715	16.69
896.147	22.89
896.579	21.49
897.011	14.49
897.444	14.89
897.876	16.69
898.308	13.59
898.74	14.39
899.172	13.29
899.604	22.89
900.036	14.29
900.468	9.49
900.9	16.99
901.332	18.59
901.764	15.99
902.196	22.59
902.628	17.59
903.06	19.89
903.491	36.29
903.923	22.29
904.355	18.19
904.787	22.19
905.218	19.69
905.65	19.99
906.082	16.29
906.513	20.39
906.945	13.49
907.376	20.19
907.808	18.49
908.239	18.89
908.671	20.69
909.102	19.99
909.534	25.79
909.965	51.19
910.397	105.59
910.828	337.29
911.259	497.49
911.691	229.09
912.122	121.09
912.553	58.19
912.984	30.89
913.415	25.69
913.847	27.59
914.278	16.79
914.709	17.89
915.14	22.59
915.571	17.49
916.002	10.99
916.433	19.89
916.864	19.49
917.295	14.69
917.726	18.09
918.157	16.59
918.587	27.09
919.018	23.59
919.449	18.29
919.88	23.29
920.311	33.79
920.741	44.29
921.172	179.09
921.603	161.79
922.033	70.99
922.464	52.69
922.895	26.29
923.325	23.89
923.756	12.99
924.186	11.79
924.617	21.69
925.047	19.89
925.478	23.39
925.908	22.99
926.338	13.89
926.769	13.09
927.199	18.49
927.629	9.69
928.06	16.09
928.49	19.69
928.92	17.89
929.35	10.49
929.78	15.99
930.21	8.89
930.641	5.59
931.071	9.89
931.501	4.59
931.931	9.39
932.361	9.19
932.791	8.19
933.221	7.69
933.651	6.79
934.08	16.09
934.51	28.69
934.94	14.09
935.37	7.49
935.8	11.49
936.229	7.19
936.659	10.09
937.089	7.59
937.519	21.29
937.948	21.99
938.378	21.19
938.807	7.49
939.237	5.69
939.666	5.99
940.096	-3.51
940.525	3.59
940.955	3.19
941.384	6.09
941.814	-3.11
942.243	-3.81
942.672	0.89
943.102	-6.71
943.531	-1.91
943.96	12.09
944.39	5.89
944.819	2.39
945.248	4.79
945.677	9.59
946.106	6.99
946.535	7.79
946.964	-3.31
947.393	11.69
947.822	2.89
948.251	-4.21
948.68	2.49
949.109	7.89
949.538	1.59
949.967	4.59
950.396	1.39
950.825	0.79
951.254	3.39
951.682	-6.11
952.111	7.89
952.54	7.89
952.969	3.59
953.397	-6.01
953.826	4.59
954.254	-9.21
954.683	2.79
955.112	-4.51
955.54	0.49
955.969	2.59
956.397	1.69
956.826	-2.81
957.254	3.19
957.682	0.59
958.111	5.09
958.539	-3.11
958.967	3.59
959.396	1.19
959.824	3.49
960.252	3.19
960.68	-0.51
961.109	-3.01
961.537	-4.41
961.965	0.79
962.393	1.79
962.821	-1.11
963.249	-3.01
963.677	8.29
964.105	4.59
964.533	48.89
964.961	45.29
965.389	19.09
965.817	12.89
966.245	4.69
966.672	1.69
967.1	-10.11
967.528	2.29
967.956	-1.21
968.383	2.59
968.811	-4.11
969.239	0.99
969.666	-6.11
970.094	-0.11
970.522	-0.31
970.949	4.89
971.377	-8.01
971.804	-3.91
972.232	0.39
972.659	-0.71
973.087	-1.21
973.514	-1.11
973.941	-6.31
974.369	4.49
974.796	4.59
975.223	0.69
975.651	1.69
976.078	-0.91
976.505	0.19
976.932	6.99
977.359	13.39
977.786	7.59
978.214	1.99
978.641	-1.51
979.068	-5.41
979.495	-3.31
979.922	2.79
980.349	-4.51
980.776	5.49
981.202	-7.11
981.629	8.09
982.056	2.49
982.483	-8.31
982.91	2.69
983.337	-4.61
983.763	6.39
984.19	-6.51
984.617	-7.71
985.043	-9.21
985.47	-2.31
985.897	-3.01
986.323	-4.21
986.75	2.29
987.176	-2.01
987.603	-3.81
988.029	1.39
988.456	-7.31
988.882	-0.71
989.308	-7.71
989.735	-4.61
990.161	1.29
990.587	3.29
991.014	-2.51
991.44	5.89
991.866	-0.11
992.292	-5.11
992.719	-1.91
993.145	0.49
993.571	-12.51
993.997	-4.01
994.423	-4.91
994.849	-6.71
995.275	3.49
995.701	1.49
996.127	-1.91
996.553	5.89
996.979	-5.81
997.405	-4.31
997.83	-6.61
998.256	-5.91
998.682	-6.21
999.108	-5.81
999.534	-4.61
999.959	-5.91
1000.385	-0.31
1000.811	0.49
1001.236	-6.71
1001.662	-6.91
1002.087	-7.61
1002.513	-0.51
1002.938	4.69
1003.364	-0.81
1003.789	1.49
1004.215	0.99
1004.64	3.89
1005.066	2.79
1005.491	4.29
1005.916	-1.31
1006.342	-3.11
1006.767	-1.61
1007.192	6.39
1007.617	-3.81
1008.042	-8.81
1008.468	-4.61
1008.893	-5.11
1009.318	-2.91
1009.743	-0.21
1010.168	1.79
1010.593	2.39
1011.018	-7.61
1011.443	-1.51
1011.868	2.59
1012.293	-3.01
1012.718	-10.71
1013.143	0.39
1013.567	-1.51
1013.992	-7.11
1014.417	-15.81
1014.842	1.49
1015.267	-1.31
1015.691	-2.51
1016.116	5.29
1016.541	-2.51
1016.965	-0.01
1017.39	1.49
1017.814	-2.51
1018.239	-1.61
1018.663	-9.81
1019.088	-8.01
1019.512	-1.61
1019.937	0.39
1020.361	-7.31
1020.785	-7.41
1021.21	-7.51
1021.634	-3.11
1022.058	-0.91
1022.483	6.09
1022.907	-9.61
1023.331	-0.41
1023.755	-0.01
1024.179	-3.11
1024.604	-5.51
1025.028	-4.41
1025.452	-9.51
1025.876	-3.71
1026.3	-1.41
1026.724	-9.41
1027.148	-4.01
1027.572	-7.61
1027.996	-8.81
1028.42	-7.51
1028.843	-7.21
1029.267	-6.31
1029.691	-4.11
1030.115	-8.41
1030.539	-6.71
1030.962	-9.71
1031.386	-8.51
1031.81	3.09
1032.233	1.19
1032.657	-4.91
1033.08	-1.41
1033.504	0.69
1033.927	-1.01
1034.351	-1.51
1034.774	-9.01
1035.198	3.49
1035.621	-9.11
1036.045	-9.71
1036.468	0.29
1036.891	-7.11
1037.315	-4.71
1037.738	-9.81
1038.161	4.29
1038.584	-0.91
1039.008	-6.51
1039.431	-0.01
1039.854	0.59
1040.277	-7.01
1040.7	-10.81
1041.123	-0.41
1041.546	-3.81
1041.969	-4.51
1042.392	-8.01
1042.815	-0.91
1043.238	-2.41
1043.661	5.29
1044.084	-10.61
1044.507	-5.31
1044.93	-8.21
1045.352	-7.51
1045.775	3.79
1046.198	-0.11
1046.621	-0.51
1047.043	-3.91
1047.466	5.19
1047.889	0.39
1048.311	-10.41
1048.734	-2.71
1049.156	-2.91
1049.579	-1.01
1050.001	-7.21
1050.424	-6.11
1050.846	-6.71
1051.269	-7.11
1051.691	-4.41
1052.113	-9.41
1052.536	-2.01
1052.958	-6.31
1053.38	-6.91
1053.802	-9.51
1054.225	4.39
1054.647	-13.91
1055.069	-4.31
1055.491	-0.91
1055.913	-12.31
1056.335	-2.01
1056.757	-7.51
1057.179	-6.71
1057.601	-12.91
1058.023	-9.41
1058.445	-4.01
1058.867	-7.51
1059.289	2.79
1059.711	-8.11
1060.133	-1.81
1060.555	-8.11
1060.976	-6.91
1061.398	-10.21
1061.82	-6.11
1062.241	-7.31
1062.663	-13.31
1063.085	-8.41
1063.506	-1.51
1063.928	-6.31
1064.35	-0.41
1064.771	-13.71
1065.193	-5.01
1065.614	-8.71
1066.035	-6.21
1066.457	-0.31
1066.878	0.09
1067.3	-2.51
1067.721	-2.21
1068.142	-10.41
1068.564	-3.81
1068.985	0.09
1069.406	-7.51
1069.827	-2.21
1070.248	3.99
1070.67	-3.61
1071.091	-5.91
1071.512	-3.91
1071.933	-1.91
1072.354	-7.61
1072.775	-6.91
1073.196	-4.71
1073.617	-2.11
1074.038	-8.81
1074.459	-5.51
1074.88	-7.61
1075.3	-3.51
1075.721	-6.41
1076.142	-2.21
1076.563	0.29
1076.983	-9.41
1077.404	-3.81
1077.825	-15.31
1078.246	-3.81
1078.666	-12.31
1079.087	-7.91
1079.507	-6.31
1079.928	1.89
1080.348	-5.91
1080.769	-7.61
1081.189	-6.41
1081.61	-2.31
1082.03	-7.01
1082.451	-6.11
1082.871	-1.41
1083.291	-15.01
1083.711	-6.91
1084.132	-3.31
1084.552	-6.41
1084.972	2.89
1085.392	-4.61
1085.813	-11.01
1086.233	-8.01
1086.653	-8.61
1087.073	-6.81
1087.493	-3.91
1087.913	-2.51
1088.333	-6.01
1088.753	-4.41
1089.173	2.89
1089.593	-4.61
1090.013	3.89
1090.433	-1.51
1090.852	-6.21
1091.272	-2.01
1091.692	-1.01
1092.112	-3.71
1092.531	-10.41
1092.951	-9.61
1093.371	-4.11
1093.79	0.19
1094.21	0.39
1094.63	-2.21
1095.049	-2.21
1095.469	-5.11
1095.888	-0.11
1096.308	-0.21
1096.727	1.29
1097.146	-3.51
1097.566	-2.91
1097.985	-6.21
1098.405	-2.51
1098.824	-6.11
1099.243	-2.41
1099.662	-8.81
1100.082	-4.61
1100.501	0.09
1100.92	-3.71
1101.339	-7.61
1101.758	-8.51
