Data from 20171114-ORNL-Ar_H_NY_Subt18_08-08-47-350.txt Node
Date: Tue Nov 14 08:08:47 EST 2017
User: Ender
Spectrometer: HR+D1039
Trigger mode: 0
Integration Time (sec): 2.730000E-2
Scans to average: 10
Electric dark correction enabled: true
Nonlinearity correction enabled: false
Boxcar width: 0
XAxis mode: Wavelengths
Number of Pixels in Spectrum: 2048
>>>>>Begin Spectral Data<<<<<
187.836	-2.98
188.309	-2.98
188.782	-2.98
189.255	2.12
189.728	-0.98
190.201	5.92
190.674	1.12
191.147	6.52
191.619	-7.48
192.092	-1.78
192.565	8.42
193.038	1.72
193.511	-0.98
193.984	-3.18
194.456	-0.08
194.929	2.92
195.402	-8.18
195.874	-3.08
196.347	-4.18
196.82	-3.38
197.292	5.32
197.765	-2.68
198.237	-5.88
198.71	0.32
199.182	-4.78
199.655	5.62
200.127	3.72
200.6	-1.78
201.072	-6.38
201.544	-8.38
202.017	-7.28
202.489	3.42
202.961	-2.28
203.433	-5.08
203.906	-9.08
204.378	-4.68
204.85	-3.88
205.322	-12.08
205.794	-4.98
206.266	-3.68
206.739	-11.28
207.211	-1.48
207.683	-10.28
208.155	-9.18
208.627	-2.28
209.099	-7.88
209.57	-6.18
210.042	-6.08
210.514	-4.68
210.986	-5.18
211.458	-7.58
211.93	0.22
212.402	-1.28
212.873	-6.48
213.345	-10.88
213.817	-8.88
214.288	-9.58
214.76	-6.18
215.232	-3.18
215.703	-3.98
216.175	-6.08
216.646	-6.48
217.118	-7.68
217.589	-6.68
218.061	-5.48
218.532	-5.48
219.004	-6.18
219.475	-2.88
219.946	4.42
220.418	-10.18
220.889	2.72
221.36	-1.28
221.832	-2.18
222.303	-1.78
222.774	4.62
223.245	-10.68
223.717	-8.08
224.188	-3.78
224.659	-4.18
225.13	0.52
225.601	-3.28
226.072	-1.28
226.543	-1.68
227.014	0.92
227.485	-7.18
227.956	-7.28
228.427	-2.88
228.898	-5.18
229.369	3.22
229.839	-7.38
230.31	-10.08
230.781	2.82
231.252	-4.18
231.722	-5.08
232.193	-7.08
232.664	-3.88
233.135	1.72
233.605	-1.78
234.076	-7.38
234.546	2.22
235.017	6.12
235.487	-0.58
235.958	-1.98
236.428	-5.18
236.899	0.42
237.369	3.92
237.84	-2.78
238.31	2.22
238.78	-1.28
239.251	-1.88
239.721	2.42
240.191	-6.28
240.662	-2.08
241.132	1.02
241.602	-2.78
242.072	3.92
242.542	4.12
243.013	-3.88
243.483	-2.58
243.953	-0.88
244.423	-1.68
244.893	-1.18
245.363	-1.48
245.833	-0.68
246.303	-0.58
246.773	1.92
247.243	-2.48
247.712	-0.38
248.182	1.62
248.652	6.82
249.122	-14.08
249.592	6.42
250.061	4.02
250.531	18.32
251.001	7.92
251.471	13.92
251.94	5.12
252.41	2.82
252.879	-5.68
253.349	5.22
253.818	5.82
254.288	-0.98
254.757	1.82
255.227	-4.88
255.696	-3.78
256.166	1.02
256.635	3.02
257.105	2.32
257.574	-5.08
258.043	4.92
258.513	-2.68
258.982	7.12
259.451	-2.38
259.92	4.32
260.389	-1.28
260.859	5.92
261.328	2.22
261.797	8.22
262.266	1.92
262.735	7.52
263.204	0.32
263.673	0.82
264.142	7.12
264.611	-7.48
265.08	-4.18
265.549	0.72
266.018	0.42
266.487	-0.98
266.955	-3.58
267.424	-6.98
267.893	0.32
268.362	-0.48
268.83	-1.08
269.299	8.82
269.768	2.52
270.236	-2.58
270.705	0.82
271.174	-1.48
271.642	2.92
272.111	2.52
272.579	13.52
273.048	10.12
273.516	13.82
273.985	10.92
274.453	8.72
274.922	12.92
275.39	1.72
275.858	-1.28
276.327	2.72
276.795	10.72
277.263	8.42
277.731	21.02
278.2	31.02
278.668	30.52
279.136	31.72
279.604	4.82
280.072	10.02
280.54	2.92
281.008	6.42
281.477	8.72
281.945	11.02
282.413	9.42
282.881	6.92
283.348	2.42
283.816	2.72
284.284	6.82
284.752	18.02
285.22	10.52
285.688	10.82
286.156	10.12
286.623	27.92
287.091	26.52
287.559	18.52
288.026	9.72
288.494	9.12
288.962	-2.38
289.429	4.32
289.897	11.42
290.364	9.32
290.832	17.32
291.3	11.22
291.767	12.02
292.234	7.92
292.702	11.52
293.169	13.32
293.637	15.02
294.104	15.42
294.571	5.92
295.039	7.92
295.506	7.12
295.973	9.02
296.44	5.72
296.908	13.92
297.375	13.42
297.842	14.92
298.309	13.32
298.776	8.42
299.243	12.22
299.71	4.12
300.177	11.82
300.644	12.62
301.111	20.92
301.578	18.82
302.045	10.12
302.512	16.42
302.979	16.12
303.446	18.72
303.913	14.62
304.379	14.22
304.846	13.22
305.313	16.42
305.78	11.32
306.246	20.32
306.713	15.52
307.18	18.32
307.646	16.42
308.113	14.52
308.579	19.72
309.046	19.92
309.512	20.62
309.979	14.32
310.445	22.62
310.912	21.32
311.378	23.62
311.845	18.12
312.311	25.02
312.777	23.72
313.244	27.42
313.71	26.12
314.176	15.92
314.642	23.32
315.109	22.72
315.575	24.82
316.041	29.12
316.507	22.92
316.973	29.52
317.439	26.42
317.905	28.92
318.371	25.62
318.837	27.02
319.303	23.42
319.769	28.72
320.235	28.92
320.701	26.32
321.167	28.22
321.633	24.72
322.099	29.72
322.564	36.22
323.03	34.82
323.496	28.02
323.962	30.32
324.427	26.22
324.893	33.62
325.359	34.52
325.824	22.82
326.29	28.02
326.755	26.02
327.221	34.12
327.686	33.52
328.152	36.82
328.617	32.22
329.083	36.72
329.548	44.72
330.014	38.22
330.479	35.02
330.944	32.12
331.41	42.12
331.875	33.22
332.34	36.62
332.805	42.12
333.271	40.72
333.736	39.02
334.201	39.82
334.666	45.32
335.131	45.22
335.596	44.52
336.061	36.82
336.526	33.22
336.991	37.52
337.456	44.22
337.921	37.82
338.386	35.82
338.851	35.62
339.316	43.92
339.781	39.42
340.246	47.42
340.711	37.02
341.175	44.12
341.64	34.82
342.105	43.92
342.569	40.42
343.034	56.82
343.499	45.92
343.963	41.52
344.428	48.52
344.893	54.32
345.357	46.62
345.822	46.52
346.286	50.82
346.751	55.62
347.215	58.62
347.679	57.42
348.144	81.52
348.608	61.52
349.073	58.42
349.537	59.32
350.001	66.22
350.465	77.92
350.93	67.22
351.394	65.72
351.858	64.22
352.322	75.22
352.786	69.02
353.25	84.12
353.715	88.72
354.179	85.62
354.643	100.22
355.107	97.72
355.571	94.72
356.035	84.42
356.498	101.72
356.962	98.52
357.426	107.72
357.89	98.72
358.354	77.82
358.818	69.82
359.281	67.72
359.745	65.72
360.209	62.42
360.673	68.32
361.136	73.82
361.6	73.22
362.064	72.62
362.527	73.12
362.991	81.52
363.454	68.92
363.918	72.92
364.381	67.72
364.845	74.92
365.308	74.82
365.772	76.32
366.235	75.52
366.698	75.22
367.162	72.02
367.625	75.32
368.088	74.82
368.552	77.12
369.015	77.42
369.478	92.42
369.941	88.32
370.404	78.12
370.867	95.32
371.331	90.12
371.794	105.92
372.257	92.72
372.72	96.72
373.183	101.52
373.646	84.62
374.109	94.32
374.572	95.62
375.035	95.92
375.497	99.92
375.96	95.02
376.423	94.12
376.886	101.52
377.349	100.62
377.811	96.22
378.274	97.42
378.737	99.22
379.199	102.02
379.662	105.92
380.125	104.92
380.587	99.52
381.05	102.92
381.512	111.02
381.975	120.32
382.437	116.72
382.9	114.32
383.362	122.32
383.825	125.32
384.287	127.22
384.75	118.72
385.212	122.52
385.674	123.12
386.136	117.82
386.599	111.92
387.061	117.72
387.523	122.22
387.985	126.02
388.447	133.42
388.91	140.62
389.372	136.22
389.834	131.82
390.296	130.12
390.758	138.62
391.22	146.62
391.682	172.22
392.144	233.42
392.606	190.82
393.068	150.62
393.529	151.72
393.991	140.12
394.453	135.42
394.915	140.82
395.377	159.22
395.838	182.02
396.3	138.82
396.762	136.92
397.224	129.22
397.685	123.22
398.147	131.02
398.608	121.52
399.07	129.52
399.531	128.62
399.993	136.72
400.454	146.92
400.916	140.92
401.377	137.02
401.839	148.72
402.3	144.72
402.762	156.32
403.223	169.72
403.684	167.42
404.145	155.12
404.607	155.52
405.068	153.32
405.529	162.32
405.99	183.02
406.451	167.72
406.913	164.92
407.374	158.52
407.835	159.92
408.296	163.32
408.757	172.12
409.218	181.82
409.679	165.92
410.14	164.82
410.601	170.22
411.062	177.32
411.522	183.52
411.983	180.22
412.444	168.72
412.905	177.02
413.366	174.32
413.826	186.42
414.287	205.92
414.748	262.82
415.208	244.82
415.669	211.22
416.13	200.42
416.59	201.62
417.051	215.42
417.511	206.32
417.972	232.42
418.432	251.82
418.893	288.02
419.353	249.22
419.814	202.92
420.274	188.42
420.734	179.22
421.195	194.32
421.655	186.72
422.115	186.52
422.576	187.62
423.036	188.72
423.496	197.92
423.956	215.62
424.416	225.62
424.876	259.02
425.336	260.32
425.797	255.52
426.257	249.72
426.717	231.12
427.177	221.92
427.637	220.42
428.097	228.22
428.556	234.92
429.016	259.72
429.476	259.42
429.936	268.32
430.396	268.02
430.856	282.72
431.315	302.62
431.775	338.52
432.235	372.72
432.694	345.62
433.154	353.22
433.614	376.92
434.073	330.62
434.533	280.32
434.993	268.42
435.452	276.72
435.912	281.42
436.371	274.62
436.83	272.12
437.29	259.52
437.749	238.82
438.209	240.62
438.668	265.12
439.127	282.22
439.587	258.72
440.046	243.52
440.505	260.62
440.964	269.92
441.424	314.42
441.883	301.12
442.342	255.62
442.801	223.62
443.26	223.72
443.719	222.52
444.178	223.82
444.637	211.02
445.096	215.92
445.555	232.42
446.014	221.92
446.473	222.62
446.932	230.62
447.391	224.82
447.849	222.72
448.308	217.72
448.767	220.12
449.226	231.02
449.685	236.02
450.143	243.32
450.602	237.72
451.061	228.42
451.519	227.32
451.978	236.02
452.436	231.52
452.895	238.02
453.353	251.42
453.812	246.82
454.27	239.72
454.729	240.72
455.187	234.92
455.646	237.52
456.104	251.52
456.562	258.42
457.021	268.52
457.479	251.62
457.937	263.52
458.395	259.62
458.854	249.62
459.312	250.62
459.77	271.32
460.228	256.92
460.686	246.52
461.144	251.22
461.602	244.62
462.06	249.82
462.518	257.42
462.976	251.12
463.434	257.82
463.892	265.82
464.35	277.22
464.808	287.62
465.266	268.42
465.724	268.42
466.181	274.42
466.639	267.72
467.097	290.62
467.555	303.92
468.012	301.82
468.47	309.02
468.928	329.22
469.385	338.32
469.843	352.92
470.3	351.42
470.758	361.62
471.215	380.32
471.673	414.52
472.13	409.22
472.588	412.22
473.045	375.92
473.503	383.42
473.96	389.62
474.417	409.62
474.875	428.72
475.332	470.52
475.789	461.32
476.246	468.32
476.704	485.32
477.161	500.12
477.618	513.22
478.075	540.22
478.532	610.92
478.989	675.32
479.446	785.12
479.903	748.82
480.36	794.92
480.817	836.82
481.274	927.52
481.731	1024.82
482.188	1109.72
482.645	1236.12
483.102	1324.02
483.558	1450.02
484.015	1506.72
484.472	1479.12
484.929	1438.12
485.385	1389.62
485.842	1354.92
486.299	1297.02
486.755	1235.42
487.212	1050.32
487.668	905.22
488.125	830.52
488.582	762.42
489.038	732.52
489.494	710.72
489.951	675.62
490.407	660.92
490.864	644.02
491.32	638.72
491.776	624.12
492.233	631.92
492.689	610.92
493.145	606.92
493.602	599.62
494.058	610.32
494.514	609.92
494.97	647.92
495.426	649.72
495.882	623.42
496.338	606.32
496.794	617.52
497.251	597.72
497.707	623.32
498.163	639.72
498.618	646.12
499.074	642.72
499.53	661.32
499.986	671.82
500.442	640.62
500.898	632.92
501.354	613.02
501.809	629.92
502.265	631.62
502.721	652.52
503.177	664.42
503.632	661.42
504.088	659.22
504.543	692.02
504.999	705.42
505.455	662.82
505.91	629.32
506.366	647.32
506.821	619.42
507.277	624.42
507.732	636.22
508.187	623.72
508.643	639.22
509.098	645.92
509.553	657.72
510.009	669.12
510.464	664.82
510.919	693.12
511.375	703.22
511.83	715.62
512.285	726.02
512.74	762.62
513.195	779.62
513.65	769.02
514.105	764.52
514.56	768.72
515.015	782.32
515.47	800.62
515.925	793.22
516.38	786.62
516.835	792.62
517.29	779.62
517.745	773.42
518.2	764.12
518.655	750.22
519.109	741.12
519.564	737.82
520.019	725.52
520.474	730.72
520.928	721.32
521.383	724.12
521.838	710.42
522.292	715.92
522.747	708.32
523.201	704.42
523.656	689.32
524.11	697.12
524.565	692.82
525.019	695.62
525.474	703.62
525.928	701.52
526.382	696.72
526.837	697.72
527.291	702.22
527.745	696.12
528.2	697.92
528.654	700.72
529.108	697.32
529.562	700.32
530.016	687.32
530.47	694.62
530.925	692.12
531.379	683.92
531.833	712.22
532.287	698.72
532.741	706.52
533.195	705.92
533.649	711.42
534.103	721.92
534.556	712.52
535.01	703.12
535.464	718.32
535.918	715.62
536.372	718.82
536.826	723.12
537.279	707.72
537.733	707.42
538.187	720.42
538.64	722.82
539.094	729.12
539.548	731.82
540.001	730.42
540.455	727.32
540.908	738.92
541.362	748.32
541.815	752.52
542.269	770.52
542.722	772.62
543.175	778.42
543.629	772.62
544.082	788.42
544.536	794.62
544.989	797.42
545.442	800.22
545.895	798.12
546.349	792.32
546.802	796.62
547.255	811.32
547.708	803.12
548.161	827.22
548.614	823.32
549.067	834.12
549.52	824.32
549.973	820.02
550.426	818.02
550.879	800.12
551.332	814.82
551.785	804.12
552.238	820.62
552.691	825.82
553.144	849.02
553.596	856.92
554.049	878.12
554.502	900.12
554.955	919.92
555.407	914.92
555.86	898.22
556.313	893.32
556.765	886.52
557.218	897.12
557.67	892.02
558.123	892.32
558.576	891.72
559.028	888.32
559.48	885.82
559.933	880.02
560.385	854.42
560.838	810.02
561.29	788.42
561.742	796.02
562.195	779.42
562.647	776.52
563.099	790.32
563.551	783.72
564.004	795.02
564.456	782.92
564.908	768.62
565.36	757.72
565.812	743.92
566.264	738.52
566.716	725.92
567.168	717.42
567.62	716.62
568.072	709.92
568.524	710.32
568.976	694.32
569.428	690.52
569.88	690.92
570.332	697.52
570.784	694.32
571.235	695.62
571.687	712.12
572.139	715.92
572.59	729.02
573.042	719.92
573.494	728.22
573.945	711.42
574.397	694.02
574.849	707.92
575.3	706.12
575.752	686.32
576.203	689.52
576.655	691.92
577.106	673.92
577.557	677.12
578.009	681.22
578.46	669.12
578.912	669.52
579.363	673.92
579.814	676.62
580.265	676.52
580.717	681.72
581.168	672.72
581.619	691.12
582.07	684.32
582.521	691.32
582.972	674.52
583.423	695.62
583.875	689.62
584.326	700.42
584.777	738.52
585.227	780.92
585.678	841.32
586.129	911.32
586.58	961.52
587.031	1003.42
587.482	1109.92
587.933	1221.32
588.384	1112.52
588.834	889.12
589.285	802.32
589.736	788.42
590.186	784.02
590.637	772.02
591.088	757.82
591.538	746.62
591.989	746.52
592.439	745.22
592.89	733.52
593.34	725.32
593.791	719.72
594.241	703.32
594.692	702.12
595.142	714.12
595.593	710.52
596.043	723.52
596.493	720.32
596.943	732.22
597.394	733.92
597.844	724.92
598.294	744.62
598.744	770.62
599.195	787.42
599.645	829.52
600.095	866.52
600.545	929.82
600.995	999.12
601.445	1040.42
601.895	1106.02
602.345	1150.82
602.795	1135.32
603.245	1097.92
603.695	1021.82
604.145	976.62
604.594	925.02
605.044	871.12
605.494	811.52
605.944	761.22
606.393	754.52
606.843	745.22
607.293	740.22
607.743	740.02
608.192	758.92
608.642	767.22
609.091	785.42
609.541	774.82
609.99	779.62
610.44	778.92
610.889	732.92
611.339	709.42
611.788	693.02
612.238	704.62
612.687	724.72
613.136	719.82
613.586	728.42
614.035	728.72
614.484	737.42
614.933	752.62
615.383	741.82
615.832	727.22
616.281	721.12
616.73	691.42
617.179	666.02
617.628	651.42
618.077	649.42
618.526	635.52
618.975	629.82
619.424	619.02
619.873	624.72
620.322	620.42
620.771	630.02
621.22	612.12
621.669	606.92
622.118	597.82
622.567	592.12
623.015	575.42
623.464	576.12
623.913	566.82
624.361	565.12
624.81	565.52
625.259	566.22
625.707	563.22
626.156	564.42
626.604	581.62
627.053	581.52
627.501	576.92
627.95	574.92
628.398	582.22
628.847	591.52
629.295	575.72
629.744	590.62
630.192	583.82
630.64	569.42
631.089	564.12
631.537	568.72
631.985	581.72
632.433	588.22
632.881	580.42
633.33	613.02
633.778	608.42
634.226	565.62
634.674	574.32
635.122	580.12
635.57	584.92
636.018	609.22
636.466	585.02
636.914	569.12
637.362	586.22
637.81	589.12
638.258	586.62
638.705	597.72
639.153	624.32
639.601	631.12
640.049	660.82
640.497	677.82
640.944	709.62
641.392	654.32
641.84	636.12
642.287	596.42
642.735	575.42
643.182	581.32
643.63	575.92
644.078	580.42
644.525	589.02
644.973	599.02
645.42	605.92
645.867	640.42
646.315	650.02
646.762	670.22
647.21	697.52
647.657	719.42
648.104	756.62
648.551	773.02
648.999	846.72
649.446	917.82
649.893	1007.12
650.34	1155.32
650.787	1387.72
651.234	1704.02
651.682	2234.22
652.129	3053.22
652.576	4381.72
653.023	6406.62
653.47	8698.72
653.917	10744.02
654.363	12306.42
654.81	13468.12
655.257	12810.22
655.704	8418.42
656.151	5045.32
656.598	3266.72
657.044	2341.62
657.491	1807.12
657.938	1451.32
658.385	1229.12
658.831	1067.32
659.278	955.82
659.724	851.32
660.171	785.72
660.618	728.92
661.064	692.22
661.511	670.92
661.957	657.42
662.404	650.62
662.85	660.82
663.296	622.92
663.743	569.42
664.189	542.72
664.635	549.32
665.082	532.72
665.528	534.52
665.974	534.72
666.42	528.72
666.867	514.52
667.313	508.62
667.759	484.92
668.205	485.02
668.651	473.02
669.097	472.32
669.543	479.42
669.989	474.52
670.435	454.92
670.881	451.62
671.327	466.72
671.773	488.82
672.219	507.42
672.665	554.12
673.11	605.02
673.556	638.02
674.002	686.02
674.448	675.62
674.893	563.02
675.339	492.22
675.785	446.62
676.23	429.82
676.676	402.12
677.122	396.82
677.567	390.32
678.013	382.42
678.458	368.22
678.904	371.62
679.349	358.72
679.794	359.82
680.24	366.82
680.685	359.22
681.131	361.62
681.576	360.92
682.021	369.52
682.466	360.22
682.912	361.32
683.357	365.82
683.802	394.92
684.247	431.52
684.692	474.92
685.137	517.52
685.583	560.42
686.028	572.82
686.473	534.82
686.918	458.22
687.363	427.92
687.807	400.72
688.252	373.42
688.697	362.72
689.142	349.32
689.587	342.22
690.032	339.22
690.477	352.32
690.921	361.52
691.366	388.82
691.811	409.32
692.255	450.22
692.7	478.42
693.145	529.42
693.589	742.52
694.034	1201.02
694.478	1611.42
694.923	1777.92
695.367	2294.02
695.812	1224.72
696.256	517.32
696.701	381.92
697.145	354.42
697.59	330.02
698.034	334.72
698.478	336.92
698.922	324.92
699.367	340.22
699.811	345.42
700.255	361.52
700.699	399.02
701.143	443.22
701.588	497.62
702.032	529.72
702.476	540.82
702.92	517.82
703.364	519.42
703.808	676.42
704.252	1113.82
704.696	1529.12
705.14	1722.52
705.584	2181.32
706.027	1100.42
706.471	539.42
706.915	413.32
707.359	360.52
707.803	329.42
708.246	321.82
708.69	322.22
709.134	325.52
709.577	320.72
710.021	319.02
710.465	315.62
710.908	304.52
711.352	312.82
711.795	314.52
712.239	368.32
712.682	397.22
713.126	423.72
713.569	471.62
714.012	382.12
714.456	320.42
714.899	305.42
715.342	283.32
715.786	263.72
716.229	263.42
716.672	262.02
717.115	256.42
717.558	261.72
718.002	258.12
718.445	272.72
718.888	293.92
719.331	301.52
719.774	318.82
720.217	318.92
720.66	287.82
721.103	275.02
721.546	265.62
721.989	257.12
722.432	234.22
722.874	246.02
723.317	241.32
723.76	241.92
724.203	265.92
724.645	327.22
725.088	471.52
725.531	591.72
725.974	661.02
726.416	563.12
726.859	322.12
727.301	261.22
727.744	246.62
728.187	234.42
728.629	243.12
729.071	250.82
729.514	265.72
729.956	286.62
730.399	295.52
730.841	301.92
731.283	279.62
731.726	277.52
732.168	271.62
732.61	276.92
733.053	296.42
733.495	323.12
733.937	369.82
734.379	417.12
734.821	460.82
735.263	580.32
735.705	909.32
736.148	1713.42
736.59	2717.02
737.032	3107.52
737.474	2544.82
737.916	846.72
738.357	444.82
738.799	344.02
739.241	304.32
739.683	287.42
740.125	301.72
740.567	307.72
741.008	319.52
741.45	330.62
741.892	331.32
742.334	367.02
742.775	372.72
743.217	347.02
743.658	278.52
744.1	267.12
744.542	270.02
744.983	324.82
745.425	353.72
745.866	352.52
746.307	290.82
746.749	290.32
747.19	334.02
747.632	485.92
748.073	965.22
748.514	2009.42
748.956	2989.12
749.397	3776.12
749.838	3107.02
750.279	3033.22
750.72	1546.72
751.162	566.42
751.603	334.02
752.044	259.82
752.485	216.92
752.926	213.52
753.367	210.62
753.808	201.42
754.249	202.62
754.69	197.22
755.131	188.82
755.572	183.52
756.013	183.42
756.453	187.72
756.894	200.02
757.335	196.82
757.776	205.22
758.216	203.62
758.657	205.62
759.098	207.22
759.538	233.92
759.979	285.82
760.42	400.72
760.86	772.52
761.301	2030.12
761.741	4756.32
762.182	6558.52
762.622	4617.52
763.063	1366.02
763.503	563.42
763.943	348.02
764.384	324.32
764.824	346.82
765.264	358.32
765.705	275.12
766.145	208.82
766.585	186.62
767.025	183.52
767.465	186.12
767.906	223.72
768.346	269.22
768.786	285.92
769.226	251.42
769.666	345.12
770.106	671.42
770.546	1704.72
770.986	2728.52
771.426	2419.32
771.866	819.02
772.306	345.72
772.745	215.62
773.185	180.72
773.625	168.22
774.065	157.02
774.505	183.02
774.944	271.92
775.384	544.52
775.824	920.12
776.263	885.22
776.703	408.12
777.142	189.42
777.582	144.72
778.021	135.02
778.461	135.22
778.9	136.22
779.34	129.12
779.779	119.32
780.219	114.02
780.658	113.32
781.097	115.32
781.537	118.12
781.976	107.92
782.415	105.12
782.855	106.52
783.294	104.52
783.733	108.22
784.172	106.22
784.611	105.32
785.05	115.92
785.489	109.72
785.928	117.92
786.367	125.32
786.806	125.12
787.245	133.32
787.684	140.22
788.123	155.82
788.562	138.42
789.001	133.82
789.44	121.92
789.879	122.82
790.317	121.52
790.756	127.22
791.195	129.82
791.634	155.12
792.072	212.52
792.511	399.22
792.95	1088.42
793.388	2211.42
793.827	1961.72
794.265	704.72
794.704	290.52
795.142	190.62
795.581	152.72
796.019	143.32
796.458	132.52
796.896	132.52
797.334	139.42
797.773	160.52
798.211	231.82
798.649	479.22
799.087	1077.72
799.526	1677.12
799.964	2116.72
800.402	2038.82
800.84	790.92
801.278	319.92
801.716	190.92
802.154	160.62
802.592	153.12
803.03	153.52
803.468	138.02
803.906	152.72
804.344	150.12
804.782	149.12
805.22	140.22
805.658	134.82
806.096	154.82
806.533	159.22
806.971	184.82
807.409	225.72
807.847	343.42
808.284	738.62
808.722	1997.42
809.16	3404.82
809.597	3353.22
810.035	5714.82
810.472	5849.62
810.91	2150.02
811.347	828.82
811.785	423.22
812.222	270.42
812.66	205.92
813.097	175.72
813.535	143.32
813.972	130.72
814.409	125.02
814.846	115.82
815.284	107.72
815.721	104.12
816.158	105.72
816.595	123.02
817.032	172.42
817.47	196.22
817.907	142.42
818.344	126.22
818.781	112.12
819.218	103.92
819.655	131.52
820.092	197.62
820.529	221.02
820.966	178.62
821.403	130.12
821.839	104.32
822.276	105.02
822.713	134.52
823.15	137.12
823.587	123.42
824.023	153.62
824.46	333.92
824.897	958.62
825.333	1388.12
825.77	604.12
826.206	240.32
826.643	136.12
827.08	106.42
827.516	87.82
827.953	84.62
828.389	82.02
828.825	69.22
829.262	74.42
829.698	67.92
830.135	66.22
830.571	67.82
831.007	59.62
831.443	65.12
831.88	62.32
832.316	61.12
832.752	69.42
833.188	71.92
833.624	71.62
834.06	63.22
834.497	73.22
834.933	73.92
835.369	80.22
835.805	76.62
836.241	81.62
836.677	81.32
837.112	88.52
837.548	115.22
837.984	143.32
838.42	209.92
838.856	544.32
839.292	1629.82
839.727	2346.52
840.163	1116.52
840.599	1010.92
841.034	2145.32
841.47	2142.82
841.906	807.62
842.341	347.82
842.777	221.82
843.212	259.62
843.648	247.12
844.083	133.72
844.519	91.22
844.954	79.32
845.39	59.22
845.825	61.22
846.261	61.92
846.696	62.12
847.131	55.42
847.566	53.72
848.002	52.42
848.437	60.02
848.872	62.12
849.307	68.82
849.742	90.92
850.177	200.92
850.613	590.12
851.048	896.82
851.483	381.82
851.918	158.42
852.353	91.42
852.788	63.82
853.223	57.72
853.657	59.12
854.092	52.12
854.527	44.22
854.962	42.72
855.397	36.02
855.832	52.32
856.266	43.32
856.701	44.32
857.136	38.52
857.57	39.42
858.005	52.82
858.44	60.42
858.874	53.02
859.309	54.82
859.743	40.42
860.178	47.92
860.612	45.62
861.047	63.02
861.481	66.52
861.915	72.22
862.35	45.82
862.784	37.92
863.218	39.42
863.653	41.42
864.087	47.52
864.521	58.52
864.955	76.22
865.39	156.92
865.824	179.22
866.258	117.62
866.692	178.22
867.126	184.62
867.56	101.92
867.994	56.82
868.428	41.72
868.862	55.82
869.296	62.52
869.73	58.62
870.164	56.22
870.598	49.92
871.031	38.02
871.465	29.72
871.899	37.32
872.333	27.62
872.766	30.32
873.2	29.12
873.634	35.12
874.067	26.52
874.501	33.52
874.935	34.52
875.368	28.72
875.802	27.42
876.235	28.32
876.669	22.42
877.102	21.62
877.535	22.72
877.969	17.82
878.402	26.82
878.836	19.02
879.269	21.42
879.702	29.12
880.135	23.62
880.569	20.72
881.002	24.02
881.435	17.22
881.868	18.02
882.301	28.22
882.734	13.72
883.167	21.72
883.601	13.62
884.034	24.52
884.467	10.72
884.899	20.42
885.332	16.52
885.765	17.52
886.198	15.32
886.631	13.42
887.064	18.62
887.497	25.22
887.929	23.92
888.362	15.32
888.795	12.32
889.228	17.52
889.66	15.32
890.093	16.72
890.526	17.02
890.958	19.62
891.391	18.82
891.823	24.22
892.256	13.92
892.688	6.42
893.121	13.02
893.553	15.12
893.985	23.02
894.418	19.92
894.85	13.02
895.282	21.72
895.715	17.32
896.147	20.12
896.579	19.62
897.011	14.42
897.444	20.82
897.876	17.02
898.308	18.92
898.74	14.72
899.172	9.42
899.604	17.32
900.036	13.72
900.468	11.22
900.9	16.52
901.332	11.32
901.764	16.92
902.196	17.92
902.628	19.72
903.06	14.62
903.491	32.92
903.923	24.62
904.355	20.62
904.787	25.62
905.218	26.12
905.65	21.82
906.082	12.72
906.513	16.42
906.945	14.82
907.376	11.32
907.808	23.32
908.239	21.42
908.671	22.72
909.102	19.82
909.534	25.82
909.965	47.52
910.397	96.92
910.828	327.02
911.259	485.52
911.691	223.62
912.122	110.62
912.553	56.42
912.984	37.92
913.415	30.42
913.847	17.92
914.278	16.72
914.709	12.72
915.14	16.62
915.571	20.22
916.002	15.92
916.433	21.42
916.864	14.82
917.295	13.62
917.726	22.32
918.157	18.02
918.587	26.92
919.018	22.82
919.449	23.32
919.88	25.22
920.311	29.32
920.741	51.62
921.172	174.02
921.603	148.32
922.033	70.12
922.464	43.12
922.895	25.02
923.325	19.02
923.756	11.72
924.186	16.22
924.617	21.32
925.047	29.72
925.478	35.52
925.908	29.52
926.338	15.42
926.769	15.72
927.199	18.82
927.629	11.22
928.06	18.02
928.49	12.12
928.92	13.02
929.35	10.42
929.78	13.02
930.21	7.72
930.641	7.22
931.071	11.02
931.501	5.22
931.931	7.12
932.361	8.32
932.791	3.92
933.221	4.22
933.651	-0.38
934.08	13.22
934.51	30.92
934.94	11.42
935.37	9.12
935.8	8.02
936.229	4.52
936.659	15.92
937.089	1.32
937.519	14.52
937.948	19.72
938.378	12.62
938.807	7.12
939.237	10.52
939.666	7.32
940.096	-9.88
940.525	2.02
940.955	1.02
941.384	5.72
941.814	-4.18
942.243	3.02
942.672	0.02
943.102	0.92
943.531	1.22
943.96	2.02
944.39	1.42
944.819	-5.08
945.248	1.62
945.677	4.02
946.106	4.62
946.535	11.32
946.964	0.92
947.393	2.82
947.822	1.42
948.251	-0.98
948.68	2.72
949.109	4.02
949.538	3.22
949.967	2.22
950.396	-5.58
950.825	-2.98
951.254	4.02
951.682	-7.28
952.111	3.62
952.54	4.02
952.969	-9.58
953.397	-9.28
953.826	-0.58
954.254	-3.18
954.683	2.32
955.112	-3.68
955.54	-0.58
955.969	5.82
956.397	-2.98
956.826	0.42
957.254	-2.28
957.682	3.32
958.111	4.22
958.539	3.72
958.967	3.22
959.396	1.82
959.824	3.72
960.252	1.42
960.68	-8.08
961.109	-2.78
961.537	-1.18
961.965	0.52
962.393	-1.38
962.821	-3.58
963.249	-1.78
963.677	2.22
964.105	6.92
964.533	50.02
964.961	40.12
965.389	19.62
965.817	7.42
966.245	5.12
966.672	2.32
967.1	-9.08
967.528	-1.28
967.956	-1.08
968.383	0.02
968.811	-2.98
969.239	-1.78
969.666	-2.18
970.094	0.32
970.522	3.12
970.949	3.82
971.377	-1.98
971.804	0.92
972.232	-1.28
972.659	-2.68
973.087	-1.88
973.514	-2.38
973.941	-1.98
974.369	-1.38
974.796	5.92
975.223	-1.58
975.651	-3.98
976.078	0.22
976.505	-0.88
976.932	6.02
977.359	15.52
977.786	17.32
978.214	3.42
978.641	-2.88
979.068	-3.78
979.495	-4.38
979.922	-0.18
980.349	-4.28
980.776	5.02
981.202	0.12
981.629	6.42
982.056	2.72
982.483	-2.38
982.91	-1.38
983.337	-6.98
983.763	7.32
984.19	1.42
984.617	2.32
985.043	-11.48
985.47	2.12
985.897	-2.98
986.323	-2.08
986.75	1.02
987.176	-3.58
987.603	-0.78
988.029	-0.68
988.456	0.02
988.882	-2.38
989.308	-12.88
989.735	-1.38
990.161	6.22
990.587	-3.58
991.014	-5.78
991.44	7.42
991.866	-0.18
992.292	-7.58
992.719	-6.08
993.145	3.22
993.571	-9.58
993.997	2.72
994.423	-3.98
994.849	-4.68
995.275	-1.38
995.701	-4.78
996.127	-0.48
996.553	-0.98
996.979	-0.68
997.405	0.92
997.83	-6.78
998.256	-0.98
998.682	-0.98
999.108	-10.78
999.534	-6.08
999.959	-2.68
1000.385	-4.98
1000.811	-0.58
1001.236	-10.68
1001.662	-2.88
1002.087	-11.58
1002.513	1.92
1002.938	4.92
1003.364	-6.88
1003.789	-1.58
1004.215	3.62
1004.64	1.02
1005.066	3.72
1005.491	4.12
1005.916	-0.78
1006.342	-3.88
1006.767	-3.68
1007.192	3.22
1007.617	-9.38
1008.042	-13.18
1008.468	-9.28
1008.893	-8.68
1009.318	-1.48
1009.743	-3.28
1010.168	3.62
1010.593	3.72
1011.018	-8.68
1011.443	1.72
1011.868	0.12
1012.293	3.62
1012.718	-2.08
1013.143	-3.48
1013.567	-1.28
1013.992	-4.78
1014.417	-13.48
1014.842	2.52
1015.267	-9.98
1015.691	-4.18
1016.116	7.12
1016.541	-1.18
1016.965	7.92
1017.39	2.42
1017.814	0.12
1018.239	6.02
1018.663	-5.18
1019.088	-7.28
1019.512	-6.38
1019.937	-0.88
1020.361	-5.98
1020.785	-8.68
1021.21	-6.28
1021.634	-5.58
1022.058	1.72
1022.483	-6.58
1022.907	0.62
1023.331	-1.38
1023.755	0.32
1024.179	-1.98
1024.604	-12.28
1025.028	-8.78
1025.452	-4.48
1025.876	-0.98
1026.3	1.02
1026.724	-9.08
1027.148	-6.28
1027.572	-8.58
1027.996	-4.38
1028.42	2.32
1028.843	-5.78
1029.267	-7.58
1029.691	1.62
1030.115	-2.58
1030.539	-5.08
1030.962	-3.08
1031.386	-9.18
1031.81	-3.78
1032.233	1.12
1032.657	-1.78
1033.08	-0.28
1033.504	-1.98
1033.927	-1.28
1034.351	3.52
1034.774	-5.48
1035.198	-0.68
1035.621	-5.78
1036.045	-11.68
1036.468	2.32
1036.891	-11.48
1037.315	-8.68
1037.738	-4.18
1038.161	0.22
1038.584	-11.98
1039.008	-4.78
1039.431	-6.58
1039.854	-3.38
1040.277	-8.48
1040.7	-13.68
1041.123	-1.38
1041.546	-11.38
1041.969	-6.78
1042.392	-8.58
1042.815	1.62
1043.238	0.32
1043.661	0.22
1044.084	-6.68
1044.507	-0.48
1044.93	-4.98
1045.352	-8.98
1045.775	-0.68
1046.198	-3.48
1046.621	1.22
1047.043	-1.08
1047.466	1.42
1047.889	-2.88
1048.311	-1.18
1048.734	2.22
1049.156	-4.18
1049.579	-3.98
1050.001	-3.48
1050.424	-3.18
1050.846	-9.28
1051.269	0.02
1051.691	-8.48
1052.113	-5.78
1052.536	-2.98
1052.958	-1.08
1053.38	-1.08
1053.802	-10.48
1054.225	-1.18
1054.647	-10.18
1055.069	0.12
1055.491	1.12
1055.913	-5.88
1056.335	-4.38
1056.757	-6.68
1057.179	-8.38
1057.601	-7.48
1058.023	-3.78
1058.445	-10.08
1058.867	-6.48
1059.289	-3.18
1059.711	-6.28
1060.133	-7.18
1060.555	-10.88
1060.976	-9.68
1061.398	-6.88
1061.82	-6.98
1062.241	-3.58
1062.663	-12.58
1063.085	-6.78
1063.506	-2.18
1063.928	-1.88
1064.35	-3.28
1064.771	-11.98
1065.193	-5.38
1065.614	-5.38
1066.035	-5.98
1066.457	-2.68
1066.878	2.42
1067.3	-4.08
1067.721	-0.78
1068.142	-4.88
1068.564	-2.78
1068.985	-4.48
1069.406	-7.08
1069.827	-7.38
1070.248	2.72
1070.67	-5.08
1071.091	-3.48
1071.512	-5.68
1071.933	-5.28
1072.354	-14.58
1072.775	-6.38
1073.196	-7.88
1073.617	-3.18
1074.038	-7.08
1074.459	-6.08
1074.88	-5.48
1075.3	-3.08
1075.721	-5.98
1076.142	2.52
1076.563	0.42
1076.983	-3.28
1077.404	-9.88
1077.825	-3.38
1078.246	-1.08
1078.666	-9.48
1079.087	-7.08
1079.507	-8.48
1079.928	-1.88
1080.348	-3.88
1080.769	-5.18
1081.189	1.72
1081.61	-0.68
1082.03	-9.58
1082.451	-5.78
1082.871	-3.88
1083.291	-7.78
1083.711	-12.08
1084.132	-1.08
1084.552	-2.38
1084.972	0.92
1085.392	-2.38
1085.813	-11.08
1086.233	-10.08
1086.653	-7.18
1087.073	-4.98
1087.493	-7.88
1087.913	-7.38
1088.333	-4.78
1088.753	-6.78
1089.173	1.12
1089.593	-10.38
1090.013	1.82
1090.433	1.92
1090.852	-0.98
1091.272	-3.88
1091.692	-2.08
1092.112	-5.38
1092.531	-5.58
1092.951	-13.18
1093.371	-2.68
1093.79	1.82
1094.21	-6.58
1094.63	-5.18
1095.049	-7.48
1095.469	-5.58
1095.888	-2.68
1096.308	4.52
1096.727	6.52
1097.146	-5.08
1097.566	-0.48
1097.985	-5.28
1098.405	4.72
1098.824	-7.18
1099.243	-7.18
1099.662	-5.78
1100.082	-5.48
1100.501	4.12
1100.92	-8.88
1101.339	-0.48
1101.758	-6.78
