Data from 20171114-ORNL-Ar_H_NY_Subt18_08-07-03-045.txt Node
Date: Tue Nov 14 08:07:03 EST 2017
User: Ender
Spectrometer: HR+D1039
Trigger mode: 0
Integration Time (sec): 2.730000E-2
Scans to average: 10
Electric dark correction enabled: true
Nonlinearity correction enabled: false
Boxcar width: 0
XAxis mode: Wavelengths
Number of Pixels in Spectrum: 2048
>>>>>Begin Spectral Data<<<<<
187.836	-5.73
188.309	-5.73
188.782	-5.73
189.255	-1.93
189.728	3.87
190.201	5.47
190.674	0.87
191.147	1.27
191.619	-6.73
192.092	0.77
192.565	4.47
193.038	3.97
193.511	0.57
193.984	1.07
194.456	-0.93
194.929	-0.93
195.402	-5.13
195.874	-1.03
196.347	-0.03
196.82	-7.83
197.292	2.17
197.765	1.17
198.237	-10.83
198.71	-0.93
199.182	-4.63
199.655	-2.53
200.127	-0.33
200.6	-2.33
201.072	-1.63
201.544	-5.93
202.017	-0.73
202.489	3.87
202.961	-6.23
203.433	-4.53
203.906	-8.03
204.378	-7.63
204.85	-3.73
205.322	-4.03
205.794	-3.63
206.266	-4.73
206.739	-6.43
207.211	-1.03
207.683	-12.03
208.155	-3.83
208.627	-9.73
209.099	-5.23
209.57	-11.33
210.042	-3.93
210.514	-2.83
210.986	-5.73
211.458	-12.83
211.93	-0.03
212.402	3.17
212.873	1.37
213.345	-9.53
213.817	-12.03
214.288	-7.63
214.76	-10.33
215.232	-3.23
215.703	-7.23
216.175	-6.13
216.646	-7.23
217.118	-9.03
217.589	-1.23
218.061	-6.83
218.532	-4.83
219.004	-4.83
219.475	1.57
219.946	-3.33
220.418	-7.13
220.889	-0.93
221.36	-2.63
221.832	-9.83
222.303	-7.53
222.774	-3.53
223.245	-7.33
223.717	-4.13
224.188	0.07
224.659	-8.83
225.13	-5.93
225.601	-5.03
226.072	3.57
226.543	-2.03
227.014	-4.83
227.485	-6.43
227.956	-6.43
228.427	-2.73
228.898	-2.93
229.369	0.47
229.839	-2.03
230.31	-10.83
230.781	-0.13
231.252	0.27
231.722	-6.83
232.193	-4.93
232.664	1.67
233.135	-3.53
233.605	-4.63
234.076	-6.53
234.546	-4.13
235.017	-0.43
235.487	-2.73
235.958	-2.13
236.428	-9.93
236.899	-3.53
237.369	-1.03
237.84	-9.63
238.31	1.87
238.78	-3.53
239.251	-7.83
239.721	-10.23
240.191	-2.03
240.662	-6.83
241.132	2.37
241.602	-10.43
242.072	-1.73
242.542	-1.23
243.013	-0.53
243.483	1.97
243.953	2.97
244.423	-1.03
244.893	-10.93
245.363	0.67
245.833	0.37
246.303	-2.03
246.773	4.27
247.243	-2.43
247.712	-2.73
248.182	1.17
248.652	7.37
249.122	-12.03
249.592	-1.03
250.061	-5.63
250.531	6.97
251.001	-2.03
251.471	3.87
251.94	4.57
252.41	-0.93
252.879	-0.93
253.349	11.87
253.818	4.87
254.288	-0.73
254.757	0.67
255.227	-5.63
255.696	1.27
256.166	6.57
256.635	-2.03
257.105	2.97
257.574	-5.73
258.043	-3.83
258.513	-6.13
258.982	3.97
259.451	-0.83
259.92	2.47
260.389	1.57
260.859	6.07
261.328	0.97
261.797	1.37
262.266	-0.03
262.735	5.17
263.204	5.27
263.673	-2.73
264.142	0.47
264.611	-5.73
265.08	-5.03
265.549	-2.03
266.018	2.47
266.487	-6.93
266.955	-2.83
267.424	-3.43
267.893	-0.43
268.362	-4.03
268.83	3.57
269.299	7.17
269.768	-0.83
270.236	-0.63
270.705	1.47
271.174	-0.43
271.642	3.97
272.111	2.37
272.579	2.97
273.048	4.27
273.516	-2.93
273.985	2.47
274.453	6.37
274.922	12.07
275.39	2.27
275.858	-1.93
276.327	0.27
276.795	9.97
277.263	2.47
277.731	9.37
278.2	0.17
278.668	8.47
279.136	8.67
279.604	-2.63
280.072	7.17
280.54	4.57
281.008	5.97
281.477	11.67
281.945	4.47
282.413	5.37
282.881	8.87
283.348	0.47
283.816	7.27
284.284	8.07
284.752	18.87
285.22	10.57
285.688	6.47
286.156	3.37
286.623	9.27
287.091	9.97
287.559	10.37
288.026	9.37
288.494	5.87
288.962	4.27
289.429	7.27
289.897	11.47
290.364	7.17
290.832	16.87
291.3	7.57
291.767	12.07
292.234	15.27
292.702	11.77
293.169	10.17
293.637	17.07
294.104	8.37
294.571	-0.73
295.039	14.07
295.506	8.17
295.973	13.97
296.44	12.07
296.908	11.97
297.375	12.57
297.842	11.47
298.309	15.27
298.776	9.57
299.243	17.07
299.71	9.57
300.177	22.77
300.644	9.87
301.111	19.37
301.578	16.77
302.045	13.97
302.512	20.07
302.979	18.57
303.446	18.27
303.913	12.67
304.379	9.67
304.846	16.67
305.313	15.37
305.78	14.97
306.246	16.97
306.713	22.17
307.18	18.77
307.646	16.77
308.113	20.67
308.579	18.37
309.046	17.07
309.512	19.17
309.979	17.17
310.445	19.67
310.912	16.97
311.378	27.37
311.845	22.97
312.311	21.57
312.777	23.07
313.244	19.27
313.71	31.97
314.176	21.77
314.642	22.77
315.109	18.37
315.575	30.27
316.041	31.67
316.507	19.77
316.973	25.77
317.439	22.07
317.905	30.87
318.371	31.07
318.837	28.97
319.303	25.17
319.769	26.27
320.235	29.97
320.701	29.87
321.167	27.67
321.633	21.67
322.099	32.77
322.564	26.47
323.03	32.57
323.496	28.37
323.962	30.87
324.427	27.37
324.893	40.27
325.359	28.97
325.824	33.97
326.29	33.17
326.755	30.47
327.221	33.87
327.686	36.27
328.152	41.67
328.617	34.37
329.083	33.47
329.548	42.27
330.014	39.97
330.479	35.47
330.944	36.57
331.41	36.97
331.875	34.27
332.34	39.77
332.805	35.97
333.271	40.07
333.736	31.37
334.201	44.87
334.666	40.67
335.131	48.77
335.596	46.67
336.061	38.17
336.526	34.17
336.991	42.47
337.456	49.97
337.921	46.57
338.386	33.27
338.851	39.67
339.316	41.57
339.781	45.17
340.246	47.87
340.711	38.17
341.175	42.77
341.64	35.47
342.105	46.57
342.569	47.97
343.034	46.07
343.499	46.67
343.963	42.97
344.428	51.47
344.893	51.67
345.357	50.37
345.822	57.57
346.286	56.17
346.751	70.17
347.215	62.47
347.679	59.07
348.144	84.57
348.608	67.67
349.073	60.27
349.537	63.47
350.001	68.87
350.465	82.87
350.93	66.97
351.394	69.77
351.858	66.17
352.322	77.87
352.786	68.77
353.25	87.47
353.715	99.47
354.179	87.27
354.643	105.87
355.107	101.47
355.571	94.07
356.035	81.47
356.498	100.67
356.962	96.67
357.426	104.97
357.89	92.97
358.354	80.47
358.818	76.37
359.281	73.17
359.745	70.87
360.209	70.97
360.673	68.47
361.136	74.27
361.6	74.57
362.064	74.37
362.527	76.97
362.991	80.67
363.454	77.27
363.918	63.77
364.381	76.67
364.845	75.97
365.308	76.27
365.772	83.37
366.235	81.47
366.698	74.37
367.162	80.37
367.625	77.87
368.088	85.97
368.552	85.17
369.015	77.57
369.478	88.77
369.941	86.07
370.404	78.57
370.867	89.97
371.331	93.57
371.794	98.87
372.257	90.67
372.72	98.77
373.183	94.57
373.646	85.07
374.109	91.67
374.572	89.27
375.035	93.67
375.497	91.97
375.96	98.37
376.423	98.87
376.886	100.37
377.349	98.77
377.811	95.67
378.274	97.37
378.737	101.07
379.199	101.37
379.662	100.87
380.125	99.37
380.587	93.17
381.05	102.37
381.512	105.47
381.975	115.47
382.437	114.47
382.9	111.07
383.362	117.37
383.825	118.87
384.287	117.57
384.75	112.37
385.212	111.17
385.674	126.07
386.136	128.27
386.599	115.67
387.061	117.07
387.523	118.17
387.985	115.07
388.447	127.47
388.91	120.47
389.372	122.77
389.834	120.37
390.296	122.27
390.758	127.67
391.22	125.37
391.682	138.97
392.144	144.97
392.606	141.07
393.068	132.97
393.529	148.97
393.991	137.37
394.453	123.87
394.915	132.57
395.377	132.77
395.838	127.27
396.3	136.37
396.762	129.37
397.224	128.37
397.685	123.77
398.147	122.37
398.608	124.97
399.07	121.57
399.531	137.87
399.993	141.07
400.454	150.57
400.916	142.87
401.377	140.47
401.839	147.17
402.3	148.07
402.762	161.67
403.223	180.27
403.684	161.97
404.145	154.67
404.607	152.47
405.068	161.37
405.529	163.57
405.99	181.97
406.451	167.07
406.913	168.67
407.374	156.17
407.835	158.77
408.296	162.97
408.757	168.87
409.218	179.17
409.679	171.97
410.14	175.17
410.601	167.57
411.062	174.17
411.522	173.77
411.983	173.87
412.444	168.77
412.905	185.17
413.366	178.87
413.826	194.47
414.287	222.87
414.748	268.87
415.208	252.67
415.669	217.97
416.13	207.57
416.59	204.67
417.051	217.57
417.511	224.67
417.972	234.77
418.432	253.77
418.893	292.47
419.353	259.37
419.814	202.47
420.274	183.07
420.734	182.97
421.195	196.97
421.655	193.37
422.115	193.47
422.576	202.87
423.036	199.17
423.496	210.47
423.956	219.47
424.416	241.67
424.876	267.27
425.336	258.97
425.797	268.97
426.257	255.97
426.717	245.07
427.177	238.37
427.637	226.17
428.097	237.27
428.556	242.97
429.016	268.47
429.476	260.47
429.936	271.57
430.396	277.17
430.856	290.57
431.315	314.37
431.775	343.57
432.235	377.77
432.694	351.07
433.154	358.17
433.614	386.17
434.073	331.87
434.533	287.77
434.993	273.57
435.452	283.17
435.912	290.07
436.371	282.67
436.83	279.07
437.29	275.07
437.749	242.67
438.209	251.27
438.668	273.87
439.127	281.67
439.587	264.17
440.046	255.17
440.505	268.27
440.964	278.57
441.424	319.77
441.883	313.37
442.342	263.77
442.801	233.67
443.26	227.77
443.719	226.47
444.178	224.27
444.637	219.67
445.096	229.57
445.555	232.07
446.014	237.77
446.473	229.77
446.932	245.87
447.391	234.17
447.849	245.07
448.308	227.37
448.767	229.47
449.226	249.57
449.685	254.17
450.143	257.77
450.602	246.47
451.061	237.67
451.519	241.77
451.978	242.57
452.436	247.47
452.895	249.57
453.353	259.37
453.812	250.77
454.27	240.67
454.729	247.77
455.187	248.97
455.646	255.17
456.104	255.17
456.562	273.47
457.021	278.67
457.479	268.17
457.937	274.07
458.395	276.87
458.854	267.87
459.312	270.07
459.77	283.07
460.228	272.87
460.686	254.67
461.144	259.77
461.602	251.87
462.06	253.87
462.518	269.47
462.976	270.17
463.434	271.37
463.892	278.47
464.35	289.27
464.808	296.57
465.266	272.47
465.724	285.77
466.181	289.47
466.639	286.67
467.097	301.97
467.555	329.27
468.012	317.57
468.47	321.37
468.928	344.77
469.385	348.87
469.843	355.77
470.3	368.37
470.758	374.77
471.215	393.07
471.673	413.27
472.13	415.77
472.588	430.47
473.045	387.87
473.503	399.47
473.96	398.57
474.417	423.57
474.875	461.77
475.332	489.17
475.789	475.97
476.246	482.37
476.704	504.87
477.161	525.17
477.618	529.27
478.075	579.47
478.532	633.97
478.989	702.17
479.446	807.67
479.903	777.17
480.36	826.87
480.817	856.47
481.274	952.37
481.731	1037.67
482.188	1108.07
482.645	1237.77
483.102	1334.38
483.558	1461.57
484.015	1503.97
484.472	1451.47
484.929	1431.67
485.385	1386.47
485.842	1356.17
486.299	1308.67
486.755	1264.97
487.212	1077.17
487.668	924.07
488.125	857.87
488.582	781.67
489.038	752.77
489.494	731.67
489.951	702.57
490.407	686.27
490.864	670.07
491.32	668.97
491.776	665.37
492.233	669.67
492.689	641.47
493.145	633.57
493.602	626.07
494.058	639.47
494.514	642.07
494.97	660.97
495.426	668.27
495.882	651.07
496.338	641.97
496.794	647.77
497.251	634.97
497.707	667.97
498.163	658.87
498.618	661.17
499.074	666.77
499.53	710.67
499.986	698.67
500.442	671.47
500.898	651.07
501.354	644.17
501.809	648.47
502.265	651.67
502.721	663.57
503.177	665.17
503.632	665.17
504.088	674.87
504.543	694.77
504.999	717.57
505.455	684.37
505.91	666.87
506.366	662.77
506.821	667.27
507.277	662.37
507.732	668.97
508.187	667.57
508.643	670.67
509.098	688.57
509.553	698.17
510.009	692.97
510.464	695.77
510.919	729.47
511.375	732.17
511.83	747.87
512.285	752.17
512.74	792.67
513.195	824.47
513.65	805.27
514.105	795.17
514.56	804.67
515.015	818.97
515.47	827.97
515.925	823.47
516.38	831.17
516.835	832.97
517.29	811.47
517.745	812.77
518.2	808.87
518.655	788.67
519.109	782.67
519.564	782.17
520.019	768.87
520.474	762.07
520.928	767.17
521.383	754.67
521.838	755.27
522.292	747.47
522.747	739.47
523.201	740.97
523.656	734.07
524.11	730.87
524.565	727.57
525.019	721.97
525.474	730.87
525.928	727.97
526.382	740.37
526.837	738.37
527.291	747.27
527.745	740.57
528.2	735.97
528.654	730.47
529.108	725.47
529.562	730.97
530.016	718.67
530.47	721.27
530.925	716.97
531.379	719.17
531.833	739.57
532.287	735.57
532.741	730.47
533.195	734.57
533.649	745.57
534.103	752.67
534.556	743.67
535.01	737.77
535.464	743.87
535.918	752.17
536.372	752.57
536.826	751.97
537.279	735.07
537.733	749.07
538.187	749.97
538.64	745.27
539.094	761.67
539.548	766.97
540.001	752.57
540.455	755.67
540.908	765.67
541.362	779.87
541.815	791.67
542.269	800.97
542.722	797.27
543.175	807.47
543.629	808.27
544.082	817.97
544.536	832.87
544.989	827.57
545.442	840.07
545.895	835.67
546.349	831.77
546.802	841.07
547.255	850.07
547.708	845.77
548.161	853.47
548.614	870.67
549.067	866.17
549.52	868.17
549.973	863.37
550.426	850.07
550.879	844.67
551.332	843.87
551.785	858.47
552.238	853.07
552.691	865.27
553.144	881.07
553.596	895.77
554.049	910.47
554.502	946.67
554.955	963.57
555.407	956.77
555.86	955.47
556.313	937.57
556.765	926.67
557.218	934.27
557.67	934.07
558.123	925.37
558.576	921.47
559.028	913.97
559.48	923.47
559.933	924.97
560.385	888.77
560.838	859.47
561.29	829.07
561.742	831.77
562.195	809.17
562.647	814.97
563.099	820.67
563.551	810.17
564.004	821.37
564.456	798.57
564.908	803.67
565.36	784.67
565.812	762.97
566.264	761.87
566.716	751.17
567.168	746.77
567.62	753.97
568.072	733.17
568.524	739.57
568.976	726.47
569.428	710.17
569.88	717.47
570.332	723.17
570.784	718.67
571.235	721.47
571.687	727.37
572.139	739.47
572.59	757.87
573.042	749.87
573.494	747.17
573.945	744.87
574.397	719.57
574.849	732.87
575.3	727.87
575.752	722.37
576.203	723.07
576.655	725.17
577.106	705.17
577.557	707.57
578.009	701.47
578.46	701.77
578.912	695.57
579.363	704.87
579.814	701.87
580.265	697.97
580.717	698.27
581.168	707.87
581.619	721.17
582.07	715.97
582.521	705.07
582.972	702.07
583.423	708.27
583.875	711.97
584.326	723.57
584.777	731.17
585.227	738.57
585.678	765.37
586.129	790.87
586.58	816.97
587.031	830.37
587.482	865.77
587.933	895.67
588.384	876.67
588.834	826.17
589.285	809.67
589.736	814.97
590.186	801.97
590.637	798.07
591.088	782.47
591.538	773.57
591.989	763.87
592.439	760.07
592.89	751.37
593.34	739.77
593.791	745.17
594.241	727.17
594.692	735.87
595.142	744.37
595.593	730.27
596.043	729.77
596.493	745.07
596.943	736.27
597.394	751.17
597.844	747.77
598.294	775.57
598.744	797.97
599.195	817.07
599.645	854.97
600.095	902.97
600.545	966.07
600.995	1008.17
601.445	1068.07
601.895	1142.87
602.345	1194.67
602.795	1161.28
603.245	1126.47
603.695	1057.38
604.145	1009.87
604.594	961.37
605.044	904.67
605.494	839.67
605.944	793.77
606.393	773.67
606.843	759.57
607.293	762.37
607.743	756.87
608.192	776.17
608.642	784.67
609.091	783.27
609.541	783.47
609.99	799.37
610.44	794.87
610.889	750.07
611.339	719.47
611.788	709.07
612.238	724.57
612.687	731.47
613.136	718.27
613.586	730.57
614.035	725.37
614.484	744.37
614.933	744.37
615.383	744.77
615.832	738.37
616.281	722.17
616.73	699.47
617.179	683.37
617.628	664.97
618.077	654.37
618.526	650.77
618.975	637.07
619.424	639.27
619.873	637.37
620.322	640.87
620.771	630.67
621.22	622.37
621.669	614.97
622.118	617.67
622.567	612.37
623.015	595.37
623.464	589.67
623.913	581.17
624.361	575.97
624.81	568.47
625.259	577.27
625.707	581.07
626.156	574.37
626.604	592.37
627.053	583.07
627.501	578.57
627.95	597.97
628.398	603.27
628.847	601.77
629.295	594.87
629.744	602.07
630.192	578.47
630.64	585.47
631.089	565.37
631.537	558.97
631.985	552.97
632.433	559.27
632.881	546.27
633.33	554.27
633.778	542.07
634.226	536.47
634.674	555.57
635.122	568.77
635.57	581.47
636.018	592.87
636.466	587.47
636.914	583.37
637.362	609.37
637.81	598.37
638.258	601.37
638.705	607.27
639.153	638.57
639.601	646.07
640.049	661.27
640.497	707.97
640.944	726.47
641.392	673.57
641.84	631.47
642.287	604.57
642.735	583.77
643.182	588.77
643.63	588.57
644.078	588.17
644.525	603.17
644.973	602.47
645.42	623.07
645.867	630.07
646.315	652.37
646.762	684.57
647.21	702.57
647.657	722.37
648.104	764.37
648.551	778.37
648.999	839.67
649.446	917.77
649.893	997.88
650.34	1134.07
650.787	1356.17
651.234	1671.27
651.682	2142.47
652.129	2900.77
652.576	4116.57
653.023	5993.97
653.47	8083.27
653.917	10080.68
654.363	11632.78
654.81	12821.58
655.257	12120.38
655.704	8047.27
656.151	4844.17
656.598	3190.88
657.044	2277.88
657.491	1779.38
657.938	1432.07
658.385	1222.17
658.831	1062.08
659.278	952.87
659.724	851.57
660.171	789.87
660.618	716.17
661.064	693.67
661.511	680.67
661.957	656.97
662.404	651.07
662.85	664.27
663.296	627.87
663.743	573.57
664.189	553.57
664.635	553.57
665.082	544.37
665.528	538.77
665.974	538.27
666.42	524.87
666.867	526.37
667.313	494.77
667.759	480.47
668.205	465.37
668.651	471.77
669.097	471.67
669.543	464.27
669.989	464.67
670.435	453.77
670.881	461.97
671.327	470.27
671.773	483.97
672.219	511.67
672.665	572.37
673.11	610.87
673.556	657.57
674.002	701.27
674.448	690.97
674.893	576.17
675.339	494.87
675.785	455.57
676.23	440.57
676.676	413.47
677.122	399.07
677.567	390.97
678.013	384.27
678.458	377.07
678.904	382.67
679.349	368.27
679.794	361.27
680.24	370.27
680.685	367.37
681.131	360.77
681.576	368.87
682.021	373.67
682.466	366.07
682.912	352.07
683.357	367.97
683.802	399.27
684.247	422.37
684.692	473.57
685.137	515.27
685.583	560.07
686.028	590.87
686.473	542.17
686.918	464.37
687.363	440.97
687.807	408.37
688.252	382.17
688.697	373.77
689.142	357.37
689.587	343.37
690.032	343.47
690.477	362.87
690.921	366.27
691.366	401.97
691.811	420.37
692.255	451.87
692.7	484.67
693.145	526.97
693.589	734.57
694.034	1190.38
694.478	1615.57
694.923	1814.07
695.367	2365.67
695.812	1254.97
696.256	513.37
696.701	394.17
697.145	360.77
697.59	332.57
698.034	338.27
698.478	349.37
698.922	328.77
699.367	336.27
699.811	348.07
700.255	365.87
700.699	395.27
701.143	444.17
701.588	489.77
702.032	533.17
702.476	544.07
702.92	510.97
703.364	519.07
703.808	677.57
704.252	1092.47
704.696	1539.97
705.14	1751.07
705.584	2259.17
706.027	1131.77
706.471	551.77
706.915	423.47
707.359	367.27
707.803	338.97
708.246	320.37
708.69	324.37
709.134	322.57
709.577	319.07
710.021	337.77
710.465	318.27
710.908	306.47
711.352	311.57
711.795	321.97
712.239	369.57
712.682	399.37
713.126	431.87
713.569	472.37
714.012	376.27
714.456	323.87
714.899	293.37
715.342	291.47
715.786	269.77
716.229	269.07
716.672	263.07
717.115	260.37
717.558	262.47
718.002	264.57
718.445	273.67
718.888	296.57
719.331	310.07
719.774	317.77
720.217	318.67
720.66	289.97
721.103	278.97
721.546	266.97
721.989	263.17
722.432	244.07
722.874	239.27
723.317	236.87
723.76	247.67
724.203	261.87
724.645	335.67
725.088	467.97
725.531	599.87
725.974	681.87
726.416	568.97
726.859	320.37
727.301	264.07
727.744	252.17
728.187	237.27
728.629	249.87
729.071	252.17
729.514	267.07
729.956	273.17
730.399	290.47
730.841	303.67
731.283	285.97
731.726	290.77
732.168	269.87
732.61	281.77
733.053	302.07
733.495	331.27
733.937	365.97
734.379	422.47
734.821	458.57
735.263	575.47
735.705	889.87
736.148	1671.38
736.59	2731.17
737.032	3234.47
737.474	2622.27
737.916	856.37
738.357	445.57
738.799	340.17
739.241	310.17
739.683	292.27
740.125	304.87
740.567	312.57
741.008	331.37
741.45	332.87
741.892	329.77
742.334	358.07
742.775	378.97
743.217	360.27
743.658	285.67
744.1	272.37
744.542	282.57
744.983	328.87
745.425	365.67
745.866	362.07
746.307	298.97
746.749	287.17
747.19	342.77
747.632	481.27
748.073	938.17
748.514	1968.67
748.956	3014.17
749.397	3770.07
749.838	3132.57
750.279	3111.97
750.72	1585.07
751.162	579.67
751.603	339.97
752.044	263.27
752.485	229.47
752.926	225.17
753.367	211.97
753.808	205.87
754.249	200.97
754.69	196.97
755.131	187.97
755.572	184.07
756.013	186.07
756.453	193.27
756.894	197.37
757.335	194.87
757.776	207.57
758.216	203.47
758.657	206.87
759.098	205.17
759.538	237.67
759.979	281.67
760.42	396.57
760.86	751.57
761.301	1933.97
761.741	4717.57
762.182	6758.27
762.622	4779.47
763.063	1384.07
763.503	563.67
763.943	341.77
764.384	286.57
764.824	264.97
765.264	246.67
765.705	222.07
766.145	188.97
766.585	184.77
767.025	178.07
767.465	167.97
767.906	187.77
768.346	203.27
768.786	215.57
769.226	236.37
769.666	327.17
770.106	659.77
770.546	1648.97
770.986	2790.97
771.426	2482.07
771.866	832.27
772.306	345.97
772.745	216.07
773.185	179.17
773.625	172.97
774.065	160.27
774.505	169.47
774.944	219.47
775.384	378.07
775.824	615.37
776.263	597.97
776.703	295.77
777.142	168.57
777.582	139.17
778.021	132.37
778.461	131.87
778.9	127.97
779.34	136.17
779.779	117.27
780.219	114.77
780.658	111.07
781.097	118.37
781.537	120.47
781.976	110.77
782.415	109.57
782.855	109.67
783.294	102.97
783.733	103.57
784.172	113.87
784.611	104.87
785.05	112.17
785.489	122.27
785.928	119.17
786.367	129.07
786.806	120.27
787.245	132.77
787.684	137.77
788.123	147.87
788.562	143.47
789.001	130.07
789.44	132.27
789.879	118.17
790.317	119.17
790.756	132.37
791.195	132.17
791.634	151.37
792.072	211.57
792.511	381.77
792.95	1058.27
793.388	2236.17
793.827	2004.27
794.265	707.97
794.704	296.07
795.142	196.07
795.581	158.77
796.019	137.77
796.458	133.87
796.896	123.97
797.334	138.87
797.773	159.27
798.211	236.67
798.649	468.37
799.087	1082.17
799.526	1661.67
799.964	2119.67
800.402	2106.38
800.84	803.57
801.278	317.37
801.716	197.57
802.154	157.27
802.592	152.37
803.03	138.27
803.468	140.97
803.906	147.97
804.344	162.77
804.782	144.47
805.22	141.37
805.658	132.97
806.096	154.87
806.533	165.27
806.971	183.37
807.409	230.27
807.847	339.27
808.284	710.97
808.722	1988.97
809.16	3493.97
809.597	3334.38
810.035	5751.38
810.472	6063.07
810.91	2213.57
811.347	850.77
811.785	424.87
812.222	271.07
812.66	208.17
813.097	175.57
813.535	151.57
813.972	142.67
814.409	123.77
814.846	110.67
815.284	113.47
815.721	106.37
816.158	104.07
816.595	115.77
817.032	160.57
817.47	185.27
817.907	141.77
818.344	106.47
818.781	96.47
819.218	98.37
819.655	129.77
820.092	199.27
820.529	224.77
820.966	178.67
821.403	127.57
821.839	101.37
822.276	108.47
822.713	133.87
823.15	147.77
823.587	125.77
824.023	152.97
824.46	312.87
824.897	947.48
825.333	1416.07
825.77	616.17
826.206	246.47
826.643	145.97
827.08	109.07
827.516	89.87
827.953	84.27
828.389	87.67
828.825	73.97
829.262	75.57
829.698	61.87
830.135	66.07
830.571	63.77
831.007	65.87
831.443	69.57
831.88	67.77
832.316	64.87
832.752	62.27
833.188	67.57
833.624	66.87
834.06	65.67
834.497	70.87
834.933	81.27
835.369	72.17
835.805	77.07
836.241	83.47
836.677	92.77
837.112	92.87
837.548	110.37
837.984	138.97
838.42	209.87
838.856	528.17
839.292	1603.97
839.727	2423.47
840.163	1145.67
840.599	990.48
841.034	2146.37
841.47	2238.07
841.906	824.87
842.341	342.07
842.777	207.27
843.212	214.17
843.648	198.27
844.083	114.57
844.519	87.77
844.954	73.67
845.39	57.67
845.825	62.57
846.261	63.67
846.696	56.27
847.131	53.07
847.566	61.77
848.002	58.47
848.437	51.87
848.872	60.97
849.307	63.17
849.742	89.87
850.177	192.27
850.613	585.97
851.048	925.37
851.483	401.07
851.918	159.67
852.353	90.97
852.788	56.47
853.223	51.27
853.657	56.87
854.092	48.67
854.527	42.57
854.962	49.17
855.397	43.77
855.832	52.77
856.266	45.77
856.701	41.57
857.136	39.67
857.57	40.37
858.005	48.57
858.44	63.57
858.874	46.67
859.309	51.57
859.743	44.07
860.178	53.97
860.612	43.57
861.047	54.27
861.481	64.57
861.915	68.07
862.35	54.27
862.784	35.07
863.218	41.77
863.653	35.37
864.087	49.97
864.521	56.97
864.955	71.27
865.39	161.67
865.824	180.67
866.258	115.97
866.692	180.17
867.126	192.27
867.56	110.77
867.994	56.37
868.428	41.57
868.862	52.37
869.296	55.27
869.73	63.67
870.164	52.87
870.598	51.37
871.031	44.07
871.465	34.77
871.899	33.37
872.333	23.07
872.766	24.77
873.2	25.37
873.634	27.57
874.067	29.57
874.501	23.47
874.935	38.07
875.368	30.47
875.802	27.77
876.235	25.27
876.669	28.97
877.102	22.77
877.535	29.77
877.969	26.27
878.402	26.57
878.836	16.37
879.269	29.07
879.702	28.07
880.135	23.27
880.569	27.17
881.002	24.97
881.435	27.17
881.868	17.07
882.301	22.87
882.734	15.57
883.167	25.67
883.601	21.87
884.034	22.67
884.467	16.07
884.899	24.47
885.332	14.77
885.765	12.77
886.198	14.37
886.631	15.97
887.064	22.67
887.497	22.47
887.929	27.87
888.362	14.57
888.795	16.77
889.228	18.67
889.66	19.87
890.093	16.27
890.526	16.47
890.958	12.97
891.391	22.97
891.823	21.07
892.256	17.17
892.688	10.37
893.121	18.07
893.553	16.67
893.985	20.27
894.418	18.47
894.85	16.17
895.282	16.77
895.715	19.57
896.147	15.17
896.579	15.27
897.011	12.67
897.444	16.97
897.876	10.67
898.308	14.27
898.74	15.17
899.172	15.67
899.604	20.77
900.036	19.47
900.468	11.67
900.9	14.07
901.332	16.27
901.764	12.97
902.196	15.37
902.628	14.87
903.06	17.07
903.491	25.37
903.923	27.87
904.355	22.57
904.787	28.77
905.218	27.17
905.65	20.77
906.082	5.17
906.513	10.77
906.945	18.57
907.376	10.27
907.808	15.27
908.239	21.57
908.671	21.97
909.102	22.97
909.534	27.17
909.965	46.87
910.397	96.07
910.828	319.27
911.259	490.87
911.691	223.57
912.122	107.27
912.553	54.27
912.984	37.57
913.415	29.57
913.847	26.27
914.278	15.67
914.709	11.47
915.14	20.07
915.571	13.17
916.002	11.57
916.433	19.47
916.864	15.37
917.295	15.57
917.726	21.17
918.157	21.87
918.587	30.37
919.018	26.17
919.449	23.27
919.88	26.57
920.311	35.17
920.741	49.97
921.172	180.67
921.603	154.77
922.033	77.97
922.464	50.07
922.895	24.97
923.325	17.37
923.756	18.07
924.186	13.37
924.617	19.07
925.047	16.37
925.478	21.77
925.908	25.47
926.338	13.17
926.769	9.27
927.199	15.27
927.629	4.77
928.06	18.97
928.49	14.67
928.92	13.87
929.35	10.27
929.78	14.77
930.21	7.47
930.641	8.57
931.071	8.67
931.501	0.87
931.931	13.57
932.361	8.97
932.791	6.27
933.221	13.17
933.651	3.47
934.08	19.37
934.51	31.17
934.94	11.27
935.37	6.27
935.8	9.07
936.229	7.57
936.659	14.37
937.089	-2.83
937.519	15.47
937.948	25.67
938.378	17.97
938.807	5.17
939.237	0.67
939.666	7.57
940.096	-3.83
940.525	0.17
940.955	5.77
941.384	5.87
941.814	1.77
942.243	0.87
942.672	3.37
943.102	0.37
943.531	2.37
943.96	7.27
944.39	2.67
944.819	-2.23
945.248	2.77
945.677	-2.93
946.106	8.57
946.535	3.67
946.964	2.87
947.393	6.37
947.822	-0.83
948.251	-1.93
948.68	7.77
949.109	6.07
949.538	0.77
949.967	-0.63
950.396	2.57
950.825	-0.53
951.254	4.77
951.682	-1.93
952.111	4.37
952.54	5.87
952.969	-0.33
953.397	-6.93
953.826	4.37
954.254	-8.43
954.683	3.97
955.112	-2.83
955.54	3.57
955.969	2.97
956.397	1.67
956.826	4.47
957.254	4.17
957.682	-0.63
958.111	4.07
958.539	0.97
958.967	-1.23
959.396	1.17
959.824	5.77
960.252	6.57
960.68	-2.63
961.109	-5.63
961.537	-10.93
961.965	4.17
962.393	-3.63
962.821	-5.13
963.249	-2.03
963.677	-1.43
964.105	5.67
964.533	50.87
964.961	41.57
965.389	18.57
965.817	9.97
966.245	2.07
966.672	1.67
967.1	-5.93
967.528	1.97
967.956	-4.83
968.383	0.67
968.811	-5.43
969.239	1.77
969.666	-5.33
970.094	0.27
970.522	2.87
970.949	-2.33
971.377	-4.43
971.804	-2.63
972.232	3.87
972.659	-5.03
973.087	-5.13
973.514	-2.53
973.941	-1.13
974.369	8.37
974.796	5.17
975.223	3.67
975.651	-2.83
976.078	-1.03
976.505	-4.53
976.932	3.17
977.359	16.07
977.786	14.47
978.214	5.77
978.641	1.37
979.068	-0.23
979.495	-4.13
979.922	4.27
980.349	-2.03
980.776	1.47
981.202	1.87
981.629	6.97
982.056	1.47
982.483	1.07
982.91	3.67
983.337	-5.73
983.763	4.77
984.19	-6.43
984.617	-1.63
985.043	-3.03
985.47	-2.73
985.897	-3.33
986.323	-6.73
986.75	3.27
987.176	-4.83
987.603	-1.23
988.029	-5.83
988.456	0.47
988.882	1.07
989.308	-6.63
989.735	0.47
990.161	2.37
990.587	-6.83
991.014	-2.03
991.44	6.17
991.866	0.47
992.292	-5.23
992.719	-4.53
993.145	3.17
993.571	-6.43
993.997	-5.03
994.423	-2.43
994.849	-0.43
995.275	-2.73
995.701	-3.53
996.127	-4.73
996.553	5.37
996.979	3.17
997.405	-1.93
997.83	-8.33
998.256	-6.73
998.682	-5.63
999.108	-10.03
999.534	-4.93
999.959	-2.23
1000.385	-5.43
1000.811	-0.53
1001.236	-7.33
1001.662	-9.23
1002.087	-5.83
1002.513	0.07
1002.938	3.27
1003.364	-7.63
1003.789	8.47
1004.215	-0.53
1004.64	-4.93
1005.066	-3.03
1005.491	-0.33
1005.916	-3.63
1006.342	-1.33
1006.767	-4.23
1007.192	4.47
1007.617	-1.93
1008.042	-1.83
1008.468	-2.93
1008.893	-1.83
1009.318	-3.23
1009.743	-4.03
1010.168	4.47
1010.593	2.87
1011.018	-9.03
1011.443	-1.33
1011.868	3.47
1012.293	-6.53
1012.718	-7.13
1013.143	1.87
1013.567	0.07
1013.992	-7.53
1014.417	-14.33
1014.842	-1.03
1015.267	-5.23
1015.691	-4.63
1016.116	3.27
1016.541	-2.13
1016.965	0.37
1017.39	6.17
1017.814	-0.73
1018.239	-4.33
1018.663	-5.83
1019.088	-10.33
1019.512	-2.33
1019.937	1.17
1020.361	-9.13
1020.785	-11.33
1021.21	-0.33
1021.634	-5.33
1022.058	-2.23
1022.483	5.47
1022.907	-10.33
1023.331	-10.03
1023.755	-4.33
1024.179	-4.73
1024.604	-7.23
1025.028	-5.53
1025.452	-7.23
1025.876	0.17
1026.3	2.37
1026.724	-10.33
1027.148	-11.43
1027.572	-6.23
1027.996	-8.23
1028.42	-2.93
1028.843	-4.33
1029.267	-4.93
1029.691	-6.03
1030.115	-16.43
1030.539	-11.53
1030.962	-9.33
1031.386	-9.93
1031.81	3.47
1032.233	-0.83
1032.657	-3.93
1033.08	-1.93
1033.504	-1.83
1033.927	-2.43
1034.351	-11.93
1034.774	-6.73
1035.198	-0.63
1035.621	-6.63
1036.045	-6.63
1036.468	0.07
1036.891	-8.33
1037.315	-8.63
1037.738	-7.83
1038.161	-4.83
1038.584	-5.53
1039.008	-2.13
1039.431	-6.43
1039.854	-5.33
1040.277	-11.73
1040.7	-11.83
1041.123	1.57
1041.546	-3.03
1041.969	-5.83
1042.392	-2.93
1042.815	1.87
1043.238	-2.43
1043.661	-3.73
1044.084	-6.53
1044.507	-8.63
1044.93	-11.83
1045.352	-5.13
1045.775	-0.93
1046.198	-1.73
1046.621	-2.03
1047.043	4.27
1047.466	0.37
1047.889	-5.63
1048.311	-9.23
1048.734	-2.33
1049.156	-1.83
1049.579	1.17
1050.001	3.47
1050.424	-5.33
1050.846	-9.13
1051.269	0.67
1051.691	-4.13
1052.113	-8.43
1052.536	-4.03
1052.958	2.77
1053.38	-3.83
1053.802	-11.13
1054.225	2.97
1054.647	-5.13
1055.069	-0.33
1055.491	4.27
1055.913	-7.73
1056.335	-0.33
1056.757	-5.23
1057.179	-10.43
1057.601	-6.53
1058.023	-4.73
1058.445	-10.43
1058.867	-4.23
1059.289	-5.43
1059.711	-10.83
1060.133	-2.63
1060.555	-9.93
1060.976	-8.23
1061.398	-6.33
1061.82	-10.53
1062.241	-7.73
1062.663	-4.33
1063.085	-6.53
1063.506	-0.03
1063.928	-1.13
1064.35	0.37
1064.771	-14.83
1065.193	-4.83
1065.614	-8.73
1066.035	-0.23
1066.457	-4.63
1066.878	-2.63
1067.3	-11.03
1067.721	-10.13
1068.142	1.17
1068.564	-4.73
1068.985	-4.83
1069.406	-6.73
1069.827	-9.33
1070.248	-1.93
1070.67	-9.53
1071.091	-10.63
1071.512	-2.33
1071.933	-2.53
1072.354	-11.73
1072.775	-6.83
1073.196	-3.83
1073.617	-6.63
1074.038	-9.23
1074.459	-5.33
1074.88	-8.03
1075.3	-9.03
1075.721	2.27
1076.142	-1.63
1076.563	-5.73
1076.983	-10.83
1077.404	-9.43
1077.825	-7.03
1078.246	-8.23
1078.666	-8.73
1079.087	-8.43
1079.507	-9.93
1079.928	-1.23
1080.348	-1.43
1080.769	-8.03
1081.189	-4.23
1081.61	-7.93
1082.03	-11.53
1082.451	-9.73
1082.871	-7.33
1083.291	-3.93
1083.711	-14.53
1084.132	-8.63
1084.552	-7.13
1084.972	-0.73
1085.392	-12.43
1085.813	-12.03
1086.233	-14.23
1086.653	-3.93
1087.073	-3.13
1087.493	-4.53
1087.913	-3.73
1088.333	-10.63
1088.753	-8.63
1089.173	0.27
1089.593	-6.13
1090.013	-1.33
1090.433	3.37
1090.852	-4.13
1091.272	-0.73
1091.692	-3.33
1092.112	-1.43
1092.531	-9.43
1092.951	-11.53
1093.371	-7.83
1093.79	0.57
1094.21	-5.13
1094.63	-7.03
1095.049	-5.93
1095.469	-2.33
1095.888	-2.73
1096.308	6.77
1096.727	7.77
1097.146	-5.23
1097.566	-1.63
1097.985	-8.03
1098.405	-7.53
1098.824	-5.03
1099.243	-7.33
1099.662	-11.73
1100.082	-2.63
1100.501	-2.13
1100.92	-3.63
1101.339	-4.43
1101.758	-3.83
