Data from 20171114-ORNL-Ar_H_NY_Subt18_08-06-19-642.txt Node
Date: Tue Nov 14 08:06:19 EST 2017
User: Ender
Spectrometer: HR+D1039
Trigger mode: 0
Integration Time (sec): 2.730000E-2
Scans to average: 10
Electric dark correction enabled: true
Nonlinearity correction enabled: false
Boxcar width: 0
XAxis mode: Wavelengths
Number of Pixels in Spectrum: 2048
>>>>>Begin Spectral Data<<<<<
187.836	-3.47
188.309	-3.47
188.782	-3.47
189.255	-0.37
189.728	-5.07
190.201	2.73
190.674	1.73
191.147	-0.37
191.619	-8.17
192.092	2.43
192.565	5.93
193.038	0.63
193.511	2.03
193.984	0.43
194.456	-1.47
194.929	2.93
195.402	0.33
195.874	-0.27
196.347	-2.37
196.82	-6.37
197.292	11.73
197.765	-1.97
198.237	-2.67
198.71	0.63
199.182	-6.97
199.655	-0.97
200.127	1.83
200.6	1.83
201.072	-1.97
201.544	-7.37
202.017	-2.77
202.489	4.13
202.961	-1.87
203.433	-5.77
203.906	-5.07
204.378	-9.67
204.85	-4.47
205.322	-9.37
205.794	-3.97
206.266	-5.97
206.739	-10.37
207.211	-0.27
207.683	-2.87
208.155	-8.17
208.627	-3.47
209.099	-7.97
209.57	-4.67
210.042	-3.07
210.514	-5.87
210.986	-1.17
211.458	-8.17
211.93	-0.47
212.402	-0.97
212.873	-4.07
213.345	-7.47
213.817	-9.17
214.288	-5.37
214.76	-15.37
215.232	-4.67
215.703	-1.97
216.175	-2.77
216.646	0.43
217.118	-7.07
217.589	0.43
218.061	0.23
218.532	-3.87
219.004	-1.47
219.475	-0.77
219.946	-2.47
220.418	-8.27
220.889	-3.17
221.36	0.53
221.832	-7.07
222.303	-6.07
222.774	-2.77
223.245	-8.37
223.717	-11.57
224.188	-3.47
224.659	-6.47
225.13	-7.67
225.601	-4.27
226.072	-0.27
226.543	-3.77
227.014	1.13
227.485	0.53
227.956	-10.37
228.427	-5.67
228.898	1.53
229.369	2.73
229.839	-8.17
230.31	-6.47
230.781	2.43
231.252	6.83
231.722	-7.37
232.193	-3.97
232.664	-2.37
233.135	0.83
233.605	2.03
234.076	-4.87
234.546	1.03
235.017	5.73
235.487	-6.67
235.958	-1.47
236.428	-6.17
236.899	6.43
237.369	8.33
237.84	3.53
238.31	4.83
238.78	3.43
239.251	-2.57
239.721	2.53
240.191	2.53
240.662	0.13
241.132	-4.57
241.602	3.13
242.072	-1.57
242.542	4.23
243.013	-1.47
243.483	0.13
243.953	2.83
244.423	1.73
244.893	-2.57
245.363	2.43
245.833	-2.07
246.303	1.43
246.773	7.83
247.243	-0.57
247.712	7.43
248.182	8.13
248.652	7.13
249.122	-2.37
249.592	8.63
250.061	24.23
250.531	29.43
251.001	10.13
251.471	11.83
251.94	13.73
252.41	5.43
252.879	4.23
253.349	14.43
253.818	9.13
254.288	8.13
254.757	7.63
255.227	0.63
255.696	4.53
256.166	5.23
256.635	3.13
257.105	9.63
257.574	0.63
258.043	8.93
258.513	13.13
258.982	15.53
259.451	11.43
259.92	13.83
260.389	13.93
260.859	21.23
261.328	9.73
261.797	19.93
262.266	9.43
262.735	11.83
263.204	1.03
263.673	0.23
264.142	7.53
264.611	1.03
265.08	3.33
265.549	1.23
266.018	1.33
266.487	-0.17
266.955	-2.87
267.424	-1.57
267.893	2.93
268.362	3.93
268.83	3.83
269.299	12.63
269.768	6.13
270.236	11.53
270.705	2.03
271.174	8.53
271.642	1.23
272.111	6.23
272.579	20.63
273.048	26.93
273.516	27.43
273.985	26.13
274.453	18.83
274.922	16.63
275.39	10.93
275.858	5.43
276.327	13.13
276.795	14.63
277.263	10.13
277.731	30.13
278.2	53.03
278.668	55.33
279.136	41.03
279.604	21.53
280.072	20.33
280.54	13.03
281.008	14.53
281.477	19.23
281.945	19.33
282.413	15.93
282.881	19.13
283.348	11.73
283.816	13.53
284.284	15.63
284.752	14.73
285.22	18.03
285.688	10.93
286.156	24.73
286.623	41.33
287.091	52.33
287.559	30.33
288.026	19.13
288.494	13.63
288.962	8.33
289.429	9.93
289.897	20.03
290.364	16.53
290.832	16.93
291.3	8.83
291.767	15.33
292.234	18.93
292.702	15.73
293.169	14.53
293.637	19.83
294.104	22.33
294.571	12.43
295.039	16.63
295.506	19.33
295.973	20.83
296.44	11.83
296.908	16.33
297.375	19.13
297.842	18.53
298.309	14.43
298.776	12.43
299.243	19.03
299.71	15.03
300.177	23.63
300.644	19.53
301.111	24.13
301.578	21.93
302.045	19.23
302.512	27.33
302.979	24.23
303.446	23.93
303.913	19.53
304.379	22.93
304.846	27.43
305.313	29.03
305.78	26.03
306.246	25.33
306.713	26.63
307.18	28.63
307.646	22.23
308.113	29.23
308.579	19.33
309.046	24.23
309.512	25.93
309.979	14.53
310.445	30.63
310.912	28.63
311.378	29.93
311.845	29.53
312.311	33.33
312.777	32.53
313.244	34.33
313.71	39.13
314.176	26.03
314.642	33.93
315.109	32.03
315.575	36.63
316.041	43.33
316.507	38.33
316.973	39.23
317.439	37.43
317.905	37.53
318.371	43.33
318.837	35.73
319.303	36.43
319.769	33.23
320.235	37.23
320.701	31.43
321.167	40.43
321.633	42.53
322.099	41.43
322.564	48.13
323.03	42.83
323.496	34.23
323.962	42.13
324.427	39.03
324.893	43.53
325.359	38.73
325.824	38.23
326.29	34.53
326.755	43.73
327.221	44.53
327.686	46.03
328.152	53.83
328.617	41.33
329.083	50.63
329.548	48.03
330.014	46.73
330.479	41.53
330.944	45.83
331.41	43.73
331.875	50.23
332.34	42.53
332.805	43.83
333.271	50.23
333.736	50.33
334.201	54.13
334.666	54.43
335.131	49.23
335.596	48.43
336.061	56.33
336.526	48.33
336.991	48.73
337.456	57.33
337.921	52.23
338.386	43.93
338.851	43.93
339.316	47.93
339.781	45.33
340.246	48.33
340.711	52.93
341.175	52.03
341.64	44.73
342.105	50.83
342.569	59.83
343.034	58.93
343.499	53.53
343.963	56.43
344.428	62.63
344.893	59.53
345.357	56.03
345.822	68.13
346.286	76.23
346.751	72.33
347.215	68.13
347.679	81.23
348.144	96.93
348.608	87.93
349.073	71.13
349.537	75.83
350.001	79.73
350.465	93.93
350.93	76.03
351.394	81.63
351.858	76.63
352.322	86.23
352.786	90.23
353.25	100.83
353.715	120.93
354.179	103.93
354.643	121.83
355.107	129.13
355.571	109.23
356.035	105.23
356.498	125.03
356.962	126.53
357.426	136.53
357.89	118.83
358.354	87.63
358.818	79.53
359.281	72.83
359.745	77.63
360.209	76.03
360.673	75.13
361.136	86.43
361.6	88.03
362.064	79.53
362.527	85.93
362.991	100.73
363.454	81.03
363.918	75.23
364.381	87.13
364.845	81.73
365.308	90.23
365.772	87.03
366.235	87.03
366.698	87.73
367.162	82.63
367.625	87.43
368.088	90.23
368.552	91.73
369.015	88.53
369.478	103.13
369.941	103.43
370.404	94.73
370.867	99.63
371.331	108.83
371.794	125.93
372.257	105.13
372.72	120.43
373.183	109.23
373.646	104.43
374.109	104.63
374.572	111.63
375.035	110.33
375.497	106.73
375.96	112.53
376.423	104.03
376.886	115.43
377.349	116.83
377.811	104.33
378.274	115.13
378.737	114.33
379.199	108.43
379.662	111.53
380.125	118.03
380.587	117.63
381.05	117.43
381.512	131.03
381.975	136.33
382.437	136.43
382.9	120.23
383.362	134.53
383.825	140.83
384.287	157.13
384.75	141.43
385.212	139.83
385.674	141.03
386.136	138.43
386.599	129.03
387.061	129.73
387.523	131.73
387.985	141.13
388.447	151.03
388.91	144.73
389.372	156.13
389.834	154.93
390.296	142.93
390.758	154.53
391.22	169.23
391.682	213.63
392.144	307.33
392.606	234.83
393.068	174.53
393.529	164.53
393.991	157.83
394.453	144.13
394.915	162.03
395.377	198.53
395.838	216.03
396.3	165.43
396.762	150.03
397.224	135.03
397.685	135.63
398.147	136.63
398.608	134.03
399.07	127.23
399.531	127.83
399.993	141.93
400.454	148.93
400.916	149.93
401.377	143.03
401.839	156.03
402.3	160.43
402.762	161.53
403.223	184.43
403.684	184.33
404.145	168.93
404.607	167.03
405.068	172.73
405.529	173.23
405.99	197.43
406.451	181.73
406.913	175.43
407.374	167.73
407.835	161.23
408.296	170.63
408.757	179.23
409.218	191.43
409.679	185.43
410.14	183.13
410.601	179.43
411.062	182.83
411.522	196.23
411.983	201.43
412.444	182.63
412.905	178.63
413.366	183.43
413.826	196.63
414.287	214.43
414.748	264.93
415.208	245.73
415.669	212.63
416.13	209.83
416.59	200.43
417.051	217.23
417.511	221.63
417.972	236.93
418.432	244.93
418.893	295.03
419.353	252.33
419.814	197.63
420.274	184.03
420.734	187.63
421.195	204.43
421.655	202.33
422.115	194.53
422.576	195.63
423.036	199.43
423.496	217.23
423.956	216.13
424.416	229.83
424.876	271.73
425.336	270.93
425.797	271.03
426.257	259.33
426.717	248.03
427.177	232.93
427.637	228.63
428.097	236.73
428.556	256.13
429.016	270.23
429.476	271.23
429.936	280.43
430.396	283.43
430.856	296.73
431.315	324.83
431.775	357.63
432.235	395.43
432.694	359.43
433.154	368.63
433.614	403.93
434.073	347.53
434.533	288.23
434.993	269.83
435.452	289.23
435.912	299.03
436.371	303.93
436.83	293.93
437.29	274.73
437.749	253.93
438.209	245.63
438.668	280.93
439.127	294.73
439.587	270.13
440.046	259.53
440.505	267.53
440.964	295.13
441.424	333.53
441.883	314.03
442.342	267.43
442.801	222.63
443.26	231.63
443.719	230.23
444.178	222.73
444.637	215.03
445.096	227.73
445.555	228.73
446.014	228.23
446.473	233.53
446.932	239.63
447.391	230.73
447.849	232.83
448.308	219.63
448.767	221.33
449.226	238.23
449.685	230.43
450.143	256.53
450.602	244.33
451.061	238.63
451.519	233.23
451.978	242.93
452.436	239.13
452.895	238.53
453.353	256.53
453.812	245.83
454.27	245.03
454.729	242.33
455.187	246.63
455.646	249.83
456.104	256.33
456.562	267.83
457.021	267.53
457.479	270.93
457.937	280.53
458.395	265.53
458.854	260.83
459.312	266.73
459.77	278.93
460.228	257.63
460.686	245.83
461.144	252.73
461.602	238.43
462.06	250.63
462.518	264.93
462.976	261.63
463.434	265.83
463.892	274.23
464.35	282.73
464.808	295.63
465.266	276.23
465.724	273.03
466.181	278.83
466.639	271.33
467.097	292.63
467.555	308.83
468.012	311.63
468.47	314.83
468.928	335.93
469.385	344.63
469.843	360.23
470.3	360.43
470.758	367.73
471.215	401.13
471.673	427.13
472.13	416.83
472.588	427.53
473.045	377.43
473.503	381.83
473.96	400.13
474.417	402.73
474.875	446.93
475.332	487.23
475.789	468.93
476.246	481.03
476.704	494.73
477.161	517.33
477.618	539.13
478.075	573.53
478.532	623.93
478.989	701.53
479.446	830.53
479.903	796.73
480.36	830.83
480.817	888.63
481.274	994.53
481.731	1094.93
482.188	1206.03
482.645	1329.03
483.102	1441.33
483.558	1580.43
484.015	1644.13
484.472	1618.23
484.929	1575.03
485.385	1496.03
485.842	1466.63
486.299	1380.73
486.755	1319.93
487.212	1119.33
487.668	951.83
488.125	869.73
488.582	798.03
489.038	766.73
489.494	728.13
489.951	701.33
490.407	683.83
490.864	668.83
491.32	664.63
491.776	665.83
492.233	659.33
492.689	630.43
493.145	616.23
493.602	608.63
494.058	629.23
494.514	637.43
494.97	661.33
495.426	658.73
495.882	642.03
496.338	625.33
496.794	644.23
497.251	643.43
497.707	639.03
498.163	655.03
498.618	646.53
499.074	667.23
499.53	687.53
499.986	699.63
500.442	670.63
500.898	644.03
501.354	645.83
501.809	646.63
502.265	659.83
502.721	680.03
503.177	688.13
503.632	685.93
504.088	689.53
504.543	716.53
504.999	728.23
505.455	672.83
505.91	632.33
506.366	648.53
506.821	643.53
507.277	652.03
507.732	640.73
508.187	639.83
508.643	648.23
509.098	648.43
509.553	669.63
510.009	675.43
510.464	680.03
510.919	698.73
511.375	701.93
511.83	724.93
512.285	739.53
512.74	787.63
513.195	809.63
513.65	794.53
514.105	787.93
514.56	790.73
515.015	807.03
515.47	827.23
515.925	802.13
516.38	804.23
516.835	813.53
517.29	804.13
517.745	798.13
518.2	777.23
518.655	768.03
519.109	756.93
519.564	761.73
520.019	750.93
520.474	748.43
520.928	736.93
521.383	729.33
521.838	728.93
522.292	737.53
522.747	736.23
523.201	715.43
523.656	706.93
524.11	706.23
524.565	713.63
525.019	705.03
525.474	710.33
525.928	713.73
526.382	714.03
526.837	708.33
527.291	710.93
527.745	716.03
528.2	708.23
528.654	702.03
529.108	709.93
529.562	708.63
530.016	703.53
530.47	709.93
530.925	712.53
531.379	707.73
531.833	725.13
532.287	712.63
532.741	719.33
533.195	708.83
533.649	733.93
534.103	737.93
534.556	721.43
535.01	721.83
535.464	724.53
535.918	740.63
536.372	735.53
536.826	729.33
537.279	715.03
537.733	722.43
538.187	730.73
538.64	736.63
539.094	742.43
539.548	740.13
540.001	744.03
540.455	734.73
540.908	751.23
541.362	745.03
541.815	769.13
542.269	774.63
542.722	777.83
543.175	790.53
543.629	790.43
544.082	803.83
544.536	806.93
544.989	788.33
545.442	803.43
545.895	801.43
546.349	798.53
546.802	814.33
547.255	812.53
547.708	822.03
548.161	834.53
548.614	843.33
549.067	846.33
549.52	834.13
549.973	824.03
550.426	826.73
550.879	809.33
551.332	804.53
551.785	823.23
552.238	824.13
552.691	841.23
553.144	842.23
553.596	866.73
554.049	879.23
554.502	914.73
554.955	919.93
555.407	927.53
555.86	923.63
556.313	912.23
556.765	901.83
557.218	904.73
557.67	902.03
558.123	888.93
558.576	879.63
559.028	905.43
559.48	901.93
559.933	881.13
560.385	855.13
560.838	816.43
561.29	807.43
561.742	802.33
562.195	773.23
562.647	785.33
563.099	790.63
563.551	789.03
564.004	795.43
564.456	786.23
564.908	777.93
565.36	758.13
565.812	745.53
566.264	739.33
566.716	734.23
567.168	735.23
567.62	735.63
568.072	714.13
568.524	712.93
568.976	706.13
569.428	690.73
569.88	697.93
570.332	694.33
570.784	686.83
571.235	694.33
571.687	700.43
572.139	715.03
572.59	726.43
573.042	722.93
573.494	735.53
573.945	718.33
574.397	699.93
574.849	702.13
575.3	708.03
575.752	698.63
576.203	692.83
576.655	693.73
577.106	680.93
577.557	680.23
578.009	675.73
578.46	680.83
578.912	682.23
579.363	677.03
579.814	682.93
580.265	679.03
580.717	686.83
581.168	683.43
581.619	690.83
582.07	692.43
582.521	683.13
582.972	679.83
583.423	684.23
583.875	699.43
584.326	718.43
584.777	761.73
585.227	836.03
585.678	931.83
586.129	1019.43
586.58	1095.53
587.031	1183.93
587.482	1331.03
587.933	1525.93
588.384	1322.13
588.834	987.43
589.285	820.13
589.736	795.43
590.186	780.73
590.637	775.43
591.088	756.53
591.538	747.43
591.989	736.53
592.439	743.93
592.89	734.03
593.34	723.83
593.791	717.53
594.241	720.13
594.692	722.23
595.142	713.63
595.593	708.53
596.043	719.73
596.493	720.83
596.943	721.83
597.394	733.53
597.844	720.03
598.294	731.63
598.744	760.73
599.195	786.03
599.645	830.33
600.095	877.53
600.545	928.53
600.995	973.33
601.445	1033.53
601.895	1099.13
602.345	1152.13
602.795	1140.63
603.245	1083.33
603.695	1022.23
604.145	964.33
604.594	926.43
605.044	877.73
605.494	818.43
605.944	768.73
606.393	752.83
606.843	739.83
607.293	742.23
607.743	744.83
608.192	757.73
608.642	763.03
609.091	786.33
609.541	781.83
609.99	775.43
610.44	779.13
610.889	727.63
611.339	701.93
611.788	697.03
612.238	706.43
612.687	733.53
613.136	728.73
613.586	738.83
614.035	745.53
614.484	766.53
614.933	767.23
615.383	759.13
615.832	752.33
616.281	734.93
616.73	692.33
617.179	675.03
617.628	663.53
618.077	643.83
618.526	633.13
618.975	631.13
619.424	629.13
619.873	617.13
620.322	617.93
620.771	606.83
621.22	609.93
621.669	609.43
622.118	593.73
622.567	584.63
623.015	577.13
623.464	576.73
623.913	568.53
624.361	566.33
624.81	566.53
625.259	573.53
625.707	561.13
626.156	566.83
626.604	581.23
627.053	569.63
627.501	564.83
627.95	568.13
628.398	578.53
628.847	576.23
629.295	573.43
629.744	589.93
630.192	575.73
630.64	571.63
631.089	578.93
631.537	585.23
631.985	594.83
632.433	610.83
632.881	614.43
633.33	663.43
633.778	647.83
634.226	574.73
634.674	574.73
635.122	594.43
635.57	606.93
636.018	625.23
636.466	585.13
636.914	566.73
637.362	576.53
637.81	583.13
638.258	576.13
638.705	584.93
639.153	606.63
639.601	625.53
640.049	648.23
640.497	667.63
640.944	688.93
641.392	642.53
641.84	619.23
642.287	577.83
642.735	574.43
643.182	562.93
643.63	571.93
644.078	583.73
644.525	597.43
644.973	600.53
645.42	614.43
645.867	637.63
646.315	652.13
646.762	673.93
647.21	705.23
647.657	720.53
648.104	760.83
648.551	779.23
648.999	847.13
649.446	925.03
649.893	1012.13
650.34	1178.73
650.787	1405.83
651.234	1748.63
651.682	2274.53
652.129	3130.53
652.576	4554.83
653.023	6691.13
653.47	9152.23
653.917	11432.83
654.363	13184.63
654.81	14620.73
655.257	13883.63
655.704	9128.63
656.151	5387.23
656.598	3489.13
657.044	2457.13
657.491	1902.33
657.938	1514.13
658.385	1265.03
658.831	1092.73
659.278	971.53
659.724	871.83
660.171	791.13
660.618	736.93
661.064	697.63
661.511	692.03
661.957	663.13
662.404	651.23
662.85	659.13
663.296	631.83
663.743	563.23
664.189	541.13
664.635	527.83
665.082	532.53
665.528	532.33
665.974	519.73
666.42	508.73
666.867	514.93
667.313	493.43
667.759	479.33
668.205	485.53
668.651	490.53
669.097	490.73
669.543	503.93
669.989	467.53
670.435	453.23
670.881	452.93
671.327	446.43
671.773	469.43
672.219	486.43
672.665	551.73
673.11	578.93
673.556	621.73
674.002	677.03
674.448	651.63
674.893	544.63
675.339	482.23
675.785	442.53
676.23	420.13
676.676	396.83
677.122	382.53
677.567	373.23
678.013	370.23
678.458	364.93
678.904	359.03
679.349	350.93
679.794	361.83
680.24	355.23
680.685	348.83
681.131	353.23
681.576	347.23
682.021	353.63
682.466	359.23
682.912	352.23
683.357	353.33
683.802	380.43
684.247	410.23
684.692	460.03
685.137	496.93
685.583	534.33
686.028	573.23
686.473	522.73
686.918	444.73
687.363	417.93
687.807	399.83
688.252	360.73
688.697	359.83
689.142	342.63
689.587	336.83
690.032	326.63
690.477	348.63
690.921	356.63
691.366	382.73
691.811	410.33
692.255	432.83
692.7	456.03
693.145	501.83
693.589	704.73
694.034	1127.23
694.478	1539.83
694.923	1731.43
695.367	2273.93
695.812	1205.73
696.256	508.23
696.701	368.83
697.145	348.23
697.59	332.33
698.034	326.73
698.478	329.03
698.922	330.73
699.367	335.83
699.811	345.43
700.255	361.23
700.699	384.93
701.143	429.13
701.588	477.83
702.032	514.13
702.476	515.43
702.92	485.63
703.364	488.83
703.808	640.73
704.252	1039.33
704.696	1444.93
705.14	1677.23
705.584	2123.73
706.027	1049.83
706.471	516.13
706.915	387.23
707.359	350.63
707.803	314.03
708.246	305.03
708.69	307.03
709.134	313.83
709.577	314.63
710.021	320.73
710.465	309.23
710.908	300.43
711.352	302.53
711.795	311.43
712.239	355.03
712.682	382.43
713.126	420.93
713.569	467.83
714.012	375.73
714.456	319.43
714.899	298.83
715.342	269.93
715.786	271.13
716.229	258.33
716.672	255.93
717.115	252.13
717.558	254.13
718.002	258.33
718.445	261.73
718.888	288.43
719.331	299.33
719.774	307.23
720.217	309.43
720.66	280.33
721.103	271.63
721.546	260.23
721.989	246.83
722.432	225.43
722.874	238.23
723.317	237.53
723.76	236.13
724.203	255.13
724.645	314.43
725.088	446.83
725.531	563.73
725.974	636.83
726.416	552.83
726.859	310.13
727.301	247.13
727.744	237.13
728.187	231.73
728.629	235.33
729.071	244.43
729.514	257.23
729.956	269.23
730.399	283.73
730.841	288.73
731.283	280.53
731.726	262.03
732.168	255.53
732.61	265.53
733.053	287.13
733.495	317.93
733.937	355.73
734.379	401.73
734.821	432.63
735.263	541.63
735.705	827.13
736.148	1549.73
736.59	2562.03
737.032	3049.23
737.474	2478.93
737.916	804.83
738.357	424.43
738.799	329.43
739.241	300.03
739.683	286.33
740.125	293.33
740.567	301.43
741.008	311.53
741.45	309.63
741.892	315.23
742.334	340.33
742.775	358.83
743.217	340.73
743.658	266.03
744.1	257.93
744.542	261.33
744.983	299.23
745.425	336.23
745.866	339.33
746.307	273.13
746.749	281.23
747.19	324.33
747.632	457.33
748.073	873.93
748.514	1850.03
748.956	2843.73
749.397	3547.63
749.838	2946.73
750.279	2936.83
750.72	1495.03
751.162	539.13
751.603	323.03
752.044	250.13
752.485	214.93
752.926	208.93
753.367	201.03
753.808	194.53
754.249	188.73
754.69	176.23
755.131	185.03
755.572	177.13
756.013	180.63
756.453	188.43
756.894	192.83
757.335	191.43
757.776	196.53
758.216	195.63
758.657	199.63
759.098	198.93
759.538	229.83
759.979	269.33
760.42	366.53
760.86	693.43
761.301	1795.23
761.741	4386.43
762.182	6392.83
762.622	4497.33
763.063	1295.03
763.503	538.63
763.943	346.73
764.384	346.13
764.824	406.93
765.264	440.13
765.705	303.73
766.145	202.23
766.585	192.03
767.025	180.73
767.465	188.13
767.906	241.43
768.346	315.63
768.786	343.33
769.226	267.63
769.666	313.43
770.106	610.03
770.546	1516.73
770.986	2627.13
771.426	2359.43
771.866	781.83
772.306	330.43
772.745	213.83
773.185	175.03
773.625	173.43
774.065	164.23
774.505	204.43
774.944	307.73
775.384	683.83
775.824	1231.33
776.263	1210.93
776.703	517.73
777.142	227.53
777.582	161.93
778.021	138.13
778.461	133.73
778.9	140.53
779.34	137.93
779.779	126.03
780.219	112.83
780.658	111.43
781.097	111.03
781.537	116.63
781.976	106.53
782.415	106.03
782.855	99.73
783.294	106.43
783.733	102.33
784.172	112.63
784.611	102.03
785.05	112.33
785.489	110.23
785.928	116.23
786.367	128.93
786.806	119.33
787.245	126.73
787.684	133.53
788.123	146.23
788.562	135.83
789.001	131.53
789.44	128.23
789.879	117.93
790.317	115.63
790.756	124.53
791.195	128.93
791.634	145.23
792.072	203.93
792.511	360.03
792.95	1003.33
793.388	2132.53
793.827	1924.93
794.265	675.63
794.704	277.13
795.142	184.23
795.581	149.23
796.019	135.23
796.458	131.43
796.896	119.23
797.334	134.33
797.773	150.93
798.211	216.03
798.649	435.83
799.087	1010.43
799.526	1571.73
799.964	1986.93
800.402	1996.73
800.84	748.93
801.278	305.33
801.716	181.93
802.154	156.43
802.592	140.43
803.03	136.03
803.468	132.23
803.906	148.53
804.344	152.83
804.782	135.83
805.22	136.23
805.658	126.63
806.096	145.93
806.533	159.23
806.971	169.83
807.409	208.63
807.847	311.33
808.284	653.93
808.722	1842.73
809.16	3269.83
809.597	3073.53
810.035	5364.63
810.472	5744.23
810.91	2069.73
811.347	785.43
811.785	400.03
812.222	250.73
812.66	193.53
813.097	168.33
813.535	143.13
813.972	130.13
814.409	120.03
814.846	108.73
815.284	102.23
815.721	100.73
816.158	104.13
816.595	120.43
817.032	180.23
817.47	195.03
817.907	173.63
818.344	159.33
818.781	116.13
819.218	104.73
819.655	126.73
820.092	190.03
820.529	201.33
820.966	175.63
821.403	136.03
821.839	110.73
822.276	106.93
822.713	125.63
823.15	140.33
823.587	116.73
824.023	151.93
824.46	294.73
824.897	888.93
825.333	1343.13
825.77	567.43
826.206	228.73
826.643	139.73
827.08	104.83
827.516	81.03
827.953	84.63
828.389	85.13
828.825	72.03
829.262	67.53
829.698	60.83
830.135	59.93
830.571	62.13
831.007	58.73
831.443	63.93
831.88	59.43
832.316	63.73
832.752	65.33
833.188	63.83
833.624	62.93
834.06	69.23
834.497	67.63
834.933	68.43
835.369	74.63
835.805	72.03
836.241	73.13
836.677	80.93
837.112	88.03
837.548	106.53
837.984	138.83
838.42	200.33
838.856	490.73
839.292	1500.63
839.727	2287.93
840.163	1054.03
840.599	907.53
841.034	1998.53
841.47	2103.33
841.906	767.73
842.341	335.43
842.777	231.83
843.212	322.43
843.648	310.83
844.083	154.93
844.519	93.13
844.954	77.43
845.39	66.23
845.825	61.63
846.261	62.33
846.696	61.23
847.131	51.73
847.566	57.13
848.002	60.43
848.437	57.63
848.872	63.93
849.307	56.43
849.742	82.83
850.177	176.83
850.613	543.53
851.048	865.73
851.483	380.03
851.918	147.73
852.353	85.63
852.788	64.13
853.223	59.83
853.657	53.53
854.092	47.33
854.527	44.13
854.962	50.43
855.397	43.73
855.832	49.93
856.266	42.13
856.701	37.53
857.136	41.63
857.57	42.13
858.005	47.93
858.44	58.53
858.874	43.13
859.309	57.33
859.743	42.93
860.178	48.33
860.612	47.33
861.047	50.53
861.481	61.63
861.915	70.73
862.35	50.93
862.784	33.33
863.218	35.53
863.653	33.33
864.087	43.63
864.521	54.33
864.955	70.23
865.39	148.03
865.824	171.13
866.258	112.53
866.692	158.73
867.126	169.63
867.56	104.63
867.994	47.23
868.428	38.63
868.862	46.13
869.296	60.03
869.73	61.83
870.164	48.93
870.598	41.73
871.031	35.73
871.465	29.83
871.899	33.13
872.333	26.63
872.766	26.93
873.2	21.43
873.634	27.03
874.067	20.33
874.501	25.53
874.935	35.43
875.368	29.23
875.802	21.03
876.235	24.93
876.669	29.93
877.102	24.23
877.535	31.53
877.969	26.43
878.402	25.63
878.836	18.23
879.269	20.13
879.702	31.43
880.135	21.03
880.569	21.53
881.002	32.13
881.435	23.73
881.868	15.23
882.301	20.83
882.734	17.53
883.167	23.53
883.601	21.13
884.034	16.63
884.467	16.73
884.899	20.23
885.332	19.73
885.765	13.33
886.198	23.93
886.631	21.03
887.064	21.53
887.497	22.03
887.929	22.13
888.362	16.13
888.795	15.93
889.228	17.73
889.66	19.43
890.093	14.43
890.526	16.43
890.958	17.73
891.391	15.43
891.823	21.63
892.256	22.23
892.688	12.33
893.121	11.93
893.553	14.73
893.985	22.73
894.418	17.33
894.85	12.03
895.282	12.73
895.715	20.83
896.147	11.73
896.579	8.83
897.011	16.13
897.444	16.63
897.876	15.63
898.308	13.63
898.74	11.93
899.172	15.83
899.604	24.03
900.036	23.63
900.468	16.93
900.9	20.13
901.332	21.43
901.764	6.63
902.196	17.93
902.628	15.63
903.06	11.33
903.491	25.83
903.923	19.73
904.355	17.43
904.787	28.83
905.218	26.53
905.65	21.73
906.082	10.93
906.513	17.53
906.945	15.03
907.376	14.23
907.808	18.53
908.239	21.93
908.671	22.23
909.102	26.13
909.534	26.03
909.965	45.03
910.397	90.43
910.828	311.73
911.259	466.13
911.691	214.13
912.122	103.33
912.553	59.53
912.984	32.03
913.415	24.73
913.847	25.23
914.278	16.23
914.709	12.43
915.14	22.43
915.571	17.73
916.002	16.63
916.433	19.23
916.864	18.23
917.295	14.93
917.726	20.53
918.157	17.63
918.587	28.73
919.018	22.13
919.449	19.93
919.88	22.73
920.311	31.73
920.741	47.73
921.172	167.53
921.603	145.63
922.033	70.73
922.464	50.83
922.895	18.43
923.325	22.73
923.756	15.43
924.186	21.63
924.617	28.43
925.047	50.43
925.478	53.83
925.908	43.73
926.338	32.03
926.769	20.53
927.199	21.13
927.629	8.53
928.06	20.43
928.49	13.53
928.92	13.83
929.35	16.23
929.78	9.83
930.21	12.83
930.641	7.73
931.071	13.03
931.501	5.23
931.931	9.03
932.361	10.03
932.791	10.53
933.221	6.93
933.651	4.23
934.08	23.03
934.51	35.33
934.94	11.83
935.37	13.63
935.8	16.43
936.229	4.93
936.659	9.13
937.089	7.43
937.519	14.63
937.948	22.83
938.378	17.23
938.807	7.63
939.237	4.73
939.666	8.23
940.096	-3.57
940.525	2.33
940.955	1.43
941.384	0.43
941.814	-3.87
942.243	-1.77
942.672	-0.97
943.102	-1.57
943.531	-0.57
943.96	2.93
944.39	4.73
944.819	-2.37
945.248	3.83
945.677	2.53
946.106	6.13
946.535	5.23
946.964	0.73
947.393	6.93
947.822	6.63
948.251	-1.47
948.68	3.43
949.109	0.73
949.538	3.93
949.967	-0.37
950.396	3.13
950.825	-3.27
951.254	2.33
951.682	-5.97
952.111	5.63
952.54	5.03
952.969	-0.67
953.397	-7.27
953.826	5.23
954.254	-5.17
954.683	-2.97
955.112	-1.17
955.54	-0.17
955.969	-1.47
956.397	5.23
956.826	1.83
957.254	9.13
957.682	2.03
958.111	3.13
958.539	-3.77
958.967	1.63
959.396	-4.47
959.824	-3.27
960.252	2.33
960.68	-5.57
961.109	-4.97
961.537	-2.37
961.965	-3.37
962.393	0.13
962.821	-4.37
963.249	-0.17
963.677	4.43
964.105	4.73
964.533	43.83
964.961	37.83
965.389	22.13
965.817	8.63
966.245	0.03
966.672	-3.17
967.1	-0.47
967.528	-1.17
967.956	0.03
968.383	2.33
968.811	-1.67
969.239	0.13
969.666	-6.17
970.094	-1.47
970.522	1.23
970.949	-2.27
971.377	-3.97
971.804	1.33
972.232	-1.67
972.659	-3.57
973.087	-7.57
973.514	-3.47
973.941	-5.57
974.369	5.63
974.796	0.83
975.223	-4.47
975.651	0.23
976.078	3.23
976.505	1.33
976.932	-0.17
977.359	17.53
977.786	16.93
978.214	1.93
978.641	-1.07
979.068	-4.57
979.495	-3.07
979.922	-6.27
980.349	-5.17
980.776	7.13
981.202	-4.07
981.629	7.83
982.056	4.53
982.483	2.33
982.91	1.93
983.337	-3.57
983.763	-0.57
984.19	-5.87
984.617	-6.97
985.043	-7.17
985.47	-4.07
985.897	-0.67
986.323	-8.47
986.75	0.53
987.176	1.83
987.603	-2.77
988.029	2.13
988.456	-4.37
988.882	1.93
989.308	-1.27
989.735	-1.37
990.161	-4.67
990.587	-10.07
991.014	3.03
991.44	10.53
991.866	1.53
992.292	-8.57
992.719	-4.57
993.145	-0.17
993.571	-10.07
993.997	3.23
994.423	-1.07
994.849	-5.97
995.275	0.33
995.701	0.53
996.127	-3.17
996.553	-2.07
996.979	-4.27
997.405	-6.67
997.83	-4.57
998.256	-5.87
998.682	-4.07
999.108	-8.17
999.534	-5.17
999.959	-5.97
1000.385	-4.47
1000.811	1.73
1001.236	-5.07
1001.662	-6.77
1002.087	-8.47
1002.513	6.93
1002.938	0.63
1003.364	-5.07
1003.789	-4.67
1004.215	1.73
1004.64	-1.37
1005.066	-2.87
1005.491	-2.77
1005.916	-7.17
1006.342	0.63
1006.767	-5.57
1007.192	8.13
1007.617	-7.47
1008.042	-3.67
1008.468	-3.27
1008.893	-10.37
1009.318	-2.77
1009.743	-3.37
1010.168	1.03
1010.593	0.23
1011.018	-5.17
1011.443	-1.37
1011.868	0.43
1012.293	-3.87
1012.718	-3.97
1013.143	-1.87
1013.567	4.53
1013.992	-8.57
1014.417	-14.47
1014.842	1.13
1015.267	-3.87
1015.691	-6.07
1016.116	2.33
1016.541	-1.97
1016.965	1.53
1017.39	4.23
1017.814	-2.27
1018.239	-1.57
1018.663	-6.57
1019.088	-9.57
1019.512	-1.87
1019.937	1.23
1020.361	2.43
1020.785	-6.57
1021.21	-4.17
1021.634	-4.17
1022.058	5.33
1022.483	3.63
1022.907	-7.57
1023.331	0.33
1023.755	-2.87
1024.179	1.13
1024.604	-5.47
1025.028	-3.27
1025.452	-2.07
1025.876	-3.17
1026.3	2.33
1026.724	-8.67
1027.148	-2.37
1027.572	-7.27
1027.996	-5.57
1028.42	-1.37
1028.843	-11.17
1029.267	-7.27
1029.691	-3.47
1030.115	-7.47
1030.539	-6.97
1030.962	-7.37
1031.386	-12.37
1031.81	-2.27
1032.233	-1.97
1032.657	-5.57
1033.08	4.13
1033.504	-1.77
1033.927	-10.97
1034.351	0.73
1034.774	-10.67
1035.198	0.03
1035.621	-3.87
1036.045	-8.37
1036.468	-0.77
1036.891	-10.27
1037.315	-9.17
1037.738	-4.17
1038.161	-3.27
1038.584	-8.97
1039.008	-7.37
1039.431	-1.47
1039.854	-2.57
1040.277	-6.17
1040.7	-11.37
1041.123	3.13
1041.546	-7.87
1041.969	-2.97
1042.392	-4.47
1042.815	-7.17
1043.238	-1.57
1043.661	-5.47
1044.084	-8.17
1044.507	-6.87
1044.93	-0.37
1045.352	-7.27
1045.775	0.43
1046.198	3.03
1046.621	-5.07
1047.043	-1.37
1047.466	7.03
1047.889	-6.17
1048.311	-5.07
1048.734	0.83
1049.156	-0.17
1049.579	4.93
1050.001	-3.77
1050.424	-4.57
1050.846	-4.87
1051.269	1.33
1051.691	-3.47
1052.113	-9.57
1052.536	-0.87
1052.958	-1.67
1053.38	-1.47
1053.802	-4.07
1054.225	1.63
1054.647	-9.27
1055.069	-4.67
1055.491	-1.87
1055.913	-9.77
1056.335	0.43
1056.757	-8.37
1057.179	-6.17
1057.601	-5.97
1058.023	0.93
1058.445	-2.77
1058.867	-0.77
1059.289	-2.17
1059.711	-3.07
1060.133	-4.27
1060.555	-2.27
1060.976	-5.27
1061.398	-11.67
1061.82	-8.27
1062.241	-3.27
1062.663	-10.27
1063.085	-8.37
1063.506	-3.77
1063.928	-4.87
1064.35	0.33
1064.771	-18.47
1065.193	-5.87
1065.614	-5.87
1066.035	-3.17
1066.457	-5.97
1066.878	-0.77
1067.3	-3.07
1067.721	-2.57
1068.142	-7.57
1068.564	-9.07
1068.985	-8.07
1069.406	-6.07
1069.827	-1.37
1070.248	2.53
1070.67	-4.77
1071.091	-3.57
1071.512	-0.97
1071.933	-4.97
1072.354	-5.87
1072.775	-2.27
1073.196	-6.37
1073.617	-6.47
1074.038	-7.17
1074.459	-2.07
1074.88	-6.77
1075.3	0.53
1075.721	-9.77
1076.142	-0.67
1076.563	-2.67
1076.983	-12.27
1077.404	-4.37
1077.825	-7.77
1078.246	-2.87
1078.666	-7.87
1079.087	-3.77
1079.507	-1.37
1079.928	4.63
1080.348	2.13
1080.769	-6.47
1081.189	1.43
1081.61	-6.47
1082.03	-3.47
1082.451	-10.47
1082.871	-4.37
1083.291	-10.17
1083.711	-10.27
1084.132	-6.67
1084.552	-1.77
1084.972	-2.97
1085.392	-10.07
1085.813	-7.27
1086.233	-7.97
1086.653	-1.27
1087.073	-4.97
1087.493	-4.77
1087.913	-6.57
1088.333	-7.17
1088.753	-4.77
1089.173	-3.57
1089.593	-3.97
1090.013	0.33
1090.433	5.33
1090.852	-5.27
1091.272	-2.87
1091.692	-3.87
1092.112	-4.77
1092.531	-7.47
1092.951	-16.47
1093.371	-6.17
1093.79	-4.27
1094.21	-2.97
1094.63	-4.57
1095.049	-4.57
1095.469	-0.87
1095.888	-2.97
1096.308	3.53
1096.727	0.93
1097.146	-4.07
1097.566	-7.97
1097.985	-5.97
1098.405	-2.07
1098.824	-7.27
1099.243	-7.57
1099.662	-10.67
1100.082	-5.37
1100.501	0.43
1100.92	-10.87
1101.339	-5.07
1101.758	-2.27
