Data from 20171114-ORNL-Ar_H_NY_Subt18_08-05-49-615.txt Node
Date: Tue Nov 14 08:05:49 EST 2017
User: Ender
Spectrometer: HR+D1039
Trigger mode: 0
Integration Time (sec): 2.730000E-2
Scans to average: 10
Electric dark correction enabled: true
Nonlinearity correction enabled: false
Boxcar width: 0
XAxis mode: Wavelengths
Number of Pixels in Spectrum: 2048
>>>>>Begin Spectral Data<<<<<
187.836	3.71
188.309	3.71
188.782	3.71
189.255	2.31
189.728	3.51
190.201	1.41
190.674	-4.09
191.147	2.01
191.619	-6.99
192.092	5.81
192.565	4.11
193.038	-6.49
193.511	-0.89
193.984	1.01
194.456	-6.79
194.929	0.51
195.402	-2.69
195.874	3.61
196.347	-2.39
196.82	-6.69
197.292	-2.99
197.765	-6.69
198.237	-3.39
198.71	4.51
199.182	-3.69
199.655	3.11
200.127	7.61
200.6	-1.19
201.072	-5.19
201.544	-7.99
202.017	-0.19
202.489	4.11
202.961	-2.79
203.433	-0.79
203.906	-6.49
204.378	-11.29
204.85	-6.49
205.322	-7.89
205.794	-2.89
206.266	-6.29
206.739	-10.59
207.211	1.11
207.683	-6.09
208.155	-3.49
208.627	-3.79
209.099	-4.19
209.57	-6.89
210.042	-6.69
210.514	-0.49
210.986	-1.49
211.458	-2.79
211.93	-1.79
212.402	1.01
212.873	-9.39
213.345	-7.69
213.817	-5.09
214.288	-0.69
214.76	-14.39
215.232	0.11
215.703	-4.49
216.175	-1.49
216.646	-0.29
217.118	-4.19
217.589	-0.29
218.061	-2.09
218.532	-5.79
219.004	-6.29
219.475	-9.19
219.946	-5.19
220.418	-7.79
220.889	0.41
221.36	1.31
221.832	-0.59
222.303	-4.39
222.774	-0.29
223.245	-8.19
223.717	-6.99
224.188	-8.99
224.659	-6.29
225.13	-1.59
225.601	-5.89
226.072	-3.19
226.543	-1.89
227.014	0.51
227.485	1.41
227.956	-1.09
228.427	-0.59
228.898	5.91
229.369	1.51
229.839	-0.69
230.31	-4.99
230.781	4.41
231.252	-2.39
231.722	-9.19
232.193	-1.89
232.664	-1.89
233.135	2.41
233.605	1.31
234.076	-2.79
234.546	2.71
235.017	0.81
235.487	-2.29
235.958	-1.29
236.428	-6.89
236.899	2.61
237.369	4.01
237.84	-1.19
238.31	8.41
238.78	1.51
239.251	3.21
239.721	0.71
240.191	1.01
240.662	1.21
241.132	-0.09
241.602	-2.69
242.072	-0.99
242.542	8.91
243.013	1.61
243.483	4.81
243.953	2.61
244.423	1.01
244.893	-2.89
245.363	11.11
245.833	5.01
246.303	1.21
246.773	9.81
247.243	-1.69
247.712	4.71
248.182	6.61
248.652	3.71
249.122	-3.79
249.592	9.11
250.061	24.81
250.531	36.51
251.001	14.71
251.471	25.51
251.94	16.01
252.41	8.31
252.879	1.51
253.349	16.31
253.818	7.51
254.288	5.11
254.757	7.11
255.227	4.31
255.696	3.21
256.166	5.01
256.635	6.11
257.105	6.11
257.574	8.91
258.043	7.91
258.513	9.81
258.982	16.01
259.451	7.51
259.92	12.71
260.389	12.51
260.859	19.51
261.328	10.21
261.797	16.01
262.266	9.81
262.735	7.31
263.204	2.91
263.673	-2.09
264.142	2.31
264.611	-3.79
265.08	1.71
265.549	-0.29
266.018	6.61
266.487	-2.19
266.955	-1.79
267.424	3.71
267.893	11.51
268.362	2.61
268.83	3.31
269.299	12.61
269.768	4.91
270.236	13.71
270.705	0.01
271.174	1.41
271.642	10.71
272.111	16.31
272.579	14.01
273.048	24.31
273.516	25.61
273.985	32.41
274.453	24.51
274.922	23.91
275.39	6.71
275.858	6.51
276.327	14.01
276.795	22.71
277.263	15.81
277.731	32.61
278.2	55.51
278.668	59.81
279.136	54.21
279.604	17.81
280.072	21.21
280.54	15.61
281.008	13.81
281.477	16.11
281.945	12.11
282.413	16.41
282.881	18.21
283.348	13.81
283.816	16.81
284.284	20.41
284.752	19.81
285.22	11.91
285.688	18.61
286.156	23.61
286.623	48.31
287.091	56.11
287.559	27.31
288.026	15.41
288.494	16.41
288.962	11.51
289.429	6.41
289.897	16.01
290.364	14.71
290.832	15.21
291.3	11.81
291.767	22.31
292.234	26.21
292.702	15.31
293.169	16.31
293.637	26.81
294.104	20.01
294.571	15.51
295.039	16.71
295.506	12.61
295.973	17.31
296.44	15.91
296.908	17.81
297.375	23.91
297.842	18.31
298.309	21.41
298.776	17.21
299.243	24.21
299.71	13.91
300.177	22.21
300.644	24.31
301.111	23.41
301.578	26.11
302.045	20.21
302.512	28.31
302.979	23.11
303.446	20.41
303.913	17.21
304.379	20.11
304.846	29.41
305.313	33.11
305.78	27.81
306.246	24.11
306.713	25.91
307.18	21.81
307.646	32.21
308.113	26.71
308.579	26.01
309.046	29.61
309.512	26.81
309.979	18.61
310.445	27.01
310.912	32.01
311.378	32.21
311.845	34.41
312.311	36.21
312.777	31.81
313.244	29.81
313.71	38.41
314.176	34.11
314.642	31.11
315.109	29.01
315.575	33.51
316.041	40.91
316.507	42.11
316.973	37.91
317.439	36.31
317.905	40.01
318.371	37.31
318.837	32.71
319.303	35.81
319.769	32.91
320.235	35.01
320.701	32.41
321.167	44.11
321.633	37.41
322.099	44.31
322.564	50.01
323.03	40.11
323.496	42.11
323.962	44.41
324.427	37.51
324.893	40.91
325.359	41.21
325.824	40.01
326.29	37.91
326.755	38.81
327.221	42.71
327.686	38.61
328.152	53.11
328.617	47.21
329.083	43.41
329.548	55.81
330.014	59.51
330.479	46.41
330.944	45.71
331.41	45.71
331.875	46.51
332.34	46.51
332.805	44.41
333.271	42.11
333.736	42.51
334.201	52.01
334.666	55.21
335.131	53.51
335.596	47.11
336.061	50.81
336.526	49.11
336.991	52.81
337.456	55.01
337.921	49.01
338.386	46.41
338.851	43.91
339.316	44.81
339.781	47.81
340.246	49.61
340.711	49.71
341.175	54.61
341.64	48.01
342.105	56.01
342.569	51.11
343.034	63.91
343.499	64.71
343.963	54.61
344.428	65.61
344.893	59.41
345.357	57.61
345.822	59.61
346.286	72.11
346.751	73.91
347.215	71.71
347.679	75.01
348.144	100.51
348.608	85.01
349.073	75.51
349.537	75.71
350.001	81.41
350.465	92.11
350.93	80.21
351.394	85.91
351.858	81.21
352.322	89.51
352.786	81.71
353.25	95.71
353.715	112.81
354.179	104.11
354.643	125.51
355.107	129.61
355.571	108.21
356.035	104.11
356.498	123.61
356.962	128.51
357.426	129.81
357.89	125.51
358.354	91.41
358.818	84.41
359.281	76.11
359.745	80.01
360.209	79.41
360.673	77.11
361.136	81.31
361.6	80.61
362.064	80.31
362.527	89.21
362.991	93.31
363.454	82.51
363.918	80.71
364.381	82.81
364.845	83.21
365.308	86.01
365.772	87.41
366.235	95.11
366.698	83.11
367.162	87.61
367.625	92.61
368.088	91.91
368.552	89.61
369.015	91.71
369.478	96.91
369.941	103.61
370.404	97.31
370.867	110.21
371.331	114.41
371.794	116.91
372.257	114.41
372.72	121.41
373.183	109.51
373.646	104.61
374.109	110.01
374.572	113.01
375.035	109.11
375.497	111.31
375.96	105.61
376.423	102.21
376.886	112.71
377.349	111.71
377.811	102.31
378.274	105.51
378.737	107.01
379.199	111.21
379.662	116.01
380.125	120.51
380.587	121.91
381.05	123.71
381.512	130.01
381.975	138.61
382.437	126.71
382.9	130.61
383.362	134.71
383.825	140.01
384.287	143.31
384.75	142.61
385.212	144.31
385.674	143.01
386.136	132.91
386.599	127.11
387.061	138.01
387.523	131.51
387.985	132.81
388.447	142.51
388.91	145.61
389.372	158.71
389.834	150.41
390.296	146.61
390.758	159.01
391.22	168.51
391.682	213.21
392.144	299.71
392.606	231.81
393.068	166.71
393.529	163.71
393.991	156.91
394.453	144.21
394.915	156.51
395.377	192.51
395.838	221.21
396.3	159.81
396.762	139.71
397.224	130.51
397.685	131.01
398.147	132.41
398.608	128.41
399.07	130.01
399.531	135.61
399.993	141.51
400.454	150.71
400.916	146.61
401.377	149.51
401.839	152.91
402.3	157.71
402.762	167.31
403.223	177.91
403.684	167.61
404.145	165.31
404.607	166.51
405.068	165.61
405.529	174.11
405.99	196.11
406.451	184.61
406.913	178.51
407.374	170.41
407.835	160.41
408.296	157.11
408.757	177.01
409.218	181.61
409.679	182.01
410.14	175.91
410.601	180.71
411.062	181.11
411.522	185.51
411.983	187.61
412.444	180.41
412.905	180.71
413.366	178.51
413.826	197.61
414.287	216.21
414.748	264.21
415.208	247.31
415.669	214.41
416.13	205.71
416.59	207.81
417.051	214.61
417.511	215.61
417.972	239.91
418.432	245.11
418.893	285.11
419.353	252.51
419.814	203.91
420.274	184.11
420.734	187.31
421.195	200.51
421.655	201.81
422.115	192.21
422.576	187.21
423.036	199.41
423.496	206.51
423.956	217.71
424.416	233.11
424.876	272.51
425.336	266.21
425.797	270.11
426.257	261.31
426.717	245.91
427.177	237.81
427.637	228.21
428.097	242.01
428.556	244.51
429.016	275.31
429.476	268.21
429.936	279.81
430.396	285.11
430.856	299.41
431.315	319.21
431.775	349.51
432.235	379.91
432.694	355.71
433.154	362.21
433.614	390.41
434.073	347.91
434.533	288.81
434.993	280.11
435.452	288.61
435.912	305.41
436.371	293.81
436.83	283.61
437.29	272.21
437.749	247.01
438.209	249.31
438.668	280.81
439.127	293.01
439.587	271.41
440.046	252.21
440.505	264.41
440.964	275.91
441.424	323.31
441.883	315.31
442.342	270.81
442.801	231.71
443.26	223.21
443.719	221.51
444.178	219.01
444.637	215.01
445.096	223.11
445.555	230.91
446.014	228.51
446.473	226.01
446.932	232.31
447.391	223.41
447.849	229.91
448.308	214.91
448.767	221.61
449.226	235.91
449.685	240.61
450.143	247.91
450.602	235.51
451.061	227.51
451.519	241.91
451.978	235.81
452.436	236.01
452.895	242.21
453.353	260.81
453.812	242.81
454.27	234.11
454.729	240.91
455.187	244.31
455.646	243.21
456.104	255.91
456.562	265.31
457.021	275.31
457.479	268.81
457.937	272.21
458.395	266.61
458.854	259.81
459.312	255.81
459.77	271.01
460.228	257.91
460.686	245.11
461.144	247.21
461.602	252.81
462.06	248.01
462.518	267.61
462.976	254.81
463.434	252.71
463.892	261.81
464.35	284.01
464.808	293.71
465.266	264.31
465.724	272.21
466.181	269.51
466.639	275.71
467.097	299.01
467.555	304.51
468.012	308.61
468.47	318.41
468.928	330.71
469.385	334.81
469.843	347.01
470.3	356.11
470.758	368.81
471.215	385.51
471.673	416.81
472.13	415.41
472.588	416.91
473.045	376.71
473.503	383.91
473.96	405.01
474.417	412.51
474.875	435.21
475.332	477.91
475.789	471.61
476.246	463.91
476.704	499.71
477.161	517.31
477.618	524.71
478.075	560.21
478.532	620.21
478.989	699.61
479.446	818.01
479.903	785.41
480.36	825.21
480.817	881.81
481.274	994.11
481.731	1078.31
482.188	1174.61
482.645	1331.41
483.102	1429.41
483.558	1558.21
484.015	1617.31
484.472	1599.01
484.929	1546.31
485.385	1505.91
485.842	1453.31
486.299	1377.01
486.755	1323.41
487.212	1117.71
487.668	942.91
488.125	864.21
488.582	784.51
489.038	762.41
489.494	719.61
489.951	704.81
490.407	680.61
490.864	655.41
491.32	657.01
491.776	654.11
492.233	658.61
492.689	621.81
493.145	610.51
493.602	605.21
494.058	620.81
494.514	626.61
494.97	639.31
495.426	648.81
495.882	631.91
496.338	624.41
496.794	638.01
497.251	632.61
497.707	641.41
498.163	644.91
498.618	662.21
499.074	656.11
499.53	684.11
499.986	690.61
500.442	662.41
500.898	637.31
501.354	634.71
501.809	647.91
502.265	656.21
502.721	672.11
503.177	675.91
503.632	670.11
504.088	676.91
504.543	723.81
504.999	717.31
505.455	667.81
505.91	644.21
506.366	638.61
506.821	636.01
507.277	629.01
507.732	634.21
508.187	630.31
508.643	645.51
509.098	635.21
509.553	662.51
510.009	666.61
510.464	678.81
510.919	704.91
511.375	707.31
511.83	711.71
512.285	738.31
512.74	767.71
513.195	794.01
513.65	773.61
514.105	783.81
514.56	776.81
515.015	804.61
515.47	822.01
515.925	799.61
516.38	799.11
516.835	798.91
517.29	790.41
517.745	788.71
518.2	768.71
518.655	764.11
519.109	761.51
519.564	752.41
520.019	745.81
520.474	731.21
520.928	737.21
521.383	735.91
521.838	715.51
522.292	719.11
522.747	713.31
523.201	707.21
523.656	706.21
524.11	700.71
524.565	700.61
525.019	689.71
525.474	706.91
525.928	711.51
526.382	697.11
526.837	707.81
527.291	706.71
527.745	703.01
528.2	705.11
528.654	700.61
529.108	691.71
529.562	694.01
530.016	691.01
530.47	689.91
530.925	697.41
531.379	708.71
531.833	712.11
532.287	721.71
532.741	705.41
533.195	716.01
533.649	720.01
534.103	723.01
534.556	717.61
535.01	727.21
535.464	720.21
535.918	728.11
536.372	721.31
536.826	720.71
537.279	707.11
537.733	722.91
538.187	717.91
538.64	728.61
539.094	739.01
539.548	737.81
540.001	738.21
540.455	727.31
540.908	735.31
541.362	733.61
541.815	757.61
542.269	760.51
542.722	775.81
543.175	776.01
543.629	777.31
544.082	783.91
544.536	798.21
544.989	792.21
545.442	786.91
545.895	789.81
546.349	797.31
546.802	795.41
547.255	794.01
547.708	807.81
548.161	819.01
548.614	835.11
549.067	841.91
549.52	829.21
549.973	815.61
550.426	803.71
550.879	800.51
551.332	802.21
551.785	808.01
552.238	805.21
552.691	828.31
553.144	846.11
553.596	844.21
554.049	873.21
554.502	897.41
554.955	922.01
555.407	920.91
555.86	908.21
556.313	897.61
556.765	892.71
557.218	886.11
557.67	882.01
558.123	888.01
558.576	884.61
559.028	882.31
559.48	878.61
559.933	890.41
560.385	834.81
560.838	804.31
561.29	791.41
561.742	776.61
562.195	754.41
562.647	763.11
563.099	782.31
563.551	776.51
564.004	783.31
564.456	777.01
564.908	760.11
565.36	748.71
565.812	732.51
566.264	734.71
566.716	731.21
567.168	720.21
567.62	728.11
568.072	708.71
568.524	702.61
568.976	692.91
569.428	672.21
569.88	668.31
570.332	695.01
570.784	692.31
571.235	681.01
571.687	695.51
572.139	706.31
572.59	703.41
573.042	712.81
573.494	711.41
573.945	699.11
574.397	691.71
574.849	697.01
575.3	688.71
575.752	685.31
576.203	677.21
576.655	687.11
577.106	672.21
577.557	666.41
578.009	670.61
578.46	665.91
578.912	652.91
579.363	665.11
579.814	669.01
580.265	658.11
580.717	663.11
581.168	676.21
581.619	678.51
582.07	683.81
582.521	681.61
582.972	668.31
583.423	680.51
583.875	681.71
584.326	694.91
584.777	744.91
585.227	824.71
585.678	913.51
586.129	1004.31
586.58	1078.71
587.031	1159.21
587.482	1315.31
587.933	1493.41
588.384	1305.71
588.834	970.71
589.285	795.81
589.736	773.61
590.186	770.81
590.637	752.81
591.088	741.01
591.538	734.21
591.989	734.31
592.439	725.01
592.89	725.11
593.34	708.01
593.791	707.71
594.241	710.61
594.692	706.81
595.142	704.81
595.593	708.31
596.043	706.71
596.493	704.71
596.943	717.41
597.394	723.71
597.844	716.71
598.294	723.31
598.744	757.41
599.195	776.61
599.645	811.71
600.095	860.51
600.545	902.71
600.995	964.51
601.445	1015.41
601.895	1072.81
602.345	1128.61
602.795	1109.01
603.245	1068.91
603.695	1012.61
604.145	964.81
604.594	900.61
605.044	857.71
605.494	782.21
605.944	742.31
606.393	736.01
606.843	720.01
607.293	735.11
607.743	738.11
608.192	736.21
608.642	756.91
609.091	760.91
609.541	762.71
609.99	764.71
610.44	763.31
610.889	717.71
611.339	704.71
611.788	680.11
612.238	684.21
612.687	708.71
613.136	712.01
613.586	730.61
614.035	724.71
614.484	747.01
614.933	755.31
615.383	742.71
615.832	743.11
616.281	710.11
616.73	678.81
617.179	651.81
617.628	648.21
618.077	633.11
618.526	610.81
618.975	609.81
619.424	612.31
619.873	611.91
620.322	598.91
620.771	590.81
621.22	592.01
621.669	587.81
622.118	582.71
622.567	571.31
623.015	563.11
623.464	569.01
623.913	559.21
624.361	550.91
624.81	543.31
625.259	554.21
625.707	547.71
626.156	550.51
626.604	561.11
627.053	557.71
627.501	552.21
627.95	562.31
628.398	571.91
628.847	561.61
629.295	565.71
629.744	568.41
630.192	565.11
630.64	561.01
631.089	556.41
631.537	575.81
631.985	588.31
632.433	593.71
632.881	597.21
633.33	647.61
633.778	631.21
634.226	553.81
634.674	563.01
635.122	570.21
635.57	584.21
636.018	616.61
636.466	570.41
636.914	546.11
637.362	562.31
637.81	568.31
638.258	567.91
638.705	568.91
639.153	597.41
639.601	602.01
640.049	626.11
640.497	653.81
640.944	692.71
641.392	626.41
641.84	595.41
642.287	574.61
642.735	566.51
643.182	570.51
643.63	567.91
644.078	568.01
644.525	589.11
644.973	588.71
645.42	591.51
645.867	619.21
646.315	639.41
646.762	655.41
647.21	678.21
647.657	712.01
648.104	736.01
648.551	763.21
648.999	831.91
649.446	907.11
649.893	996.41
650.34	1145.71
650.787	1383.01
651.234	1694.01
651.682	2211.01
652.129	3032.91
652.576	4367.31
653.023	6455.11
653.47	8879.71
653.917	11127.61
654.363	12881.41
654.81	14301.11
655.257	13625.21
655.704	8928.81
656.151	5248.81
656.598	3403.71
657.044	2405.71
657.491	1848.11
657.938	1480.31
658.385	1241.11
658.831	1061.51
659.278	949.31
659.724	855.41
660.171	778.91
660.618	710.91
661.064	681.81
661.511	651.21
661.957	647.51
662.404	638.61
662.85	640.01
663.296	612.71
663.743	558.71
664.189	527.21
664.635	521.21
665.082	514.01
665.528	517.71
665.974	508.41
666.42	505.51
666.867	503.71
667.313	486.61
667.759	476.31
668.205	475.41
668.651	478.31
669.097	474.51
669.543	493.71
669.989	465.81
670.435	441.11
670.881	432.01
671.327	444.31
671.773	463.21
672.219	480.41
672.665	533.21
673.11	572.91
673.556	611.21
674.002	655.01
674.448	643.21
674.893	537.21
675.339	458.31
675.785	430.61
676.23	412.81
676.676	390.91
677.122	380.21
677.567	363.11
678.013	365.41
678.458	354.21
678.904	357.11
679.349	340.91
679.794	345.21
680.24	343.21
680.685	345.51
681.131	337.11
681.576	345.51
682.021	344.31
682.466	333.21
682.912	341.31
683.357	348.01
683.802	377.71
684.247	398.61
684.692	435.91
685.137	478.91
685.583	519.91
686.028	547.41
686.473	503.41
686.918	438.71
687.363	402.91
687.807	385.51
688.252	358.81
688.697	349.01
689.142	329.41
689.587	324.31
690.032	318.71
690.477	333.51
690.921	343.91
691.366	381.01
691.811	391.51
692.255	418.01
692.7	452.91
693.145	480.81
693.589	675.51
694.034	1075.11
694.478	1482.91
694.923	1684.11
695.367	2211.81
695.812	1168.91
696.256	484.71
696.701	367.31
697.145	338.91
697.59	321.51
698.034	312.81
698.478	318.61
698.922	321.71
699.367	317.91
699.811	324.61
700.255	345.41
700.699	376.41
701.143	413.21
701.588	460.11
702.032	501.01
702.476	497.51
702.92	477.41
703.364	475.71
703.808	607.81
704.252	992.11
704.696	1391.01
705.14	1627.91
705.584	2067.31
706.027	1043.81
706.471	510.01
706.915	381.11
707.359	339.91
707.803	318.21
708.246	298.41
708.69	298.01
709.134	307.11
709.577	303.41
710.021	309.21
710.465	298.61
710.908	285.11
711.352	292.11
711.795	301.71
712.239	339.01
712.682	368.91
713.126	401.51
713.569	447.91
714.012	364.31
714.456	312.91
714.899	291.21
715.342	270.21
715.786	252.81
716.229	251.61
716.672	244.91
717.115	235.71
717.558	248.81
718.002	248.41
718.445	256.11
718.888	283.11
719.331	294.21
719.774	299.31
720.217	297.91
720.66	278.01
721.103	262.01
721.546	251.71
721.989	239.31
722.432	224.51
722.874	233.71
723.317	224.71
723.76	228.01
724.203	255.21
724.645	310.91
725.088	431.31
725.531	554.31
725.974	630.81
726.416	528.81
726.859	299.91
727.301	240.91
727.744	227.81
728.187	234.01
728.629	235.11
729.071	239.81
729.514	254.31
729.956	268.21
730.399	269.41
730.841	278.41
731.283	260.91
731.726	252.51
732.168	247.71
732.61	259.81
733.053	277.21
733.495	302.31
733.937	335.81
734.379	377.61
734.821	415.51
735.263	515.51
735.705	802.81
736.148	1494.61
736.59	2478.11
737.032	2967.61
737.474	2418.31
737.916	783.01
738.357	419.11
738.799	310.41
739.241	287.21
739.683	278.21
740.125	279.01
740.567	292.91
741.008	305.01
741.45	305.31
741.892	303.41
742.334	330.61
742.775	351.51
743.217	329.81
743.658	261.01
744.1	249.81
744.542	253.61
744.983	294.71
745.425	331.71
745.866	331.21
746.307	281.61
746.749	282.31
747.19	311.31
747.632	442.81
748.073	830.01
748.514	1770.91
748.956	2746.41
749.397	3448.61
749.838	2848.51
750.279	2876.61
750.72	1454.21
751.162	535.11
751.603	311.11
752.044	239.61
752.485	208.21
752.926	198.91
753.367	198.51
753.808	191.21
754.249	190.21
754.69	179.11
755.131	181.31
755.572	177.51
756.013	173.21
756.453	180.41
756.894	177.81
757.335	190.41
757.776	187.11
758.216	187.51
758.657	192.91
759.098	193.11
759.538	210.01
759.979	253.11
760.42	357.91
760.86	659.41
761.301	1701.31
761.741	4205.41
762.182	6262.51
762.622	4421.01
763.063	1266.81
763.503	517.31
763.943	334.81
764.384	326.51
764.824	391.41
765.264	433.31
765.705	299.91
766.145	209.81
766.585	182.81
767.025	175.91
767.465	183.21
767.906	237.51
768.346	309.61
768.786	329.01
769.226	250.01
769.666	302.51
770.106	582.21
770.546	1451.61
770.986	2549.01
771.426	2316.81
771.866	763.31
772.306	316.01
772.745	202.01
773.185	173.01
773.625	158.61
774.065	160.21
774.505	191.01
774.944	291.31
775.384	646.01
775.824	1189.51
776.263	1174.91
776.703	496.31
777.142	213.61
777.582	154.11
778.021	135.41
778.461	133.51
778.9	136.01
779.34	137.41
779.779	118.11
780.219	105.61
780.658	103.51
781.097	109.41
781.537	106.01
781.976	111.11
782.415	105.51
782.855	105.31
783.294	106.01
783.733	100.11
784.172	103.81
784.611	104.61
785.05	108.41
785.489	115.41
785.928	115.11
786.367	117.51
786.806	113.41
787.245	121.71
787.684	128.01
788.123	147.21
788.562	132.71
789.001	123.51
789.44	118.61
789.879	110.81
790.317	112.31
790.756	125.21
791.195	125.31
791.634	149.91
792.072	195.31
792.511	344.31
792.95	942.91
793.388	2059.81
793.827	1898.61
794.265	656.01
794.704	268.01
795.142	180.81
795.581	147.41
796.019	131.21
796.458	126.31
796.896	120.51
797.334	126.41
797.773	144.31
798.211	208.61
798.649	417.51
799.087	968.81
799.526	1537.21
799.964	1926.21
800.402	1952.51
800.84	739.91
801.278	291.61
801.716	183.21
802.154	148.81
802.592	139.61
803.03	132.11
803.468	130.71
803.906	136.51
804.344	140.41
804.782	128.31
805.22	131.21
805.658	125.21
806.096	143.11
806.533	147.01
806.971	162.31
807.409	207.11
807.847	298.51
808.284	619.21
808.722	1763.31
809.16	3176.31
809.597	2958.91
810.035	5167.61
810.472	5646.71
810.91	2016.51
811.347	772.01
811.785	385.01
812.222	246.61
812.66	186.11
813.097	159.41
813.535	140.21
813.972	129.61
814.409	116.91
814.846	103.51
815.284	106.81
815.721	95.81
816.158	99.61
816.595	112.91
817.032	174.51
817.47	196.11
817.907	166.31
818.344	140.31
818.781	114.71
819.218	100.41
819.655	112.61
820.092	177.91
820.529	206.31
820.966	175.41
821.403	129.71
821.839	111.51
822.276	101.61
822.713	118.81
823.15	132.81
823.587	112.61
824.023	149.61
824.46	282.71
824.897	840.91
825.333	1310.01
825.77	560.31
826.206	217.21
826.643	129.01
827.08	96.81
827.516	86.31
827.953	75.31
828.389	75.11
828.825	66.01
829.262	69.81
829.698	57.71
830.135	62.51
830.571	58.51
831.007	66.71
831.443	62.71
831.88	58.11
832.316	53.21
832.752	62.21
833.188	58.11
833.624	65.41
834.06	62.01
834.497	60.11
834.933	63.31
835.369	64.71
835.805	65.11
836.241	67.71
836.677	83.21
837.112	87.31
837.548	101.91
837.984	130.61
838.42	192.11
838.856	464.81
839.292	1428.11
839.727	2236.71
840.163	1034.21
840.599	865.41
841.034	1951.21
841.47	2070.71
841.906	754.41
842.341	319.11
842.777	223.01
843.212	307.71
843.648	300.01
844.083	151.81
844.519	92.81
844.954	72.01
845.39	53.31
845.825	59.91
846.261	63.91
846.696	50.61
847.131	51.51
847.566	55.11
848.002	51.01
848.437	50.91
848.872	55.51
849.307	60.31
849.742	83.51
850.177	166.81
850.613	519.81
851.048	846.31
851.483	368.91
851.918	147.01
852.353	88.61
852.788	59.41
853.223	54.61
853.657	54.21
854.092	45.41
854.527	41.11
854.962	45.51
855.397	43.61
855.832	49.91
856.266	40.51
856.701	38.61
857.136	36.81
857.57	38.91
858.005	45.41
858.44	58.41
858.874	39.61
859.309	54.71
859.743	36.21
860.178	46.71
860.612	46.31
861.047	55.61
861.481	63.21
861.915	62.71
862.35	49.91
862.784	37.31
863.218	38.71
863.653	29.91
864.087	44.71
864.521	53.81
864.955	69.01
865.39	145.01
865.824	165.31
866.258	109.51
866.692	150.51
867.126	172.61
867.56	103.31
867.994	53.31
868.428	37.31
868.862	38.81
869.296	54.61
869.73	52.91
870.164	49.51
870.598	49.11
871.031	36.91
871.465	29.51
871.899	25.81
872.333	23.21
872.766	20.61
873.2	21.91
873.634	29.11
874.067	24.31
874.501	28.01
874.935	37.71
875.368	24.71
875.802	19.81
876.235	26.01
876.669	28.21
877.102	25.01
877.535	24.61
877.969	23.21
878.402	21.11
878.836	19.41
879.269	19.41
879.702	17.91
880.135	21.21
880.569	22.81
881.002	23.11
881.435	24.01
881.868	22.91
882.301	22.31
882.734	13.61
883.167	26.51
883.601	23.81
884.034	19.01
884.467	13.41
884.899	16.81
885.332	20.01
885.765	16.61
886.198	15.31
886.631	12.81
887.064	17.81
887.497	22.71
887.929	25.21
888.362	15.71
888.795	14.41
889.228	18.11
889.66	21.31
890.093	18.21
890.526	13.61
890.958	13.61
891.391	12.91
891.823	25.21
892.256	17.91
892.688	12.91
893.121	16.51
893.553	11.51
893.985	21.21
894.418	14.31
894.85	15.31
895.282	19.21
895.715	17.61
896.147	21.41
896.579	15.41
897.011	17.41
897.444	23.01
897.876	16.01
898.308	18.81
898.74	18.01
899.172	15.21
899.604	26.91
900.036	18.71
900.468	13.01
900.9	11.71
901.332	17.71
901.764	10.91
902.196	19.01
902.628	14.41
903.06	15.91
903.491	24.31
903.923	23.21
904.355	20.41
904.787	24.61
905.218	23.51
905.65	23.41
906.082	8.11
906.513	10.81
906.945	15.41
907.376	8.71
907.808	19.91
908.239	21.61
908.671	20.21
909.102	19.41
909.534	23.81
909.965	44.71
910.397	91.81
910.828	299.31
911.259	462.41
911.691	214.41
912.122	101.61
912.553	51.51
912.984	34.51
913.415	26.21
913.847	23.01
914.278	16.01
914.709	13.01
915.14	20.21
915.571	21.31
916.002	13.11
916.433	19.91
916.864	17.31
917.295	15.51
917.726	19.01
918.157	13.71
918.587	25.11
919.018	22.71
919.449	24.61
919.88	22.51
920.311	30.01
920.741	43.51
921.172	158.01
921.603	144.91
922.033	68.31
922.464	46.01
922.895	18.81
923.325	19.71
923.756	14.71
924.186	18.41
924.617	30.61
925.047	38.41
925.478	54.21
925.908	40.01
926.338	27.11
926.769	20.41
927.199	16.91
927.629	9.71
928.06	14.01
928.49	14.91
928.92	15.81
929.35	8.51
929.78	9.81
930.21	9.31
930.641	10.81
931.071	15.41
931.501	9.31
931.931	10.71
932.361	11.01
932.791	6.11
933.221	5.11
933.651	10.41
934.08	22.51
934.51	29.71
934.94	7.91
935.37	10.31
935.8	13.21
936.229	8.31
936.659	10.81
937.089	3.81
937.519	15.21
937.948	22.21
938.378	17.11
938.807	7.21
939.237	5.71
939.666	4.01
940.096	-6.49
940.525	2.71
940.955	2.11
941.384	4.01
941.814	-1.49
942.243	1.11
942.672	6.31
943.102	-3.39
943.531	-4.69
943.96	0.01
944.39	-0.59
944.819	2.31
945.248	8.51
945.677	4.01
946.106	2.21
946.535	2.01
946.964	2.51
947.393	3.21
947.822	2.81
948.251	-3.59
948.68	3.41
949.109	6.11
949.538	8.21
949.967	-0.69
950.396	4.01
950.825	-8.59
951.254	-0.89
951.682	-6.79
952.111	2.51
952.54	-1.79
952.969	-4.29
953.397	-4.99
953.826	-1.69
954.254	-1.89
954.683	5.31
955.112	-1.99
955.54	-0.89
955.969	-6.69
956.397	1.11
956.826	-1.79
957.254	3.91
957.682	-4.19
958.111	5.31
958.539	2.31
958.967	-2.19
959.396	-4.49
959.824	-1.39
960.252	2.81
960.68	-5.49
961.109	-1.09
961.537	-5.49
961.965	-1.39
962.393	0.01
962.821	-4.19
963.249	0.01
963.677	5.31
964.105	1.51
964.533	43.11
964.961	40.41
965.389	19.01
965.817	9.11
966.245	4.81
966.672	0.71
967.1	-4.89
967.528	-2.59
967.956	2.31
968.383	3.01
968.811	-3.79
969.239	-0.19
969.666	-4.29
970.094	1.21
970.522	1.91
970.949	-2.89
971.377	-2.09
971.804	-2.09
972.232	-0.59
972.659	-0.09
973.087	-3.29
973.514	-4.29
973.941	-7.59
974.369	6.31
974.796	1.41
975.223	3.11
975.651	-2.99
976.078	6.91
976.505	-1.29
976.932	1.91
977.359	11.21
977.786	19.61
978.214	0.51
978.641	-1.79
979.068	1.31
979.495	-10.19
979.922	-5.99
980.349	-2.69
980.776	6.51
981.202	-5.19
981.629	1.81
982.056	2.61
982.483	0.31
982.91	-0.99
983.337	-5.49
983.763	2.11
984.19	-5.99
984.617	1.81
985.043	-7.99
985.47	-1.99
985.897	3.91
986.323	-6.79
986.75	3.11
987.176	-3.19
987.603	2.71
988.029	-2.39
988.456	-2.19
988.882	6.41
989.308	-10.29
989.735	-4.79
990.161	2.51
990.587	-5.39
991.014	2.11
991.44	8.51
991.866	-5.29
992.292	-4.89
992.719	-3.79
993.145	6.01
993.571	-13.79
993.997	-0.49
994.423	-2.59
994.849	-3.39
995.275	0.11
995.701	2.21
996.127	-1.79
996.553	-0.09
996.979	-5.39
997.405	-3.69
997.83	-1.49
998.256	-6.49
998.682	-6.09
999.108	-13.99
999.534	-5.09
999.959	-0.09
1000.385	-8.29
1000.811	1.51
1001.236	-7.29
1001.662	-6.79
1002.087	-8.29
1002.513	-3.59
1002.938	3.71
1003.364	-7.99
1003.789	-0.19
1004.215	3.01
1004.64	-4.19
1005.066	1.61
1005.491	-2.89
1005.916	-3.29
1006.342	-2.59
1006.767	-8.09
1007.192	-1.19
1007.617	-3.99
1008.042	-3.39
1008.468	-5.29
1008.893	-1.69
1009.318	0.51
1009.743	-7.89
1010.168	5.81
1010.593	2.21
1011.018	-5.89
1011.443	-2.29
1011.868	7.11
1012.293	-1.49
1012.718	-10.59
1013.143	6.41
1013.567	-0.89
1013.992	-2.39
1014.417	-11.29
1014.842	-1.99
1015.267	-2.89
1015.691	-2.29
1016.116	6.81
1016.541	1.21
1016.965	2.31
1017.39	2.71
1017.814	-0.89
1018.239	2.11
1018.663	-1.39
1019.088	-10.59
1019.512	-3.29
1019.937	-1.09
1020.361	-10.99
1020.785	-12.79
1021.21	-3.99
1021.634	-1.79
1022.058	-1.19
1022.483	8.51
1022.907	-4.49
1023.331	-6.19
1023.755	-4.39
1024.179	-5.09
1024.604	-3.09
1025.028	-2.99
1025.452	-2.89
1025.876	-0.29
1026.3	4.21
1026.724	-14.99
1027.148	-11.59
1027.572	-14.09
1027.996	-7.99
1028.42	1.91
1028.843	-5.89
1029.267	-1.49
1029.691	-8.69
1030.115	-3.59
1030.539	-10.19
1030.962	-5.29
1031.386	-13.39
1031.81	-2.29
1032.233	-5.29
1032.657	-5.99
1033.08	-0.39
1033.504	-1.39
1033.927	-7.39
1034.351	-7.29
1034.774	-3.79
1035.198	-6.49
1035.621	-7.79
1036.045	-4.39
1036.468	-2.39
1036.891	-11.59
1037.315	-5.19
1037.738	-6.59
1038.161	1.41
1038.584	-5.29
1039.008	-2.29
1039.431	-4.89
1039.854	-5.39
1040.277	-9.89
1040.7	-8.29
1041.123	-1.59
1041.546	-7.89
1041.969	-7.39
1042.392	-6.09
1042.815	-0.79
1043.238	-2.39
1043.661	-2.39
1044.084	-8.29
1044.507	-4.99
1044.93	-7.59
1045.352	-6.59
1045.775	0.61
1046.198	-1.59
1046.621	-0.59
1047.043	-0.69
1047.466	7.21
1047.889	-4.19
1048.311	-5.09
1048.734	-5.99
1049.156	-8.89
1049.579	2.41
1050.001	2.71
1050.424	-1.89
1050.846	-1.89
1051.269	-4.19
1051.691	-6.59
1052.113	-8.19
1052.536	-1.29
1052.958	-4.29
1053.38	-2.29
1053.802	-11.29
1054.225	2.41
1054.647	-11.39
1055.069	-6.89
1055.491	-0.49
1055.913	-11.39
1056.335	-5.19
1056.757	-8.39
1057.179	-5.39
1057.601	-6.29
1058.023	0.01
1058.445	-4.79
1058.867	-0.89
1059.289	-3.99
1059.711	-8.89
1060.133	-0.59
1060.555	-4.59
1060.976	-7.19
1061.398	-1.19
1061.82	-11.19
1062.241	-8.29
1062.663	-10.49
1063.085	-9.19
1063.506	-0.09
1063.928	-9.19
1064.35	-3.69
1064.771	-15.39
1065.193	-2.09
1065.614	-7.89
1066.035	-2.79
1066.457	0.31
1066.878	2.51
1067.3	-4.19
1067.721	-1.19
1068.142	-6.39
1068.564	-7.99
1068.985	-13.79
1069.406	-7.19
1069.827	-3.29
1070.248	-3.69
1070.67	-7.19
1071.091	-3.09
1071.512	-8.19
1071.933	-5.59
1072.354	-7.79
1072.775	-3.29
1073.196	-5.49
1073.617	-4.49
1074.038	-7.29
1074.459	-1.59
1074.88	-6.89
1075.3	0.11
1075.721	-5.59
1076.142	-5.79
1076.563	0.01
1076.983	-9.39
1077.404	-9.49
1077.825	-6.99
1078.246	-2.69
1078.666	-9.89
1079.087	-4.39
1079.507	-6.89
1079.928	4.11
1080.348	3.11
1080.769	-1.09
1081.189	0.51
1081.61	-3.19
1082.03	-4.59
1082.451	-5.79
1082.871	-5.99
1083.291	-5.29
1083.711	-8.69
1084.132	-8.69
1084.552	-4.79
1084.972	-0.69
1085.392	-11.59
1085.813	-11.29
1086.233	-4.09
1086.653	-7.59
1087.073	-8.99
1087.493	-5.69
1087.913	-6.69
1088.333	-6.69
1088.753	-3.89
1089.173	-0.49
1089.593	-12.79
1090.013	3.91
1090.433	0.81
1090.852	-3.89
1091.272	0.21
1091.692	-8.69
1092.112	-6.69
1092.531	-10.69
1092.951	-16.19
1093.371	-5.89
1093.79	1.01
1094.21	-2.29
1094.63	-5.99
1095.049	-9.79
1095.469	-1.69
1095.888	-3.99
1096.308	4.21
1096.727	1.81
1097.146	-8.39
1097.566	-3.99
1097.985	-4.49
1098.405	-2.79
1098.824	-3.69
1099.243	-8.39
1099.662	-13.89
1100.082	2.11
1100.501	2.81
1100.92	-6.59
1101.339	-2.79
1101.758	-6.29
