Data from 20171114-ORNL-Ar_H_NY_Subt18_08-09-17-682.txt Node
Date: Tue Nov 14 08:09:17 EST 2017
User: Ender
Spectrometer: HR+D1039
Trigger mode: 0
Integration Time (sec): 2.730000E-2
Scans to average: 10
Electric dark correction enabled: true
Nonlinearity correction enabled: false
Boxcar width: 0
XAxis mode: Wavelengths
Number of Pixels in Spectrum: 2048
>>>>>Begin Spectral Data<<<<<
187.836	-4.67
188.309	-4.67
188.782	-4.67
189.255	2.83
189.728	-4.57
190.201	6.23
190.674	2.93
191.147	6.73
191.619	-10.37
192.092	3.53
192.565	4.73
193.038	-4.57
193.511	4.13
193.984	2.33
194.456	-3.17
194.929	-1.57
195.402	-3.87
195.874	-0.67
196.347	-0.37
196.82	-5.77
197.292	10.43
197.765	-1.07
198.237	-5.37
198.71	0.23
199.182	-0.17
199.655	2.83
200.127	4.33
200.6	-2.67
201.072	1.93
201.544	-2.97
202.017	-5.77
202.489	1.33
202.961	-1.77
203.433	-1.97
203.906	-4.37
204.378	-7.97
204.85	-6.77
205.322	-7.47
205.794	0.33
206.266	-4.17
206.739	-4.67
207.211	0.33
207.683	-9.07
208.155	-4.67
208.627	-4.77
209.099	-3.67
209.57	-12.27
210.042	-3.77
210.514	-3.67
210.986	-2.47
211.458	-8.17
211.93	-4.47
212.402	3.63
212.873	-6.67
213.345	-4.77
213.817	-15.77
214.288	-7.77
214.76	-11.67
215.232	1.73
215.703	1.43
216.175	-1.47
216.646	-6.67
217.118	-8.17
217.589	-5.87
218.061	-2.07
218.532	-3.57
219.004	-1.87
219.475	-1.67
219.946	-4.87
220.418	0.83
220.889	3.73
221.36	-4.67
221.832	-0.87
222.303	-6.37
222.774	-6.27
223.245	-9.27
223.717	-3.57
224.188	-1.57
224.659	-4.97
225.13	-9.57
225.601	-2.67
226.072	6.33
226.543	-4.67
227.014	-0.77
227.485	-1.17
227.956	-2.27
228.427	-10.07
228.898	1.13
229.369	4.43
229.839	-6.37
230.31	-4.97
230.781	2.03
231.252	-1.27
231.722	-2.77
232.193	-3.77
232.664	-1.57
233.135	-1.17
233.605	-3.07
234.076	-7.67
234.546	-1.57
235.017	1.63
235.487	0.03
235.958	-1.87
236.428	-5.27
236.899	-1.87
237.369	-2.57
237.84	-6.17
238.31	-2.67
238.78	-7.17
239.251	-6.67
239.721	-2.07
240.191	-4.07
240.662	-4.57
241.132	-0.67
241.602	-6.37
242.072	-2.47
242.542	2.93
243.013	-3.37
243.483	0.03
243.953	0.43
244.423	-0.77
244.893	-6.97
245.363	4.33
245.833	-0.87
246.303	3.13
246.773	3.73
247.243	-7.07
247.712	-4.97
248.182	3.43
248.652	3.33
249.122	-13.77
249.592	-2.17
250.061	-1.27
250.531	0.23
251.001	-4.97
251.471	1.03
251.94	8.93
252.41	-8.47
252.879	-8.77
253.349	9.73
253.818	1.23
254.288	2.13
254.757	2.73
255.227	-3.97
255.696	-1.07
256.166	-2.97
256.635	-1.77
257.105	3.73
257.574	-2.87
258.043	0.13
258.513	-2.87
258.982	-1.27
259.451	-4.17
259.92	0.53
260.389	-0.47
260.859	3.63
261.328	-0.57
261.797	0.13
262.266	-6.47
262.735	10.23
263.204	1.93
263.673	-5.27
264.142	5.53
264.611	-3.17
265.08	-1.67
265.549	-7.47
266.018	3.43
266.487	-4.07
266.955	-14.07
267.424	-3.17
267.893	5.73
268.362	-2.67
268.83	-1.47
269.299	7.03
269.768	-2.47
270.236	2.13
270.705	-5.07
271.174	-0.37
271.642	0.43
272.111	-5.57
272.579	-2.47
273.048	0.03
273.516	3.73
273.985	5.13
274.453	3.33
274.922	1.93
275.39	1.03
275.858	-7.47
276.327	-2.37
276.795	7.03
277.263	-1.47
277.731	7.43
278.2	4.33
278.668	2.93
279.136	11.23
279.604	6.63
280.072	7.43
280.54	0.83
281.008	4.03
281.477	9.53
281.945	7.53
282.413	8.03
282.881	10.53
283.348	4.63
283.816	4.43
284.284	4.53
284.752	17.63
285.22	11.93
285.688	12.93
286.156	7.33
286.623	15.93
287.091	4.13
287.559	8.73
288.026	2.73
288.494	9.73
288.962	-1.97
289.429	0.83
289.897	8.83
290.364	8.23
290.832	13.63
291.3	4.93
291.767	9.53
292.234	11.33
292.702	9.83
293.169	6.23
293.637	8.23
294.104	8.93
294.571	-0.27
295.039	2.03
295.506	5.73
295.973	7.23
296.44	6.63
296.908	10.73
297.375	9.33
297.842	9.03
298.309	8.93
298.776	6.23
299.243	9.83
299.71	7.63
300.177	14.33
300.644	12.93
301.111	12.23
301.578	20.93
302.045	7.43
302.512	16.63
302.979	16.93
303.446	16.23
303.913	11.53
304.379	9.13
304.846	17.63
305.313	15.63
305.78	13.93
306.246	15.93
306.713	13.03
307.18	15.63
307.646	21.43
308.113	17.33
308.579	14.73
309.046	21.33
309.512	18.63
309.979	9.13
310.445	19.63
310.912	21.23
311.378	21.63
311.845	19.33
312.311	19.03
312.777	20.23
313.244	19.33
313.71	27.93
314.176	22.73
314.642	16.23
315.109	13.83
315.575	24.03
316.041	24.03
316.507	21.33
316.973	33.53
317.439	23.73
317.905	23.43
318.371	21.63
318.837	21.23
319.303	17.13
319.769	29.33
320.235	18.73
320.701	25.33
321.167	25.53
321.633	20.43
322.099	22.43
322.564	30.93
323.03	28.73
323.496	24.73
323.962	29.23
324.427	27.53
324.893	32.53
325.359	29.03
325.824	21.73
326.29	20.03
326.755	30.03
327.221	26.63
327.686	30.33
328.152	29.33
328.617	31.23
329.083	27.43
329.548	41.53
330.014	36.73
330.479	29.73
330.944	30.23
331.41	32.23
331.875	36.13
332.34	23.13
332.805	29.73
333.271	33.43
333.736	28.73
334.201	43.63
334.666	38.03
335.131	37.23
335.596	33.23
336.061	38.03
336.526	30.73
336.991	36.53
337.456	44.43
337.921	38.63
338.386	34.33
338.851	41.23
339.316	36.33
339.781	42.73
340.246	44.43
340.711	31.73
341.175	37.53
341.64	26.73
342.105	43.13
342.569	44.33
343.034	42.13
343.499	41.73
343.963	39.83
344.428	51.83
344.893	51.73
345.357	47.23
345.822	47.53
346.286	49.83
346.751	56.23
347.215	53.03
347.679	56.93
348.144	70.03
348.608	63.83
349.073	58.33
349.537	53.03
350.001	60.83
350.465	63.03
350.93	58.13
351.394	62.93
351.858	52.73
352.322	68.23
352.786	67.13
353.25	73.63
353.715	76.83
354.179	70.03
354.643	90.23
355.107	91.23
355.571	74.73
356.035	78.73
356.498	93.43
356.962	85.63
357.426	93.03
357.89	89.43
358.354	70.23
358.818	61.63
359.281	67.93
359.745	62.83
360.209	60.03
360.673	56.93
361.136	63.83
361.6	68.63
362.064	70.73
362.527	65.93
362.991	74.23
363.454	64.73
363.918	62.93
364.381	63.83
364.845	70.93
365.308	68.73
365.772	71.53
366.235	75.13
366.698	66.83
367.162	70.23
367.625	62.93
368.088	75.03
368.552	75.33
369.015	72.83
369.478	80.73
369.941	81.83
370.404	75.83
370.867	83.23
371.331	86.73
371.794	87.63
372.257	83.23
372.72	86.53
373.183	88.53
373.646	77.43
374.109	79.83
374.572	83.43
375.035	86.33
375.497	88.83
375.96	87.93
376.423	89.53
376.886	93.53
377.349	93.73
377.811	92.53
378.274	90.63
378.737	87.83
379.199	92.13
379.662	88.63
380.125	95.93
380.587	88.83
381.05	96.83
381.512	104.83
381.975	109.53
382.437	103.33
382.9	99.13
383.362	107.03
383.825	117.53
384.287	110.53
384.75	99.33
385.212	105.03
385.674	121.83
386.136	114.53
386.599	108.93
387.061	104.73
387.523	104.93
387.985	110.93
388.447	116.83
388.91	116.33
389.372	111.53
389.834	121.03
390.296	114.63
390.758	115.03
391.22	120.13
391.682	132.53
392.144	135.93
392.606	129.23
393.068	125.53
393.529	140.73
393.991	125.23
394.453	117.43
394.915	117.63
395.377	120.63
395.838	122.13
396.3	132.63
396.762	127.93
397.224	126.63
397.685	122.83
398.147	120.43
398.608	120.13
399.07	120.53
399.531	127.03
399.993	130.33
400.454	147.93
400.916	133.13
401.377	134.63
401.839	132.33
402.3	146.23
402.762	156.23
403.223	159.63
403.684	157.83
404.145	154.63
404.607	150.73
405.068	148.73
405.529	150.03
405.99	163.53
406.451	156.23
406.913	164.23
407.374	153.33
407.835	149.33
408.296	154.73
408.757	159.83
409.218	171.83
409.679	167.73
410.14	169.83
410.601	162.43
411.062	167.33
411.522	164.03
411.983	158.83
412.444	161.53
412.905	172.33
413.366	175.93
413.826	185.23
414.287	208.33
414.748	255.13
415.208	236.53
415.669	206.33
416.13	199.53
416.59	196.23
417.051	208.83
417.511	209.03
417.972	239.03
418.432	247.33
418.893	271.83
419.353	248.33
419.814	189.43
420.274	170.13
420.734	172.33
421.195	183.63
421.655	186.93
422.115	179.13
422.576	188.63
423.036	197.83
423.496	196.23
423.956	204.63
424.416	219.03
424.876	256.03
425.336	252.03
425.797	250.23
426.257	243.43
426.717	223.93
427.177	221.93
427.637	203.83
428.097	223.93
428.556	236.93
429.016	255.23
429.476	248.13
429.936	251.33
430.396	266.73
430.856	280.23
431.315	295.03
431.775	329.43
432.235	345.23
432.694	334.83
433.154	337.03
433.614	363.93
434.073	314.43
434.533	271.13
434.993	251.83
435.452	263.33
435.912	273.53
436.371	266.43
436.83	263.73
437.29	256.43
437.749	235.43
438.209	237.13
438.668	260.53
439.127	268.13
439.587	250.33
440.046	240.23
440.505	245.63
440.964	268.33
441.424	298.13
441.883	300.23
442.342	251.83
442.801	219.33
443.26	220.93
443.719	219.53
444.178	205.03
444.637	210.13
445.096	219.63
445.555	223.43
446.014	226.13
446.473	222.13
446.932	234.23
447.391	225.83
447.849	229.63
448.308	214.83
448.767	220.53
449.226	239.83
449.685	235.33
450.143	248.13
450.602	236.13
451.061	227.33
451.519	231.43
451.978	234.13
452.436	235.23
452.895	242.23
453.353	248.23
453.812	232.63
454.27	241.83
454.729	237.83
455.187	237.33
455.646	243.13
456.104	239.43
456.562	263.23
457.021	263.33
457.479	258.73
457.937	270.13
458.395	262.23
458.854	244.13
459.312	253.23
459.77	269.13
460.228	255.73
460.686	250.13
461.144	249.63
461.602	244.03
462.06	242.03
462.518	257.13
462.976	256.33
463.434	255.93
463.892	256.03
464.35	270.13
464.808	287.13
465.266	263.33
465.724	273.93
466.181	285.33
466.639	273.93
467.097	287.03
467.555	300.33
468.012	303.43
468.47	309.63
468.928	321.63
469.385	338.23
469.843	346.73
470.3	347.93
470.758	347.03
471.215	385.03
471.673	401.13
472.13	394.33
472.588	415.13
473.045	373.43
473.503	374.43
473.96	393.83
474.417	402.03
474.875	426.33
475.332	477.03
475.789	453.53
476.246	465.13
476.704	484.53
477.161	501.83
477.618	507.83
478.075	550.03
478.532	595.83
478.989	666.03
479.446	767.53
479.903	732.43
480.36	765.93
480.817	812.53
481.274	895.03
481.731	997.63
482.188	1054.83
482.645	1170.93
483.102	1269.63
483.558	1367.03
484.015	1414.73
484.472	1390.13
484.929	1361.93
485.385	1314.53
485.842	1274.53
486.299	1237.83
486.755	1205.73
487.212	1031.23
487.668	880.43
488.125	811.83
488.582	748.33
489.038	732.83
489.494	679.43
489.951	668.83
490.407	658.23
490.864	630.83
491.32	628.73
491.776	632.13
492.233	641.93
492.689	602.83
493.145	597.03
493.602	594.63
494.058	600.13
494.514	605.83
494.97	624.23
495.426	639.33
495.882	616.13
496.338	615.53
496.794	615.73
497.251	600.83
497.707	622.63
498.163	627.33
498.618	630.23
499.074	640.73
499.53	652.73
499.986	658.23
500.442	644.73
500.898	619.03
501.354	608.63
501.809	614.83
502.265	626.53
502.721	625.03
503.177	643.03
503.632	643.73
504.088	636.73
504.543	655.23
504.999	687.73
505.455	654.83
505.91	632.13
506.366	635.33
506.821	625.03
507.277	639.83
507.732	632.13
508.187	624.53
508.643	639.23
509.098	635.23
509.553	660.63
510.009	669.93
510.464	675.13
510.919	699.83
511.375	704.03
511.83	714.53
512.285	733.63
512.74	750.43
513.195	769.83
513.65	770.63
514.105	763.43
514.56	773.93
515.015	792.53
515.47	806.73
515.925	778.93
516.38	789.03
516.835	791.63
517.29	786.93
517.745	778.03
518.2	768.73
518.655	754.03
519.109	748.23
519.564	738.03
520.019	737.53
520.474	731.33
520.928	726.83
521.383	714.33
521.838	706.23
522.292	716.23
522.747	713.73
523.201	709.93
523.656	709.83
524.11	698.33
524.565	704.43
525.019	685.03
525.474	705.33
525.928	706.03
526.382	694.83
526.837	700.13
527.291	705.03
527.745	707.13
528.2	699.93
528.654	699.43
529.108	692.33
529.562	682.03
530.016	699.03
530.47	683.53
530.925	693.93
531.379	696.93
531.833	708.63
532.287	712.53
532.741	710.53
533.195	704.43
533.649	707.73
534.103	715.43
534.556	706.43
535.01	708.43
535.464	707.83
535.918	718.73
536.372	735.53
536.826	726.03
537.279	721.83
537.733	725.53
538.187	718.43
538.64	714.23
539.094	732.13
539.548	737.83
540.001	738.13
540.455	730.03
540.908	737.13
541.362	741.03
541.815	755.33
542.269	767.83
542.722	767.23
543.175	773.43
543.629	782.13
544.082	794.73
544.536	799.53
544.989	794.33
545.442	808.63
545.895	805.73
546.349	798.73
546.802	799.63
547.255	812.53
547.708	821.03
548.161	830.23
548.614	836.33
549.067	841.63
549.52	828.23
549.973	817.53
550.426	827.83
550.879	809.33
551.332	806.63
551.785	815.13
552.238	827.13
552.691	834.03
553.144	854.93
553.596	860.43
554.049	882.83
554.502	910.73
554.955	922.63
555.407	932.23
555.86	921.83
556.313	916.63
556.765	894.23
557.218	895.23
557.67	900.93
558.123	892.63
558.576	881.93
559.028	879.53
559.48	890.63
559.933	880.63
560.385	861.63
560.838	821.63
561.29	799.03
561.742	796.83
562.195	783.03
562.647	782.63
563.099	788.93
563.551	782.33
564.004	793.73
564.456	789.33
564.908	768.23
565.36	760.83
565.812	742.03
566.264	741.53
566.716	732.53
567.168	720.63
567.62	723.63
568.072	701.23
568.524	705.33
568.976	705.43
569.428	689.13
569.88	676.43
570.332	701.93
570.784	698.93
571.235	702.03
571.687	708.93
572.139	725.43
572.59	725.63
573.042	728.03
573.494	722.93
573.945	725.53
574.397	698.63
574.849	699.53
575.3	714.93
575.752	694.53
576.203	684.93
576.655	696.63
577.106	684.63
577.557	674.53
578.009	683.53
578.46	678.03
578.912	683.53
579.363	678.03
579.814	679.73
580.265	673.13
580.717	682.43
581.168	681.03
581.619	688.23
582.07	698.03
582.521	683.53
582.972	680.23
583.423	695.43
583.875	682.33
584.326	698.43
584.777	711.13
585.227	734.73
585.678	736.53
586.129	756.93
586.58	763.93
587.031	794.23
587.482	819.33
587.933	845.63
588.384	829.53
588.834	795.63
589.285	786.43
589.736	785.73
590.186	792.53
590.637	784.83
591.088	757.43
591.538	761.13
591.989	755.03
592.439	745.33
592.89	725.33
593.34	727.63
593.791	718.93
594.241	707.33
594.692	721.63
595.142	718.43
595.593	717.13
596.043	708.73
596.493	721.33
596.943	722.63
597.394	732.33
597.844	740.93
598.294	753.93
598.744	772.13
599.195	812.33
599.645	845.83
600.095	883.83
600.545	939.03
600.995	998.43
601.445	1052.33
601.895	1120.13
602.345	1163.13
602.795	1139.23
603.245	1093.93
603.695	1054.63
604.145	981.73
604.594	938.73
605.044	880.13
605.494	829.43
605.944	776.73
606.393	765.33
606.843	754.83
607.293	752.43
607.743	745.53
608.192	763.63
608.642	768.73
609.091	781.73
609.541	782.53
609.99	769.53
610.44	768.53
610.889	741.73
611.339	722.73
611.788	707.13
612.238	709.83
612.687	712.63
613.136	728.83
613.586	725.53
614.035	709.03
614.484	732.23
614.933	731.83
615.383	720.83
615.832	725.23
616.281	723.03
616.73	689.03
617.179	665.63
617.628	666.93
618.077	648.83
618.526	649.73
618.975	630.13
619.424	631.63
619.873	627.93
620.322	629.83
620.771	619.23
621.22	620.33
621.669	605.93
622.118	602.53
622.567	590.53
623.015	579.43
623.464	579.23
623.913	577.93
624.361	570.03
624.81	572.63
625.259	569.73
625.707	571.53
626.156	575.23
626.604	581.03
627.053	582.83
627.501	581.23
627.95	588.63
628.398	601.83
628.847	590.83
629.295	584.03
629.744	588.03
630.192	574.63
630.64	573.93
631.089	560.13
631.537	549.83
631.985	540.13
632.433	545.93
632.881	532.93
633.33	546.53
633.778	534.93
634.226	545.83
634.674	559.43
635.122	552.53
635.57	575.73
636.018	574.73
636.466	574.53
636.914	568.63
637.362	584.93
637.81	585.23
638.258	600.73
638.705	605.13
639.153	636.63
639.601	638.13
640.049	662.33
640.497	685.13
640.944	707.93
641.392	675.53
641.84	631.63
642.287	603.93
642.735	581.53
643.182	583.53
643.63	571.33
644.078	574.63
644.525	594.93
644.973	589.53
645.42	609.63
645.867	636.53
646.315	641.73
646.762	669.53
647.21	698.23
647.657	712.73
648.104	748.63
648.551	775.13
648.999	829.43
649.446	917.13
649.893	994.93
650.34	1142.63
650.787	1348.83
651.234	1662.33
651.682	2140.93
652.129	2949.03
652.576	4177.23
653.023	6041.73
653.47	8173.83
653.917	10029.53
654.363	11480.33
654.81	12589.63
655.257	11925.23
655.704	7927.63
656.151	4759.33
656.598	3135.33
657.044	2257.13
657.491	1740.33
657.938	1425.63
658.385	1206.23
658.831	1043.43
659.278	940.13
659.724	838.13
660.171	783.53
660.618	718.83
661.064	685.83
661.511	671.43
661.957	657.43
662.404	646.73
662.85	658.03
663.296	633.03
663.743	570.43
664.189	555.73
664.635	544.13
665.082	535.33
665.528	550.43
665.974	530.83
666.42	519.53
666.867	520.83
667.313	495.23
667.759	477.63
668.205	469.63
668.651	457.03
669.097	459.73
669.543	461.33
669.989	456.33
670.435	460.33
670.881	461.23
671.327	468.93
671.773	489.33
672.219	511.43
672.665	569.53
673.11	609.03
673.556	652.63
674.002	692.43
674.448	674.73
674.893	571.83
675.339	500.83
675.785	466.83
676.23	435.63
676.676	410.13
677.122	399.93
677.567	395.43
678.013	378.83
678.458	374.73
678.904	380.63
679.349	369.83
679.794	363.83
680.24	363.53
680.685	369.63
681.131	363.63
681.576	362.13
682.021	369.93
682.466	369.63
682.912	364.43
683.357	364.13
683.802	396.13
684.247	430.43
684.692	474.93
685.137	515.53
685.583	551.43
686.028	588.13
686.473	535.13
686.918	471.13
687.363	432.83
687.807	414.83
688.252	380.43
688.697	368.13
689.142	353.93
689.587	347.53
690.032	344.33
690.477	355.63
690.921	368.73
691.366	404.33
691.811	430.43
692.255	452.43
692.7	488.13
693.145	546.43
693.589	767.83
694.034	1235.53
694.478	1638.73
694.923	1808.93
695.367	2339.23
695.812	1262.13
696.256	524.13
696.701	387.43
697.145	372.83
697.59	344.23
698.034	327.33
698.478	343.33
698.922	337.73
699.367	338.53
699.811	353.43
700.255	362.53
700.699	402.03
701.143	445.83
701.588	499.23
702.032	532.23
702.476	538.73
702.92	516.73
703.364	526.13
703.808	704.63
704.252	1144.73
704.696	1564.43
705.14	1762.13
705.584	2218.43
706.027	1119.53
706.471	546.63
706.915	425.73
707.359	373.73
707.803	334.93
708.246	326.43
708.69	330.73
709.134	332.33
709.577	329.13
710.021	338.13
710.465	323.03
710.908	315.93
711.352	313.83
711.795	336.33
712.239	367.03
712.682	412.33
713.126	435.03
713.569	470.73
714.012	377.83
714.456	321.43
714.899	297.73
715.342	288.13
715.786	277.13
716.229	268.83
716.672	278.33
717.115	259.13
717.558	259.93
718.002	260.43
718.445	283.33
718.888	296.23
719.331	308.53
719.774	321.43
720.217	321.63
720.66	303.43
721.103	281.03
721.546	267.73
721.989	263.73
722.432	240.63
722.874	247.03
723.317	243.43
723.76	255.93
724.203	273.53
724.645	344.83
725.088	481.93
725.531	606.13
725.974	678.33
726.416	574.43
726.859	322.93
727.301	258.03
727.744	251.83
728.187	238.13
728.629	254.03
729.071	253.63
729.514	272.93
729.956	289.73
730.399	300.03
730.841	304.23
731.283	286.43
731.726	284.13
732.168	280.43
732.61	293.53
733.053	299.83
733.495	339.23
733.937	379.53
734.379	430.23
734.821	468.13
735.263	594.83
735.705	934.93
736.148	1754.93
736.59	2800.43
737.032	3188.23
737.474	2599.43
737.916	858.43
738.357	452.63
738.799	341.23
739.241	319.13
739.683	293.03
740.125	308.83
740.567	315.13
741.008	334.13
741.45	329.93
741.892	336.13
742.334	369.93
742.775	379.33
743.217	359.93
743.658	287.73
744.1	275.03
744.542	280.33
744.983	336.33
745.425	365.63
745.866	363.33
746.307	295.73
746.749	293.13
747.19	338.93
747.632	502.73
748.073	991.93
748.514	2065.03
748.956	3039.43
749.397	3844.33
749.838	3182.03
750.279	3071.23
750.72	1579.03
751.162	594.03
751.603	342.93
752.044	267.53
752.485	225.33
752.926	221.13
753.367	216.23
753.808	206.73
754.249	206.33
754.69	197.43
755.131	192.33
755.572	193.93
756.013	191.93
756.453	195.83
756.894	193.13
757.335	195.83
757.776	210.13
758.216	210.73
758.657	215.53
759.098	214.43
759.538	241.83
759.979	290.73
760.42	412.93
760.86	795.23
761.301	2085.83
761.741	4876.73
762.182	6707.93
762.622	4767.33
763.063	1399.63
763.503	574.23
763.943	342.83
764.384	278.13
764.824	250.13
765.264	239.03
765.705	213.43
766.145	190.03
766.585	178.03
767.025	182.13
767.465	170.63
767.906	184.03
768.346	195.43
768.786	207.23
769.226	227.73
769.666	341.43
770.106	696.53
770.546	1732.13
770.986	2777.83
771.426	2458.03
771.866	843.93
772.306	338.63
772.745	214.23
773.185	178.13
773.625	165.93
774.065	162.33
774.505	174.73
774.944	222.93
775.384	382.93
775.824	593.33
776.263	568.83
776.703	281.73
777.142	165.93
777.582	138.83
778.021	133.73
778.461	134.53
778.9	130.03
779.34	132.93
779.779	117.93
780.219	119.13
780.658	118.23
781.097	118.83
781.537	122.43
781.976	108.53
782.415	107.83
782.855	109.33
783.294	108.03
783.733	110.53
784.172	111.83
784.611	111.53
785.05	113.63
785.489	121.23
785.928	119.13
786.367	124.83
786.806	119.83
787.245	132.23
787.684	145.33
788.123	152.33
788.562	144.93
789.001	136.63
789.44	130.73
789.879	117.23
790.317	120.23
790.756	143.83
791.195	135.13
791.634	156.73
792.072	217.33
792.511	411.53
792.95	1128.63
793.388	2242.13
793.827	1980.43
794.265	706.23
794.704	294.13
795.142	195.93
795.581	165.53
796.019	149.03
796.458	134.03
796.896	127.33
797.334	137.73
797.773	165.63
798.211	241.83
798.649	490.53
799.087	1114.53
799.526	1729.73
799.964	2164.33
800.402	2078.23
800.84	802.03
801.278	322.13
801.716	203.63
802.154	161.93
802.592	157.03
803.03	148.13
803.468	142.23
803.906	151.93
804.344	161.53
804.782	147.83
805.22	143.43
805.658	140.53
806.096	162.63
806.533	162.03
806.971	194.53
807.409	233.83
807.847	348.53
808.284	755.73
808.722	2072.73
809.16	3498.33
809.597	3481.73
810.035	5878.63
810.472	5982.73
810.91	2204.93
811.347	862.33
811.785	439.93
812.222	271.53
812.66	210.33
813.097	170.93
813.535	147.73
813.972	139.03
814.409	119.33
814.846	112.63
815.284	113.13
815.721	111.03
816.158	108.13
816.595	108.83
817.032	161.03
817.47	190.33
817.907	144.03
818.344	112.33
818.781	98.73
819.218	102.13
819.655	129.63
820.092	200.83
820.529	223.73
820.966	182.63
821.403	138.33
821.839	99.03
822.276	104.33
822.713	131.13
823.15	146.43
823.587	129.33
824.023	167.63
824.46	345.43
824.897	995.53
825.333	1415.93
825.77	617.73
826.206	244.13
826.643	135.43
827.08	115.33
827.516	87.23
827.953	84.33
828.389	87.73
828.825	76.83
829.262	75.33
829.698	68.33
830.135	69.33
830.571	67.53
831.007	71.93
831.443	64.33
831.88	69.43
832.316	61.23
832.752	68.03
833.188	69.43
833.624	72.53
834.06	73.13
834.497	68.73
834.933	69.73
835.369	79.33
835.805	73.33
836.241	84.03
836.677	81.83
837.112	98.53
837.548	111.83
837.984	144.73
838.42	222.23
838.856	564.43
839.292	1684.03
839.727	2417.53
840.163	1140.53
840.599	1032.43
841.034	2197.33
841.47	2200.13
841.906	823.43
842.341	352.93
842.777	204.53
843.212	208.23
843.648	192.63
844.083	118.43
844.519	87.13
844.954	71.23
845.39	57.53
845.825	65.23
846.261	64.03
846.696	56.53
847.131	55.83
847.566	66.33
848.002	56.53
848.437	59.83
848.872	62.33
849.307	69.33
849.742	92.93
850.177	207.03
850.613	609.33
851.048	915.03
851.483	403.43
851.918	168.63
852.353	93.43
852.788	61.73
853.223	50.23
853.657	64.83
854.092	50.43
854.527	46.43
854.962	43.43
855.397	50.63
855.832	49.63
856.266	36.73
856.701	46.53
857.136	37.23
857.57	38.93
858.005	54.33
858.44	57.63
858.874	53.33
859.309	59.93
859.743	43.33
860.178	50.73
860.612	43.73
861.047	55.43
861.481	72.03
861.915	79.83
862.35	55.53
862.784	35.03
863.218	39.83
863.653	37.13
864.087	46.53
864.521	54.93
864.955	72.63
865.39	161.43
865.824	183.03
866.258	131.13
866.692	179.43
867.126	186.43
867.56	107.33
867.994	58.83
868.428	41.73
868.862	45.43
869.296	65.63
869.73	63.43
870.164	62.23
870.598	55.13
871.031	41.13
871.465	31.53
871.899	28.73
872.333	21.03
872.766	30.73
873.2	29.53
873.634	27.13
874.067	30.13
874.501	30.73
874.935	35.73
875.368	30.23
875.802	32.03
876.235	27.63
876.669	21.93
877.102	22.63
877.535	30.63
877.969	24.13
878.402	26.43
878.836	21.93
879.269	25.93
879.702	25.13
880.135	19.33
880.569	23.83
881.002	27.23
881.435	28.73
881.868	23.03
882.301	26.23
882.734	13.83
883.167	31.53
883.601	24.73
884.034	22.53
884.467	13.53
884.899	17.53
885.332	19.53
885.765	19.23
886.198	17.93
886.631	15.63
887.064	20.93
887.497	22.83
887.929	23.63
888.362	16.43
888.795	16.83
889.228	19.93
889.66	24.33
890.093	18.83
890.526	20.03
890.958	15.33
891.391	20.93
891.823	14.43
892.256	13.63
892.688	18.73
893.121	13.93
893.553	14.23
893.985	16.13
894.418	23.23
894.85	16.83
895.282	17.63
895.715	16.33
896.147	19.63
896.579	21.93
897.011	20.93
897.444	17.73
897.876	15.23
898.308	14.53
898.74	14.53
899.172	10.33
899.604	21.43
900.036	20.83
900.468	17.03
900.9	16.03
901.332	22.03
901.764	19.93
902.196	15.33
902.628	21.43
903.06	14.43
903.491	27.73
903.923	20.73
904.355	23.03
904.787	29.93
905.218	24.93
905.65	19.93
906.082	11.23
906.513	17.63
906.945	19.13
907.376	11.13
907.808	19.53
908.239	15.13
908.671	21.03
909.102	21.93
909.534	21.73
909.965	48.23
910.397	100.13
910.828	339.73
911.259	489.03
911.691	238.13
912.122	118.03
912.553	57.53
912.984	35.63
913.415	36.23
913.847	25.93
914.278	15.33
914.709	16.93
915.14	15.73
915.571	18.53
916.002	17.83
916.433	20.73
916.864	12.83
917.295	17.03
917.726	22.73
918.157	17.63
918.587	30.73
919.018	22.83
919.449	23.63
919.88	27.73
920.311	34.13
920.741	56.03
921.172	190.63
921.603	160.33
922.033	76.43
922.464	59.93
922.895	20.23
923.325	24.53
923.756	13.73
924.186	11.73
924.617	14.33
925.047	19.33
925.478	21.23
925.908	25.13
926.338	14.53
926.769	7.73
927.199	18.33
927.629	5.33
928.06	17.23
928.49	19.53
928.92	16.13
929.35	11.23
929.78	10.83
930.21	3.63
930.641	12.23
931.071	14.73
931.501	1.13
931.931	15.03
932.361	9.73
932.791	3.43
933.221	12.43
933.651	6.33
934.08	18.83
934.51	33.63
934.94	15.73
935.37	11.53
935.8	14.63
936.229	8.53
936.659	14.93
937.089	10.53
937.519	16.03
937.948	26.93
938.378	22.23
938.807	7.83
939.237	11.03
939.666	8.83
940.096	-6.77
940.525	7.73
940.955	2.13
941.384	5.73
941.814	-5.27
942.243	0.13
942.672	2.53
943.102	-3.37
943.531	0.33
943.96	5.83
944.39	5.33
944.819	-3.27
945.248	2.93
945.677	6.93
946.106	6.03
946.535	1.23
946.964	1.53
947.393	6.13
947.822	4.53
948.251	-3.27
948.68	4.43
949.109	3.03
949.538	1.33
949.967	-1.67
950.396	1.93
950.825	-2.47
951.254	-2.17
951.682	-6.07
952.111	4.83
952.54	6.63
952.969	1.23
953.397	-3.57
953.826	3.83
954.254	-3.07
954.683	0.23
955.112	-1.27
955.54	1.73
955.969	-1.67
956.397	-1.97
956.826	-3.37
957.254	0.83
957.682	2.13
958.111	4.93
958.539	-1.17
958.967	1.83
959.396	-0.57
959.824	6.43
960.252	4.93
960.68	-4.77
961.109	-2.27
961.537	-3.77
961.965	3.33
962.393	-2.77
962.821	-7.47
963.249	1.73
963.677	1.03
964.105	7.93
964.533	48.63
964.961	44.33
965.389	25.53
965.817	11.63
966.245	6.63
966.672	8.73
967.1	-5.57
967.528	2.53
967.956	-7.07
968.383	2.83
968.811	-2.47
969.239	-0.27
969.666	-2.87
970.094	-0.87
970.522	2.13
970.949	0.93
971.377	-5.37
971.804	-5.17
972.232	-4.17
972.659	-2.47
973.087	1.03
973.514	1.33
973.941	-7.17
974.369	5.13
974.796	-1.37
975.223	-6.27
975.651	-2.17
976.078	4.53
976.505	-0.27
976.932	0.13
977.359	15.93
977.786	12.33
978.214	1.83
978.641	-5.87
979.068	-5.47
979.495	-4.77
979.922	-2.97
980.349	-2.97
980.776	8.13
981.202	-2.37
981.629	5.83
982.056	5.33
982.483	2.53
982.91	5.13
983.337	-3.27
983.763	3.63
984.19	6.33
984.617	-4.57
985.043	-2.77
985.47	-2.07
985.897	-2.07
986.323	-3.17
986.75	5.43
987.176	2.43
987.603	-0.57
988.029	2.23
988.456	-3.97
988.882	1.53
989.308	-4.37
989.735	-3.47
990.161	4.43
990.587	-7.47
991.014	-4.47
991.44	10.23
991.866	3.53
992.292	-5.47
992.719	-0.17
993.145	5.73
993.571	-11.27
993.997	0.03
994.423	-2.77
994.849	-5.27
995.275	-2.37
995.701	-1.37
996.127	1.83
996.553	-0.07
996.979	-3.57
997.405	-0.77
997.83	-5.37
998.256	-2.27
998.682	-9.97
999.108	-5.77
999.534	-5.17
999.959	0.13
1000.385	-5.27
1000.811	5.03
1001.236	-10.47
1001.662	-2.87
1002.087	-7.57
1002.513	2.13
1002.938	0.63
1003.364	0.03
1003.789	1.03
1004.215	7.03
1004.64	-0.47
1005.066	0.33
1005.491	2.73
1005.916	-0.77
1006.342	-5.67
1006.767	-7.87
1007.192	8.53
1007.617	-9.47
1008.042	-6.57
1008.468	-3.57
1008.893	3.53
1009.318	0.13
1009.743	-4.97
1010.168	8.23
1010.593	2.03
1011.018	-9.87
1011.443	-2.47
1011.868	0.63
1012.293	-5.57
1012.718	-6.47
1013.143	-0.87
1013.567	-1.77
1013.992	-4.67
1014.417	-13.07
1014.842	0.93
1015.267	-5.27
1015.691	-3.67
1016.116	5.03
1016.541	-3.47
1016.965	1.73
1017.39	5.83
1017.814	-4.07
1018.239	-0.17
1018.663	-6.27
1019.088	-6.57
1019.512	-4.17
1019.937	1.23
1020.361	-2.17
1020.785	-8.17
1021.21	3.23
1021.634	-1.77
1022.058	2.43
1022.483	6.43
1022.907	-5.07
1023.331	-4.87
1023.755	0.53
1024.179	-4.47
1024.604	-6.07
1025.028	-5.07
1025.452	-3.57
1025.876	6.33
1026.3	-1.67
1026.724	-13.37
1027.148	-4.47
1027.572	-7.07
1027.996	-2.27
1028.42	0.93
1028.843	-6.77
1029.267	-11.77
1029.691	0.93
1030.115	-7.37
1030.539	-3.77
1030.962	-0.57
1031.386	-8.67
1031.81	0.53
1032.233	-0.47
1032.657	-2.67
1033.08	-4.97
1033.504	-6.87
1033.927	-3.17
1034.351	1.43
1034.774	-0.47
1035.198	-1.47
1035.621	-2.67
1036.045	-5.87
1036.468	3.43
1036.891	-9.47
1037.315	-10.47
1037.738	-6.07
1038.161	-2.87
1038.584	-3.47
1039.008	-3.87
1039.431	-0.47
1039.854	-3.67
1040.277	-3.37
1040.7	-7.67
1041.123	3.63
1041.546	-6.87
1041.969	-9.27
1042.392	-4.77
1042.815	4.03
1043.238	3.73
1043.661	1.63
1044.084	-7.87
1044.507	-8.07
1044.93	-2.17
1045.352	-7.17
1045.775	-4.47
1046.198	-0.27
1046.621	-0.97
1047.043	-1.17
1047.466	4.03
1047.889	-6.87
1048.311	-6.17
1048.734	-4.87
1049.156	-3.87
1049.579	-2.07
1050.001	-2.07
1050.424	-1.97
1050.846	-6.77
1051.269	-1.67
1051.691	-5.57
1052.113	-8.17
1052.536	-2.67
1052.958	0.53
1053.38	-1.77
1053.802	-9.67
1054.225	1.13
1054.647	-5.77
1055.069	-7.87
1055.491	-0.77
1055.913	-5.07
1056.335	-1.67
1056.757	1.83
1057.179	-4.77
1057.601	-8.07
1058.023	-2.97
1058.445	-1.77
1058.867	-3.97
1059.289	-0.37
1059.711	-6.67
1060.133	0.83
1060.555	-2.37
1060.976	-3.07
1061.398	-0.97
1061.82	-5.57
1062.241	-8.97
1062.663	-8.67
1063.085	0.73
1063.506	-1.17
1063.928	-4.47
1064.35	-1.57
1064.771	-12.27
1065.193	-5.07
1065.614	-6.47
1066.035	-5.87
1066.457	-5.27
1066.878	-1.37
1067.3	-7.97
1067.721	-11.07
1068.142	-7.57
1068.564	-4.07
1068.985	0.23
1069.406	-5.27
1069.827	-2.17
1070.248	1.83
1070.67	-5.77
1071.091	-4.57
1071.512	-1.27
1071.933	-7.87
1072.354	-0.77
1072.775	-0.57
1073.196	-4.77
1073.617	-5.07
1074.038	-12.27
1074.459	-3.07
1074.88	-6.47
1075.3	-0.07
1075.721	-2.77
1076.142	4.23
1076.563	0.13
1076.983	-14.77
1077.404	-13.17
1077.825	-14.77
1078.246	-0.37
1078.666	-11.97
1079.087	-4.77
1079.507	-0.87
1079.928	2.33
1080.348	0.43
1080.769	-5.47
1081.189	-6.27
1081.61	-6.57
1082.03	-8.57
1082.451	-13.37
1082.871	-7.67
1083.291	-8.87
1083.711	-12.57
1084.132	-2.27
1084.552	-5.97
1084.972	-0.97
1085.392	-8.57
1085.813	-6.67
1086.233	-11.67
1086.653	-7.77
1087.073	-1.37
1087.493	-11.27
1087.913	-5.67
1088.333	-5.97
1088.753	-2.17
1089.173	0.83
1089.593	-5.07
1090.013	-0.97
1090.433	6.03
1090.852	-2.87
1091.272	0.13
1091.692	-0.27
1092.112	-5.07
1092.531	-7.27
1092.951	-11.87
1093.371	-5.77
1093.79	1.13
1094.21	-5.37
1094.63	-7.87
1095.049	-10.17
1095.469	-1.67
1095.888	-1.07
1096.308	6.83
1096.727	7.73
1097.146	-5.17
1097.566	0.83
1097.985	-1.87
1098.405	-3.97
1098.824	-0.07
1099.243	-3.17
1099.662	-6.27
1100.082	-3.57
1100.501	-1.47
1100.92	-8.27
1101.339	-5.37
1101.758	-7.77
