Data from 20171114-ORNL-Ar_H_NY_Subt18_08-04-35-092.txt Node
Date: Tue Nov 14 08:04:35 EST 2017
User: Ender
Spectrometer: HR+D1039
Trigger mode: 0
Integration Time (sec): 2.730000E-2
Scans to average: 10
Electric dark correction enabled: true
Nonlinearity correction enabled: false
Boxcar width: 0
XAxis mode: Wavelengths
Number of Pixels in Spectrum: 2048
>>>>>Begin Spectral Data<<<<<
187.836	1.41
188.309	1.41
188.782	1.41
189.255	4.01
189.728	-1.99
190.201	3.01
190.674	4.51
191.147	1.21
191.619	-5.59
192.092	-3.29
192.565	-0.19
193.038	-4.49
193.511	-2.99
193.984	-1.59
194.456	-0.29
194.929	2.21
195.402	-1.09
195.874	5.21
196.347	-1.09
196.82	-7.49
197.292	9.21
197.765	-0.19
198.237	-7.29
198.71	2.91
199.182	0.11
199.655	-1.99
200.127	7.21
200.6	1.01
201.072	-1.29
201.544	-1.49
202.017	-2.99
202.489	5.61
202.961	-1.99
203.433	2.11
203.906	-8.09
204.378	-6.49
204.85	-4.59
205.322	-3.39
205.794	4.61
206.266	-3.39
206.739	-4.49
207.211	1.61
207.683	-4.99
208.155	-2.59
208.627	-1.99
209.099	-4.39
209.57	-4.39
210.042	-2.69
210.514	-1.49
210.986	-0.69
211.458	-3.99
211.93	-5.29
212.402	8.01
212.873	-8.89
213.345	-9.49
213.817	-10.79
214.288	-2.59
214.76	-6.29
215.232	-0.29
215.703	-3.69
216.175	-0.99
216.646	-4.89
217.118	-1.29
217.589	-0.29
218.061	-8.29
218.532	-4.79
219.004	-3.89
219.475	-5.89
219.946	-5.39
220.418	-5.09
220.889	2.51
221.36	4.21
221.832	-6.69
222.303	-6.79
222.774	-1.29
223.245	-7.19
223.717	-5.49
224.188	-5.19
224.659	-3.29
225.13	-4.39
225.601	-4.49
226.072	0.11
226.543	2.61
227.014	1.31
227.485	-4.59
227.956	-4.19
228.427	-0.49
228.898	-0.19
229.369	-3.29
229.839	-5.19
230.31	-5.59
230.781	5.11
231.252	-3.99
231.722	1.61
232.193	1.91
232.664	-1.29
233.135	6.91
233.605	-3.79
234.076	-4.19
234.546	-0.29
235.017	13.51
235.487	2.71
235.958	3.41
236.428	-4.39
236.899	3.41
237.369	3.41
237.84	-0.29
238.31	5.11
238.78	6.91
239.251	1.21
239.721	-1.19
240.191	3.61
240.662	0.61
241.132	1.21
241.602	3.81
242.072	6.41
242.542	5.61
243.013	-1.29
243.483	10.81
243.953	-1.09
244.423	3.31
244.893	-2.59
245.363	8.41
245.833	5.61
246.303	-0.29
246.773	11.11
247.243	5.41
247.712	9.01
248.182	9.91
248.652	14.61
249.122	6.21
249.592	19.31
250.061	26.71
250.531	42.81
251.001	20.21
251.471	30.91
251.94	19.51
252.41	7.51
252.879	6.21
253.349	10.61
253.818	14.51
254.288	8.31
254.757	7.71
255.227	6.11
255.696	3.41
256.166	7.11
256.635	6.71
257.105	9.61
257.574	8.41
258.043	16.41
258.513	14.21
258.982	25.21
259.451	10.31
259.92	15.11
260.389	14.01
260.859	19.01
261.328	19.11
261.797	24.11
262.266	13.61
262.735	14.11
263.204	15.71
263.673	2.71
264.142	6.41
264.611	2.11
265.08	1.51
265.549	2.21
266.018	5.81
266.487	0.71
266.955	1.91
267.424	-2.19
267.893	7.71
268.362	3.71
268.83	7.51
269.299	11.11
269.768	15.21
270.236	5.31
270.705	10.31
271.174	4.81
271.642	11.71
272.111	6.01
272.579	22.31
273.048	32.51
273.516	35.11
273.985	30.51
274.453	22.61
274.922	22.91
275.39	16.11
275.858	3.11
276.327	14.81
276.795	17.31
277.263	7.61
277.731	27.91
278.2	59.01
278.668	67.01
279.136	57.41
279.604	19.21
280.072	16.31
280.54	9.91
281.008	10.41
281.477	10.51
281.945	13.81
282.413	13.41
282.881	19.71
283.348	9.61
283.816	18.41
284.284	14.21
284.752	21.71
285.22	15.51
285.688	21.61
286.156	25.21
286.623	48.61
287.091	52.91
287.559	34.41
288.026	16.81
288.494	20.01
288.962	9.21
289.429	8.21
289.897	14.41
290.364	16.41
290.832	15.31
291.3	18.81
291.767	16.81
292.234	16.71
292.702	14.71
293.169	20.21
293.637	26.51
294.104	20.11
294.571	14.31
295.039	13.81
295.506	19.51
295.973	19.51
296.44	18.61
296.908	24.31
297.375	20.51
297.842	29.71
298.309	18.71
298.776	15.81
299.243	24.01
299.71	13.51
300.177	24.71
300.644	26.21
301.111	23.91
301.578	30.11
302.045	17.21
302.512	26.61
302.979	23.71
303.446	24.51
303.913	21.91
304.379	25.81
304.846	26.81
305.313	30.81
305.78	27.61
306.246	27.91
306.713	31.51
307.18	29.81
307.646	32.91
308.113	28.71
308.579	30.31
309.046	22.21
309.512	27.21
309.979	24.01
310.445	28.81
310.912	33.11
311.378	36.91
311.845	31.61
312.311	28.71
312.777	29.71
313.244	32.51
313.71	38.91
314.176	26.71
314.642	33.91
315.109	35.21
315.575	40.51
316.041	38.31
316.507	35.11
316.973	40.71
317.439	33.31
317.905	41.41
318.371	41.01
318.837	31.71
319.303	33.31
319.769	35.21
320.235	31.31
320.701	38.91
321.167	39.31
321.633	30.61
322.099	48.91
322.564	43.71
323.03	37.41
323.496	39.51
323.962	46.41
324.427	39.01
324.893	48.81
325.359	37.01
325.824	32.71
326.29	39.81
326.755	35.41
327.221	46.01
327.686	42.81
328.152	50.01
328.617	45.21
329.083	51.41
329.548	50.61
330.014	52.71
330.479	42.61
330.944	46.01
331.41	42.41
331.875	47.41
332.34	48.51
332.805	50.31
333.271	49.71
333.736	53.11
334.201	58.01
334.666	58.61
335.131	52.01
335.596	53.71
336.061	49.71
336.526	42.11
336.991	50.01
337.456	58.91
337.921	54.91
338.386	47.91
338.851	48.31
339.316	48.51
339.781	47.31
340.246	48.31
340.711	50.21
341.175	54.21
341.64	45.01
342.105	48.91
342.569	56.71
343.034	56.71
343.499	51.41
343.963	59.61
344.428	63.71
344.893	54.51
345.357	59.11
345.822	55.41
346.286	65.31
346.751	68.71
347.215	71.11
347.679	72.71
348.144	102.91
348.608	81.41
349.073	76.61
349.537	76.81
350.001	79.21
350.465	87.61
350.93	85.21
351.394	83.71
351.858	72.21
352.322	92.51
352.786	76.11
353.25	95.51
353.715	109.71
354.179	103.61
354.643	115.11
355.107	124.81
355.571	105.01
356.035	100.71
356.498	116.11
356.962	117.81
357.426	129.81
357.89	113.01
358.354	93.21
358.818	80.71
359.281	86.31
359.745	82.81
360.209	73.51
360.673	71.11
361.136	80.91
361.6	85.41
362.064	81.41
362.527	85.01
362.991	91.11
363.454	83.91
363.918	83.41
364.381	75.21
364.845	79.41
365.308	84.91
365.772	86.41
366.235	84.41
366.698	83.21
367.162	84.01
367.625	88.71
368.088	94.41
368.552	89.71
369.015	88.81
369.478	98.61
369.941	93.51
370.404	93.01
370.867	103.41
371.331	100.21
371.794	118.61
372.257	107.41
372.72	111.21
373.183	109.21
373.646	104.11
374.109	101.11
374.572	103.11
375.035	105.41
375.497	106.21
375.96	105.41
376.423	99.91
376.886	113.71
377.349	108.91
377.811	99.11
378.274	99.61
378.737	103.91
379.199	112.01
379.662	105.11
380.125	107.81
380.587	114.51
381.05	121.01
381.512	123.11
381.975	132.51
382.437	128.31
382.9	123.41
383.362	127.71
383.825	127.01
384.287	141.71
384.75	137.11
385.212	133.11
385.674	134.71
386.136	135.41
386.599	119.81
387.061	127.31
387.523	131.71
387.985	124.91
388.447	137.21
388.91	133.21
389.372	153.81
389.834	149.61
390.296	136.91
390.758	148.11
391.22	163.51
391.682	200.31
392.144	283.01
392.606	221.81
393.068	155.71
393.529	170.21
393.991	146.41
394.453	143.31
394.915	149.61
395.377	188.21
395.838	209.21
396.3	149.01
396.762	141.41
397.224	134.41
397.685	126.11
398.147	127.11
398.608	128.11
399.07	119.01
399.531	125.81
399.993	140.91
400.454	141.81
400.916	136.31
401.377	129.11
401.839	142.31
402.3	139.01
402.762	154.71
403.223	171.31
403.684	162.01
404.145	160.41
404.607	148.81
405.068	160.21
405.529	158.91
405.99	183.61
406.451	169.01
406.913	167.71
407.374	158.01
407.835	154.61
408.296	159.11
408.757	159.11
409.218	174.31
409.679	169.31
410.14	177.31
410.601	171.71
411.062	176.81
411.522	178.31
411.983	180.81
412.444	164.71
412.905	177.11
413.366	173.41
413.826	182.21
414.287	208.61
414.748	246.21
415.208	244.01
415.669	204.71
416.13	194.41
416.59	195.91
417.051	200.21
417.511	203.51
417.972	226.61
418.432	234.11
418.893	270.71
419.353	237.21
419.814	183.81
420.274	173.61
420.734	170.41
421.195	185.51
421.655	186.21
422.115	178.81
422.576	188.41
423.036	183.51
423.496	197.01
423.956	199.81
424.416	217.31
424.876	255.61
425.336	252.31
425.797	247.91
426.257	235.21
426.717	222.71
427.177	224.41
427.637	210.71
428.097	227.01
428.556	234.41
429.016	253.91
429.476	244.61
429.936	258.81
430.396	264.21
430.856	269.41
431.315	297.71
431.775	333.71
432.235	358.91
432.694	327.11
433.154	338.71
433.614	365.41
434.073	318.11
434.533	269.61
434.993	256.01
435.452	263.91
435.912	278.51
436.371	272.81
436.83	272.31
437.29	251.81
437.749	228.71
438.209	233.21
438.668	255.41
439.127	275.91
439.587	247.61
440.046	237.11
440.505	249.41
440.964	258.91
441.424	297.11
441.883	287.71
442.342	245.71
442.801	215.81
443.26	210.21
443.719	204.91
444.178	201.51
444.637	193.81
445.096	209.31
445.555	209.81
446.014	213.71
446.473	215.91
446.932	216.41
447.391	213.71
447.849	212.71
448.308	204.41
448.767	210.11
449.226	234.41
449.685	220.51
450.143	234.21
450.602	216.71
451.061	214.71
451.519	224.01
451.978	217.91
452.436	226.01
452.895	223.01
453.353	234.81
453.812	225.61
454.27	221.21
454.729	227.61
455.187	230.01
455.646	237.71
456.104	228.71
456.562	245.51
457.021	251.81
457.479	245.91
457.937	251.21
458.395	246.01
458.854	233.91
459.312	230.41
459.77	249.51
460.228	237.91
460.686	228.41
461.144	233.71
461.602	232.81
462.06	229.41
462.518	235.01
462.976	244.01
463.434	244.01
463.892	252.61
464.35	257.31
464.808	273.11
465.266	250.51
465.724	260.01
466.181	256.11
466.639	255.41
467.097	280.81
467.555	280.41
468.012	282.41
468.47	286.71
468.928	309.61
469.385	313.21
469.843	326.61
470.3	315.91
470.758	347.31
471.215	356.21
471.673	375.71
472.13	383.81
472.588	391.21
473.045	344.31
473.503	354.71
473.96	371.91
474.417	379.81
474.875	399.61
475.332	438.51
475.789	435.01
476.246	434.91
476.704	456.51
477.161	474.81
477.618	494.01
478.075	532.31
478.532	572.91
478.989	646.71
479.446	739.61
479.903	733.41
480.36	751.31
480.817	812.91
481.274	916.21
481.731	1000.11
482.188	1102.91
482.645	1228.21
483.102	1329.21
483.558	1459.71
484.015	1519.41
484.472	1496.31
484.929	1438.61
485.385	1403.21
485.842	1357.81
486.299	1289.91
486.755	1222.31
487.212	1032.81
487.668	869.51
488.125	801.41
488.582	728.71
489.038	708.71
489.494	671.81
489.951	643.61
490.407	615.91
490.864	611.11
491.32	604.81
491.776	592.21
492.233	602.91
492.689	577.81
493.145	570.91
493.602	563.81
494.058	579.71
494.514	575.31
494.97	597.11
495.426	600.61
495.882	580.51
496.338	571.81
496.794	596.01
497.251	578.61
497.707	589.11
498.163	591.31
498.618	608.51
499.074	610.31
499.53	631.91
499.986	627.91
500.442	613.91
500.898	589.61
501.354	586.81
501.809	592.91
502.265	603.31
502.721	620.11
503.177	623.61
503.632	620.21
504.088	631.11
504.543	666.31
504.999	650.31
505.455	609.71
505.91	589.31
506.366	595.21
506.821	585.81
507.277	579.61
507.732	587.61
508.187	576.71
508.643	591.41
509.098	584.91
509.553	602.61
510.009	617.01
510.464	619.51
510.919	642.31
511.375	636.31
511.83	657.01
512.285	673.21
512.74	713.11
513.195	735.21
513.65	722.91
514.105	715.71
514.56	720.61
515.015	736.91
515.47	752.11
515.925	752.51
516.38	741.71
516.835	748.41
517.29	731.21
517.745	726.41
518.2	720.31
518.655	703.61
519.109	693.51
519.564	693.51
520.019	683.21
520.474	671.51
520.928	682.11
521.383	671.61
521.838	668.71
522.292	655.21
522.747	658.21
523.201	647.71
523.656	640.01
524.11	646.01
524.565	642.11
525.019	641.61
525.474	647.21
525.928	651.71
526.382	645.71
526.837	657.21
527.291	654.01
527.745	636.51
528.2	647.31
528.654	642.11
529.108	635.81
529.562	637.41
530.016	634.51
530.47	630.21
530.925	641.91
531.379	645.31
531.833	647.41
532.287	650.71
532.741	648.41
533.195	657.31
533.649	661.61
534.103	679.61
534.556	659.31
535.01	660.11
535.464	661.11
535.918	666.21
536.372	658.61
536.826	666.41
537.279	649.21
537.733	660.81
538.187	666.91
538.64	658.91
539.094	662.11
539.548	667.11
540.001	665.61
540.455	665.51
540.908	679.71
541.362	674.21
541.815	685.51
542.269	691.71
542.722	704.51
543.175	714.21
543.629	711.41
544.082	719.61
544.536	728.81
544.989	720.01
545.442	730.21
545.895	725.51
546.349	727.41
546.802	720.21
547.255	736.61
547.708	731.21
548.161	739.31
548.614	753.81
549.067	765.51
549.52	758.01
549.973	736.71
550.426	738.81
550.879	735.41
551.332	736.71
551.785	736.51
552.238	746.61
552.691	750.61
553.144	759.01
553.596	772.31
554.049	782.91
554.502	816.91
554.955	841.61
555.407	826.81
555.86	820.41
556.313	828.91
556.765	803.91
557.218	809.81
557.67	810.61
558.123	786.71
558.576	791.41
559.028	801.41
559.48	810.61
559.933	806.61
560.385	769.81
560.838	735.21
561.29	710.81
561.742	714.31
562.195	687.61
562.647	693.91
563.099	701.21
563.551	698.51
564.004	709.21
564.456	707.01
564.908	696.81
565.36	671.91
565.812	666.01
566.264	661.61
566.716	662.91
567.168	638.91
567.62	658.81
568.072	635.51
568.524	630.31
568.976	621.91
569.428	610.51
569.88	602.61
570.332	620.51
570.784	621.71
571.235	622.21
571.687	618.11
572.139	629.11
572.59	635.51
573.042	641.31
573.494	637.41
573.945	627.61
574.397	622.71
574.849	616.01
575.3	618.21
575.752	605.11
576.203	618.71
576.655	625.51
577.106	604.91
577.557	600.11
578.009	605.01
578.46	590.61
578.912	590.01
579.363	589.21
579.814	601.81
580.265	587.31
580.717	599.51
581.168	600.21
581.619	606.31
582.07	613.51
582.521	605.71
582.972	602.61
583.423	612.11
583.875	611.11
584.326	626.31
584.777	672.21
585.227	742.51
585.678	817.41
586.129	899.91
586.58	971.51
587.031	1056.81
587.482	1212.41
587.933	1370.51
588.384	1190.91
588.834	873.61
589.285	717.61
589.736	693.81
590.186	687.91
590.637	689.61
591.088	667.91
591.538	656.91
591.989	650.81
592.439	647.11
592.89	643.01
593.34	627.51
593.791	626.21
594.241	618.21
594.692	630.91
595.142	614.81
595.593	613.61
596.043	632.91
596.493	627.91
596.943	633.81
597.394	644.41
597.844	628.31
598.294	641.81
598.744	670.51
599.195	681.71
599.645	713.41
600.095	754.61
600.545	804.31
600.995	856.11
601.445	899.41
601.895	968.21
602.345	1002.11
602.795	1000.41
603.245	950.01
603.695	902.91
604.145	855.21
604.594	795.81
605.044	749.31
605.494	701.91
605.944	664.01
606.393	653.11
606.843	640.01
607.293	646.21
607.743	648.11
608.192	655.91
608.642	668.31
609.091	667.61
609.541	679.81
609.99	677.31
610.44	660.41
610.889	631.21
611.339	615.71
611.788	592.81
612.238	610.81
612.687	636.21
613.136	638.81
613.586	650.81
614.035	651.41
614.484	655.21
614.933	667.81
615.383	661.91
615.832	654.11
616.281	641.91
616.73	599.11
617.179	588.91
617.628	567.11
618.077	555.81
618.526	548.81
618.975	535.51
619.424	542.51
619.873	539.61
620.322	546.01
620.771	528.01
621.22	522.11
621.669	523.61
622.118	509.11
622.567	501.91
623.015	493.21
623.464	496.41
623.913	478.91
624.361	484.51
624.81	479.81
625.259	476.51
625.707	490.51
626.156	483.71
626.604	489.21
627.053	482.51
627.501	482.81
627.95	498.41
628.398	503.01
628.847	499.41
629.295	491.21
629.744	494.11
630.192	492.51
630.64	485.41
631.089	498.81
631.537	499.31
631.985	510.61
632.433	517.11
632.881	527.21
633.33	569.01
633.778	559.01
634.226	491.71
634.674	483.41
635.122	501.71
635.57	520.81
636.018	550.81
636.466	501.51
636.914	475.31
637.362	496.21
637.81	497.51
638.258	503.51
638.705	499.91
639.153	526.01
639.601	530.21
640.049	549.81
640.497	579.41
640.944	607.51
641.392	547.51
641.84	520.11
642.287	502.21
642.735	485.11
643.182	495.71
643.63	493.51
644.078	498.51
644.525	503.71
644.973	508.81
645.42	512.81
645.867	533.51
646.315	552.31
646.762	579.91
647.21	592.51
647.657	604.51
648.104	650.41
648.551	669.51
648.999	719.11
649.446	784.61
649.893	858.91
650.34	1004.71
650.787	1190.71
651.234	1466.11
651.682	1893.61
652.129	2607.41
652.576	3747.11
653.023	5555.01
653.47	7693.01
653.917	9721.01
654.363	11358.91
654.81	12756.11
655.257	12126.61
655.704	7848.41
656.151	4610.61
656.598	2992.81
657.044	2105.81
657.491	1618.11
657.938	1284.01
658.385	1076.91
658.831	939.41
659.278	822.11
659.724	727.91
660.171	686.51
660.618	619.91
661.064	590.91
661.511	570.11
661.957	552.41
662.404	544.11
662.85	544.31
663.296	521.41
663.743	483.11
664.189	461.71
664.635	460.41
665.082	444.91
665.528	456.11
665.974	440.01
666.42	441.11
666.867	440.81
667.313	415.11
667.759	406.81
668.205	408.51
668.651	411.81
669.097	427.11
669.543	424.91
669.989	398.91
670.435	385.31
670.881	377.11
671.327	386.51
671.773	393.91
672.219	414.81
672.665	453.91
673.11	489.21
673.556	529.31
674.002	570.91
674.448	556.01
674.893	466.61
675.339	409.21
675.785	372.91
676.23	356.41
676.676	328.41
677.122	324.61
677.567	315.91
678.013	315.21
678.458	303.81
678.904	309.61
679.349	290.91
679.794	303.71
680.24	299.71
680.685	297.11
681.131	299.11
681.576	292.91
682.021	295.71
682.466	289.61
682.912	291.91
683.357	292.11
683.802	324.21
684.247	337.71
684.692	378.11
685.137	413.61
685.583	452.11
686.028	471.81
686.473	438.91
686.918	374.11
687.363	353.21
687.807	334.11
688.252	310.51
688.697	305.21
689.142	292.51
689.587	276.81
690.032	273.21
690.477	286.21
690.921	298.61
691.366	324.61
691.811	340.41
692.255	373.71
692.7	385.31
693.145	418.31
693.589	572.01
694.034	921.01
694.478	1274.71
694.923	1484.81
695.367	1951.21
695.812	1020.41
696.256	419.41
696.701	309.71
697.145	285.91
697.59	274.41
698.034	266.81
698.478	278.71
698.922	278.31
699.367	269.31
699.811	273.11
700.255	296.01
700.699	323.91
701.143	358.11
701.588	400.81
702.032	443.11
702.476	441.41
702.92	418.71
703.364	411.11
703.808	513.11
704.252	843.51
704.696	1199.11
705.14	1432.11
705.584	1836.01
706.027	901.71
706.471	435.01
706.915	331.71
707.359	295.31
707.803	265.81
708.246	261.61
708.69	267.31
709.134	267.21
709.577	262.91
710.021	266.61
710.465	256.11
710.908	249.21
711.352	243.61
711.795	263.51
712.239	290.31
712.682	327.41
713.126	353.21
713.569	389.61
714.012	318.01
714.456	275.41
714.899	251.91
715.342	230.71
715.786	222.41
716.229	214.01
716.672	214.31
717.115	206.61
717.558	211.31
718.002	207.31
718.445	213.31
718.888	235.91
719.331	245.81
719.774	265.61
720.217	264.11
720.66	237.01
721.103	219.51
721.546	207.61
721.989	211.41
722.432	191.91
722.874	202.31
723.317	192.21
723.76	197.71
724.203	217.01
724.645	263.51
725.088	363.01
725.531	476.71
725.974	555.11
726.416	461.71
726.859	258.01
727.301	204.21
727.744	194.31
728.187	194.41
728.629	199.61
729.071	198.61
729.514	217.51
729.956	228.61
730.399	229.31
730.841	240.91
731.283	222.21
731.726	222.31
732.168	219.71
732.61	222.11
733.053	237.81
733.495	262.01
733.937	291.11
734.379	326.91
734.821	356.71
735.263	444.01
735.705	686.61
736.148	1277.01
736.59	2147.31
737.032	2623.71
737.474	2142.01
737.916	688.91
738.357	360.91
738.799	277.71
739.241	250.91
739.683	231.71
740.125	240.81
740.567	252.91
741.008	264.41
741.45	261.71
741.892	257.31
742.334	282.61
742.775	309.21
743.217	294.21
743.658	229.71
744.1	213.61
744.542	216.91
744.983	266.71
745.425	295.61
745.866	287.31
746.307	236.31
746.749	234.11
747.19	264.71
747.632	369.81
748.073	695.51
748.514	1508.61
748.956	2383.91
749.397	2979.21
749.838	2476.91
750.279	2565.11
750.72	1274.31
751.162	456.91
751.603	270.91
752.044	204.91
752.485	178.31
752.926	170.71
753.367	169.51
753.808	161.01
754.249	161.81
754.69	151.61
755.131	144.31
755.572	146.41
756.013	151.01
756.453	159.91
756.894	155.01
757.335	162.51
757.776	165.71
758.216	164.61
758.657	165.91
759.098	162.61
759.538	180.51
759.979	221.91
760.42	301.21
760.86	562.61
761.301	1460.31
761.741	3620.71
762.182	5565.01
762.622	3927.41
763.063	1098.01
763.503	453.91
763.943	290.71
764.384	282.91
764.824	339.71
765.264	375.41
765.705	259.31
766.145	181.51
766.585	157.71
767.025	148.91
767.465	149.71
767.906	198.01
768.346	271.21
768.786	289.31
769.226	224.31
769.666	256.91
770.106	499.61
770.546	1255.61
770.986	2232.91
771.426	2063.01
771.866	676.41
772.306	279.61
772.745	177.71
773.185	141.81
773.625	151.01
774.065	144.11
774.505	168.21
774.944	257.41
775.384	563.21
775.824	1064.21
776.263	1062.31
776.703	440.91
777.142	191.11
777.582	133.11
778.021	113.71
778.461	112.11
778.9	121.41
779.34	114.21
779.779	92.21
780.219	92.51
780.658	94.71
781.097	90.91
781.537	92.81
781.976	88.31
782.415	84.41
782.855	88.91
783.294	90.31
783.733	84.41
784.172	91.31
784.611	87.81
785.05	99.21
785.489	92.81
785.928	101.41
786.367	90.41
786.806	95.51
787.245	114.41
787.684	114.81
788.123	125.61
788.562	109.61
789.001	101.71
789.44	98.31
789.879	97.21
790.317	95.11
790.756	107.41
791.195	105.51
791.634	121.61
792.072	165.31
792.511	293.21
792.95	804.01
793.388	1796.01
793.827	1680.21
794.265	578.81
794.704	229.51
795.142	149.71
795.581	129.51
796.019	112.11
796.458	101.81
796.896	103.11
797.334	108.01
797.773	128.21
798.211	179.91
798.649	338.21
799.087	833.61
799.526	1331.21
799.964	1670.01
800.402	1739.51
800.84	648.31
801.278	248.71
801.716	155.11
802.154	127.51
802.592	116.11
803.03	113.51
803.468	107.61
803.906	113.21
804.344	117.61
804.782	121.71
805.22	114.31
805.658	109.11
806.096	121.31
806.533	131.81
806.971	141.41
807.409	179.91
807.847	262.81
808.284	525.71
808.722	1507.21
809.16	2796.91
809.597	2575.81
810.035	4569.71
810.472	5061.01
810.91	1790.71
811.347	663.41
811.785	340.61
812.222	212.01
812.66	165.01
813.097	136.11
813.535	121.01
813.972	105.71
814.409	93.61
814.846	96.11
815.284	94.31
815.721	82.31
816.158	87.11
816.595	102.41
817.032	154.21
817.47	170.71
817.907	150.81
818.344	129.51
818.781	101.11
819.218	90.81
819.655	98.31
820.092	155.51
820.529	190.21
820.966	154.61
821.403	118.91
821.839	86.71
822.276	89.61
822.713	101.11
823.15	112.01
823.587	91.11
824.023	113.01
824.46	236.21
824.897	736.21
825.333	1173.31
825.77	495.81
826.206	190.01
826.643	115.21
827.08	86.51
827.516	73.51
827.953	65.61
828.389	67.91
828.825	56.31
829.262	58.81
829.698	50.71
830.135	47.11
830.571	47.41
831.007	58.61
831.443	53.71
831.88	45.31
832.316	53.81
832.752	48.81
833.188	50.61
833.624	47.91
834.06	56.51
834.497	52.61
834.933	62.21
835.369	63.71
835.805	56.61
836.241	67.91
836.677	69.31
837.112	75.01
837.548	85.41
837.984	114.11
838.42	152.91
838.856	396.21
839.292	1250.71
839.727	1988.91
840.163	913.01
840.599	757.11
841.034	1699.31
841.47	1851.81
841.906	670.91
842.341	281.11
842.777	193.51
843.212	265.91
843.648	277.81
844.083	132.71
844.519	83.01
844.954	63.11
845.39	44.71
845.825	50.11
846.261	45.61
846.696	50.91
847.131	45.81
847.566	54.21
848.002	36.81
848.437	49.81
848.872	51.31
849.307	51.81
849.742	68.31
850.177	144.61
850.613	464.11
851.048	753.31
851.483	322.51
851.918	131.01
852.353	70.81
852.788	53.01
853.223	48.31
853.657	49.21
854.092	42.41
854.527	39.71
854.962	30.31
855.397	41.31
855.832	36.71
856.266	37.51
856.701	39.11
857.136	36.01
857.57	34.01
858.005	42.11
858.44	47.21
858.874	38.31
859.309	53.21
859.743	33.21
860.178	42.51
860.612	34.61
861.047	40.91
861.481	54.81
861.915	60.31
862.35	49.81
862.784	29.11
863.218	31.81
863.653	25.01
864.087	40.51
864.521	40.41
864.955	57.71
865.39	134.01
865.824	146.61
866.258	101.41
866.692	134.11
867.126	157.11
867.56	91.91
867.994	46.51
868.428	27.01
868.862	42.31
869.296	51.71
869.73	49.81
870.164	42.01
870.598	40.51
871.031	29.71
871.465	27.71
871.899	32.31
872.333	15.91
872.766	24.41
873.2	18.21
873.634	24.71
874.067	22.91
874.501	20.31
874.935	30.71
875.368	24.01
875.802	24.51
876.235	13.91
876.669	22.01
877.102	19.81
877.535	25.81
877.969	22.31
878.402	27.21
878.836	18.31
879.269	18.51
879.702	22.51
880.135	23.61
880.569	20.41
881.002	23.61
881.435	22.01
881.868	18.61
882.301	22.81
882.734	20.11
883.167	21.31
883.601	17.31
884.034	16.91
884.467	9.81
884.899	14.81
885.332	12.51
885.765	15.51
886.198	15.21
886.631	18.61
887.064	16.61
887.497	17.11
887.929	26.01
888.362	15.81
888.795	11.91
889.228	15.31
889.66	16.21
890.093	17.21
890.526	12.51
890.958	6.81
891.391	17.41
891.823	20.71
892.256	19.11
892.688	6.01
893.121	16.81
893.553	11.31
893.985	17.81
894.418	14.91
894.85	11.31
895.282	17.11
895.715	14.11
896.147	15.41
896.579	15.41
897.011	12.71
897.444	14.11
897.876	8.31
898.308	16.51
898.74	14.31
899.172	13.71
899.604	23.01
900.036	20.11
900.468	6.31
900.9	9.71
901.332	17.31
901.764	12.71
902.196	16.81
902.628	17.31
903.06	11.81
903.491	23.31
903.923	24.41
904.355	17.61
904.787	24.31
905.218	17.51
905.65	21.61
906.082	12.21
906.513	5.91
906.945	17.81
907.376	14.61
907.808	22.01
908.239	17.81
908.671	15.91
909.102	18.91
909.534	21.41
909.965	38.91
910.397	78.81
910.828	265.91
911.259	407.91
911.691	189.61
912.122	84.31
912.553	41.21
912.984	28.91
913.415	26.01
913.847	24.71
914.278	16.51
914.709	12.91
915.14	17.61
915.571	22.01
916.002	7.41
916.433	12.01
916.864	15.51
917.295	18.01
917.726	11.61
918.157	9.11
918.587	18.61
919.018	13.41
919.449	13.41
919.88	22.51
920.311	29.01
920.741	45.61
921.172	141.21
921.603	122.41
922.033	56.71
922.464	43.11
922.895	24.21
923.325	17.41
923.756	14.81
924.186	16.01
924.617	21.11
925.047	33.41
925.478	52.01
925.908	41.21
926.338	23.71
926.769	11.81
927.199	20.51
927.629	7.81
928.06	11.21
928.49	14.71
928.92	16.41
929.35	10.21
929.78	10.41
930.21	9.11
930.641	8.11
931.071	8.51
931.501	6.61
931.931	3.81
932.361	7.01
932.791	7.81
933.221	7.41
933.651	3.71
934.08	13.21
934.51	28.81
934.94	5.31
935.37	11.31
935.8	11.31
936.229	3.21
936.659	6.91
937.089	4.01
937.519	12.91
937.948	22.61
938.378	17.61
938.807	4.91
939.237	-0.49
939.666	9.11
940.096	-7.19
940.525	2.31
940.955	4.21
941.384	7.91
941.814	-2.09
942.243	-1.69
942.672	5.81
943.102	-2.59
943.531	0.91
943.96	3.01
944.39	4.71
944.819	2.01
945.248	9.11
945.677	6.51
946.106	5.71
946.535	5.71
946.964	1.91
947.393	7.31
947.822	4.51
948.251	-6.99
948.68	0.91
949.109	8.01
949.538	5.21
949.967	3.41
950.396	2.91
950.825	-3.09
951.254	3.41
951.682	-3.99
952.111	3.21
952.54	11.11
952.969	3.51
953.397	-1.09
953.826	7.51
954.254	0.81
954.683	3.81
955.112	0.71
955.54	8.51
955.969	5.51
956.397	-0.59
956.826	-4.29
957.254	3.51
957.682	-4.59
958.111	4.61
958.539	-3.09
958.967	5.81
959.396	1.31
959.824	0.81
960.252	0.41
960.68	-2.09
961.109	0.41
961.537	-5.09
961.965	-5.99
962.393	-3.09
962.821	-1.79
963.249	-0.89
963.677	8.71
964.105	2.21
964.533	43.31
964.961	32.41
965.389	19.41
965.817	12.41
966.245	5.41
966.672	5.71
967.1	-6.79
967.528	-1.19
967.956	0.11
968.383	4.01
968.811	0.81
969.239	-3.09
969.666	-6.39
970.094	2.91
970.522	0.71
970.949	-0.59
971.377	-4.29
971.804	1.41
972.232	-2.19
972.659	2.11
973.087	0.31
973.514	-1.79
973.941	-8.59
974.369	5.61
974.796	-0.59
975.223	0.31
975.651	-0.69
976.078	3.01
976.505	-2.09
976.932	1.21
977.359	13.81
977.786	6.71
978.214	0.91
978.641	-3.49
979.068	-0.89
979.495	-13.09
979.922	5.51
980.349	-3.99
980.776	10.41
981.202	-5.29
981.629	9.21
982.056	5.21
982.483	-6.69
982.91	5.11
983.337	-4.29
983.763	2.21
984.19	-3.59
984.617	-2.69
985.043	-3.79
985.47	7.01
985.897	-3.79
986.323	-12.39
986.75	2.21
987.176	-2.29
987.603	2.81
988.029	2.61
988.456	3.81
988.882	3.61
989.308	-0.89
989.735	-2.09
990.161	2.71
990.587	-0.89
991.014	-1.39
991.44	9.61
991.866	-2.69
992.292	-3.69
992.719	2.71
993.145	8.41
993.571	-10.49
993.997	-3.49
994.423	-2.99
994.849	-5.39
995.275	0.81
995.701	4.41
996.127	-2.39
996.553	3.21
996.979	-1.09
997.405	-1.49
997.83	-1.19
998.256	-5.39
998.682	1.41
999.108	-13.09
999.534	-3.09
999.959	3.71
1000.385	3.51
1000.811	4.71
1001.236	-2.49
1001.662	-6.09
1002.087	-8.39
1002.513	-2.09
1002.938	2.81
1003.364	1.61
1003.789	2.31
1004.215	-1.99
1004.64	0.91
1005.066	-1.39
1005.491	1.71
1005.916	-1.89
1006.342	-6.29
1006.767	-7.49
1007.192	3.71
1007.617	3.11
1008.042	-2.69
1008.468	-1.79
1008.893	-4.29
1009.318	2.01
1009.743	-0.09
1010.168	3.11
1010.593	0.11
1011.018	-2.49
1011.443	0.41
1011.868	-2.39
1012.293	-3.79
1012.718	-3.69
1013.143	2.41
1013.567	1.71
1013.992	1.51
1014.417	-9.59
1014.842	3.51
1015.267	-2.39
1015.691	-0.39
1016.116	11.41
1016.541	3.61
1016.965	9.01
1017.39	5.21
1017.814	2.81
1018.239	4.41
1018.663	-5.69
1019.088	-10.29
1019.512	-0.09
1019.937	0.21
1020.361	-7.19
1020.785	-7.89
1021.21	-0.69
1021.634	4.11
1022.058	-3.79
1022.483	-2.19
1022.907	-3.09
1023.331	-4.39
1023.755	1.61
1024.179	-5.89
1024.604	-8.19
1025.028	-0.29
1025.452	2.01
1025.876	1.51
1026.3	-1.59
1026.724	-9.99
1027.148	-9.79
1027.572	-1.69
1027.996	-1.89
1028.42	0.61
1028.843	-2.09
1029.267	0.81
1029.691	-3.59
1030.115	-2.99
1030.539	-6.09
1030.962	-5.39
1031.386	-9.79
1031.81	2.01
1032.233	-0.19
1032.657	1.41
1033.08	-2.59
1033.504	-2.39
1033.927	-0.89
1034.351	1.61
1034.774	-4.49
1035.198	1.01
1035.621	-4.99
1036.045	-4.19
1036.468	-1.39
1036.891	-9.19
1037.315	-3.29
1037.738	-7.79
1038.161	6.71
1038.584	-5.89
1039.008	-4.69
1039.431	-7.49
1039.854	-5.39
1040.277	-10.09
1040.7	-5.29
1041.123	7.31
1041.546	-10.49
1041.969	-5.49
1042.392	-6.29
1042.815	-1.79
1043.238	2.11
1043.661	9.31
1044.084	-5.39
1044.507	-1.49
1044.93	-7.09
1045.352	-0.09
1045.775	5.61
1046.198	5.21
1046.621	-0.39
1047.043	-0.09
1047.466	9.41
1047.889	-0.49
1048.311	-0.49
1048.734	-0.59
1049.156	1.91
1049.579	1.51
1050.001	-3.19
1050.424	0.71
1050.846	-5.79
1051.269	1.41
1051.691	-0.39
1052.113	-5.39
1052.536	-0.39
1052.958	-0.09
1053.38	-1.09
1053.802	-10.19
1054.225	2.51
1054.647	-1.49
1055.069	-0.29
1055.491	2.11
1055.913	0.31
1056.335	-0.79
1056.757	-11.19
1057.179	-7.69
1057.601	-4.99
1058.023	-7.29
1058.445	-5.09
1058.867	-8.19
1059.289	-3.39
1059.711	0.31
1060.133	-4.89
1060.555	-2.09
1060.976	-7.09
1061.398	-6.69
1061.82	-5.09
1062.241	-10.69
1062.663	-3.79
1063.085	-6.89
1063.506	4.01
1063.928	-5.09
1064.35	3.21
1064.771	-6.89
1065.193	-7.69
1065.614	-9.19
1066.035	-2.09
1066.457	-3.99
1066.878	2.71
1067.3	-2.89
1067.721	-3.39
1068.142	-1.89
1068.564	-2.49
1068.985	-1.09
1069.406	-2.99
1069.827	-1.29
1070.248	-2.09
1070.67	-2.39
1071.091	-4.79
1071.512	2.01
1071.933	-3.99
1072.354	-11.79
1072.775	-3.89
1073.196	-1.89
1073.617	-2.59
1074.038	-3.89
1074.459	0.31
1074.88	-8.89
1075.3	-1.19
1075.721	-4.69
1076.142	0.21
1076.563	2.21
1076.983	-9.99
1077.404	-3.19
1077.825	-5.69
1078.246	-5.09
1078.666	-12.39
1079.087	-4.59
1079.507	0.11
1079.928	-2.09
1080.348	-3.19
1080.769	-5.39
1081.189	0.51
1081.61	-4.89
1082.03	-9.29
1082.451	-3.39
1082.871	-0.89
1083.291	-8.09
1083.711	-9.79
1084.132	-6.19
1084.552	-5.79
1084.972	-1.49
1085.392	-6.99
1085.813	-10.29
1086.233	-7.59
1086.653	-5.29
1087.073	-4.49
1087.493	-1.79
1087.913	-2.29
1088.333	-12.19
1088.753	-1.49
1089.173	1.21
1089.593	-4.09
1090.013	5.01
1090.433	7.21
1090.852	1.31
1091.272	0.41
1091.692	-4.39
1092.112	-3.19
1092.531	-10.09
1092.951	-11.89
1093.371	-1.99
1093.79	1.11
1094.21	-0.79
1094.63	-3.29
1095.049	-4.19
1095.469	-3.19
1095.888	1.21
1096.308	-0.59
1096.727	1.41
1097.146	0.11
1097.566	-0.59
1097.985	-2.69
1098.405	-0.19
1098.824	-5.59
1099.243	-8.59
1099.662	-3.99
1100.082	0.61
1100.501	0.41
1100.92	-6.89
1101.339	-3.29
1101.758	1.41
