Data from 20171114-ORNL-Ar_H_NY_Subt18_08-06-01-626.txt Node
Date: Tue Nov 14 08:06:01 EST 2017
User: Ender
Spectrometer: HR+D1039
Trigger mode: 0
Integration Time (sec): 2.730000E-2
Scans to average: 10
Electric dark correction enabled: true
Nonlinearity correction enabled: false
Boxcar width: 0
XAxis mode: Wavelengths
Number of Pixels in Spectrum: 2048
>>>>>Begin Spectral Data<<<<<
187.836	-3.98
188.309	-3.98
188.782	-3.98
189.255	0.02
189.728	1.52
190.201	3.82
190.674	3.52
191.147	7.72
191.619	-8.68
192.092	-0.18
192.565	3.82
193.038	-3.98
193.511	0.02
193.984	0.12
194.456	-4.18
194.929	-1.68
195.402	-0.38
195.874	2.52
196.347	0.42
196.82	-10.68
197.292	5.12
197.765	-4.18
198.237	-3.88
198.71	-1.38
199.182	0.42
199.655	1.42
200.127	-0.18
200.6	-0.98
201.072	-4.38
201.544	-9.48
202.017	-7.68
202.489	2.72
202.961	-6.28
203.433	-10.18
203.906	-5.48
204.378	-7.48
204.85	-7.18
205.322	-13.78
205.794	-3.58
206.266	-5.28
206.739	-5.08
207.211	1.32
207.683	-4.68
208.155	-1.78
208.627	-5.08
209.099	-8.08
209.57	-10.78
210.042	-4.18
210.514	-0.98
210.986	-5.48
211.458	-8.18
211.93	3.12
212.402	2.32
212.873	-1.68
213.345	-11.18
213.817	-15.88
214.288	1.22
214.76	-10.98
215.232	-2.58
215.703	-8.18
216.175	-1.68
216.646	-0.78
217.118	-10.58
217.589	-4.88
218.061	-8.58
218.532	-4.78
219.004	-7.08
219.475	4.82
219.946	-6.28
220.418	-3.58
220.889	3.32
221.36	-3.08
221.832	-3.28
222.303	-9.08
222.774	-2.28
223.245	-11.38
223.717	-9.08
224.188	-8.88
224.659	-10.48
225.13	-5.58
225.601	-3.58
226.072	-1.58
226.543	-2.48
227.014	-0.98
227.485	-1.48
227.956	-3.38
228.427	-1.38
228.898	0.12
229.369	-1.78
229.839	1.12
230.31	-4.18
230.781	2.62
231.252	-3.88
231.722	-5.58
232.193	-2.68
232.664	-3.78
233.135	-3.68
233.605	-0.08
234.076	-10.08
234.546	2.62
235.017	1.12
235.487	0.52
235.958	2.32
236.428	-1.88
236.899	2.92
237.369	4.42
237.84	-2.08
238.31	2.12
238.78	2.82
239.251	3.12
239.721	2.62
240.191	-1.88
240.662	-0.18
241.132	-4.98
241.602	-3.78
242.072	-3.38
242.542	4.32
243.013	5.12
243.483	3.32
243.953	5.32
244.423	-2.28
244.893	-0.18
245.363	2.22
245.833	4.12
246.303	-1.38
246.773	9.42
247.243	3.82
247.712	7.12
248.182	13.12
248.652	4.92
249.122	-2.88
249.592	11.02
250.061	18.02
250.531	30.82
251.001	13.32
251.471	18.62
251.94	15.52
252.41	9.32
252.879	-3.28
253.349	12.52
253.818	16.42
254.288	5.42
254.757	4.72
255.227	3.12
255.696	0.12
256.166	4.92
256.635	8.22
257.105	10.62
257.574	11.72
258.043	12.62
258.513	13.32
258.982	18.32
259.451	10.02
259.92	13.02
260.389	10.32
260.859	17.12
261.328	9.52
261.797	17.72
262.266	7.52
262.735	11.92
263.204	5.82
263.673	-2.38
264.142	7.42
264.611	-0.38
265.08	5.72
265.549	4.62
266.018	7.32
266.487	-3.08
266.955	2.72
267.424	-1.68
267.893	5.82
268.362	-3.28
268.83	4.12
269.299	10.32
269.768	9.22
270.236	1.92
270.705	1.62
271.174	9.02
271.642	3.12
272.111	8.02
272.579	22.02
273.048	24.02
273.516	32.82
273.985	27.52
274.453	21.02
274.922	13.02
275.39	11.02
275.858	-0.08
276.327	9.42
276.795	20.82
277.263	1.52
277.731	38.92
278.2	49.32
278.668	57.22
279.136	45.22
279.604	20.22
280.072	13.22
280.54	13.12
281.008	10.72
281.477	12.82
281.945	12.32
282.413	14.72
282.881	16.92
283.348	9.32
283.816	19.02
284.284	15.62
284.752	23.82
285.22	13.32
285.688	16.92
286.156	12.42
286.623	42.32
287.091	52.12
287.559	33.02
288.026	22.12
288.494	14.12
288.962	8.32
289.429	11.22
289.897	21.22
290.364	19.62
290.832	15.42
291.3	17.72
291.767	17.82
292.234	23.02
292.702	15.32
293.169	21.92
293.637	24.22
294.104	18.42
294.571	7.32
295.039	11.82
295.506	16.42
295.973	13.32
296.44	13.72
296.908	16.72
297.375	18.22
297.842	22.22
298.309	15.62
298.776	8.12
299.243	24.02
299.71	19.72
300.177	21.02
300.644	24.82
301.111	18.62
301.578	25.82
302.045	21.52
302.512	26.02
302.979	25.42
303.446	18.82
303.913	23.52
304.379	18.62
304.846	26.02
305.313	23.32
305.78	23.82
306.246	24.92
306.713	25.42
307.18	28.92
307.646	29.32
308.113	31.62
308.579	30.22
309.046	30.02
309.512	18.62
309.979	20.92
310.445	27.02
310.912	27.02
311.378	30.72
311.845	31.22
312.311	34.22
312.777	32.02
313.244	30.72
313.71	29.62
314.176	31.72
314.642	31.42
315.109	36.22
315.575	35.62
316.041	39.32
316.507	32.12
316.973	38.62
317.439	37.62
317.905	35.82
318.371	38.72
318.837	39.92
319.303	38.02
319.769	32.42
320.235	33.32
320.701	39.02
321.167	37.12
321.633	39.72
322.099	33.72
322.564	43.52
323.03	42.32
323.496	45.02
323.962	37.82
324.427	40.72
324.893	45.72
325.359	43.02
325.824	38.02
326.29	36.52
326.755	47.02
327.221	36.12
327.686	41.92
328.152	45.82
328.617	42.02
329.083	49.72
329.548	53.22
330.014	52.92
330.479	39.32
330.944	43.02
331.41	44.92
331.875	42.82
332.34	42.92
332.805	53.22
333.271	52.52
333.736	47.32
334.201	54.82
334.666	47.12
335.131	57.02
335.596	54.02
336.061	53.62
336.526	39.62
336.991	47.62
337.456	51.82
337.921	47.32
338.386	50.52
338.851	40.72
339.316	51.92
339.781	45.72
340.246	54.92
340.711	45.02
341.175	50.12
341.64	42.82
342.105	49.62
342.569	53.92
343.034	64.72
343.499	58.72
343.963	55.82
344.428	64.72
344.893	65.52
345.357	61.82
345.822	59.92
346.286	68.92
346.751	71.82
347.215	71.72
347.679	81.52
348.144	99.42
348.608	83.82
349.073	74.62
349.537	74.42
350.001	82.12
350.465	94.22
350.93	81.52
351.394	82.42
351.858	73.92
352.322	85.72
352.786	93.02
353.25	102.82
353.715	113.62
354.179	99.52
354.643	131.52
355.107	140.22
355.571	116.52
356.035	110.92
356.498	122.42
356.962	133.62
357.426	139.42
357.89	123.42
358.354	91.52
358.818	88.92
359.281	84.12
359.745	88.02
360.209	76.82
360.673	74.12
361.136	85.92
361.6	88.82
362.064	83.62
362.527	87.12
362.991	88.82
363.454	82.22
363.918	80.52
364.381	78.02
364.845	84.92
365.308	83.42
365.772	80.92
366.235	89.02
366.698	87.82
367.162	94.42
367.625	89.72
368.088	90.82
368.552	87.42
369.015	90.52
369.478	99.92
369.941	98.72
370.404	102.82
370.867	109.62
371.331	108.82
371.794	120.72
372.257	110.62
372.72	117.02
373.183	112.92
373.646	106.02
374.109	109.22
374.572	113.82
375.035	112.72
375.497	107.72
375.96	104.92
376.423	104.92
376.886	113.92
377.349	112.52
377.811	107.62
378.274	110.42
378.737	110.62
379.199	109.92
379.662	118.72
380.125	119.22
380.587	116.72
381.05	121.22
381.512	127.82
381.975	146.02
382.437	133.32
382.9	135.72
383.362	137.72
383.825	146.02
384.287	145.82
384.75	142.12
385.212	149.52
385.674	144.22
386.136	141.62
386.599	121.92
387.061	128.22
387.523	134.12
387.985	142.12
388.447	149.32
388.91	148.42
389.372	158.92
389.834	150.72
390.296	146.32
390.758	160.02
391.22	178.92
391.682	216.12
392.144	310.32
392.606	230.32
393.068	170.02
393.529	176.72
393.991	157.32
394.453	152.12
394.915	159.32
395.377	197.42
395.838	225.42
396.3	165.32
396.762	145.72
397.224	143.42
397.685	137.72
398.147	129.12
398.608	127.42
399.07	132.72
399.531	144.12
399.993	148.72
400.454	157.92
400.916	140.52
401.377	142.22
401.839	149.92
402.3	153.02
402.762	171.72
403.223	188.22
403.684	180.72
404.145	164.62
404.607	175.72
405.068	173.42
405.529	176.52
405.99	186.82
406.451	189.22
406.913	185.62
407.374	169.62
407.835	166.82
408.296	171.32
408.757	181.42
409.218	193.72
409.679	192.42
410.14	175.92
410.601	179.32
411.062	189.82
411.522	199.32
411.983	198.62
412.444	177.62
412.905	183.22
413.366	189.22
413.826	199.32
414.287	220.72
414.748	269.62
415.208	256.52
415.669	212.52
416.13	207.72
416.59	208.92
417.051	227.82
417.511	226.52
417.972	241.12
418.432	250.22
418.893	290.22
419.353	256.92
419.814	205.32
420.274	192.62
420.734	184.82
421.195	210.62
421.655	206.12
422.115	200.42
422.576	200.42
423.036	207.42
423.496	218.22
423.956	225.22
424.416	238.62
424.876	275.62
425.336	276.52
425.797	268.92
426.257	272.12
426.717	250.92
427.177	235.82
427.637	228.22
428.097	242.62
428.556	249.42
429.016	275.92
429.476	276.42
429.936	287.02
430.396	289.52
430.856	297.42
431.315	333.12
431.775	367.22
432.235	388.42
432.694	370.22
433.154	378.72
433.614	413.62
434.073	351.72
434.533	293.42
434.993	283.42
435.452	289.72
435.912	307.52
436.371	299.32
436.83	292.62
437.29	279.22
437.749	256.22
438.209	250.62
438.668	280.92
439.127	295.12
439.587	274.02
440.046	257.12
440.505	270.62
440.964	286.12
441.424	337.12
441.883	320.82
442.342	259.42
442.801	231.52
443.26	219.72
443.719	226.62
444.178	226.72
444.637	222.62
445.096	220.12
445.555	223.02
446.014	223.32
446.473	229.42
446.932	241.22
447.391	231.32
447.849	237.82
448.308	227.02
448.767	231.02
449.226	241.72
449.685	234.52
450.143	253.02
450.602	238.12
451.061	235.82
451.519	237.42
451.978	234.72
452.436	237.42
452.895	242.62
453.353	257.52
453.812	247.92
454.27	248.62
454.729	244.02
455.187	243.52
455.646	247.22
456.104	250.42
456.562	271.82
457.021	273.32
457.479	266.22
457.937	280.62
458.395	270.62
458.854	255.72
459.312	270.12
459.77	279.32
460.228	265.72
460.686	245.12
461.144	254.92
461.602	244.52
462.06	250.02
462.518	256.12
462.976	259.22
463.434	262.92
463.892	262.62
464.35	289.02
464.808	295.12
465.266	268.02
465.724	270.82
466.181	275.42
466.639	275.42
467.097	295.22
467.555	309.52
468.012	313.52
468.47	311.22
468.928	332.52
469.385	351.82
469.843	360.82
470.3	360.92
470.758	373.22
471.215	397.42
471.673	417.02
472.13	417.62
472.588	430.52
473.045	373.82
473.503	391.02
473.96	398.42
474.417	420.92
474.875	446.02
475.332	497.22
475.789	468.92
476.246	479.42
476.704	499.42
477.161	525.02
477.618	538.62
478.075	574.82
478.532	640.62
478.989	707.72
479.446	828.92
479.903	793.22
480.36	825.62
480.817	899.42
481.274	988.52
481.731	1093.02
482.188	1199.02
482.645	1332.92
483.102	1445.12
483.558	1583.62
484.015	1636.12
484.472	1620.92
484.929	1558.82
485.385	1505.22
485.842	1466.22
486.299	1413.42
486.755	1337.62
487.212	1131.12
487.668	953.82
488.125	868.62
488.582	798.42
489.038	768.52
489.494	727.42
489.951	699.32
490.407	679.32
490.864	670.12
491.32	662.72
491.776	657.62
492.233	661.92
492.689	627.32
493.145	614.12
493.602	612.32
494.058	632.02
494.514	632.42
494.97	651.52
495.426	664.32
495.882	631.02
496.338	630.72
496.794	637.72
497.251	628.82
497.707	644.22
498.163	646.02
498.618	657.42
499.074	660.22
499.53	690.22
499.986	696.52
500.442	663.32
500.898	633.32
501.354	635.02
501.809	639.82
502.265	659.42
502.721	672.62
503.177	694.52
503.632	676.12
504.088	692.02
504.543	725.12
504.999	729.72
505.455	674.52
505.91	648.82
506.366	651.22
506.821	641.82
507.277	629.72
507.732	638.92
508.187	637.42
508.643	638.22
509.098	653.62
509.553	669.72
510.009	670.92
510.464	690.12
510.919	699.12
511.375	711.22
511.83	717.22
512.285	730.62
512.74	769.22
513.195	800.42
513.65	788.92
514.105	771.12
514.56	785.72
515.015	804.62
515.47	825.12
515.925	804.32
516.38	792.62
516.835	803.92
517.29	796.32
517.745	793.52
518.2	776.52
518.655	761.72
519.109	746.62
519.564	755.72
520.019	732.52
520.474	740.32
520.928	726.42
521.383	733.82
521.838	726.72
522.292	718.22
522.747	717.22
523.201	709.12
523.656	709.12
524.11	710.62
524.565	700.22
525.019	704.62
525.474	723.72
525.928	710.92
526.382	707.72
526.837	705.12
527.291	717.62
527.745	707.32
528.2	720.52
528.654	703.72
529.108	701.82
529.562	695.22
530.016	701.52
530.47	692.92
530.925	707.82
531.379	707.52
531.833	712.02
532.287	715.22
532.741	717.02
533.195	721.02
533.649	730.12
534.103	727.12
534.556	715.92
535.01	720.82
535.464	721.82
535.918	729.42
536.372	722.92
536.826	735.22
537.279	709.12
537.733	717.42
538.187	713.02
538.64	714.42
539.094	727.92
539.548	725.72
540.001	728.52
540.455	727.92
540.908	738.32
541.362	747.02
541.815	756.32
542.269	761.72
542.722	772.32
543.175	776.12
543.629	780.02
544.082	794.82
544.536	793.82
544.989	801.02
545.442	792.82
545.895	800.82
546.349	788.92
546.802	797.62
547.255	803.52
547.708	807.92
548.161	824.32
548.614	830.02
549.067	839.52
549.52	822.42
549.973	819.62
550.426	813.42
550.879	807.62
551.332	796.72
551.785	809.12
552.238	815.62
552.691	824.02
553.144	833.12
553.596	848.62
554.049	865.52
554.502	895.92
554.955	911.62
555.407	917.42
555.86	908.82
556.313	896.82
556.765	886.72
557.218	884.02
557.67	888.82
558.123	886.92
558.576	877.92
559.028	880.52
559.48	886.12
559.933	882.22
560.385	842.42
560.838	810.62
561.29	791.32
561.742	784.82
562.195	771.22
562.647	771.62
563.099	785.42
563.551	776.42
564.004	789.02
564.456	770.32
564.908	759.92
565.36	754.42
565.812	737.02
566.264	734.62
566.716	720.52
567.168	727.42
567.62	730.72
568.072	708.02
568.524	701.02
568.976	688.12
569.428	680.82
569.88	679.62
570.332	685.92
570.784	689.12
571.235	680.92
571.687	691.22
572.139	703.12
572.59	721.62
573.042	716.12
573.494	712.92
573.945	711.62
574.397	685.52
574.849	686.92
575.3	691.42
575.752	686.72
576.203	683.22
576.655	695.32
577.106	671.52
577.557	675.02
578.009	666.32
578.46	665.52
578.912	671.42
579.363	664.92
579.814	669.52
580.265	667.92
580.717	662.02
581.168	669.12
581.619	672.12
582.07	677.92
582.521	681.22
582.972	678.82
583.423	688.02
583.875	678.52
584.326	705.02
584.777	744.62
585.227	821.52
585.678	909.62
586.129	992.32
586.58	1084.92
587.031	1153.02
587.482	1313.52
587.933	1505.62
588.384	1290.32
588.834	976.92
589.285	807.62
589.736	778.42
590.186	766.42
590.637	762.92
591.088	750.52
591.538	749.42
591.989	724.02
592.439	724.22
592.89	733.92
593.34	702.42
593.791	715.62
594.241	699.02
594.692	716.92
595.142	697.42
595.593	696.22
596.043	703.52
596.493	717.22
596.943	727.22
597.394	718.92
597.844	716.52
598.294	721.02
598.744	755.22
599.195	770.12
599.645	819.22
600.095	854.42
600.545	901.52
600.995	962.62
601.445	1016.82
601.895	1069.52
602.345	1124.12
602.795	1108.12
603.245	1059.62
603.695	1007.32
604.145	952.32
604.594	907.22
605.044	856.62
605.494	802.22
605.944	748.22
606.393	739.32
606.843	727.92
607.293	728.52
607.743	737.82
608.192	746.42
608.642	755.32
609.091	755.82
609.541	760.62
609.99	769.02
610.44	760.32
610.889	731.22
611.339	694.32
611.788	691.52
612.238	698.22
612.687	718.82
613.136	720.52
613.586	737.92
614.035	731.72
614.484	748.02
614.933	754.22
615.383	748.52
615.832	734.52
616.281	720.22
616.73	679.42
617.179	658.22
617.628	645.72
618.077	631.92
618.526	612.52
618.975	623.92
619.424	612.42
619.873	607.02
620.322	612.42
620.771	598.92
621.22	596.22
621.669	588.42
622.118	592.32
622.567	579.22
623.015	560.02
623.464	556.92
623.913	557.82
624.361	544.42
624.81	547.42
625.259	539.82
625.707	554.12
626.156	543.52
626.604	556.62
627.053	560.92
627.501	555.82
627.95	560.82
628.398	570.62
628.847	558.32
629.295	563.42
629.744	570.52
630.192	569.22
630.64	566.32
631.089	555.52
631.537	573.22
631.985	580.22
632.433	589.42
632.881	607.02
633.33	655.12
633.778	632.92
634.226	554.52
634.674	561.02
635.122	575.52
635.57	591.92
636.018	621.12
636.466	575.62
636.914	545.22
637.362	560.92
637.81	560.02
638.258	565.52
638.705	570.92
639.153	605.12
639.601	609.62
640.049	637.62
640.497	657.42
640.944	686.42
641.392	624.22
641.84	610.42
642.287	568.22
642.735	565.92
643.182	560.92
643.63	564.82
644.078	572.32
644.525	585.92
644.973	590.12
645.42	602.92
645.867	616.82
646.315	616.92
646.762	655.82
647.21	679.72
647.657	704.92
648.104	747.22
648.551	768.82
648.999	832.92
649.446	914.22
649.893	1003.32
650.34	1144.52
650.787	1367.62
651.234	1709.42
651.682	2222.92
652.129	3034.12
652.576	4384.52
653.023	6472.62
653.47	8889.82
653.917	11136.42
654.363	12887.22
654.81	14270.02
655.257	13582.42
655.704	8911.92
656.151	5263.92
656.598	3401.72
657.044	2412.42
657.491	1845.02
657.938	1481.22
658.385	1233.92
658.831	1073.42
659.278	952.22
659.724	848.02
660.171	779.32
660.618	721.72
661.064	687.72
661.511	657.82
661.957	643.72
662.404	632.32
662.85	646.02
663.296	609.12
663.743	547.72
664.189	531.72
664.635	529.02
665.082	525.02
665.528	507.32
665.974	503.52
666.42	504.22
666.867	499.72
667.313	485.32
667.759	472.52
668.205	469.02
668.651	477.52
669.097	477.72
669.543	486.82
669.989	459.62
670.435	434.72
670.881	431.22
671.327	431.22
671.773	459.42
672.219	474.62
672.665	532.72
673.11	570.52
673.556	606.52
674.002	654.72
674.448	638.92
674.893	543.12
675.339	457.92
675.785	429.52
676.23	413.32
676.676	389.52
677.122	377.62
677.567	360.72
678.013	365.42
678.458	350.52
678.904	355.02
679.349	340.92
679.794	353.42
680.24	347.72
680.685	334.62
681.131	335.82
681.576	330.12
682.021	346.92
682.466	340.02
682.912	339.22
683.357	342.42
683.802	371.82
684.247	406.92
684.692	437.12
685.137	479.32
685.583	519.02
686.028	553.12
686.473	503.12
686.918	441.62
687.363	411.32
687.807	385.92
688.252	357.32
688.697	344.92
689.142	328.92
689.587	325.92
690.032	319.12
690.477	327.12
690.921	340.92
691.366	378.52
691.811	395.42
692.255	417.92
692.7	444.62
693.145	500.72
693.589	673.02
694.034	1076.72
694.478	1486.42
694.923	1704.72
695.367	2205.72
695.812	1174.52
696.256	488.42
696.701	354.62
697.145	333.12
697.59	327.02
698.034	313.22
698.478	319.72
698.922	315.12
699.367	314.42
699.811	329.82
700.255	346.62
700.699	377.12
701.143	415.22
701.588	461.72
702.032	499.52
702.476	493.72
702.92	488.62
703.364	481.92
703.808	615.52
704.252	987.52
704.696	1412.12
705.14	1623.42
705.584	2079.62
706.027	1030.42
706.471	509.72
706.915	385.82
707.359	340.42
707.803	315.52
708.246	304.82
708.69	308.32
709.134	314.32
709.577	306.12
710.021	310.42
710.465	309.92
710.908	295.02
711.352	289.72
711.795	306.22
712.239	339.82
712.682	375.32
713.126	400.32
713.569	449.92
714.012	363.52
714.456	312.42
714.899	291.12
715.342	263.22
715.786	261.42
716.229	252.22
716.672	250.72
717.115	240.12
717.558	239.62
718.002	248.22
718.445	253.62
718.888	276.62
719.331	283.12
719.774	300.12
720.217	295.42
720.66	277.72
721.103	255.42
721.546	251.42
721.989	235.42
722.432	226.12
722.874	228.02
723.317	221.02
723.76	233.32
724.203	248.72
724.645	305.72
725.088	433.62
725.531	553.92
725.974	632.22
726.416	533.42
726.859	304.02
727.301	241.72
727.744	232.62
728.187	222.72
728.629	233.82
729.071	239.52
729.514	251.82
729.956	258.12
730.399	271.22
730.841	279.12
731.283	265.92
731.726	268.22
732.168	257.72
732.61	254.62
733.053	274.22
733.495	299.32
733.937	339.82
734.379	385.82
734.821	422.92
735.263	527.02
735.705	796.52
736.148	1516.72
736.59	2481.12
737.032	2948.12
737.474	2435.52
737.916	787.62
738.357	417.82
738.799	318.32
739.241	295.32
739.683	277.22
740.125	277.72
740.567	287.42
741.008	307.92
741.45	304.52
741.892	306.42
742.334	336.12
742.775	342.62
743.217	327.22
743.658	263.72
744.1	249.42
744.542	254.52
744.983	306.52
745.425	334.82
745.866	327.72
746.307	276.92
746.749	273.22
747.19	312.12
747.632	435.12
748.073	838.22
748.514	1776.32
748.956	2770.42
749.397	3441.42
749.838	2873.72
750.279	2860.32
750.72	1454.82
751.162	526.62
751.603	306.52
752.044	247.22
752.485	207.52
752.926	196.22
753.367	200.22
753.808	197.32
754.249	186.72
754.69	179.92
755.131	173.92
755.572	175.12
756.013	175.62
756.453	178.32
756.894	177.02
757.335	186.92
757.776	183.52
758.216	191.62
758.657	191.22
759.098	194.02
759.538	212.02
759.979	259.72
760.42	349.42
760.86	659.02
761.301	1733.52
761.741	4236.32
762.182	6256.92
762.622	4420.52
763.063	1265.82
763.503	520.82
763.943	327.52
764.384	332.52
764.824	393.82
765.264	432.92
765.705	284.52
766.145	206.92
766.585	177.92
767.025	178.32
767.465	186.62
767.906	233.32
768.346	310.62
768.786	339.12
769.226	253.62
769.666	303.72
770.106	590.02
770.546	1484.02
770.986	2559.02
771.426	2315.12
771.866	763.62
772.306	321.52
772.745	200.72
773.185	165.12
773.625	166.92
774.065	161.52
774.505	191.42
774.944	288.02
775.384	646.22
775.824	1190.12
776.263	1167.72
776.703	494.02
777.142	219.52
777.582	155.92
778.021	133.32
778.461	138.02
778.9	135.92
779.34	131.12
779.779	114.22
780.219	109.62
780.658	106.02
781.097	117.12
781.537	110.82
781.976	107.12
782.415	103.62
782.855	97.52
783.294	100.32
783.733	99.42
784.172	115.42
784.611	96.82
785.05	107.42
785.489	105.92
785.928	110.02
786.367	119.02
786.806	117.02
787.245	126.22
787.684	133.02
788.123	142.12
788.562	126.02
789.001	119.22
789.44	110.52
789.879	112.22
790.317	115.62
790.756	124.52
791.195	129.62
791.634	138.02
792.072	193.02
792.511	341.82
792.95	942.52
793.388	2061.72
793.827	1886.72
794.265	651.02
794.704	273.42
795.142	181.22
795.581	152.92
796.019	132.42
796.458	119.82
796.896	121.62
797.334	128.42
797.773	150.52
798.211	204.42
798.649	416.82
799.087	980.22
799.526	1538.92
799.964	1929.92
800.402	1966.92
800.84	729.32
801.278	293.82
801.716	179.32
802.154	148.12
802.592	146.32
803.03	134.02
803.468	132.92
803.906	132.52
804.344	141.12
804.782	134.12
805.22	128.02
805.658	124.02
806.096	142.82
806.533	149.02
806.971	159.72
807.409	206.42
807.847	304.62
808.284	617.82
808.722	1777.82
809.16	3177.82
809.597	3002.62
810.035	5193.12
810.472	5618.12
810.91	2022.52
811.347	770.42
811.785	387.52
812.222	250.42
812.66	188.22
813.097	150.52
813.535	136.32
813.972	127.32
814.409	115.62
814.846	99.32
815.284	108.42
815.721	99.62
816.158	105.82
816.595	116.92
817.032	173.92
817.47	192.72
817.907	165.82
818.344	149.32
818.781	118.22
819.218	101.32
819.655	124.62
820.092	175.12
820.529	210.02
820.966	165.72
821.403	131.52
821.839	100.02
822.276	98.22
822.713	119.12
823.15	130.92
823.587	117.52
824.023	139.82
824.46	282.22
824.897	853.82
825.333	1315.82
825.77	556.12
826.206	222.02
826.643	133.22
827.08	104.52
827.516	79.42
827.953	79.92
828.389	78.02
828.825	70.42
829.262	66.32
829.698	55.52
830.135	63.22
830.571	57.52
831.007	58.32
831.443	61.62
831.88	63.92
832.316	57.12
832.752	54.82
833.188	58.52
833.624	55.12
834.06	64.42
834.497	61.12
834.933	71.62
835.369	69.72
835.805	62.42
836.241	77.22
836.677	71.62
837.112	82.32
837.548	96.92
837.984	128.52
838.42	179.72
838.856	465.22
839.292	1437.52
839.727	2240.02
840.163	1033.82
840.599	876.02
841.034	1936.22
841.47	2073.32
841.906	756.22
842.341	320.82
842.777	227.92
843.212	297.82
843.648	301.12
844.083	150.52
844.519	93.72
844.954	74.52
845.39	62.62
845.825	55.72
846.261	54.92
846.696	56.22
847.131	54.12
847.566	51.12
848.002	50.92
848.437	51.32
848.872	52.92
849.307	60.92
849.742	77.52
850.177	168.92
850.613	533.82
851.048	848.92
851.483	372.22
851.918	150.72
852.353	95.42
852.788	58.52
853.223	55.22
853.657	59.12
854.092	44.72
854.527	43.52
854.962	41.82
855.397	44.22
855.832	51.22
856.266	44.62
856.701	40.42
857.136	32.52
857.57	40.72
858.005	44.32
858.44	58.12
858.874	47.22
859.309	48.52
859.743	42.92
860.178	44.82
860.612	40.42
861.047	46.62
861.481	64.72
861.915	64.72
862.35	49.62
862.784	31.52
863.218	33.82
863.653	32.32
864.087	46.02
864.521	48.82
864.955	66.12
865.39	151.92
865.824	164.72
866.258	109.12
866.692	154.12
867.126	173.52
867.56	100.02
867.994	50.92
868.428	38.92
868.862	40.72
869.296	56.42
869.73	52.82
870.164	44.32
870.598	43.52
871.031	37.52
871.465	31.32
871.899	35.72
872.333	23.52
872.766	26.82
873.2	21.42
873.634	28.82
874.067	22.32
874.501	22.02
874.935	40.12
875.368	25.32
875.802	27.12
876.235	19.32
876.669	24.42
877.102	19.32
877.535	25.62
877.969	24.62
878.402	22.42
878.836	20.22
879.269	23.42
879.702	23.92
880.135	15.12
880.569	24.02
881.002	28.12
881.435	20.22
881.868	14.52
882.301	15.92
882.734	16.22
883.167	25.92
883.601	19.72
884.034	21.42
884.467	11.92
884.899	16.42
885.332	20.92
885.765	15.52
886.198	18.12
886.631	19.82
887.064	16.32
887.497	18.52
887.929	19.52
888.362	13.02
888.795	11.02
889.228	13.72
889.66	18.52
890.093	16.92
890.526	17.62
890.958	16.12
891.391	19.92
891.823	18.02
892.256	17.92
892.688	9.62
893.121	10.32
893.553	12.42
893.985	21.12
894.418	20.02
894.85	9.92
895.282	22.52
895.715	17.72
896.147	16.92
896.579	15.32
897.011	13.62
897.444	18.92
897.876	11.22
898.308	21.32
898.74	14.62
899.172	16.02
899.604	22.92
900.036	17.62
900.468	12.92
900.9	14.02
901.332	12.92
901.764	8.32
902.196	13.82
902.628	10.02
903.06	15.72
903.491	23.72
903.923	19.72
904.355	21.82
904.787	29.52
905.218	20.32
905.65	21.52
906.082	14.62
906.513	11.62
906.945	15.52
907.376	12.92
907.808	21.02
908.239	21.72
908.671	18.32
909.102	16.32
909.534	22.12
909.965	47.12
910.397	85.52
910.828	304.82
911.259	462.62
911.691	209.72
912.122	103.42
912.553	50.42
912.984	32.22
913.415	24.22
913.847	26.82
914.278	11.22
914.709	20.42
915.14	16.22
915.571	20.72
916.002	18.32
916.433	16.12
916.864	14.02
917.295	8.82
917.726	21.32
918.157	14.82
918.587	26.72
919.018	15.12
919.449	14.82
919.88	19.42
920.311	27.82
920.741	45.02
921.172	162.02
921.603	145.02
922.033	72.12
922.464	39.52
922.895	18.12
923.325	25.32
923.756	12.72
924.186	10.02
924.617	24.82
925.047	37.32
925.478	53.82
925.908	42.72
926.338	28.32
926.769	18.32
927.199	19.42
927.629	5.82
928.06	16.82
928.49	11.72
928.92	12.12
929.35	10.12
929.78	10.92
930.21	4.72
930.641	6.92
931.071	11.62
931.501	-0.08
931.931	6.52
932.361	10.42
932.791	6.02
933.221	5.12
933.651	4.82
934.08	20.02
934.51	23.52
934.94	11.62
935.37	12.32
935.8	10.32
936.229	6.02
936.659	14.62
937.089	0.22
937.519	8.82
937.948	17.52
938.378	12.82
938.807	3.62
939.237	2.52
939.666	7.62
940.096	-0.08
940.525	6.52
940.955	-2.38
941.384	5.22
941.814	-4.38
942.243	-8.78
942.672	5.02
943.102	-0.38
943.531	2.72
943.96	5.82
944.39	-0.18
944.819	0.82
945.248	-3.98
945.677	1.72
946.106	6.82
946.535	9.32
946.964	2.72
947.393	6.12
947.822	7.32
948.251	-1.58
948.68	-0.28
949.109	2.12
949.538	2.02
949.967	0.12
950.396	-0.98
950.825	-7.78
951.254	2.42
951.682	-7.58
952.111	6.82
952.54	2.72
952.969	-7.88
953.397	-5.48
953.826	3.92
954.254	-1.88
954.683	-0.88
955.112	-0.48
955.54	0.92
955.969	0.92
956.397	-2.88
956.826	-2.68
957.254	3.52
957.682	1.92
958.111	-2.78
958.539	0.92
958.967	-1.28
959.396	-1.78
959.824	2.82
960.252	2.22
960.68	-4.38
961.109	1.22
961.537	-6.78
961.965	-0.18
962.393	-4.78
962.821	-3.08
963.249	-0.08
963.677	1.22
964.105	4.72
964.533	40.12
964.961	33.72
965.389	17.92
965.817	8.12
966.245	0.32
966.672	3.32
967.1	-7.98
967.528	2.22
967.956	-0.78
968.383	-2.88
968.811	-7.48
969.239	-3.98
969.666	-4.78
970.094	6.22
970.522	2.12
970.949	-3.28
971.377	-4.48
971.804	-8.78
972.232	-3.18
972.659	-4.08
973.087	-1.48
973.514	-7.68
973.941	-7.38
974.369	8.02
974.796	-5.68
975.223	-0.38
975.651	-2.68
976.078	8.62
976.505	0.82
976.932	2.12
977.359	18.72
977.786	16.52
978.214	0.52
978.641	-7.08
979.068	-1.78
979.495	-4.98
979.922	-2.38
980.349	-6.48
980.776	-0.48
981.202	-2.78
981.629	1.02
982.056	1.02
982.483	-5.38
982.91	2.72
983.337	-7.78
983.763	3.32
984.19	-7.18
984.617	-1.08
985.043	-6.68
985.47	-9.28
985.897	-4.98
986.323	-7.28
986.75	7.32
987.176	-10.78
987.603	-6.08
988.029	-6.98
988.456	-2.88
988.882	-3.58
989.308	-7.78
989.735	-4.38
990.161	0.42
990.587	-2.48
991.014	0.42
991.44	7.62
991.866	-1.28
992.292	-3.78
992.719	0.12
993.145	3.82
993.571	-9.68
993.997	-5.08
994.423	-3.68
994.849	-5.68
995.275	-2.68
995.701	1.52
996.127	-3.08
996.553	-0.98
996.979	-4.98
997.405	1.02
997.83	-0.98
998.256	-2.78
998.682	-4.68
999.108	-4.48
999.534	-3.68
999.959	-0.18
1000.385	-5.18
1000.811	-2.18
1001.236	-7.08
1001.662	-14.08
1002.087	-11.78
1002.513	-1.18
1002.938	4.82
1003.364	-6.68
1003.789	-3.48
1004.215	7.12
1004.64	1.42
1005.066	1.12
1005.491	5.82
1005.916	7.12
1006.342	-4.48
1006.767	-6.28
1007.192	0.72
1007.617	-1.68
1008.042	-7.08
1008.468	-2.48
1008.893	-1.68
1009.318	-2.78
1009.743	1.22
1010.168	0.12
1010.593	4.82
1011.018	-7.38
1011.443	-4.58
1011.868	-1.68
1012.293	-6.18
1012.718	-4.28
1013.143	5.92
1013.567	6.32
1013.992	-5.18
1014.417	-13.88
1014.842	2.62
1015.267	-3.18
1015.691	-3.68
1016.116	6.82
1016.541	3.72
1016.965	-2.58
1017.39	4.62
1017.814	-0.68
1018.239	0.62
1018.663	-4.68
1019.088	-8.58
1019.512	-1.58
1019.937	-2.48
1020.361	-6.18
1020.785	-11.68
1021.21	-5.98
1021.634	-6.68
1022.058	-2.48
1022.483	-2.58
1022.907	-3.48
1023.331	-7.88
1023.755	-3.88
1024.179	-6.68
1024.604	-10.48
1025.028	2.32
1025.452	-7.48
1025.876	1.42
1026.3	-2.28
1026.724	-6.28
1027.148	-6.88
1027.572	-12.68
1027.996	-2.18
1028.42	-0.08
1028.843	-9.48
1029.267	-5.08
1029.691	-2.88
1030.115	-8.48
1030.539	-11.58
1030.962	-6.88
1031.386	-7.88
1031.81	-3.38
1032.233	-2.68
1032.657	-2.38
1033.08	-4.88
1033.504	-0.08
1033.927	-4.78
1034.351	-1.88
1034.774	-3.78
1035.198	-1.08
1035.621	-7.08
1036.045	-11.98
1036.468	2.32
1036.891	-15.08
1037.315	-11.08
1037.738	-11.58
1038.161	-0.08
1038.584	-9.58
1039.008	-5.88
1039.431	-3.58
1039.854	-3.68
1040.277	-7.38
1040.7	-8.78
1041.123	0.82
1041.546	-9.78
1041.969	-2.78
1042.392	-5.48
1042.815	-0.28
1043.238	-1.78
1043.661	0.42
1044.084	-11.38
1044.507	-5.98
1044.93	-11.08
1045.352	-11.48
1045.775	-1.38
1046.198	-4.58
1046.621	0.62
1047.043	1.22
1047.466	4.42
1047.889	-5.78
1048.311	-2.38
1048.734	-2.88
1049.156	-6.38
1049.579	-7.48
1050.001	-2.68
1050.424	1.62
1050.846	-3.98
1051.269	-5.38
1051.691	-9.88
1052.113	-5.38
1052.536	-3.28
1052.958	-5.28
1053.38	-5.38
1053.802	-11.38
1054.225	2.32
1054.647	-12.48
1055.069	-3.78
1055.491	3.72
1055.913	-9.98
1056.335	-4.08
1056.757	-1.48
1057.179	-10.88
1057.601	-7.98
1058.023	-9.08
1058.445	-8.38
1058.867	-5.78
1059.289	-1.88
1059.711	-5.48
1060.133	-3.88
1060.555	-10.38
1060.976	-2.28
1061.398	-10.48
1061.82	-6.88
1062.241	-9.28
1062.663	-9.18
1063.085	-1.48
1063.506	1.42
1063.928	-4.78
1064.35	-3.88
1064.771	-14.98
1065.193	-5.08
1065.614	-6.78
1066.035	-2.78
1066.457	-1.58
1066.878	-0.28
1067.3	-7.98
1067.721	-5.08
1068.142	-8.78
1068.564	-6.88
1068.985	-7.78
1069.406	1.12
1069.827	-6.58
1070.248	-4.38
1070.67	-9.18
1071.091	-2.18
1071.512	-5.08
1071.933	-10.18
1072.354	-7.78
1072.775	-5.78
1073.196	-4.78
1073.617	-3.58
1074.038	-6.18
1074.459	-5.58
1074.88	-6.98
1075.3	-4.58
1075.721	-4.68
1076.142	1.02
1076.563	-11.48
1076.983	-9.98
1077.404	-8.78
1077.825	-7.58
1078.246	-7.58
1078.666	-5.88
1079.087	-6.18
1079.507	-9.98
1079.928	0.22
1080.348	-5.08
1080.769	-6.38
1081.189	-5.78
1081.61	-3.28
1082.03	-9.38
1082.451	-11.08
1082.871	-7.18
1083.291	-6.48
1083.711	-6.28
1084.132	-4.38
1084.552	-4.08
1084.972	-4.08
1085.392	-11.68
1085.813	-10.88
1086.233	-7.08
1086.653	-7.68
1087.073	-8.08
1087.493	-13.38
1087.913	-11.18
1088.333	-11.88
1088.753	-8.88
1089.173	-1.78
1089.593	-4.98
1090.013	-1.88
1090.433	1.22
1090.852	-4.68
1091.272	0.92
1091.692	-4.98
1092.112	-0.28
1092.531	-11.98
1092.951	-7.78
1093.371	-3.48
1093.79	3.32
1094.21	-11.58
1094.63	-5.88
1095.049	-2.18
1095.469	3.32
1095.888	-3.08
1096.308	-1.18
1096.727	-3.88
1097.146	-7.88
1097.566	0.32
1097.985	-3.38
1098.405	1.42
1098.824	-6.58
1099.243	-4.68
1099.662	-7.98
1100.082	-4.58
1100.501	0.62
1100.92	-5.58
1101.339	-2.58
1101.758	-5.58
