Data from 20171114-ORNL-Ar_H_NY_Subt18_08-03-38-586.txt Node
Date: Tue Nov 14 08:03:38 EST 2017
User: Ender
Spectrometer: HR+D1039
Trigger mode: 0
Integration Time (sec): 2.730000E-2
Scans to average: 10
Electric dark correction enabled: true
Nonlinearity correction enabled: false
Boxcar width: 0
XAxis mode: Wavelengths
Number of Pixels in Spectrum: 2048
>>>>>Begin Spectral Data<<<<<
187.836	-2.23
188.309	-2.23
188.782	-2.23
189.255	-0.83
189.728	-0.52
190.201	-0.92
190.674	-0.62
191.147	2.07
191.619	-5.73
192.092	4.28
192.565	9.38
193.038	-3.33
193.511	-1.73
193.984	-2.52
194.456	-1.12
194.929	6.68
195.402	0.17
195.874	-3.02
196.347	-0.52
196.82	-7.23
197.292	5.98
197.765	-3.52
198.237	-7.32
198.71	1.07
199.182	-4.12
199.655	0.17
200.127	5.77
200.6	5.77
201.072	-4.02
201.544	-2.62
202.017	-0.12
202.489	3.58
202.961	-1.82
203.433	-5.83
203.906	-6.12
204.378	-3.22
204.85	2.07
205.322	-9.83
205.794	1.38
206.266	0.58
206.739	-5.92
207.211	-1.72
207.683	-6.32
208.155	-3.62
208.627	-5.02
209.099	2.48
209.57	-8.22
210.042	-6.73
210.514	-1.22
210.986	-3.12
211.458	-5.92
211.93	-1.83
212.402	1.67
212.873	-4.02
213.345	-9.52
213.817	-9.73
214.288	-7.23
214.76	-13.42
215.232	-2.42
215.703	-7.52
216.175	-7.42
216.646	-0.52
217.118	-7.52
217.589	-9.42
218.061	-3.33
218.532	-2.82
219.004	-4.52
219.475	-2.02
219.946	-0.83
220.418	-4.52
220.889	1.48
221.36	2.88
221.832	-0.92
222.303	-7.52
222.774	-1.12
223.245	-8.62
223.717	-8.33
224.188	-7.12
224.659	-7.73
225.13	-6.62
225.601	-2.62
226.072	-3.52
226.543	-0.23
227.014	-0.83
227.485	-3.02
227.956	-2.82
228.427	-2.72
228.898	-3.22
229.369	-0.73
229.839	-3.92
230.31	-8.12
230.781	0.98
231.252	-4.82
231.722	-2.93
232.193	-5.72
232.664	-1.12
233.135	-2.23
233.605	-3.12
234.076	-6.43
234.546	-0.93
235.017	-1.02
235.487	0.38
235.958	-7.62
236.428	-4.42
236.899	-4.92
237.369	-3.02
237.84	-10.23
238.31	-3.92
238.78	-3.92
239.251	-5.62
239.721	-3.92
240.191	0.08
240.662	1.18
241.132	-3.73
241.602	-1.52
242.072	0.38
242.542	2.88
243.013	-6.33
243.483	-0.92
243.953	2.08
244.423	-2.02
244.893	2.08
245.363	-3.12
245.833	-2.82
246.303	-6.32
246.773	4.98
247.243	-1.33
247.712	-3.93
248.182	-2.12
248.652	2.77
249.122	-7.93
249.592	2.88
250.061	2.08
250.531	7.08
251.001	-0.22
251.471	9.48
251.94	3.07
252.41	-4.12
252.879	-6.12
253.349	9.17
253.818	4.18
254.288	-0.32
254.757	-2.42
255.227	-4.02
255.696	-0.92
256.166	0.48
256.635	5.08
257.105	3.18
257.574	-3.23
258.043	-2.12
258.513	-5.62
258.982	-5.22
259.451	-10.23
259.92	-1.62
260.389	-3.92
260.859	9.18
261.328	1.88
261.797	2.88
262.266	2.48
262.735	5.38
263.204	5.48
263.673	-6.62
264.142	7.68
264.611	-3.83
265.08	-8.62
265.549	-14.32
266.018	-3.92
266.487	-8.33
266.955	0.58
267.424	-0.82
267.893	1.08
268.362	-3.22
268.83	-0.52
269.299	9.98
269.768	1.48
270.236	1.68
270.705	-0.92
271.174	1.68
271.642	-3.33
272.111	-0.02
272.579	-1.52
273.048	1.17
273.516	0.08
273.985	-0.02
274.453	6.58
274.922	4.77
275.39	0.38
275.858	-4.02
276.327	5.77
276.795	9.78
277.263	3.98
277.731	3.77
278.2	4.77
278.668	8.18
279.136	7.38
279.604	-1.02
280.072	3.78
280.54	4.88
281.008	1.27
281.477	11.88
281.945	8.38
282.413	10.77
282.881	8.28
283.348	1.68
283.816	7.17
284.284	5.48
284.752	8.38
285.22	11.98
285.688	9.77
286.156	2.88
286.623	8.77
287.091	5.68
287.559	6.27
288.026	8.68
288.494	8.68
288.962	2.08
289.429	3.88
289.897	9.48
290.364	8.38
290.832	9.98
291.3	6.68
291.767	6.88
292.234	9.08
292.702	6.48
293.169	7.88
293.637	17.08
294.104	15.38
294.571	2.27
295.039	3.17
295.506	9.38
295.973	10.88
296.44	8.38
296.908	5.78
297.375	8.48
297.842	11.08
298.309	9.98
298.776	8.48
299.243	10.27
299.71	6.98
300.177	19.98
300.644	16.08
301.111	7.68
301.578	14.98
302.045	5.28
302.512	14.68
302.979	16.78
303.446	16.17
303.913	10.18
304.379	8.27
304.846	18.38
305.313	16.68
305.78	10.17
306.246	15.98
306.713	16.57
307.18	21.28
307.646	22.88
308.113	17.98
308.579	16.58
309.046	20.88
309.512	21.08
309.979	10.98
310.445	19.27
310.912	20.77
311.378	22.18
311.845	21.68
312.311	26.68
312.777	26.58
313.244	23.78
313.71	27.98
314.176	24.48
314.642	17.48
315.109	24.27
315.575	22.78
316.041	30.48
316.507	24.38
316.973	26.98
317.439	22.27
317.905	27.58
318.371	25.58
318.837	25.78
319.303	31.27
319.769	21.68
320.235	24.77
320.701	29.38
321.167	28.38
321.633	24.08
322.099	26.48
322.564	33.38
323.03	35.48
323.496	30.48
323.962	27.88
324.427	30.88
324.893	31.27
325.359	27.98
325.824	27.67
326.29	31.58
326.755	40.07
327.221	34.57
327.686	36.88
328.152	38.28
328.617	34.58
329.083	41.88
329.548	46.88
330.014	42.48
330.479	32.88
330.944	35.38
331.41	37.58
331.875	37.48
332.34	38.48
332.805	36.77
333.271	38.08
333.736	36.88
334.201	45.58
334.666	41.48
335.131	49.77
335.596	42.88
336.061	47.98
336.526	40.98
336.991	44.88
337.456	48.98
337.921	45.38
338.386	38.68
338.851	44.27
339.316	44.18
339.781	41.78
340.246	52.08
340.711	43.58
341.175	47.98
341.64	47.48
342.105	47.58
342.569	50.48
343.034	54.98
343.499	57.48
343.963	49.68
344.428	63.28
344.893	57.67
345.357	56.67
345.822	59.88
346.286	64.08
346.751	65.58
347.215	66.18
347.679	70.78
348.144	84.58
348.608	78.28
349.073	64.08
349.537	70.68
350.001	75.38
350.465	86.18
350.93	75.27
351.394	79.08
351.858	66.88
352.322	81.18
352.786	82.98
353.25	96.17
353.715	101.18
354.179	97.77
354.643	111.78
355.107	105.18
355.571	99.38
356.035	96.08
356.498	95.48
356.962	101.27
357.426	111.57
357.89	103.38
358.354	86.38
358.818	91.27
359.281	78.48
359.745	82.38
360.209	87.58
360.673	81.88
361.136	79.28
361.6	91.77
362.064	86.18
362.527	82.67
362.991	93.38
363.454	85.08
363.918	78.08
364.381	83.98
364.845	91.58
365.308	96.88
365.772	87.08
366.235	93.08
366.698	81.77
367.162	88.57
367.625	84.08
368.088	89.98
368.552	97.48
369.015	91.98
369.478	98.48
369.941	100.08
370.404	99.27
370.867	107.77
371.331	107.17
371.794	109.67
372.257	105.88
372.72	113.38
373.183	107.08
373.646	107.18
374.109	105.38
374.572	108.77
375.035	107.27
375.497	117.67
375.96	112.58
376.423	110.98
376.886	114.68
377.349	117.08
377.811	119.48
378.274	109.58
378.737	114.48
379.199	115.78
379.662	120.08
380.125	114.58
380.587	119.48
381.05	114.68
381.512	123.77
381.975	133.67
382.437	138.48
382.9	130.98
383.362	136.88
383.825	137.78
384.287	135.27
384.75	129.08
385.212	135.57
385.674	140.38
386.136	140.98
386.599	141.77
387.061	135.48
387.523	144.48
387.985	141.17
388.447	152.88
388.91	138.28
389.372	144.98
389.834	143.38
390.296	141.58
390.758	145.18
391.22	150.18
391.682	156.38
392.144	163.18
392.606	154.48
393.068	156.18
393.529	170.88
393.991	164.98
394.453	147.27
394.915	152.48
395.377	149.18
395.838	151.77
396.3	152.67
396.762	164.48
397.224	157.08
397.685	151.07
398.147	152.98
398.608	158.68
399.07	155.28
399.531	153.68
399.993	167.38
400.454	176.88
400.916	169.88
401.377	170.08
401.839	173.17
402.3	173.38
402.762	190.38
403.223	203.17
403.684	190.98
404.145	195.18
404.607	180.68
405.068	185.88
405.529	187.88
405.99	203.28
406.451	196.48
406.913	196.08
407.374	183.58
407.835	184.38
408.296	195.48
408.757	196.38
409.218	211.08
409.679	207.08
410.14	201.98
410.601	197.38
411.062	204.17
411.522	207.28
411.983	204.78
412.444	206.98
412.905	215.68
413.366	218.68
413.826	239.38
414.287	267.38
414.748	319.58
415.208	298.57
415.669	259.07
416.13	252.57
416.59	244.07
417.051	258.48
417.511	263.07
417.972	293.77
418.432	309.08
418.893	362.78
419.353	317.58
419.814	249.17
420.274	224.27
420.734	221.77
421.195	230.98
421.655	229.08
422.115	232.77
422.576	232.87
423.036	237.07
423.496	245.27
423.956	252.58
424.416	275.98
424.876	313.07
425.336	307.27
425.797	313.18
426.257	297.98
426.717	281.98
427.177	264.48
427.637	249.77
428.097	256.37
428.556	274.78
429.016	294.28
429.476	286.98
429.936	295.68
430.396	300.47
430.856	306.87
431.315	324.27
431.775	358.87
432.235	399.58
432.694	380.68
433.154	369.78
433.614	397.07
434.073	354.68
434.533	305.77
434.993	295.08
435.452	306.28
435.912	304.77
436.371	303.38
436.83	293.88
437.29	283.77
437.749	274.17
438.209	276.88
438.668	297.78
439.127	304.08
439.587	285.98
440.046	258.88
440.505	281.08
440.964	298.68
441.424	334.77
441.883	326.57
442.342	302.48
442.801	263.58
443.26	265.67
443.719	266.28
444.178	266.47
444.637	256.27
445.096	257.38
445.555	261.38
446.014	261.48
446.473	265.98
446.932	278.48
447.391	274.47
447.849	270.68
448.308	264.98
448.767	266.48
449.226	279.48
449.685	281.38
450.143	290.58
450.602	284.68
451.061	268.47
451.519	273.27
451.978	270.88
452.436	267.17
452.895	270.88
453.353	293.88
453.812	274.38
454.27	272.97
454.729	277.88
455.187	276.28
455.646	277.18
456.104	276.58
456.562	281.68
457.021	299.38
457.479	283.67
457.937	302.38
458.395	290.68
458.854	288.88
459.312	287.58
459.77	299.88
460.228	302.77
460.686	280.38
461.144	294.47
461.602	289.77
462.06	289.98
462.518	298.88
462.976	300.37
463.434	290.58
463.892	305.88
464.35	309.07
464.808	327.67
465.266	310.67
465.724	313.08
466.181	308.38
466.639	308.78
467.097	317.08
467.555	337.38
468.012	334.88
468.47	346.98
468.928	369.07
469.385	363.38
469.843	374.78
470.3	369.18
470.758	391.38
471.215	412.38
471.673	425.88
472.13	425.48
472.588	448.08
473.045	412.88
473.503	419.18
473.96	438.28
474.417	442.58
474.875	450.27
475.332	510.78
475.789	486.88
476.246	491.48
476.704	507.77
477.161	526.48
477.618	532.67
478.075	557.77
478.532	602.48
478.989	653.17
479.446	740.98
479.903	699.68
480.36	726.08
480.817	747.98
481.274	821.47
481.731	880.57
482.188	944.28
482.645	1036.08
483.102	1093.97
483.558	1176.38
484.015	1211.47
484.472	1205.07
484.929	1176.38
485.385	1153.77
485.842	1131.17
486.299	1115.98
486.755	1088.37
487.212	958.18
487.668	835.48
488.125	803.08
488.582	752.98
489.038	729.78
489.494	692.18
489.951	677.78
490.407	669.38
490.864	654.07
491.32	650.67
491.776	654.48
492.233	649.57
492.689	628.67
493.145	623.77
493.602	616.67
494.058	637.08
494.514	633.18
494.97	651.77
495.426	672.48
495.882	634.08
496.338	624.67
496.794	635.28
497.251	622.08
497.707	640.58
498.163	645.47
498.618	645.27
499.074	650.88
499.53	669.68
499.986	665.07
500.442	650.88
500.898	636.38
501.354	634.57
501.809	647.87
502.265	642.48
502.721	650.68
503.177	655.88
503.632	670.08
504.088	662.98
504.543	669.48
504.999	694.88
505.455	660.37
505.91	659.17
506.366	656.78
506.821	664.18
507.277	653.98
507.732	665.07
508.187	661.58
508.643	670.78
509.098	657.08
509.553	677.57
510.009	683.88
510.464	690.17
510.919	705.58
511.375	701.48
511.83	721.87
512.285	723.77
512.74	752.17
513.195	765.08
513.65	758.77
514.105	766.18
514.56	759.18
515.015	778.98
515.47	788.17
515.925	771.18
516.38	776.67
516.835	781.78
517.29	775.68
517.745	771.27
518.2	761.48
518.655	747.48
519.109	732.38
519.564	732.48
520.019	722.38
520.474	715.27
520.928	727.88
521.383	714.27
521.838	700.88
522.292	703.17
522.747	701.67
523.201	705.27
523.656	704.67
524.11	694.58
524.565	689.58
525.019	695.18
525.474	692.78
525.928	682.58
526.382	678.08
526.837	690.28
527.291	697.28
527.745	684.57
528.2	683.27
528.654	668.58
529.108	673.38
529.562	673.78
530.016	668.48
530.47	674.78
530.925	666.88
531.379	672.48
531.833	675.27
532.287	676.57
532.741	666.27
533.195	664.98
533.649	673.67
534.103	683.58
534.556	662.87
535.01	674.38
535.464	667.88
535.918	681.48
536.372	680.77
536.826	684.38
537.279	672.77
537.733	674.98
538.187	681.47
538.64	674.18
539.094	674.38
539.548	687.27
540.001	692.77
540.455	697.68
540.908	692.97
541.362	705.67
541.815	703.48
542.269	711.68
542.722	713.88
543.175	727.67
543.629	726.07
544.082	743.58
544.536	741.48
544.989	733.48
545.442	744.28
545.895	743.07
546.349	741.68
546.802	744.07
547.255	742.97
547.708	751.28
548.161	741.27
548.614	759.27
549.067	772.28
549.52	758.67
549.973	747.38
550.426	742.07
550.879	734.88
551.332	734.57
551.785	737.58
552.238	741.08
552.691	757.27
553.144	766.37
553.596	776.38
554.049	778.97
554.502	809.67
554.955	821.27
555.407	817.17
555.86	812.88
556.313	808.88
556.765	792.88
557.218	792.57
557.67	786.98
558.123	784.87
558.576	787.88
559.028	780.98
559.48	796.07
559.933	787.98
560.385	763.37
560.838	737.48
561.29	713.88
561.742	712.27
562.195	693.88
562.647	681.88
563.099	695.77
563.551	694.08
564.004	704.98
564.456	689.68
564.908	679.98
565.36	657.97
565.812	648.27
566.264	635.58
566.716	641.58
567.168	622.48
567.62	633.18
568.072	618.48
568.524	623.08
568.976	622.98
569.428	599.98
569.88	603.08
570.332	609.48
570.784	610.27
571.235	603.18
571.687	614.08
572.139	610.57
572.59	624.98
573.042	621.68
573.494	625.57
573.945	622.18
574.397	608.08
574.849	608.38
575.3	599.98
575.752	602.17
576.203	584.57
576.655	590.07
577.106	582.28
577.557	569.77
578.009	583.27
578.46	568.07
578.912	570.07
579.363	566.58
579.814	577.57
580.265	563.18
580.717	568.97
581.168	567.78
581.619	577.68
582.07	574.48
582.521	587.07
582.972	568.27
583.423	560.98
583.875	567.48
584.326	577.68
584.777	590.27
585.227	605.17
585.678	622.47
586.129	637.18
586.58	651.08
587.031	673.78
587.482	706.37
587.933	735.38
588.384	710.98
588.834	667.08
589.285	659.88
589.736	649.97
590.186	655.68
590.637	652.58
591.088	633.68
591.538	623.08
591.989	627.88
592.439	605.48
592.89	608.27
593.34	586.78
593.791	584.98
594.241	577.98
594.692	582.38
595.142	578.38
595.593	580.48
596.043	584.68
596.493	580.78
596.943	590.58
597.394	599.17
597.844	592.17
598.294	611.77
598.744	626.67
599.195	636.88
599.645	674.17
600.095	706.68
600.545	744.48
600.995	779.48
601.445	826.68
601.895	883.27
602.345	916.38
602.795	904.88
603.245	868.98
603.695	814.77
604.145	785.78
604.594	753.58
605.044	699.78
605.494	665.98
605.944	626.78
606.393	605.07
606.843	597.47
607.293	595.77
607.743	580.67
608.192	593.48
608.642	604.58
609.091	606.88
609.541	605.17
609.99	605.48
610.44	602.08
610.889	572.77
611.339	559.98
611.788	555.68
612.238	560.57
612.687	560.37
613.136	565.98
613.586	576.57
614.035	567.88
614.484	573.58
614.933	570.28
615.383	559.17
615.832	564.68
616.281	552.77
616.73	535.98
617.179	532.88
617.628	508.57
618.077	502.78
618.526	497.48
618.975	493.48
619.424	491.87
619.873	481.68
620.322	482.97
620.771	484.58
621.22	473.98
621.669	461.08
622.118	463.98
622.567	462.58
623.015	443.78
623.464	449.58
623.913	440.57
624.361	439.37
624.81	434.58
625.259	436.88
625.707	435.88
626.156	439.08
626.604	447.27
627.053	442.98
627.501	440.57
627.95	434.48
628.398	449.37
628.847	437.48
629.295	447.78
629.744	443.27
630.192	439.57
630.64	428.68
631.089	425.98
631.537	423.28
631.985	404.78
632.433	412.78
632.881	404.38
633.33	403.37
633.778	393.58
634.226	399.27
634.674	408.48
635.122	412.68
635.57	425.77
636.018	428.47
636.466	436.48
636.914	426.17
637.362	431.98
637.81	435.57
638.258	441.58
638.705	442.88
639.153	455.08
639.601	464.08
640.049	485.37
640.497	508.38
640.944	534.27
641.392	483.88
641.84	466.88
642.287	436.88
642.735	424.48
643.182	417.77
643.63	416.88
644.078	415.68
644.525	426.37
644.973	428.67
645.42	434.18
645.867	446.28
646.315	452.27
646.762	466.48
647.21	480.68
647.657	488.68
648.104	506.97
648.551	508.38
648.999	536.98
649.446	581.78
649.893	601.68
650.34	681.57
650.787	778.58
651.234	929.17
651.682	1141.38
652.129	1484.88
652.576	2029.88
653.023	2901.97
653.47	3966.77
653.917	5010.77
654.363	5871.18
654.81	6605.38
655.257	6289.67
655.704	4209.68
656.151	2568.07
656.598	1742.47
657.044	1269.67
657.491	1005.77
657.938	828.88
658.385	721.48
658.831	647.88
659.278	592.17
659.724	536.07
660.171	500.27
660.618	454.78
661.064	449.08
661.511	430.98
661.957	436.27
662.404	426.78
662.85	424.38
663.296	422.67
663.743	391.68
664.189	385.48
664.635	384.08
665.082	383.58
665.528	377.27
665.974	375.67
666.42	365.18
666.867	368.38
667.313	355.67
667.759	334.27
668.205	326.48
668.651	330.48
669.097	322.68
669.543	317.87
669.989	322.67
670.435	329.18
670.881	334.38
671.327	330.97
671.773	345.87
672.219	366.68
672.665	401.18
673.11	430.98
673.556	467.58
674.002	510.38
674.448	499.37
674.893	408.78
675.339	363.18
675.785	333.17
676.23	319.68
676.676	287.38
677.122	282.98
677.567	287.47
678.013	274.67
678.458	270.28
678.904	268.58
679.349	255.28
679.794	258.28
680.24	262.68
680.685	259.28
681.131	256.47
681.576	268.98
682.021	265.88
682.466	256.57
682.912	256.77
683.357	253.38
683.802	280.88
684.247	305.18
684.692	334.88
685.137	374.67
685.583	403.47
686.028	420.87
686.473	383.07
686.918	332.37
687.363	315.57
687.807	299.77
688.252	267.98
688.697	268.68
689.142	256.38
689.587	247.68
690.032	242.77
690.477	256.07
690.921	258.57
691.366	285.47
691.811	293.77
692.255	323.58
692.7	347.08
693.145	371.68
693.589	504.38
694.034	813.47
694.478	1130.77
694.923	1341.47
695.367	1774.47
695.812	934.68
696.256	378.87
696.701	276.98
697.145	258.28
697.59	239.18
698.034	241.18
698.478	246.08
698.922	232.38
699.367	244.08
699.811	250.78
700.255	254.88
700.699	276.48
701.143	310.27
701.588	345.38
702.032	385.98
702.476	381.18
702.92	360.88
703.364	369.98
703.808	460.68
704.252	741.28
704.696	1061.88
705.14	1283.27
705.584	1667.97
706.027	831.57
706.471	398.57
706.915	299.68
707.359	273.58
707.803	239.07
708.246	227.08
708.69	239.07
709.134	234.28
709.577	229.78
710.021	236.18
710.465	230.57
710.908	222.17
711.352	215.38
711.795	235.48
712.239	257.48
712.682	281.37
713.126	309.48
713.569	346.78
714.012	269.88
714.456	232.18
714.899	213.48
715.342	210.88
715.786	196.78
716.229	192.68
716.672	187.98
717.115	180.18
717.558	190.77
718.002	185.38
718.445	191.28
718.888	203.38
719.331	216.27
719.774	225.58
720.217	223.88
720.66	214.57
721.103	197.57
721.546	188.27
721.989	184.17
722.432	171.38
722.874	173.98
723.317	167.28
723.76	170.77
724.203	186.77
724.645	229.28
725.088	314.37
725.531	421.88
725.974	495.27
726.416	419.48
726.859	225.07
727.301	182.28
727.744	175.48
728.187	169.78
728.629	177.27
729.071	178.68
729.514	188.98
729.956	197.38
730.399	210.47
730.841	213.07
731.283	204.88
731.726	199.18
732.168	198.97
732.61	197.07
733.053	206.77
733.495	228.18
733.937	264.48
734.379	292.68
734.821	314.38
735.263	398.27
735.705	588.47
736.148	1117.08
736.59	1899.58
737.032	2380.47
737.474	1950.87
737.916	623.58
738.357	326.97
738.799	249.38
739.241	223.08
739.683	210.18
740.125	223.38
740.567	226.28
741.008	246.38
741.45	247.28
741.892	240.28
742.334	272.77
742.775	294.68
743.217	276.77
743.658	208.07
744.1	197.38
744.542	202.58
744.983	256.58
745.425	294.18
745.866	283.97
746.307	219.78
746.749	207.17
747.19	231.88
747.632	323.88
748.073	608.38
748.514	1306.48
748.956	2123.47
749.397	2696.28
749.838	2231.88
750.279	2318.97
750.72	1183.98
751.162	419.98
751.603	244.07
752.044	185.27
752.485	153.68
752.926	156.58
753.367	148.07
753.808	147.57
754.249	140.68
754.69	138.08
755.131	137.58
755.572	135.88
756.013	126.88
756.453	136.08
756.894	142.38
757.335	135.98
757.776	137.68
758.216	137.07
758.657	143.08
759.098	148.38
759.538	159.78
759.979	195.77
760.42	262.08
760.86	495.17
761.301	1271.38
761.741	3211.47
762.182	5108.38
762.622	3674.07
763.063	1039.28
763.503	413.57
763.943	247.77
764.384	205.68
764.824	193.08
765.264	184.38
765.705	158.27
766.145	133.48
766.585	132.08
767.025	126.17
767.465	119.77
767.906	124.28
768.346	149.77
768.786	155.48
769.226	162.88
769.666	223.87
770.106	418.87
770.546	1090.47
770.986	1997.37
771.426	1879.27
771.866	612.98
772.306	244.28
772.745	154.67
773.185	124.38
773.625	121.38
774.065	111.48
774.505	122.67
774.944	161.77
775.384	307.77
775.824	547.27
776.263	552.08
776.703	249.48
777.142	119.18
777.582	102.88
778.021	90.28
778.461	84.68
778.9	90.88
779.34	96.08
779.779	81.78
780.219	80.68
780.658	80.58
781.097	74.68
781.537	84.38
781.976	77.57
782.415	75.07
782.855	76.77
783.294	73.58
783.733	69.58
784.172	72.58
784.611	74.58
785.05	79.38
785.489	81.38
785.928	87.88
786.367	93.18
786.806	77.17
787.245	89.88
787.684	99.27
788.123	109.88
788.562	105.88
789.001	96.38
789.44	87.58
789.879	87.48
790.317	84.68
790.756	97.48
791.195	92.88
791.634	105.98
792.072	144.38
792.511	241.98
792.95	701.27
793.388	1592.57
793.827	1531.07
794.265	513.58
794.704	211.08
795.142	139.78
795.581	123.48
796.019	102.58
796.458	97.08
796.896	86.78
797.334	94.88
797.773	108.68
798.211	161.58
798.649	306.57
799.087	731.08
799.526	1187.47
799.964	1494.78
800.402	1590.47
800.84	592.87
801.278	231.17
801.716	133.88
802.154	113.38
802.592	110.08
803.03	102.58
803.468	100.48
803.906	101.78
804.344	113.48
804.782	101.88
805.22	94.27
805.658	94.48
806.096	107.88
806.533	117.18
806.971	131.57
807.409	159.07
807.847	234.77
808.284	474.07
808.722	1349.17
809.16	2537.28
809.597	2347.07
810.035	4090.57
810.472	4725.27
810.91	1698.18
811.347	629.18
811.785	318.77
812.222	198.57
812.66	151.08
813.097	121.77
813.535	104.17
813.972	97.98
814.409	91.68
814.846	77.68
815.284	85.08
815.721	81.17
816.158	76.88
816.595	80.98
817.032	124.77
817.47	167.58
817.907	122.38
818.344	82.27
818.781	80.68
819.218	73.88
819.655	104.48
820.092	167.77
820.529	196.07
820.966	153.78
821.403	111.27
821.839	76.88
822.276	72.38
822.713	94.38
823.15	109.98
823.587	90.27
824.023	109.48
824.46	206.48
824.897	641.88
825.333	1063.88
825.77	463.07
826.206	180.67
826.643	105.27
827.08	78.78
827.516	52.18
827.953	54.98
828.389	62.48
828.825	52.38
829.262	51.48
829.698	46.38
830.135	46.28
830.571	45.67
831.007	51.08
831.443	46.48
831.88	44.58
832.316	47.67
832.752	42.18
833.188	47.18
833.624	41.88
834.06	49.58
834.497	46.77
834.933	54.08
835.369	61.18
835.805	48.67
836.241	57.77
836.677	58.28
837.112	70.17
837.548	68.68
837.984	97.98
838.42	144.88
838.856	360.17
839.292	1105.38
839.727	1834.37
840.163	851.57
840.599	673.48
841.034	1535.17
841.47	1716.67
841.906	618.48
842.341	252.88
842.777	159.08
843.212	166.88
843.648	165.48
844.083	94.88
844.519	63.58
844.954	59.78
845.39	38.48
845.825	40.98
846.261	35.38
846.696	36.27
847.131	30.28
847.566	43.07
848.002	42.28
848.437	33.58
848.872	41.88
849.307	41.78
849.742	62.38
850.177	125.98
850.613	402.68
851.048	685.57
851.483	292.07
851.918	115.57
852.353	56.77
852.788	40.58
853.223	34.98
853.657	39.77
854.092	35.38
854.527	34.58
854.962	28.77
855.397	29.78
855.832	35.98
856.266	36.98
856.701	30.48
857.136	27.88
857.57	33.68
858.005	40.48
858.44	49.48
858.874	34.38
859.309	42.28
859.743	27.77
860.178	34.77
860.612	29.58
861.047	41.77
861.481	49.77
861.915	66.78
862.35	43.68
862.784	27.67
863.218	34.18
863.653	23.88
864.087	30.88
864.521	47.38
864.955	48.68
865.39	115.27
865.824	134.98
866.258	92.58
866.692	153.18
867.126	177.67
867.56	111.57
867.994	47.98
868.428	27.38
868.862	40.88
869.296	47.88
869.73	52.67
870.164	46.48
870.598	41.18
871.031	32.58
871.465	23.27
871.899	24.58
872.333	17.48
872.766	15.98
873.2	24.08
873.634	22.68
874.067	16.08
874.501	10.27
874.935	29.77
875.368	15.07
875.802	21.27
876.235	17.67
876.669	22.08
877.102	14.58
877.535	18.38
877.969	12.58
878.402	20.27
878.836	13.77
879.269	15.98
879.702	19.17
880.135	11.27
880.569	11.38
881.002	19.98
881.435	20.77
881.868	15.08
882.301	16.08
882.734	13.67
883.167	11.18
883.601	15.18
884.034	13.67
884.467	2.18
884.899	13.88
885.332	13.88
885.765	6.98
886.198	15.58
886.631	6.67
887.064	6.98
887.497	14.48
887.929	16.58
888.362	9.27
888.795	5.27
889.228	14.98
889.66	12.27
890.093	15.88
890.526	9.88
890.958	8.38
891.391	13.18
891.823	18.08
892.256	6.27
892.688	6.58
893.121	10.38
893.553	9.27
893.985	15.38
894.418	11.38
894.85	7.18
895.282	16.38
895.715	9.18
896.147	10.48
896.579	9.48
897.011	10.98
897.444	8.68
897.876	7.98
898.308	13.98
898.74	9.48
899.172	4.88
899.604	20.08
900.036	16.38
900.468	9.48
900.9	12.48
901.332	14.77
901.764	7.77
902.196	13.88
902.628	12.88
903.06	8.48
903.491	23.88
903.923	21.68
904.355	16.58
904.787	12.98
905.218	23.48
905.65	16.88
906.082	8.17
906.513	9.77
906.945	11.58
907.376	10.98
907.808	13.98
908.239	14.68
908.671	11.78
909.102	14.68
909.534	19.58
909.965	32.38
910.397	69.67
910.828	232.78
911.259	377.68
911.691	176.67
912.122	87.78
912.553	42.27
912.984	27.48
913.415	14.38
913.847	20.77
914.278	14.58
914.709	13.67
915.14	16.58
915.571	11.18
916.002	16.08
916.433	17.68
916.864	17.67
917.295	8.67
917.726	18.38
918.157	9.27
918.587	23.77
919.018	16.78
919.449	15.18
919.88	15.48
920.311	24.88
920.741	27.48
921.172	117.88
921.603	114.07
922.033	55.88
922.464	35.58
922.895	17.57
923.325	18.68
923.756	15.48
924.186	7.08
924.617	12.18
925.047	13.98
925.478	22.68
925.908	20.27
926.338	14.48
926.769	3.88
927.199	14.98
927.629	2.28
928.06	9.38
928.49	12.28
928.92	10.38
929.35	8.38
929.78	8.88
930.21	0.57
930.641	5.38
931.071	4.77
931.501	4.48
931.931	5.98
932.361	6.08
932.791	2.18
933.221	2.48
933.651	-0.92
934.08	12.17
934.51	21.38
934.94	6.28
935.37	6.68
935.8	10.98
936.229	1.17
936.659	6.77
937.089	-4.42
937.519	14.38
937.948	20.77
938.378	18.38
938.807	4.67
939.237	0.28
939.666	2.08
940.096	-3.73
940.525	-0.62
940.955	-4.22
941.384	3.18
941.814	-8.12
942.243	1.68
942.672	1.27
943.102	-0.32
943.531	0.88
943.96	2.18
944.39	0.67
944.819	1.07
945.248	-1.92
945.677	0.88
946.106	-0.62
946.535	6.57
946.964	-1.73
947.393	1.68
947.822	3.68
948.251	-3.02
948.68	0.38
949.109	6.67
949.538	6.58
949.967	-6.73
950.396	3.27
950.825	1.27
951.254	3.18
951.682	-9.92
952.111	6.68
952.54	7.38
952.969	-0.62
953.397	-13.02
953.826	1.77
954.254	-3.73
954.683	1.17
955.112	-4.62
955.54	-0.62
955.969	1.98
956.397	-3.32
956.826	-1.62
957.254	3.08
957.682	4.77
958.111	5.08
958.539	-2.72
958.967	1.08
959.396	-4.02
959.824	1.68
960.252	4.38
960.68	-4.52
961.109	-6.83
961.537	-7.32
961.965	-1.33
962.393	0.78
962.821	-2.62
963.249	0.48
963.677	0.88
964.105	-4.33
964.533	29.18
964.961	33.98
965.389	14.38
965.817	5.38
966.245	1.38
966.672	-3.92
967.1	-3.42
967.528	-0.43
967.956	-8.32
968.383	6.17
968.811	-0.32
969.239	-1.33
969.666	-0.72
970.094	0.38
970.522	-0.92
970.949	-3.43
971.377	-1.12
971.804	-3.52
972.232	-1.52
972.659	-4.02
973.087	-4.93
973.514	-3.12
973.941	-7.42
974.369	3.48
974.796	-0.02
975.223	0.88
975.651	1.18
976.078	4.78
976.505	0.17
976.932	6.38
977.359	11.17
977.786	12.18
978.214	-4.83
978.641	-0.62
979.068	-1.02
979.495	-2.62
979.922	3.17
980.349	-4.62
980.776	0.88
981.202	0.38
981.629	3.88
982.056	4.17
982.483	2.38
982.91	5.68
983.337	-7.73
983.763	6.17
984.19	-6.52
984.617	-1.12
985.043	-1.02
985.47	2.58
985.897	-8.12
986.323	-0.23
986.75	5.08
987.176	-3.12
987.603	-3.02
988.029	0.17
988.456	-5.33
988.882	4.88
989.308	-4.12
989.735	-7.43
990.161	-3.82
990.587	1.88
991.014	0.58
991.44	4.77
991.866	-7.02
992.292	-7.62
992.719	-3.02
993.145	7.38
993.571	-8.02
993.997	-3.73
994.423	-1.32
994.849	-5.83
995.275	-1.42
995.701	0.58
996.127	-0.12
996.553	-2.72
996.979	2.48
997.405	-6.02
997.83	-2.52
998.256	-6.62
998.682	-3.92
999.108	-11.93
999.534	-1.83
999.959	0.58
1000.385	-4.23
1000.811	2.38
1001.236	-5.52
1001.662	-7.32
1002.087	-7.42
1002.513	-0.52
1002.938	7.28
1003.364	-2.42
1003.789	-0.82
1004.215	1.78
1004.64	-2.62
1005.066	2.68
1005.491	3.18
1005.916	-7.83
1006.342	-1.32
1006.767	-6.22
1007.192	-1.32
1007.617	-5.83
1008.042	-9.22
1008.468	-0.92
1008.893	-6.82
1009.318	-1.42
1009.743	0.77
1010.168	1.48
1010.593	-0.02
1011.018	-3.62
1011.443	0.98
1011.868	3.68
1012.293	-9.22
1012.718	-9.02
1013.143	3.67
1013.567	5.68
1013.992	-6.32
1014.417	-11.92
1014.842	1.27
1015.267	-5.12
1015.691	-1.72
1016.116	3.77
1016.541	-6.42
1016.965	1.88
1017.39	6.58
1017.814	4.28
1018.239	-3.73
1018.663	-9.92
1019.088	-7.73
1019.512	-7.42
1019.937	-4.32
1020.361	-4.52
1020.785	-6.62
1021.21	1.38
1021.634	2.08
1022.058	2.08
1022.483	0.48
1022.907	-6.52
1023.331	-5.52
1023.755	-6.02
1024.179	0.58
1024.604	-6.62
1025.028	-8.43
1025.452	-3.92
1025.876	-2.02
1026.3	-5.42
1026.724	-12.83
1027.148	-7.42
1027.572	-5.12
1027.996	-6.82
1028.42	2.88
1028.843	-7.12
1029.267	-4.33
1029.691	-4.43
1030.115	-6.73
1030.539	-10.02
1030.962	-1.12
1031.386	-7.72
1031.81	0.38
1032.233	-0.12
1032.657	-3.92
1033.08	3.98
1033.504	-3.02
1033.927	-0.62
1034.351	-1.42
1034.774	-2.23
1035.198	-3.92
1035.621	-7.42
1036.045	-6.42
1036.468	0.27
1036.891	-2.02
1037.315	-4.93
1037.738	-12.52
1038.161	-3.02
1038.584	-8.02
1039.008	-6.82
1039.431	-13.02
1039.854	-0.93
1040.277	-11.12
1040.7	-9.02
1041.123	0.38
1041.546	-6.82
1041.969	-2.82
1042.392	-5.52
1042.815	3.48
1043.238	-0.92
1043.661	6.88
1044.084	-3.22
1044.507	-3.32
1044.93	-7.82
1045.352	-5.62
1045.775	-3.62
1046.198	-3.12
1046.621	-0.62
1047.043	-3.02
1047.466	9.48
1047.889	1.77
1048.311	-4.82
1048.734	-2.62
1049.156	-3.32
1049.579	-4.12
1050.001	-8.02
1050.424	-0.33
1050.846	-4.52
1051.269	-1.22
1051.691	-4.72
1052.113	-2.33
1052.536	-4.82
1052.958	2.08
1053.38	-1.52
1053.802	-10.42
1054.225	2.27
1054.647	-5.82
1055.069	-4.43
1055.491	-5.12
1055.913	-4.12
1056.335	-5.12
1056.757	-6.12
1057.179	-9.83
1057.601	-5.32
1058.023	-5.02
1058.445	-7.12
1058.867	-4.62
1059.289	-7.73
1059.711	-0.92
1060.133	-2.92
1060.555	-2.73
1060.976	-5.62
1061.398	-5.92
1061.82	-2.62
1062.241	-9.02
1062.663	-4.52
1063.085	-4.42
1063.506	-6.32
1063.928	-5.73
1064.35	0.48
1064.771	-3.73
1065.193	0.88
1065.614	-5.73
1066.035	-4.82
1066.457	-2.23
1066.878	0.98
1067.3	4.67
1067.721	-3.62
1068.142	0.27
1068.564	0.17
1068.985	-4.52
1069.406	-5.12
1069.827	-7.23
1070.248	-3.82
1070.67	-1.73
1071.091	-3.92
1071.512	-4.02
1071.933	-4.12
1072.354	-5.42
1072.775	-4.82
1073.196	-12.82
1073.617	-1.62
1074.038	-3.62
1074.459	-2.92
1074.88	-11.12
1075.3	2.98
1075.721	-6.73
1076.142	-2.42
1076.563	-3.93
1076.983	-13.92
1077.404	-9.12
1077.825	-10.32
1078.246	-0.52
1078.666	-10.83
1079.087	-7.12
1079.507	-8.23
1079.928	-1.43
1080.348	0.78
1080.769	-5.33
1081.189	-0.32
1081.61	-2.62
1082.03	-4.73
1082.451	-7.52
1082.871	-4.42
1083.291	-9.52
1083.711	-3.82
1084.132	-7.52
1084.552	-5.33
1084.972	3.48
1085.392	-4.12
1085.813	-10.02
1086.233	-7.02
1086.653	-6.12
1087.073	-3.02
1087.493	-8.62
1087.913	-8.83
1088.333	-5.52
1088.753	-1.52
1089.173	1.57
1089.593	-3.42
1090.013	3.77
1090.433	-0.92
1090.852	1.18
1091.272	-5.83
1091.692	-1.23
1092.112	-2.23
1092.531	-6.73
1092.951	-14.02
1093.371	-4.62
1093.79	-1.02
1094.21	-5.12
1094.63	-3.12
1095.049	-3.52
1095.469	4.98
1095.888	-1.42
1096.308	-0.23
1096.727	1.78
1097.146	-5.12
1097.566	0.08
1097.985	-4.82
1098.405	-2.62
1098.824	-6.52
1099.243	-6.62
1099.662	-8.23
1100.082	-1.62
1100.501	-1.33
1100.92	-3.92
1101.339	-6.33
1101.758	1.28
