Data from 20171114-ORNL-Ar_H_NY_Subt18_08-08-57-754.txt Node
Date: Tue Nov 14 08:08:57 EST 2017
User: Ender
Spectrometer: HR+D1039
Trigger mode: 0
Integration Time (sec): 2.730000E-2
Scans to average: 10
Electric dark correction enabled: true
Nonlinearity correction enabled: false
Boxcar width: 0
XAxis mode: Wavelengths
Number of Pixels in Spectrum: 2048
>>>>>Begin Spectral Data<<<<<
187.836	1.57
188.309	1.57
188.782	1.57
189.255	-2.33
189.728	-3.03
190.201	4.37
190.674	1.47
191.147	3.27
191.619	-9.13
192.092	2.67
192.565	2.57
193.038	-2.33
193.511	3.47
193.984	1.97
194.456	-3.43
194.929	-1.63
195.402	-2.33
195.874	2.87
196.347	1.87
196.82	-10.03
197.292	1.87
197.765	1.37
198.237	-5.93
198.71	2.97
199.182	2.67
199.655	-1.23
200.127	1.87
200.6	-7.33
201.072	0.57
201.544	-1.93
202.017	-2.33
202.489	3.47
202.961	3.07
203.433	0.07
203.906	-5.13
204.378	-5.43
204.85	-4.03
205.322	-3.03
205.794	-0.23
206.266	-2.43
206.739	-8.13
207.211	1.57
207.683	-6.53
208.155	-7.23
208.627	-5.53
209.099	-1.63
209.57	-6.03
210.042	-0.23
210.514	-2.93
210.986	-2.23
211.458	-5.43
211.93	0.87
212.402	0.87
212.873	-8.63
213.345	-12.43
213.817	-13.23
214.288	-4.73
214.76	-9.43
215.232	-3.43
215.703	-5.03
216.175	-8.93
216.646	-5.33
217.118	-5.73
217.589	-6.33
218.061	0.17
218.532	-6.13
219.004	-4.93
219.475	-0.43
219.946	-3.23
220.418	-11.43
220.889	4.07
221.36	-0.63
221.832	-5.33
222.303	-8.43
222.774	-0.93
223.245	-8.43
223.717	-6.63
224.188	-1.73
224.659	-8.43
225.13	-8.13
225.601	0.27
226.072	4.47
226.543	-5.33
227.014	-2.93
227.485	-3.03
227.956	-5.73
228.427	-4.03
228.898	6.87
229.369	-0.13
229.839	-4.13
230.31	-6.93
230.781	3.27
231.252	-2.33
231.722	-4.23
232.193	-3.53
232.664	-6.73
233.135	1.67
233.605	-3.43
234.076	-6.63
234.546	2.57
235.017	5.37
235.487	-2.73
235.958	-3.53
236.428	-5.23
236.899	-7.23
237.369	-3.53
237.84	-6.73
238.31	-0.63
238.78	-7.73
239.251	-6.23
239.721	-7.13
240.191	-1.63
240.662	-7.53
241.132	-0.03
241.602	1.17
242.072	-2.83
242.542	5.27
243.013	-6.83
243.483	0.47
243.953	-2.73
244.423	0.27
244.893	-6.23
245.363	0.17
245.833	-3.23
246.303	-3.13
246.773	3.87
247.243	-5.33
247.712	3.07
248.182	5.37
248.652	2.67
249.122	-8.13
249.592	4.17
250.061	6.77
250.531	7.87
251.001	-2.03
251.471	0.57
251.94	5.57
252.41	0.47
252.879	-5.63
253.349	8.27
253.818	6.97
254.288	0.77
254.757	-3.23
255.227	-8.83
255.696	-2.83
256.166	4.77
256.635	2.57
257.105	-1.73
257.574	3.57
258.043	1.37
258.513	0.37
258.982	2.57
259.451	-2.03
259.92	2.47
260.389	4.37
260.859	7.77
261.328	2.47
261.797	-2.13
262.266	-1.93
262.735	4.07
263.204	-3.23
263.673	0.17
264.142	2.37
264.611	-6.93
265.08	-5.43
265.549	-6.93
266.018	-1.13
266.487	-6.23
266.955	-4.53
267.424	-0.23
267.893	-1.03
268.362	1.17
268.83	1.37
269.299	2.57
269.768	3.97
270.236	4.77
270.705	2.97
271.174	2.97
271.642	-2.03
272.111	5.47
272.579	3.37
273.048	4.57
273.516	4.67
273.985	7.87
274.453	8.07
274.922	9.47
275.39	5.27
275.858	-3.63
276.327	11.07
276.795	9.77
277.263	3.67
277.731	10.27
278.2	14.37
278.668	7.17
279.136	11.47
279.604	5.37
280.072	6.77
280.54	7.17
281.008	1.47
281.477	3.27
281.945	8.17
282.413	13.17
282.881	8.27
283.348	5.87
283.816	5.67
284.284	7.47
284.752	10.67
285.22	13.77
285.688	7.57
286.156	7.57
286.623	10.47
287.091	2.67
287.559	16.97
288.026	6.67
288.494	5.77
288.962	-0.43
289.429	12.47
289.897	12.67
290.364	10.47
290.832	10.17
291.3	13.37
291.767	15.37
292.234	9.67
292.702	6.77
293.169	11.77
293.637	14.37
294.104	14.97
294.571	-1.03
295.039	11.27
295.506	10.07
295.973	11.87
296.44	2.37
296.908	8.17
297.375	10.97
297.842	9.77
298.309	6.87
298.776	10.57
299.243	17.97
299.71	6.27
300.177	16.37
300.644	13.87
301.111	14.57
301.578	19.47
302.045	14.77
302.512	15.07
302.979	10.87
303.446	20.57
303.913	16.87
304.379	10.47
304.846	14.97
305.313	18.37
305.78	16.17
306.246	20.57
306.713	21.87
307.18	16.97
307.646	15.97
308.113	18.07
308.579	14.07
309.046	21.67
309.512	17.17
309.979	10.97
310.445	21.67
310.912	17.67
311.378	25.97
311.845	22.47
312.311	22.97
312.777	21.87
313.244	25.37
313.71	30.97
314.176	24.97
314.642	19.27
315.109	21.47
315.575	20.77
316.041	28.77
316.507	21.27
316.973	26.57
317.439	25.57
317.905	23.47
318.371	29.57
318.837	20.37
319.303	22.27
319.769	23.27
320.235	26.67
320.701	28.97
321.167	29.97
321.633	27.57
322.099	25.37
322.564	32.77
323.03	30.97
323.496	28.57
323.962	26.87
324.427	24.17
324.893	35.07
325.359	29.77
325.824	29.67
326.29	33.27
326.755	32.37
327.221	26.87
327.686	35.17
328.152	32.87
328.617	30.47
329.083	37.37
329.548	46.27
330.014	40.77
330.479	26.97
330.944	32.97
331.41	36.27
331.875	38.37
332.34	37.07
332.805	26.17
333.271	34.97
333.736	34.17
334.201	43.07
334.666	42.37
335.131	43.47
335.596	42.07
336.061	36.97
336.526	32.47
336.991	35.67
337.456	44.17
337.921	39.77
338.386	34.57
338.851	37.87
339.316	43.47
339.781	40.97
340.246	35.07
340.711	37.67
341.175	49.37
341.64	32.87
342.105	32.77
342.569	43.57
343.034	50.17
343.499	42.27
343.963	38.67
344.428	55.37
344.893	50.97
345.357	49.97
345.822	51.87
346.286	55.77
346.751	54.87
347.215	51.37
347.679	62.67
348.144	79.07
348.608	68.77
349.073	62.17
349.537	61.47
350.001	58.97
350.465	71.57
350.93	60.67
351.394	66.77
351.858	61.87
352.322	71.87
352.786	70.77
353.25	80.87
353.715	88.17
354.179	80.77
354.643	95.77
355.107	99.27
355.571	84.87
356.035	79.77
356.498	96.67
356.962	93.27
357.426	97.57
357.89	90.77
358.354	80.87
358.818	74.97
359.281	69.07
359.745	58.97
360.209	64.07
360.673	60.07
361.136	65.87
361.6	75.57
362.064	73.77
362.527	78.37
362.991	74.27
363.454	69.87
363.918	65.57
364.381	75.17
364.845	73.97
365.308	73.67
365.772	81.77
366.235	75.97
366.698	72.77
367.162	71.97
367.625	75.17
368.088	77.87
368.552	79.67
369.015	78.17
369.478	86.17
369.941	83.17
370.404	76.07
370.867	82.67
371.331	88.97
371.794	94.37
372.257	88.37
372.72	92.57
373.183	90.47
373.646	86.17
374.109	84.87
374.572	91.87
375.035	85.47
375.497	92.97
375.96	91.77
376.423	91.17
376.886	101.47
377.349	96.57
377.811	85.27
378.274	87.37
378.737	96.87
379.199	97.77
379.662	91.87
380.125	99.07
380.587	94.17
381.05	96.37
381.512	104.67
381.975	112.37
382.437	107.97
382.9	100.77
383.362	109.67
383.825	118.27
384.287	115.07
384.75	113.07
385.212	108.07
385.674	118.07
386.136	122.17
386.599	112.47
387.061	115.67
387.523	107.77
387.985	113.37
388.447	118.37
388.91	116.77
389.372	112.87
389.834	121.37
390.296	118.57
390.758	119.97
391.22	126.57
391.682	145.37
392.144	152.77
392.606	140.47
393.068	131.87
393.529	136.37
393.991	134.97
394.453	119.97
394.915	119.77
395.377	130.47
395.838	133.27
396.3	126.17
396.762	125.87
397.224	127.87
397.685	122.27
398.147	119.07
398.608	128.47
399.07	122.87
399.531	128.77
399.993	131.47
400.454	144.87
400.916	140.77
401.377	134.07
401.839	139.07
402.3	140.57
402.762	154.47
403.223	161.27
403.684	158.67
404.145	145.57
404.607	148.77
405.068	155.27
405.529	161.67
405.99	170.07
406.451	159.17
406.913	165.27
407.374	156.77
407.835	147.67
408.296	154.37
408.757	158.27
409.218	174.67
409.679	170.77
410.14	164.67
410.601	154.97
411.062	170.77
411.522	174.87
411.983	165.47
412.444	165.67
412.905	179.47
413.366	176.47
413.826	189.27
414.287	209.07
414.748	249.97
415.208	238.17
415.669	207.47
416.13	210.37
416.59	200.27
417.051	210.37
417.511	217.77
417.972	237.67
418.432	241.77
418.893	275.67
419.353	246.17
419.814	200.17
420.274	183.17
420.734	174.77
421.195	191.37
421.655	186.27
422.115	188.97
422.576	189.97
423.036	196.07
423.496	207.17
423.956	207.87
424.416	221.37
424.876	256.87
425.336	249.47
425.797	247.37
426.257	252.17
426.717	235.07
427.177	227.37
427.637	213.77
428.097	229.17
428.556	233.17
429.016	256.27
429.476	246.27
429.936	253.37
430.396	263.77
430.856	279.97
431.315	295.17
431.775	321.87
432.235	365.87
432.694	329.27
433.154	342.77
433.614	368.07
434.073	321.47
434.533	277.27
434.993	261.47
435.452	267.37
435.912	280.27
436.371	276.57
436.83	267.37
437.29	254.27
437.749	249.67
438.209	243.47
438.668	265.57
439.127	269.47
439.587	257.07
440.046	243.07
440.505	244.97
440.964	263.97
441.424	314.07
441.883	302.77
442.342	256.27
442.801	220.37
443.26	226.37
443.719	220.57
444.178	227.27
444.637	215.97
445.096	221.27
445.555	221.07
446.014	228.37
446.473	230.17
446.932	229.17
447.391	223.87
447.849	229.27
448.308	227.17
448.767	224.47
449.226	237.67
449.685	237.17
450.143	242.27
450.602	231.47
451.061	227.47
451.519	235.97
451.978	236.87
452.436	228.47
452.895	240.57
453.353	248.37
453.812	237.27
454.27	244.37
454.729	237.67
455.187	233.77
455.646	245.97
456.104	251.97
456.562	256.37
457.021	258.07
457.479	256.37
457.937	269.57
458.395	260.37
458.854	250.87
459.312	262.47
459.77	278.57
460.228	260.57
460.686	243.67
461.144	250.67
461.602	251.37
462.06	242.57
462.518	256.47
462.976	249.57
463.434	261.07
463.892	259.47
464.35	271.27
464.808	284.77
465.266	273.27
465.724	268.47
466.181	274.77
466.639	266.17
467.097	295.47
467.555	307.37
468.012	307.07
468.47	310.97
468.928	329.57
469.385	339.87
469.843	339.27
470.3	345.27
470.758	363.37
471.215	379.77
471.673	402.57
472.13	398.17
472.588	423.97
473.045	373.67
473.503	374.77
473.96	397.67
474.417	402.07
474.875	437.37
475.332	467.57
475.789	459.47
476.246	464.57
476.704	480.67
477.161	503.17
477.618	522.17
478.075	555.67
478.532	612.57
478.989	673.87
479.446	775.07
479.903	740.47
480.36	767.47
480.817	816.47
481.274	913.37
481.731	998.67
482.188	1068.57
482.645	1187.07
483.102	1271.67
483.558	1394.27
484.015	1436.17
484.472	1411.57
484.929	1371.57
485.385	1318.47
485.842	1293.97
486.299	1256.27
486.755	1209.67
487.212	1031.07
487.668	881.47
488.125	826.17
488.582	755.07
489.038	721.67
489.494	692.17
489.951	672.57
490.407	652.47
490.864	632.67
491.32	635.17
491.776	639.87
492.233	642.07
492.689	613.57
493.145	605.47
493.602	599.87
494.058	611.67
494.514	610.07
494.97	641.07
495.426	641.27
495.882	622.07
496.338	608.97
496.794	614.87
497.251	612.07
497.707	636.17
498.163	636.87
498.618	639.97
499.074	642.17
499.53	670.17
499.986	665.27
500.442	641.97
500.898	616.77
501.354	617.67
501.809	627.77
502.265	620.87
502.721	630.77
503.177	651.57
503.632	640.07
504.088	652.17
504.543	667.07
504.999	691.87
505.455	661.87
505.91	635.77
506.366	635.47
506.821	642.67
507.277	638.57
507.732	643.57
508.187	637.67
508.643	645.77
509.098	641.57
509.553	670.27
510.009	667.27
510.464	681.07
510.919	700.97
511.375	693.17
511.83	720.67
512.285	731.17
512.74	760.57
513.195	789.07
513.65	778.37
514.105	762.17
514.56	764.47
515.015	791.47
515.47	806.37
515.925	778.87
516.38	777.97
516.835	796.07
517.29	779.77
517.745	779.97
518.2	771.57
518.655	748.47
519.109	749.17
519.564	753.37
520.019	740.37
520.474	730.37
520.928	740.97
521.383	735.07
521.838	715.37
522.292	724.67
522.747	721.97
523.201	718.97
523.656	712.57
524.11	700.37
524.565	705.97
525.019	696.57
525.474	706.77
525.928	703.37
526.382	698.27
526.837	702.57
527.291	713.87
527.745	696.67
528.2	707.67
528.654	697.67
529.108	700.77
529.562	702.67
530.016	694.67
530.47	694.67
530.925	690.97
531.379	699.67
531.833	707.77
532.287	709.57
532.741	716.17
533.195	712.17
533.649	712.97
534.103	722.67
534.556	719.57
535.01	711.57
535.464	711.47
535.918	724.47
536.372	723.37
536.826	716.87
537.279	701.07
537.733	713.07
538.187	721.97
538.64	716.97
539.094	728.67
539.548	732.07
540.001	732.67
540.455	735.97
540.908	735.67
541.362	747.27
541.815	756.87
542.269	771.57
542.722	767.47
543.175	779.17
543.629	781.47
544.082	797.47
544.536	796.87
544.989	797.87
545.442	808.37
545.895	796.57
546.349	809.37
546.802	799.97
547.255	816.97
547.708	820.07
548.161	822.47
548.614	820.87
549.067	837.77
549.52	831.97
549.973	827.07
550.426	829.77
550.879	805.37
551.332	808.67
551.785	828.47
552.238	828.57
552.691	829.67
553.144	853.97
553.596	864.67
554.049	867.97
554.502	909.97
554.955	930.57
555.407	917.17
555.86	907.97
556.313	904.17
556.765	897.07
557.218	898.97
557.67	893.07
558.123	884.57
558.576	889.67
559.028	898.17
559.48	904.87
559.933	889.27
560.385	861.37
560.838	823.47
561.29	804.47
561.742	804.57
562.195	785.17
562.647	789.57
563.099	786.77
563.551	794.57
564.004	800.87
564.456	785.07
564.908	770.27
565.36	762.27
565.812	744.67
566.264	729.07
566.716	734.37
567.168	721.07
567.62	730.47
568.072	699.57
568.524	706.57
568.976	702.67
569.428	680.17
569.88	685.97
570.332	691.17
570.784	700.27
571.235	693.77
571.687	705.07
572.139	712.17
572.59	729.17
573.042	721.47
573.494	729.47
573.945	722.37
574.397	702.57
574.849	705.47
575.3	710.87
575.752	702.77
576.203	697.27
576.655	703.37
577.106	696.97
577.557	680.47
578.009	681.77
578.46	688.37
578.912	682.27
579.363	682.07
579.814	687.87
580.265	678.67
580.717	684.67
581.168	693.57
581.619	699.07
582.07	693.67
582.521	686.77
582.972	681.17
583.423	689.07
583.875	692.17
584.326	707.17
584.777	721.07
585.227	742.67
585.678	753.27
586.129	781.37
586.58	803.97
587.031	836.47
587.482	883.07
587.933	921.37
588.384	882.87
588.834	829.27
589.285	793.07
589.736	790.17
590.186	787.07
590.637	776.87
591.088	768.87
591.538	747.47
591.989	742.27
592.439	741.57
592.89	731.07
593.34	719.77
593.791	718.17
594.241	707.57
594.692	722.27
595.142	713.67
595.593	719.97
596.043	719.37
596.493	728.97
596.943	721.97
597.394	746.17
597.844	742.87
598.294	747.87
598.744	775.87
599.195	800.67
599.645	847.27
600.095	882.87
600.545	941.27
600.995	992.07
601.445	1056.37
601.895	1114.17
602.345	1169.47
602.795	1158.47
603.245	1096.87
603.695	1036.67
604.145	988.57
604.594	941.37
605.044	884.57
605.494	822.87
605.944	772.17
606.393	758.37
606.843	742.17
607.293	752.77
607.743	752.17
608.192	755.57
608.642	770.17
609.091	777.27
609.541	785.47
609.99	780.07
610.44	765.67
610.889	736.37
611.339	720.77
611.788	703.67
612.238	707.97
612.687	712.07
613.136	714.77
613.586	722.07
614.035	727.37
614.484	723.37
614.933	738.47
615.383	723.07
615.832	722.37
616.281	717.37
616.73	683.77
617.179	667.07
617.628	670.97
618.077	653.67
618.526	637.87
618.975	628.37
619.424	631.87
619.873	629.57
620.322	634.87
620.771	622.47
621.22	619.87
621.669	616.17
622.118	598.97
622.567	594.67
623.015	579.67
623.464	587.67
623.913	565.57
624.361	573.77
624.81	565.57
625.259	571.37
625.707	570.27
626.156	577.17
626.604	580.87
627.053	579.17
627.501	576.77
627.95	589.27
628.398	597.07
628.847	593.67
629.295	594.07
629.744	590.17
630.192	583.97
630.64	563.17
631.089	566.37
631.537	557.47
631.985	550.57
632.433	551.17
632.881	554.67
633.33	558.97
633.778	548.77
634.226	541.17
634.674	555.27
635.122	553.47
635.57	572.27
636.018	579.87
636.466	582.77
636.914	568.37
637.362	586.47
637.81	596.27
638.258	606.07
638.705	592.37
639.153	622.17
639.601	641.27
640.049	663.97
640.497	699.17
640.944	716.27
641.392	669.47
641.84	632.17
642.287	602.97
642.735	585.37
643.182	583.87
643.63	570.57
644.078	581.87
644.525	594.17
644.973	605.17
645.42	610.77
645.867	636.77
646.315	648.37
646.762	668.97
647.21	698.37
647.657	715.27
648.104	750.17
648.551	775.37
648.999	830.77
649.446	908.37
649.893	1005.27
650.34	1143.47
650.787	1361.47
651.234	1670.87
651.682	2175.77
652.129	2933.77
652.576	4167.97
653.023	6086.87
653.47	8237.37
653.917	10080.67
654.363	11569.07
654.81	12691.57
655.257	12041.77
655.704	7995.87
656.151	4817.07
656.598	3169.57
657.044	2269.57
657.491	1754.57
657.938	1428.17
658.385	1208.77
658.831	1055.57
659.278	949.57
659.724	841.27
660.171	779.37
660.618	717.07
661.064	697.57
661.511	663.67
661.957	657.57
662.404	651.17
662.85	660.87
663.296	633.37
663.743	578.67
664.189	554.87
664.635	551.47
665.082	539.27
665.528	542.17
665.974	540.77
666.42	523.77
666.867	518.47
667.313	496.57
667.759	478.17
668.205	457.57
668.651	461.07
669.097	466.27
669.543	457.47
669.989	459.57
670.435	463.47
670.881	460.57
671.327	468.47
671.773	489.27
672.219	511.77
672.665	576.07
673.11	613.87
673.556	656.77
674.002	688.87
674.448	685.27
674.893	573.77
675.339	502.17
675.785	451.47
676.23	440.47
676.676	408.97
677.122	401.57
677.567	386.77
678.013	382.27
678.458	371.67
678.904	377.67
679.349	363.77
679.794	374.47
680.24	372.37
680.685	366.77
681.131	359.97
681.576	369.37
682.021	367.67
682.466	363.17
682.912	364.37
683.357	369.27
683.802	401.47
684.247	424.17
684.692	479.47
685.137	523.57
685.583	553.07
686.028	586.77
686.473	536.87
686.918	467.17
687.363	440.57
687.807	410.77
688.252	381.77
688.697	372.87
689.142	348.87
689.587	345.37
690.032	329.57
690.477	355.87
690.921	368.37
691.366	396.17
691.811	414.87
692.255	448.07
692.7	480.37
693.145	540.27
693.589	764.27
694.034	1216.47
694.478	1645.67
694.923	1796.77
695.367	2345.07
695.812	1261.17
696.256	517.57
696.701	388.37
697.145	359.67
697.59	345.37
698.034	336.97
698.478	333.77
698.922	333.17
699.367	339.77
699.811	347.67
700.255	365.87
700.699	400.47
701.143	446.67
701.588	496.17
702.032	533.97
702.476	531.67
702.92	508.07
703.364	518.47
703.808	695.47
704.252	1128.77
704.696	1553.37
705.14	1742.37
705.584	2194.27
706.027	1121.27
706.471	551.57
706.915	422.57
707.359	368.67
707.803	338.67
708.246	325.97
708.69	331.47
709.134	331.67
709.577	325.67
710.021	338.77
710.465	316.17
710.908	319.37
711.352	313.27
711.795	331.27
712.239	366.47
712.682	402.77
713.126	428.77
713.569	481.77
714.012	378.57
714.456	320.37
714.899	304.47
715.342	287.57
715.786	272.97
716.229	269.17
716.672	262.87
717.115	256.27
717.558	267.37
718.002	265.07
718.445	277.17
718.888	297.87
719.331	304.27
719.774	324.77
720.217	315.57
720.66	297.57
721.103	279.87
721.546	267.07
721.989	256.57
722.432	242.07
722.874	247.97
723.317	241.17
723.76	248.97
724.203	271.27
724.645	342.47
725.088	483.37
725.531	609.17
725.974	664.37
726.416	560.97
726.859	317.47
727.301	259.67
727.744	249.47
728.187	241.77
728.629	249.37
729.071	257.77
729.514	270.07
729.956	289.67
730.399	297.97
730.841	307.97
731.283	298.17
731.726	277.37
732.168	277.97
732.61	283.97
733.053	304.27
733.495	336.07
733.937	372.97
734.379	434.07
734.821	474.97
735.263	595.17
735.705	918.97
736.148	1734.17
736.59	2751.97
737.032	3151.07
737.474	2606.87
737.916	866.07
738.357	461.27
738.799	344.57
739.241	319.57
739.683	309.17
740.125	324.47
740.567	318.57
741.008	341.37
741.45	331.77
741.892	334.87
742.334	364.77
742.775	386.07
743.217	369.37
743.658	285.37
744.1	274.27
744.542	276.37
744.983	334.77
745.425	368.27
745.866	361.87
746.307	292.57
746.749	293.07
747.19	348.57
747.632	499.77
748.073	986.77
748.514	2046.37
748.956	3028.47
749.397	3813.27
749.838	3153.67
750.279	3078.77
750.72	1582.77
751.162	587.57
751.603	346.27
752.044	270.07
752.485	232.47
752.926	222.77
753.367	210.67
753.808	209.37
754.249	205.77
754.69	195.17
755.131	187.07
755.572	193.17
756.013	186.37
756.453	193.67
756.894	201.77
757.335	202.67
757.776	211.27
758.216	200.27
758.657	202.47
759.098	214.67
759.538	244.87
759.979	284.77
760.42	415.17
760.86	797.87
761.301	2058.77
761.741	4832.27
762.182	6657.67
762.622	4716.17
763.063	1407.07
763.503	573.77
763.943	349.27
764.384	294.67
764.824	277.97
765.264	269.67
765.705	232.47
766.145	196.67
766.585	188.77
767.025	171.87
767.465	178.77
767.906	195.97
768.346	221.37
768.786	229.57
769.226	232.47
769.666	336.17
770.106	688.17
770.546	1710.07
770.986	2755.47
771.426	2431.57
771.866	837.17
772.306	344.47
772.745	211.97
773.185	180.97
773.625	165.17
774.065	154.87
774.505	173.77
774.944	224.87
775.384	407.57
775.824	642.97
776.263	619.07
776.703	304.97
777.142	172.37
777.582	143.97
778.021	134.47
778.461	130.67
778.9	132.97
779.34	134.17
779.779	115.87
780.219	109.07
780.658	114.97
781.097	115.57
781.537	118.27
781.976	111.97
782.415	114.57
782.855	110.67
783.294	110.57
783.733	110.27
784.172	116.27
784.611	107.47
785.05	112.57
785.489	111.27
785.928	122.97
786.367	128.47
786.806	135.07
787.245	137.37
787.684	143.57
788.123	155.97
788.562	139.87
789.001	135.07
789.44	123.87
789.879	121.27
790.317	121.87
790.756	133.17
791.195	138.97
791.634	153.67
792.072	219.47
792.511	409.97
792.95	1124.47
793.388	2239.07
793.827	1983.47
794.265	705.67
794.704	296.17
795.142	195.37
795.581	163.77
796.019	142.67
796.458	134.07
796.896	131.77
797.334	140.97
797.773	166.57
798.211	233.77
798.649	486.87
799.087	1101.57
799.526	1702.67
799.964	2149.57
800.402	2084.97
800.84	794.37
801.278	329.07
801.716	196.17
802.154	164.07
802.592	157.97
803.03	149.07
803.468	139.77
803.906	152.67
804.344	160.57
804.782	145.47
805.22	144.97
805.658	142.17
806.096	154.87
806.533	167.27
806.971	189.77
807.409	239.07
807.847	350.37
808.284	741.07
808.722	2058.07
809.16	3472.47
809.597	3421.77
810.035	5797.97
810.472	5945.07
810.91	2215.97
811.347	871.27
811.785	431.27
812.222	275.57
812.66	207.07
813.097	174.07
813.535	151.57
813.972	142.67
814.409	136.17
814.846	118.27
815.284	110.67
815.721	104.97
816.158	112.07
816.595	114.57
817.032	162.27
817.47	184.87
817.907	136.17
818.344	105.47
818.781	101.67
819.218	101.87
819.655	129.67
820.092	203.57
820.529	219.67
820.966	180.07
821.403	134.07
821.839	104.57
822.276	101.67
822.713	130.17
823.15	141.37
823.587	125.57
824.023	158.97
824.46	342.47
824.897	979.97
825.333	1406.17
825.77	606.87
826.206	250.67
826.643	140.97
827.08	112.87
827.516	86.77
827.953	77.67
828.389	86.07
828.825	75.67
829.262	75.17
829.698	61.57
830.135	71.77
830.571	64.87
831.007	64.47
831.443	66.87
831.88	64.47
832.316	70.87
832.752	71.17
833.188	63.47
833.624	72.17
834.06	73.17
834.497	79.37
834.933	74.17
835.369	74.97
835.805	73.87
836.241	80.97
836.677	81.97
837.112	90.37
837.548	105.87
837.984	144.07
838.42	223.87
838.856	561.87
839.292	1665.27
839.727	2400.27
840.163	1155.47
840.599	1012.07
841.034	2185.57
841.47	2187.47
841.906	816.37
842.341	347.27
842.777	209.57
843.212	217.87
843.648	200.27
844.083	117.57
844.519	92.47
844.954	78.57
845.39	60.57
845.825	59.17
846.261	57.27
846.696	57.97
847.131	55.57
847.566	60.67
848.002	57.97
848.437	52.97
848.872	66.47
849.307	65.37
849.742	89.27
850.177	199.17
850.613	604.07
851.048	912.27
851.483	408.37
851.918	161.27
852.353	89.97
852.788	59.97
853.223	56.67
853.657	49.97
854.092	51.37
854.527	43.17
854.962	39.27
855.397	50.97
855.832	52.47
856.266	44.37
856.701	47.87
857.136	39.67
857.57	45.57
858.005	53.27
858.44	63.07
858.874	46.77
859.309	60.37
859.743	40.37
860.178	56.47
860.612	40.27
861.047	56.07
861.481	77.57
861.915	84.17
862.35	53.47
862.784	37.87
863.218	33.87
863.653	37.67
864.087	47.07
864.521	58.67
864.955	72.17
865.39	166.97
865.824	180.17
866.258	122.57
866.692	172.97
867.126	196.27
867.56	112.87
867.994	53.77
868.428	36.67
868.862	54.77
869.296	57.87
869.73	59.37
870.164	62.57
870.598	56.07
871.031	41.17
871.465	36.27
871.899	33.87
872.333	28.87
872.766	26.67
873.2	27.07
873.634	31.77
874.067	27.67
874.501	25.97
874.935	39.67
875.368	28.37
875.802	26.57
876.235	27.17
876.669	27.77
877.102	21.97
877.535	28.27
877.969	21.87
878.402	23.37
878.836	24.47
879.269	28.37
879.702	31.97
880.135	19.77
880.569	23.57
881.002	25.17
881.435	26.17
881.868	16.47
882.301	19.17
882.734	17.17
883.167	24.47
883.601	22.17
884.034	25.17
884.467	21.07
884.899	19.97
885.332	19.27
885.765	19.57
886.198	24.17
886.631	15.67
887.064	18.97
887.497	18.27
887.929	23.57
888.362	17.07
888.795	13.17
889.228	22.57
889.66	22.77
890.093	19.07
890.526	18.47
890.958	16.27
891.391	11.57
891.823	17.47
892.256	16.07
892.688	13.57
893.121	19.57
893.553	18.67
893.985	25.27
894.418	19.97
894.85	12.27
895.282	14.57
895.715	22.77
896.147	15.07
896.579	15.37
897.011	23.17
897.444	20.07
897.876	11.67
898.308	19.27
898.74	17.77
899.172	17.57
899.604	32.17
900.036	26.67
900.468	13.97
900.9	14.17
901.332	15.87
901.764	12.07
902.196	20.87
902.628	22.67
903.06	17.87
903.491	33.37
903.923	22.37
904.355	22.07
904.787	29.77
905.218	25.97
905.65	19.97
906.082	19.17
906.513	10.67
906.945	14.97
907.376	10.57
907.808	17.97
908.239	17.37
908.671	23.97
909.102	23.97
909.534	28.97
909.965	51.07
910.397	104.17
910.828	343.37
911.259	494.27
911.691	237.57
912.122	113.37
912.553	55.77
912.984	40.27
913.415	25.17
913.847	26.87
914.278	10.37
914.709	20.87
915.14	19.07
915.571	19.17
916.002	16.07
916.433	19.97
916.864	20.27
917.295	12.67
917.726	17.67
918.157	14.37
918.587	31.47
919.018	22.17
919.449	23.27
919.88	25.57
920.311	33.77
920.741	51.07
921.172	181.77
921.603	160.17
922.033	79.07
922.464	52.17
922.895	22.87
923.325	22.67
923.756	18.77
924.186	14.67
924.617	22.87
925.047	25.67
925.478	29.47
925.908	25.77
926.338	17.57
926.769	12.37
927.199	14.47
927.629	8.27
928.06	15.27
928.49	12.67
928.92	18.67
929.35	5.97
929.78	17.17
930.21	11.57
930.641	8.17
931.071	15.77
931.501	2.87
931.931	12.57
932.361	12.67
932.791	6.47
933.221	7.77
933.651	5.97
934.08	19.87
934.51	37.37
934.94	12.57
935.37	10.37
935.8	13.67
936.229	9.37
936.659	12.27
937.089	2.67
937.519	12.37
937.948	25.07
938.378	13.27
938.807	9.87
939.237	-1.23
939.666	8.27
940.096	-5.93
940.525	4.17
940.955	-1.93
941.384	7.87
941.814	-2.23
942.243	-0.93
942.672	7.17
943.102	2.87
943.531	2.47
943.96	5.17
944.39	-1.73
944.819	-1.63
945.248	0.97
945.677	2.17
946.106	5.67
946.535	3.17
946.964	-1.83
947.393	4.77
947.822	1.27
948.251	4.77
948.68	6.97
949.109	13.77
949.538	6.87
949.967	2.47
950.396	0.67
950.825	1.37
951.254	1.17
951.682	-9.83
952.111	5.37
952.54	8.37
952.969	0.77
953.397	-9.13
953.826	-4.93
954.254	-5.73
954.683	6.27
955.112	-0.83
955.54	1.67
955.969	3.87
956.397	3.47
956.826	-2.83
957.254	9.87
957.682	1.47
958.111	6.17
958.539	2.27
958.967	3.87
959.396	-1.23
959.824	0.97
960.252	2.57
960.68	-2.83
961.109	0.97
961.537	-6.03
961.965	-0.73
962.393	2.77
962.821	-2.13
963.249	1.37
963.677	1.07
964.105	5.17
964.533	46.17
964.961	46.67
965.389	22.17
965.817	8.27
966.245	-1.53
966.672	0.27
967.1	-9.73
967.528	0.27
967.956	1.57
968.383	-1.43
968.811	0.47
969.239	-1.63
969.666	0.27
970.094	4.07
970.522	3.67
970.949	3.77
971.377	-1.33
971.804	0.37
972.232	-1.13
972.659	-0.53
973.087	-2.33
973.514	-0.23
973.941	-0.23
974.369	5.87
974.796	2.27
975.223	1.17
975.651	-1.53
976.078	0.17
976.505	-1.63
976.932	6.17
977.359	17.77
977.786	15.87
978.214	3.77
978.641	1.57
979.068	-1.93
979.495	0.17
979.922	3.77
980.349	-1.43
980.776	3.97
981.202	-0.33
981.629	1.07
982.056	4.57
982.483	-3.23
982.91	8.27
983.337	-3.43
983.763	1.37
984.19	-0.33
984.617	1.17
985.043	-12.13
985.47	-2.33
985.897	-4.23
986.323	-12.63
986.75	8.97
987.176	-1.23
987.603	-0.83
988.029	-0.83
988.456	-4.13
988.882	1.07
989.308	-2.33
989.735	-3.23
990.161	2.27
990.587	-3.13
991.014	-3.93
991.44	8.17
991.866	4.27
992.292	2.07
992.719	-2.03
993.145	1.47
993.571	-4.63
993.997	-2.23
994.423	2.67
994.849	-1.63
995.275	3.17
995.701	-0.53
996.127	-5.53
996.553	2.77
996.979	-1.63
997.405	-6.73
997.83	-4.53
998.256	-3.73
998.682	-3.03
999.108	-5.53
999.534	5.57
999.959	-1.83
1000.385	-5.03
1000.811	1.67
1001.236	-6.33
1001.662	-0.53
1002.087	-7.23
1002.513	0.17
1002.938	0.07
1003.364	-4.33
1003.789	-3.93
1004.215	2.97
1004.64	1.07
1005.066	2.47
1005.491	0.67
1005.916	0.57
1006.342	-1.53
1006.767	-0.53
1007.192	6.17
1007.617	-7.63
1008.042	3.97
1008.468	0.67
1008.893	0.07
1009.318	4.67
1009.743	-2.13
1010.168	2.17
1010.593	2.97
1011.018	-4.43
1011.443	2.07
1011.868	-0.13
1012.293	-2.13
1012.718	-1.93
1013.143	0.67
1013.567	2.07
1013.992	-0.93
1014.417	-15.33
1014.842	2.27
1015.267	-0.83
1015.691	-4.83
1016.116	6.67
1016.541	6.87
1016.965	2.27
1017.39	-0.63
1017.814	-3.13
1018.239	0.67
1018.663	-3.63
1019.088	-9.43
1019.512	-0.43
1019.937	1.27
1020.361	1.87
1020.785	-6.53
1021.21	-1.33
1021.634	-0.93
1022.058	-2.73
1022.483	2.47
1022.907	-4.83
1023.331	-6.63
1023.755	-3.63
1024.179	-4.83
1024.604	-7.83
1025.028	-2.63
1025.452	0.47
1025.876	-1.43
1026.3	-1.13
1026.724	-6.33
1027.148	-0.03
1027.572	-6.63
1027.996	-0.33
1028.42	-3.43
1028.843	-6.73
1029.267	-7.53
1029.691	-4.03
1030.115	-7.03
1030.539	-10.53
1030.962	-2.03
1031.386	-7.03
1031.81	1.87
1032.233	-7.33
1032.657	-1.13
1033.08	-7.33
1033.504	-1.13
1033.927	-2.53
1034.351	-2.93
1034.774	-5.83
1035.198	2.97
1035.621	-8.93
1036.045	-10.73
1036.468	-3.33
1036.891	-6.73
1037.315	-2.63
1037.738	-8.13
1038.161	-0.43
1038.584	-2.33
1039.008	-10.13
1039.431	0.77
1039.854	-6.33
1040.277	-8.73
1040.7	-11.33
1041.123	0.17
1041.546	-5.33
1041.969	-1.63
1042.392	-6.23
1042.815	-3.03
1043.238	5.37
1043.661	-0.23
1044.084	-7.23
1044.507	-6.03
1044.93	-4.13
1045.352	-5.73
1045.775	-3.43
1046.198	0.27
1046.621	-0.53
1047.043	1.47
1047.466	6.57
1047.889	-2.93
1048.311	-5.63
1048.734	-7.13
1049.156	-2.33
1049.579	-2.23
1050.001	-6.03
1050.424	2.07
1050.846	-1.13
1051.269	-4.03
1051.691	-4.83
1052.113	-5.53
1052.536	4.27
1052.958	-5.03
1053.38	-2.33
1053.802	-7.53
1054.225	-2.23
1054.647	-8.83
1055.069	-8.13
1055.491	2.57
1055.913	-1.53
1056.335	-0.73
1056.757	-4.33
1057.179	-3.13
1057.601	-0.33
1058.023	-6.43
1058.445	-1.03
1058.867	1.27
1059.289	2.97
1059.711	-5.63
1060.133	-1.03
1060.555	-7.43
1060.976	-8.53
1061.398	-4.03
1061.82	-2.63
1062.241	0.37
1062.663	-7.63
1063.085	-6.43
1063.506	1.67
1063.928	-3.63
1064.35	-2.03
1064.771	-12.13
1065.193	-3.23
1065.614	-10.93
1066.035	-1.53
1066.457	-7.33
1066.878	9.77
1067.3	-6.93
1067.721	0.57
1068.142	-5.83
1068.564	-2.23
1068.985	-1.13
1069.406	-6.93
1069.827	-2.43
1070.248	-1.73
1070.67	-4.83
1071.091	-2.53
1071.512	-5.93
1071.933	-6.83
1072.354	-9.13
1072.775	-5.43
1073.196	-9.33
1073.617	-7.93
1074.038	-13.73
1074.459	-5.83
1074.88	-10.13
1075.3	0.67
1075.721	-1.23
1076.142	3.27
1076.563	1.27
1076.983	-9.43
1077.404	-12.43
1077.825	-6.43
1078.246	-1.73
1078.666	-11.03
1079.087	-2.63
1079.507	-2.23
1079.928	-1.03
1080.348	3.37
1080.769	-8.63
1081.189	-0.93
1081.61	-6.33
1082.03	-5.23
1082.451	-7.93
1082.871	-9.23
1083.291	-5.83
1083.711	-7.43
1084.132	-2.43
1084.552	0.07
1084.972	-0.13
1085.392	-10.83
1085.813	-12.63
1086.233	-5.93
1086.653	-6.63
1087.073	-2.53
1087.493	-5.73
1087.913	-4.33
1088.333	-7.13
1088.753	-3.13
1089.173	-1.43
1089.593	-3.13
1090.013	4.77
1090.433	5.17
1090.852	-5.73
1091.272	-1.23
1091.692	-2.23
1092.112	-4.43
1092.531	-3.03
1092.951	-9.13
1093.371	4.67
1093.79	-0.63
1094.21	-3.93
1094.63	-10.13
1095.049	-3.33
1095.469	0.37
1095.888	-6.83
1096.308	1.77
1096.727	6.17
1097.146	-0.83
1097.566	-3.13
1097.985	-6.93
1098.405	-0.03
1098.824	-11.43
1099.243	-5.73
1099.662	-5.23
1100.082	-4.83
1100.501	-2.63
1100.92	-9.33
1101.339	-5.73
1101.758	-6.03
