Data from 20171114-ORNL-Ar_H_NY_Subt18_08-07-38-532.txt Node
Date: Tue Nov 14 08:07:38 EST 2017
User: Ender
Spectrometer: HR+D1039
Trigger mode: 0
Integration Time (sec): 2.730000E-2
Scans to average: 10
Electric dark correction enabled: true
Nonlinearity correction enabled: false
Boxcar width: 0
XAxis mode: Wavelengths
Number of Pixels in Spectrum: 2048
>>>>>Begin Spectral Data<<<<<
187.836	-3.09
188.309	-3.09
188.782	-3.09
189.255	-2.49
189.728	-1.39
190.201	7.71
190.674	4.51
191.147	4.21
191.619	-4.19
192.092	0.21
192.565	3.31
193.038	-3.09
193.511	-1.39
193.984	0.11
194.456	2.51
194.929	0.41
195.402	-2.69
195.874	-4.59
196.347	-8.09
196.82	-7.69
197.292	5.31
197.765	0.81
198.237	-10.39
198.71	4.51
199.182	-7.79
199.655	2.71
200.127	0.51
200.6	-3.79
201.072	-4.89
201.544	-6.89
202.017	-2.29
202.489	1.91
202.961	-2.59
203.433	-7.29
203.906	-5.49
204.378	-5.89
204.85	-8.39
205.322	-12.69
205.794	-3.99
206.266	-7.09
206.739	-8.99
207.211	-4.79
207.683	-11.49
208.155	-8.99
208.627	-3.69
209.099	-5.49
209.57	-6.99
210.042	-6.79
210.514	-3.59
210.986	-1.39
211.458	-15.59
211.93	-3.89
212.402	1.01
212.873	-7.89
213.345	-9.59
213.817	-7.49
214.288	-7.89
214.76	-12.99
215.232	-7.49
215.703	-3.89
216.175	-8.69
216.646	-8.49
217.118	-13.79
217.589	-8.69
218.061	-5.39
218.532	-9.39
219.004	-3.39
219.475	-3.99
219.946	-7.19
220.418	-3.19
220.889	2.01
221.36	-4.09
221.832	-7.39
222.303	-3.69
222.774	-2.79
223.245	-9.69
223.717	-8.79
224.188	-5.49
224.659	-9.39
225.13	-9.89
225.601	-7.19
226.072	-5.19
226.543	1.61
227.014	-3.59
227.485	0.31
227.956	-4.69
228.427	-3.39
228.898	-0.69
229.369	0.81
229.839	-6.69
230.31	-7.89
230.781	3.51
231.252	-2.89
231.722	-4.89
232.193	-1.99
232.664	1.91
233.135	-4.19
233.605	-4.49
234.076	-9.79
234.546	-1.39
235.017	-0.79
235.487	2.11
235.958	-3.69
236.428	-4.49
236.899	1.41
237.369	-2.99
237.84	0.41
238.31	4.71
238.78	-1.59
239.251	1.51
239.721	-1.59
240.191	-1.49
240.662	-2.69
241.132	-6.69
241.602	-2.49
242.072	-3.19
242.542	5.51
243.013	-1.59
243.483	0.71
243.953	0.91
244.423	-2.09
244.893	-4.99
245.363	2.21
245.833	1.91
246.303	-6.09
246.773	0.51
247.243	-2.49
247.712	1.81
248.182	6.41
248.652	10.31
249.122	-8.29
249.592	9.21
250.061	15.41
250.531	29.81
251.001	10.21
251.471	15.21
251.94	14.11
252.41	11.31
252.879	-6.29
253.349	12.11
253.818	7.51
254.288	-5.49
254.757	4.91
255.227	-0.19
255.696	7.01
256.166	5.11
256.635	3.71
257.105	6.21
257.574	3.51
258.043	2.21
258.513	6.21
258.982	9.81
259.451	3.41
259.92	9.01
260.389	6.41
260.859	9.11
261.328	7.71
261.797	15.41
262.266	2.71
262.735	8.51
263.204	6.51
263.673	-2.29
264.142	-2.79
264.611	-2.69
265.08	-0.19
265.549	-1.29
266.018	4.91
266.487	-2.89
266.955	-3.09
267.424	-0.19
267.893	3.71
268.362	1.61
268.83	6.41
269.299	4.91
269.768	1.81
270.236	5.51
270.705	-4.89
271.174	1.01
271.642	4.71
272.111	1.01
272.579	8.21
273.048	14.91
273.516	22.91
273.985	17.81
274.453	19.51
274.922	19.71
275.39	5.81
275.858	7.71
276.327	4.01
276.795	13.71
277.263	3.11
277.731	19.61
278.2	51.91
278.668	44.71
279.136	46.41
279.604	16.51
280.072	14.71
280.54	4.11
281.008	7.01
281.477	10.71
281.945	8.91
282.413	12.01
282.881	11.01
283.348	6.41
283.816	11.41
284.284	11.21
284.752	17.01
285.22	7.91
285.688	14.21
286.156	14.41
286.623	37.51
287.091	42.91
287.559	24.81
288.026	8.01
288.494	12.81
288.962	1.71
289.429	8.71
289.897	16.81
290.364	10.31
290.832	17.11
291.3	12.81
291.767	16.01
292.234	13.11
292.702	14.11
293.169	14.61
293.637	16.41
294.104	11.41
294.571	4.31
295.039	13.11
295.506	5.21
295.973	13.11
296.44	10.21
296.908	14.01
297.375	17.11
297.842	11.41
298.309	15.31
298.776	9.21
299.243	10.41
299.71	7.81
300.177	16.91
300.644	21.71
301.111	18.51
301.578	17.91
302.045	9.91
302.512	19.41
302.979	18.01
303.446	17.11
303.913	12.91
304.379	16.01
304.846	22.61
305.313	18.91
305.78	17.91
306.246	12.31
306.713	21.21
307.18	17.11
307.646	24.21
308.113	23.61
308.579	18.61
309.046	25.31
309.512	21.01
309.979	13.81
310.445	27.21
310.912	22.71
311.378	28.31
311.845	20.31
312.311	22.21
312.777	27.01
313.244	26.11
313.71	34.91
314.176	22.51
314.642	27.81
315.109	23.81
315.575	33.51
316.041	33.51
316.507	31.11
316.973	33.91
317.439	28.11
317.905	24.81
318.371	24.01
318.837	27.81
319.303	26.01
319.769	28.41
320.235	23.01
320.701	23.61
321.167	24.71
321.633	23.81
322.099	35.91
322.564	35.61
323.03	30.51
323.496	26.11
323.962	35.71
324.427	31.11
324.893	38.51
325.359	33.01
325.824	28.11
326.29	31.51
326.755	27.81
327.221	34.81
327.686	31.91
328.152	43.01
328.617	37.81
329.083	39.41
329.548	44.31
330.014	37.81
330.479	37.91
330.944	38.31
331.41	31.81
331.875	32.61
332.34	37.51
332.805	35.51
333.271	41.31
333.736	42.11
334.201	50.11
334.666	46.91
335.131	45.11
335.596	44.31
336.061	49.41
336.526	35.01
336.991	39.01
337.456	52.11
337.921	41.01
338.386	37.81
338.851	36.71
339.316	42.71
339.781	39.51
340.246	45.01
340.711	39.01
341.175	43.91
341.64	38.21
342.105	41.21
342.569	43.71
343.034	55.51
343.499	49.11
343.963	40.61
344.428	54.51
344.893	50.11
345.357	54.81
345.822	57.21
346.286	61.51
346.751	58.21
347.215	53.41
347.679	59.21
348.144	88.41
348.608	65.41
349.073	62.21
349.537	62.71
350.001	66.81
350.465	76.31
350.93	72.51
351.394	68.01
351.858	52.91
352.322	73.91
352.786	68.11
353.25	85.71
353.715	93.31
354.179	89.11
354.643	97.21
355.107	117.91
355.571	94.61
356.035	88.51
356.498	106.51
356.962	109.81
357.426	111.41
357.89	104.61
358.354	83.81
358.818	75.51
359.281	69.21
359.745	67.11
360.209	67.51
360.673	64.11
361.136	67.91
361.6	75.81
362.064	78.31
362.527	78.31
362.991	84.21
363.454	68.81
363.918	69.81
364.381	66.81
364.845	74.81
365.308	75.21
365.772	73.71
366.235	72.41
366.698	72.41
367.162	81.81
367.625	73.81
368.088	81.11
368.552	83.21
369.015	87.31
369.478	84.81
369.941	94.41
370.404	83.71
370.867	100.21
371.331	98.01
371.794	105.71
372.257	97.91
372.72	106.51
373.183	97.51
373.646	95.61
374.109	102.51
374.572	97.01
375.035	88.91
375.497	96.61
375.96	92.01
376.423	87.41
376.886	105.01
377.349	97.01
377.811	84.51
378.274	98.51
378.737	100.61
379.199	93.31
379.662	104.41
380.125	109.11
380.587	108.31
381.05	114.11
381.512	117.51
381.975	124.11
382.437	117.11
382.9	120.21
383.362	125.41
383.825	132.51
384.287	128.91
384.75	127.71
385.212	128.21
385.674	132.31
386.136	128.41
386.599	118.51
387.061	118.31
387.523	119.91
387.985	123.91
388.447	132.51
388.91	132.11
389.372	156.71
389.834	139.51
390.296	133.31
390.758	148.41
391.22	158.61
391.682	194.61
392.144	276.61
392.606	217.31
393.068	151.81
393.529	159.11
393.991	144.81
394.453	137.71
394.915	138.81
395.377	182.11
395.838	202.51
396.3	139.31
396.762	140.21
397.224	129.81
397.685	120.41
398.147	120.71
398.608	126.81
399.07	121.31
399.531	122.81
399.993	127.61
400.454	141.91
400.916	143.71
401.377	135.41
401.839	134.31
402.3	138.21
402.762	160.11
403.223	172.41
403.684	160.01
404.145	148.11
404.607	147.61
405.068	155.31
405.529	156.01
405.99	170.01
406.451	167.71
406.913	161.51
407.374	155.61
407.835	156.81
408.296	161.21
408.757	156.71
409.218	169.21
409.679	168.31
410.14	166.01
410.601	173.61
411.062	167.41
411.522	186.31
411.983	177.31
412.444	165.61
412.905	172.91
413.366	174.31
413.826	185.41
414.287	201.91
414.748	248.61
415.208	232.71
415.669	196.91
416.13	190.71
416.59	191.71
417.051	200.71
417.511	199.71
417.972	226.91
418.432	234.91
418.893	278.31
419.353	236.11
419.814	194.51
420.274	170.91
420.734	169.21
421.195	186.61
421.655	198.61
422.115	186.71
422.576	186.91
423.036	186.31
423.496	201.91
423.956	206.41
424.416	218.41
424.876	254.91
425.336	243.11
425.797	254.31
426.257	244.81
426.717	230.21
427.177	219.01
427.637	216.41
428.097	223.01
428.556	230.01
429.016	258.81
429.476	253.21
429.936	261.21
430.396	261.61
430.856	278.71
431.315	295.31
431.775	330.01
432.235	365.71
432.694	325.51
433.154	347.21
433.614	376.21
434.073	327.11
434.533	268.91
434.993	261.91
435.452	264.41
435.912	279.21
436.371	275.31
436.83	274.81
437.29	256.81
437.749	232.91
438.209	233.41
438.668	259.31
439.127	277.91
439.587	247.21
440.046	239.31
440.505	252.31
440.964	271.31
441.424	304.81
441.883	290.31
442.342	246.91
442.801	222.21
443.26	216.21
443.719	212.61
444.178	207.11
444.637	201.41
445.096	210.91
445.555	209.51
446.014	217.71
446.473	224.31
446.932	221.31
447.391	212.31
447.849	220.71
448.308	209.71
448.767	212.01
449.226	224.81
449.685	230.21
450.143	237.71
450.602	233.21
451.061	219.01
451.519	227.81
451.978	220.61
452.436	223.41
452.895	226.41
453.353	239.61
453.812	231.91
454.27	229.11
454.729	230.71
455.187	226.31
455.646	231.71
456.104	233.31
456.562	247.61
457.021	254.41
457.479	244.21
457.937	261.21
458.395	245.01
458.854	236.51
459.312	249.51
459.77	258.11
460.228	246.51
460.686	236.01
461.144	239.11
461.602	237.21
462.06	232.61
462.518	243.71
462.976	248.41
463.434	246.91
463.892	255.81
464.35	260.71
464.808	275.81
465.266	256.71
465.724	254.51
466.181	260.51
466.639	263.41
467.097	278.51
467.555	294.01
468.012	287.01
468.47	293.91
468.928	311.91
469.385	322.31
469.843	330.41
470.3	340.71
470.758	352.51
471.215	372.01
471.673	390.61
472.13	393.31
472.588	404.71
473.045	359.51
473.503	369.31
473.96	380.71
474.417	389.81
474.875	414.51
475.332	467.31
475.789	452.91
476.246	456.11
476.704	473.91
477.161	490.41
477.618	509.91
478.075	545.81
478.532	589.91
478.989	666.11
479.446	780.31
479.903	748.51
480.36	784.41
480.817	844.01
481.274	946.21
481.731	1037.21
482.188	1126.01
482.645	1267.51
483.102	1368.51
483.558	1491.11
484.015	1546.11
484.472	1516.81
484.929	1467.11
485.385	1423.71
485.842	1377.61
486.299	1315.71
486.755	1254.21
487.212	1054.51
487.668	892.41
488.125	821.81
488.582	753.61
489.038	723.61
489.494	682.21
489.951	655.51
490.407	645.41
490.864	634.61
491.32	634.31
491.776	623.51
492.233	625.51
492.689	599.61
493.145	589.01
493.602	577.71
494.058	599.41
494.514	591.81
494.97	619.01
495.426	631.21
495.882	602.11
496.338	587.91
496.794	607.01
497.251	597.31
497.707	614.21
498.163	610.51
498.618	617.21
499.074	632.51
499.53	657.81
499.986	646.41
500.442	634.61
500.898	619.41
501.354	614.41
501.809	618.61
502.265	629.71
502.721	645.01
503.177	650.21
503.632	639.11
504.088	652.41
504.543	690.71
504.999	685.71
505.455	634.91
505.91	615.71
506.366	612.11
506.821	609.61
507.277	608.91
507.732	609.71
508.187	611.51
508.643	616.51
509.098	619.51
509.553	639.21
510.009	646.71
510.464	650.31
510.919	677.41
511.375	670.81
511.83	691.41
512.285	699.01
512.74	729.41
513.195	769.01
513.65	744.81
514.105	753.61
514.56	755.81
515.015	761.01
515.47	784.31
515.925	765.01
516.38	759.21
516.835	759.61
517.29	758.81
517.745	752.01
518.2	737.41
518.655	726.91
519.109	726.41
519.564	718.21
520.019	721.01
520.474	706.11
520.928	713.01
521.383	717.51
521.838	696.01
522.292	685.21
522.747	700.81
523.201	693.61
523.656	681.51
524.11	683.91
524.565	684.91
525.019	675.41
525.474	691.31
525.928	688.81
526.382	680.11
526.837	684.21
527.291	677.21
527.745	677.21
528.2	687.11
528.654	666.81
529.108	669.61
529.562	675.01
530.016	674.31
530.47	669.31
530.925	683.41
531.379	682.21
531.833	688.51
532.287	683.51
532.741	684.71
533.195	681.51
533.649	695.91
534.103	700.21
534.556	688.91
535.01	688.51
535.464	691.01
535.918	697.61
536.372	709.81
536.826	700.61
537.279	686.41
537.733	697.41
538.187	702.81
538.64	703.31
539.094	713.71
539.548	721.31
540.001	706.71
540.455	705.21
540.908	726.71
541.362	725.31
541.815	739.41
542.269	748.91
542.722	743.01
543.175	755.61
543.629	751.11
544.082	770.51
544.536	767.81
544.989	751.41
545.442	771.81
545.895	770.91
546.349	781.91
546.802	778.31
547.255	783.81
547.708	795.71
548.161	808.71
548.614	804.51
549.067	813.11
549.52	805.21
549.973	804.61
550.426	795.11
550.879	779.91
551.332	782.91
551.785	790.61
552.238	792.21
552.691	801.61
553.144	812.01
553.596	829.01
554.049	843.11
554.502	877.21
554.955	897.41
555.407	892.31
555.86	896.01
556.313	883.81
556.765	861.31
557.218	862.81
557.67	864.31
558.123	856.91
558.576	852.11
559.028	875.21
559.48	862.51
559.933	850.01
560.385	818.91
560.838	788.11
561.29	771.81
561.742	766.11
562.195	750.21
562.647	755.41
563.099	769.81
563.551	758.71
564.004	773.21
564.456	757.01
564.908	754.91
565.36	739.31
565.812	722.81
566.264	724.01
566.716	715.21
567.168	703.71
567.62	705.11
568.072	693.31
568.524	688.21
568.976	676.01
569.428	663.71
569.88	668.61
570.332	674.21
570.784	676.71
571.235	677.11
571.687	690.01
572.139	687.51
572.59	700.21
573.042	710.51
573.494	694.21
573.945	683.71
574.397	677.41
574.849	680.81
575.3	680.21
575.752	667.21
576.203	670.01
576.655	668.91
577.106	657.41
577.557	651.51
578.009	658.81
578.46	658.41
578.912	658.51
579.363	667.51
579.814	656.51
580.265	657.11
580.717	658.41
581.168	659.81
581.619	661.31
582.07	676.31
582.521	666.71
582.972	657.71
583.423	669.11
583.875	663.81
584.326	687.61
584.777	733.41
585.227	814.51
585.678	907.41
586.129	988.31
586.58	1054.01
587.031	1147.21
587.482	1286.41
587.933	1456.31
588.384	1265.21
588.834	950.81
589.285	803.11
589.736	772.41
590.186	762.31
590.637	757.31
591.088	735.91
591.538	731.21
591.989	723.31
592.439	711.81
592.89	711.51
593.34	709.71
593.791	712.21
594.241	693.61
594.692	698.11
595.142	698.51
595.593	693.41
596.043	694.31
596.493	701.51
596.943	710.81
597.394	710.81
597.844	702.11
598.294	716.71
598.744	739.71
599.195	765.51
599.645	805.21
600.095	845.71
600.545	901.91
600.995	954.11
601.445	1016.31
601.895	1065.81
602.345	1122.31
602.795	1103.01
603.245	1046.91
603.695	998.51
604.145	943.61
604.594	905.81
605.044	845.81
605.494	789.41
605.944	745.41
606.393	731.71
606.843	715.71
607.293	717.81
607.743	722.71
608.192	735.91
608.642	757.21
609.091	752.51
609.541	765.41
609.99	756.61
610.44	761.41
610.889	716.71
611.339	685.41
611.788	686.61
612.238	696.91
612.687	713.41
613.136	726.51
613.586	732.11
614.035	738.41
614.484	747.31
614.933	742.81
615.383	740.01
615.832	726.51
616.281	714.91
616.73	677.71
617.179	663.51
617.628	641.81
618.077	646.11
618.526	623.91
618.975	611.61
619.424	609.81
619.873	605.51
620.322	625.21
620.771	598.91
621.22	598.01
621.669	589.11
622.118	582.01
622.567	578.21
623.015	571.01
623.464	568.11
623.913	549.51
624.361	543.41
624.81	537.81
625.259	541.61
625.707	546.01
626.156	552.21
626.604	560.31
627.053	555.81
627.501	558.21
627.95	568.31
628.398	576.61
628.847	560.01
629.295	561.31
629.744	562.01
630.192	570.01
630.64	562.21
631.089	553.61
631.537	578.91
631.985	581.91
632.433	594.91
632.881	598.61
633.33	650.31
633.778	641.81
634.226	561.91
634.674	562.21
635.122	575.41
635.57	588.91
636.018	616.91
636.466	569.41
636.914	546.21
637.362	567.81
637.81	572.11
638.258	576.01
638.705	572.61
639.153	603.91
639.601	618.81
640.049	638.11
640.497	666.61
640.944	683.41
641.392	633.61
641.84	603.51
642.287	574.41
642.735	564.41
643.182	565.31
643.63	560.61
644.078	565.91
644.525	578.21
644.973	596.01
645.42	608.01
645.867	618.91
646.315	636.11
646.762	654.21
647.21	686.51
647.657	707.81
648.104	739.91
648.551	764.11
648.999	832.01
649.446	911.91
649.893	998.41
650.34	1152.11
650.787	1381.11
651.234	1728.41
651.682	2261.51
652.129	3094.41
652.576	4466.81
653.023	6579.71
653.47	8999.51
653.917	11197.41
654.363	12840.61
654.81	14206.71
655.257	13519.41
655.704	8808.81
656.151	5203.21
656.598	3386.81
657.044	2389.61
657.491	1843.31
657.938	1472.81
658.385	1227.31
658.831	1077.71
659.278	961.11
659.724	850.31
660.171	782.71
660.618	721.11
661.064	675.31
661.511	664.11
661.957	648.51
662.404	640.51
662.85	645.11
663.296	623.91
663.743	555.21
664.189	541.71
664.635	529.81
665.082	521.21
665.528	525.61
665.974	504.61
666.42	501.21
666.867	499.01
667.313	485.11
667.759	478.61
668.205	481.41
668.651	480.11
669.097	479.11
669.543	497.11
669.989	462.01
670.435	442.91
670.881	443.91
671.327	444.41
671.773	470.11
672.219	478.51
672.665	542.61
673.11	582.61
673.556	626.91
674.002	666.81
674.448	640.01
674.893	538.71
675.339	464.11
675.785	438.31
676.23	420.41
676.676	390.51
677.122	379.21
677.567	368.01
678.013	361.31
678.458	356.31
678.904	358.91
679.349	343.51
679.794	348.11
680.24	342.91
680.685	339.41
681.131	347.81
681.576	338.11
682.021	351.21
682.466	338.51
682.912	349.11
683.357	352.71
683.802	383.61
684.247	413.81
684.692	456.71
685.137	492.31
685.583	523.81
686.028	550.91
686.473	509.71
686.918	447.31
687.363	416.01
687.807	388.11
688.252	360.51
688.697	352.11
689.142	328.51
689.587	326.31
690.032	319.51
690.477	332.71
690.921	346.91
691.366	379.21
691.811	401.91
692.255	429.61
692.7	463.01
693.145	495.61
693.589	695.31
694.034	1135.41
694.478	1529.71
694.923	1717.71
695.367	2224.01
695.812	1173.51
696.256	489.41
696.701	369.31
697.145	340.31
697.59	321.61
698.034	317.31
698.478	330.81
698.922	325.11
699.367	326.31
699.811	343.31
700.255	358.51
700.699	384.61
701.143	428.61
701.588	474.21
702.032	512.91
702.476	515.11
702.92	488.61
703.364	488.41
703.808	640.41
704.252	1043.71
704.696	1452.41
705.14	1649.81
705.584	2091.91
706.027	1043.81
706.471	522.91
706.915	398.41
707.359	349.91
707.803	315.11
708.246	306.91
708.69	314.51
709.134	307.61
709.577	309.61
710.021	316.81
710.465	306.11
710.908	299.11
711.352	303.11
711.795	309.61
712.239	348.81
712.682	386.61
713.126	413.21
713.569	461.71
714.012	360.81
714.456	320.81
714.899	290.61
715.342	272.11
715.786	263.81
716.229	257.91
716.672	256.71
717.115	248.61
717.558	245.41
718.002	247.01
718.445	260.91
718.888	283.51
719.331	294.81
719.774	306.51
720.217	302.11
720.66	283.51
721.103	266.21
721.546	251.31
721.989	245.61
722.432	229.51
722.874	234.21
723.317	227.31
723.76	242.21
724.203	251.11
724.645	320.51
725.088	450.61
725.531	573.31
725.974	631.41
726.416	543.41
726.859	305.11
727.301	248.11
727.744	237.91
728.187	228.61
728.629	238.91
729.071	240.31
729.514	259.51
729.956	272.11
730.399	278.01
730.841	281.71
731.283	273.41
731.726	267.31
732.168	253.01
732.61	270.71
733.053	282.11
733.495	315.01
733.937	351.21
734.379	398.81
734.821	445.21
735.263	545.41
735.705	851.21
736.148	1590.41
736.59	2553.81
737.032	2982.61
737.474	2444.61
737.916	800.71
738.357	422.11
738.799	327.61
739.241	293.71
739.683	281.81
740.125	284.41
740.567	297.21
741.008	308.61
741.45	311.41
741.892	316.61
742.334	345.31
742.775	351.11
743.217	334.41
743.658	268.21
744.1	246.21
744.542	269.91
744.983	304.41
745.425	338.21
745.866	343.41
746.307	282.81
746.749	281.91
747.19	329.61
747.632	460.01
748.073	899.01
748.514	1865.41
748.956	2822.61
749.397	3549.41
749.838	2949.41
750.279	2897.51
750.72	1458.41
751.162	541.21
751.603	316.21
752.044	250.41
752.485	216.91
752.926	210.01
753.367	191.91
753.808	191.21
754.249	182.71
754.69	182.91
755.131	177.31
755.572	184.91
756.013	185.01
756.453	183.11
756.894	186.91
757.335	187.31
757.776	196.01
758.216	199.01
758.657	205.21
759.098	199.11
759.538	223.71
759.979	263.21
760.42	376.41
760.86	719.41
761.301	1855.31
761.741	4438.91
762.182	6309.01
762.622	4446.21
763.063	1294.61
763.503	531.51
763.943	345.11
764.384	345.11
764.824	404.51
765.264	434.71
765.705	300.91
766.145	208.11
766.585	187.41
767.025	177.91
767.465	190.01
767.906	241.81
768.346	311.81
768.786	337.01
769.226	257.71
769.666	321.01
770.106	633.31
770.546	1565.51
770.986	2597.01
771.426	2324.71
771.866	780.21
772.306	327.11
772.745	210.51
773.185	171.81
773.625	177.31
774.065	165.91
774.505	192.01
774.944	311.01
775.384	674.91
775.824	1183.81
776.263	1152.01
776.703	495.81
777.142	219.21
777.582	149.31
778.021	139.31
778.461	134.91
778.9	139.91
779.34	130.31
779.779	115.91
780.219	106.11
780.658	106.61
781.097	109.81
781.537	110.91
781.976	113.61
782.415	106.31
782.855	102.31
783.294	105.91
783.733	105.21
784.172	109.51
784.611	102.41
785.05	110.61
785.489	109.01
785.928	117.51
786.367	120.01
786.806	118.91
787.245	126.01
787.684	134.91
788.123	143.01
788.562	134.31
789.001	127.01
789.44	122.01
789.879	118.01
790.317	113.51
790.756	125.31
791.195	120.51
791.634	145.71
792.072	203.91
792.511	373.21
792.95	1020.01
793.388	2133.71
793.827	1906.71
794.265	671.51
794.704	274.51
795.142	184.61
795.581	147.21
796.019	130.11
796.458	126.81
796.896	123.11
797.334	128.81
797.773	156.21
798.211	221.41
798.649	451.51
799.087	1023.51
799.526	1577.91
799.964	2002.81
800.402	1953.51
800.84	748.91
801.278	298.51
801.716	190.51
802.154	155.51
802.592	141.91
803.03	130.21
803.468	128.61
803.906	137.01
804.344	152.21
804.782	131.51
805.22	128.01
805.658	127.61
806.096	145.11
806.533	159.21
806.971	177.91
807.409	217.41
807.847	313.01
808.284	666.01
808.722	1869.61
809.16	3262.91
809.597	3136.11
810.035	5401.71
810.472	5623.41
810.91	2052.71
811.347	776.21
811.785	396.01
812.222	252.51
812.66	195.71
813.097	164.21
813.535	135.71
813.972	129.51
814.409	115.91
814.846	107.01
815.284	106.91
815.721	99.61
816.158	101.21
816.595	124.21
817.032	177.91
817.47	193.91
817.907	154.11
818.344	150.91
818.781	111.81
819.218	98.41
819.655	121.91
820.092	180.11
820.529	207.81
820.966	174.91
821.403	133.91
821.839	111.61
822.276	97.71
822.713	123.51
823.15	124.11
823.587	116.21
824.023	150.91
824.46	306.81
824.897	912.51
825.333	1339.01
825.77	574.81
826.206	226.01
826.643	137.51
827.08	95.11
827.516	83.41
827.953	78.51
828.389	81.01
828.825	75.71
829.262	67.21
829.698	59.21
830.135	60.21
830.571	59.01
831.007	66.31
831.443	65.81
831.88	62.71
832.316	65.91
832.752	63.91
833.188	72.51
833.624	60.21
834.06	64.81
834.497	64.91
834.933	71.41
835.369	72.41
835.805	67.71
836.241	72.41
836.677	79.31
837.112	93.91
837.548	99.71
837.984	137.31
838.42	205.11
838.856	503.11
839.292	1525.21
839.727	2264.61
840.163	1050.61
840.599	928.81
841.034	2031.31
841.47	2070.01
841.906	761.31
842.341	332.41
842.777	227.51
843.212	314.21
843.648	304.71
844.083	147.61
844.519	88.01
844.954	71.01
845.39	62.01
845.825	53.31
846.261	51.91
846.696	56.21
847.131	59.41
847.566	51.61
848.002	51.51
848.437	49.21
848.872	57.21
849.307	55.91
849.742	87.21
850.177	181.71
850.613	560.11
851.048	860.71
851.483	371.01
851.918	151.11
852.353	85.91
852.788	57.31
853.223	56.81
853.657	56.01
854.092	44.21
854.527	44.11
854.962	40.61
855.397	42.81
855.832	45.01
856.266	41.21
856.701	43.01
857.136	37.91
857.57	35.81
858.005	50.21
858.44	53.31
858.874	41.51
859.309	51.31
859.743	43.51
860.178	43.91
860.612	37.91
861.047	55.81
861.481	64.11
861.915	63.81
862.35	48.31
862.784	34.61
863.218	40.61
863.653	33.81
864.087	43.61
864.521	55.21
864.955	64.71
865.39	149.71
865.824	170.51
866.258	112.11
866.692	159.21
867.126	173.21
867.56	98.01
867.994	55.81
868.428	39.21
868.862	44.31
869.296	46.21
869.73	50.71
870.164	49.61
870.598	45.21
871.031	35.01
871.465	29.01
871.899	30.81
872.333	26.11
872.766	26.51
873.2	23.51
873.634	29.41
874.067	21.31
874.501	23.11
874.935	32.81
875.368	26.51
875.802	27.31
876.235	20.01
876.669	23.81
877.102	22.51
877.535	27.11
877.969	19.51
878.402	21.61
878.836	12.31
879.269	28.41
879.702	23.41
880.135	20.31
880.569	28.61
881.002	25.41
881.435	27.61
881.868	13.81
882.301	20.21
882.734	18.41
883.167	26.51
883.601	14.91
884.034	24.81
884.467	12.51
884.899	17.51
885.332	9.61
885.765	13.71
886.198	19.21
886.631	15.51
887.064	19.91
887.497	20.61
887.929	20.51
888.362	13.81
888.795	14.41
889.228	17.31
889.66	21.31
890.093	17.11
890.526	14.61
890.958	14.11
891.391	16.91
891.823	20.61
892.256	15.01
892.688	12.71
893.121	9.81
893.553	10.11
893.985	25.31
894.418	18.81
894.85	14.11
895.282	13.21
895.715	14.81
896.147	17.41
896.579	14.31
897.011	10.31
897.444	13.11
897.876	11.61
898.308	17.11
898.74	10.21
899.172	8.71
899.604	27.11
900.036	19.61
900.468	15.71
900.9	17.11
901.332	18.51
901.764	11.11
902.196	17.41
902.628	19.31
903.06	16.01
903.491	26.31
903.923	20.81
904.355	17.81
904.787	24.11
905.218	23.81
905.65	17.71
906.082	11.51
906.513	6.71
906.945	13.41
907.376	9.41
907.808	18.41
908.239	20.81
908.671	20.91
909.102	17.41
909.534	18.41
909.965	49.61
910.397	84.21
910.828	313.01
911.259	466.71
911.691	209.31
912.122	102.01
912.553	49.71
912.984	33.91
913.415	29.81
913.847	26.11
914.278	17.41
914.709	15.41
915.14	20.31
915.571	20.41
916.002	9.51
916.433	18.41
916.864	14.61
917.295	10.91
917.726	18.21
918.157	17.31
918.587	33.71
919.018	24.41
919.449	19.41
919.88	24.21
920.311	27.81
920.741	50.01
921.172	167.51
921.603	145.11
922.033	66.51
922.464	41.31
922.895	20.51
923.325	17.71
923.756	14.01
924.186	15.61
924.617	27.61
925.047	43.71
925.478	50.61
925.908	44.01
926.338	28.21
926.769	17.31
927.199	20.31
927.629	3.51
928.06	16.51
928.49	15.01
928.92	13.21
929.35	6.51
929.78	6.51
930.21	9.31
930.641	7.61
931.071	11.91
931.501	4.81
931.931	6.01
932.361	7.81
932.791	3.81
933.221	2.71
933.651	5.71
934.08	14.61
934.51	23.51
934.94	11.81
935.37	12.51
935.8	7.31
936.229	5.71
936.659	9.41
937.089	1.31
937.519	15.41
937.948	23.11
938.378	6.01
938.807	4.11
939.237	6.81
939.666	7.51
940.096	-0.09
940.525	4.71
940.955	1.21
941.384	-1.79
941.814	-10.89
942.243	-6.29
942.672	3.01
943.102	-2.29
943.531	-0.69
943.96	2.31
944.39	5.71
944.819	3.61
945.248	0.31
945.677	1.61
946.106	5.01
946.535	-0.69
946.964	0.11
947.393	5.51
947.822	-2.19
948.251	-0.39
948.68	-0.79
949.109	1.71
949.538	6.91
949.967	-3.29
950.396	5.61
950.825	-2.69
951.254	-1.99
951.682	-4.19
952.111	4.61
952.54	-0.49
952.969	-7.49
953.397	-4.49
953.826	2.61
954.254	-0.99
954.683	-0.79
955.112	0.61
955.54	-6.69
955.969	-0.59
956.397	1.41
956.826	-3.39
957.254	1.41
957.682	0.31
958.111	7.01
958.539	-1.39
958.967	-1.69
959.396	-3.19
959.824	-3.29
960.252	-2.69
960.68	-8.09
961.109	-6.49
961.537	-1.89
961.965	-5.69
962.393	-0.29
962.821	-6.29
963.249	-3.09
963.677	7.21
964.105	7.01
964.533	39.91
964.961	39.91
965.389	15.01
965.817	10.91
966.245	0.11
966.672	-3.29
967.1	-8.09
967.528	-4.39
967.956	-8.89
968.383	-2.89
968.811	-3.29
969.239	-4.09
969.666	-6.39
970.094	0.81
970.522	0.21
970.949	1.11
971.377	-6.09
971.804	0.71
972.232	-2.99
972.659	-3.29
973.087	-2.99
973.514	-1.59
973.941	-1.69
974.369	9.51
974.796	3.01
975.223	-3.09
975.651	-1.69
976.078	5.51
976.505	-6.49
976.932	0.01
977.359	21.91
977.786	11.51
978.214	4.81
978.641	-1.49
979.068	-6.79
979.495	-3.19
979.922	-0.89
980.349	-4.09
980.776	2.61
981.202	-2.19
981.629	4.11
982.056	0.11
982.483	-6.29
982.91	-0.79
983.337	-6.49
983.763	-1.19
984.19	-7.89
984.617	-2.39
985.043	-4.79
985.47	-3.09
985.897	-6.29
986.323	-3.99
986.75	4.11
987.176	-4.39
987.603	-2.29
988.029	-4.39
988.456	-3.19
988.882	-2.29
989.308	-8.19
989.735	-8.09
990.161	-2.09
990.587	-2.09
991.014	-3.19
991.44	5.51
991.866	-4.89
992.292	-3.89
992.719	-3.09
993.145	-0.19
993.571	-11.59
993.997	-7.39
994.423	-5.99
994.849	-5.59
995.275	-3.39
995.701	3.71
996.127	1.91
996.553	-1.79
996.979	-3.39
997.405	-3.99
997.83	-7.79
998.256	-5.39
998.682	-8.49
999.108	-6.09
999.534	1.31
999.959	-2.09
1000.385	-7.19
1000.811	-1.79
1001.236	-4.89
1001.662	-8.99
1002.087	-10.29
1002.513	-3.19
1002.938	1.41
1003.364	-4.09
1003.789	-1.89
1004.215	1.21
1004.64	-3.69
1005.066	-2.19
1005.491	-4.19
1005.916	-1.79
1006.342	-6.49
1006.767	-6.49
1007.192	-0.69
1007.617	-0.29
1008.042	-9.69
1008.468	0.01
1008.893	-3.09
1009.318	-8.79
1009.743	-3.49
1010.168	8.11
1010.593	3.41
1011.018	-2.99
1011.443	-2.29
1011.868	-0.39
1012.293	-4.09
1012.718	-7.09
1013.143	-0.99
1013.567	0.01
1013.992	-4.09
1014.417	-16.19
1014.842	1.61
1015.267	-10.69
1015.691	-6.79
1016.116	-0.69
1016.541	-3.19
1016.965	3.71
1017.39	-0.79
1017.814	-1.39
1018.239	0.11
1018.663	-6.09
1019.088	-7.89
1019.512	-0.29
1019.937	2.71
1020.361	-3.69
1020.785	-12.69
1021.21	-7.69
1021.634	-5.99
1022.058	-2.49
1022.483	3.61
1022.907	-4.99
1023.331	-5.59
1023.755	-9.19
1024.179	-0.89
1024.604	-6.99
1025.028	-5.99
1025.452	-10.59
1025.876	-4.89
1026.3	2.21
1026.724	-10.09
1027.148	-5.29
1027.572	-9.89
1027.996	-2.49
1028.42	-5.09
1028.843	-6.59
1029.267	-6.89
1029.691	-4.19
1030.115	-5.29
1030.539	-14.09
1030.962	-13.39
1031.386	-12.79
1031.81	-8.79
1032.233	-3.29
1032.657	-3.49
1033.08	-0.69
1033.504	-3.99
1033.927	-13.19
1034.351	-1.49
1034.774	-5.29
1035.198	-3.59
1035.621	-5.49
1036.045	-6.79
1036.468	-4.89
1036.891	-14.89
1037.315	-11.69
1037.738	-13.19
1038.161	0.21
1038.584	-10.09
1039.008	-7.69
1039.431	-1.39
1039.854	-5.39
1040.277	-9.69
1040.7	-12.69
1041.123	-0.49
1041.546	-10.19
1041.969	-6.49
1042.392	-7.49
1042.815	-0.29
1043.238	-1.19
1043.661	1.61
1044.084	-9.59
1044.507	-5.59
1044.93	-6.99
1045.352	-9.39
1045.775	-3.69
1046.198	-6.69
1046.621	-2.69
1047.043	-0.99
1047.466	3.01
1047.889	1.51
1048.311	-1.89
1048.734	-4.69
1049.156	-1.69
1049.579	-7.39
1050.001	-3.69
1050.424	-4.69
1050.846	-4.19
1051.269	-5.69
1051.691	-4.19
1052.113	-2.69
1052.536	-2.29
1052.958	-0.89
1053.38	-3.29
1053.802	-11.59
1054.225	-2.99
1054.647	-16.99
1055.069	-4.19
1055.491	1.11
1055.913	-4.89
1056.335	2.11
1056.757	-7.09
1057.179	-2.49
1057.601	-11.49
1058.023	-4.99
1058.445	-5.39
1058.867	-5.69
1059.289	-3.99
1059.711	-10.39
1060.133	-1.29
1060.555	-5.79
1060.976	-7.69
1061.398	-11.19
1061.82	-12.89
1062.241	-8.09
1062.663	-5.69
1063.085	-3.79
1063.506	-4.29
1063.928	-8.49
1064.35	-5.19
1064.771	-13.89
1065.193	-5.69
1065.614	-9.49
1066.035	-0.89
1066.457	-6.59
1066.878	-4.59
1067.3	-9.89
1067.721	-4.99
1068.142	-7.29
1068.564	-4.79
1068.985	-8.59
1069.406	-4.99
1069.827	-4.99
1070.248	-2.99
1070.67	-7.79
1071.091	-11.49
1071.512	-5.69
1071.933	-7.69
1072.354	-6.19
1072.775	-3.99
1073.196	-8.89
1073.617	-8.39
1074.038	-3.89
1074.459	-0.99
1074.88	-7.79
1075.3	-0.49
1075.721	-8.99
1076.142	-2.99
1076.563	-2.09
1076.983	-12.09
1077.404	-10.99
1077.825	-11.29
1078.246	-5.39
1078.666	-10.09
1079.087	-7.49
1079.507	-7.59
1079.928	-2.59
1080.348	-5.69
1080.769	-7.19
1081.189	-3.59
1081.61	-4.19
1082.03	-7.99
1082.451	-12.79
1082.871	-4.99
1083.291	-11.69
1083.711	-10.49
1084.132	-2.29
1084.552	-2.59
1084.972	-6.99
1085.392	-10.69
1085.813	-8.49
1086.233	-5.29
1086.653	-9.39
1087.073	-2.89
1087.493	-11.79
1087.913	-6.79
1088.333	-4.09
1088.753	-7.19
1089.173	-1.39
1089.593	-6.39
1090.013	3.01
1090.433	1.11
1090.852	-5.19
1091.272	0.21
1091.692	-7.19
1092.112	-8.09
1092.531	-12.09
1092.951	-17.59
1093.371	-1.69
1093.79	4.01
1094.21	-4.49
1094.63	-6.79
1095.049	-7.09
1095.469	-4.29
1095.888	-1.29
1096.308	1.21
1096.727	1.91
1097.146	-5.29
1097.566	-0.49
1097.985	-10.79
1098.405	-8.89
1098.824	-8.29
1099.243	-9.49
1099.662	-11.39
1100.082	-2.69
1100.501	-1.29
1100.92	-9.09
1101.339	-5.19
1101.758	-10.99
