Data from 20171114-ORNL-Ar_H_NY_Subt18_08-05-36-239.txt Node
Date: Tue Nov 14 08:05:36 EST 2017
User: Ender
Spectrometer: HR+D1039
Trigger mode: 0
Integration Time (sec): 2.730000E-2
Scans to average: 10
Electric dark correction enabled: true
Nonlinearity correction enabled: false
Boxcar width: 0
XAxis mode: Wavelengths
Number of Pixels in Spectrum: 2048
>>>>>Begin Spectral Data<<<<<
187.836	-4.01
188.309	-4.01
188.782	-4.01
189.255	1.19
189.728	-4.11
190.201	6.39
190.674	1.69
191.147	3.19
191.619	-9.71
192.092	6.99
192.565	4.59
193.038	-5.21
193.511	-2.21
193.984	-2.41
194.456	-0.81
194.929	2.09
195.402	3.19
195.874	-0.91
196.347	-2.71
196.82	-11.11
197.292	3.59
197.765	0.29
198.237	-9.51
198.71	4.39
199.182	-4.41
199.655	1.69
200.127	0.09
200.6	-1.31
201.072	-0.41
201.544	-0.11
202.017	-3.31
202.489	4.09
202.961	-0.91
203.433	-2.21
203.906	-4.41
204.378	-3.71
204.85	-10.01
205.322	-9.41
205.794	6.89
206.266	-3.91
206.739	-10.71
207.211	4.09
207.683	-9.61
208.155	-4.31
208.627	-0.31
209.099	2.99
209.57	-6.51
210.042	-4.41
210.514	-4.91
210.986	-3.41
211.458	-8.01
211.93	-9.31
212.402	1.29
212.873	-4.81
213.345	-6.51
213.817	-11.81
214.288	-0.41
214.76	-14.31
215.232	0.99
215.703	-4.01
216.175	-7.01
216.646	-3.31
217.118	-13.01
217.589	-3.31
218.061	-3.51
218.532	-2.21
219.004	0.39
219.475	-2.71
219.946	-5.61
220.418	-4.91
220.889	3.49
221.36	1.09
221.832	1.49
222.303	-11.91
222.774	2.29
223.245	-7.91
223.717	-2.81
224.188	-7.01
224.659	-7.61
225.13	-5.81
225.601	-3.71
226.072	-5.31
226.543	-3.91
227.014	-3.31
227.485	1.99
227.956	-5.21
228.427	-3.61
228.898	3.29
229.369	2.99
229.839	-5.61
230.31	-7.61
230.781	1.69
231.252	-5.01
231.722	-4.81
232.193	-0.31
232.664	2.59
233.135	3.19
233.605	3.29
234.076	-3.91
234.546	0.29
235.017	3.39
235.487	5.69
235.958	-6.61
236.428	-5.41
236.899	1.69
237.369	-2.81
237.84	-0.61
238.31	6.89
238.78	1.39
239.251	-2.61
239.721	3.09
240.191	0.99
240.662	-1.21
241.132	-1.61
241.602	-0.21
242.072	2.39
242.542	4.39
243.013	-0.71
243.483	6.89
243.953	2.69
244.423	-4.61
244.893	-1.21
245.363	4.49
245.833	2.99
246.303	-7.01
246.773	10.19
247.243	1.69
247.712	5.79
248.182	8.39
248.652	6.59
249.122	-1.01
249.592	8.69
250.061	22.89
250.531	35.99
251.001	16.89
251.471	25.39
251.94	22.09
252.41	7.09
252.879	-0.81
253.349	13.09
253.818	7.69
254.288	-0.41
254.757	3.29
255.227	2.49
255.696	5.79
256.166	1.19
256.635	7.19
257.105	6.39
257.574	5.59
258.043	8.59
258.513	5.09
258.982	12.99
259.451	7.49
259.92	7.59
260.389	7.99
260.859	17.79
261.328	10.99
261.797	14.09
262.266	11.69
262.735	14.59
263.204	5.09
263.673	6.99
264.142	5.19
264.611	-5.41
265.08	3.19
265.549	4.99
266.018	-1.41
266.487	-1.91
266.955	0.09
267.424	-0.71
267.893	0.79
268.362	5.49
268.83	3.89
269.299	9.39
269.768	6.09
270.236	9.49
270.705	7.39
271.174	4.39
271.642	10.99
272.111	10.49
272.579	19.89
273.048	24.99
273.516	30.79
273.985	28.19
274.453	24.99
274.922	19.19
275.39	9.49
275.858	5.19
276.327	13.09
276.795	19.19
277.263	12.59
277.731	35.79
278.2	61.19
278.668	60.39
279.136	51.69
279.604	17.09
280.072	15.79
280.54	10.79
281.008	13.89
281.477	20.09
281.945	10.19
282.413	18.69
282.881	21.79
283.348	13.59
283.816	19.09
284.284	14.09
284.752	19.39
285.22	7.59
285.688	13.09
286.156	16.89
286.623	46.29
287.091	53.49
287.559	33.39
288.026	22.69
288.494	19.79
288.962	12.49
289.429	17.89
289.897	19.79
290.364	15.39
290.832	11.89
291.3	19.09
291.767	21.49
292.234	21.99
292.702	14.59
293.169	19.39
293.637	24.49
294.104	17.19
294.571	9.09
295.039	9.39
295.506	20.79
295.973	18.89
296.44	16.19
296.908	15.69
297.375	18.09
297.842	22.79
298.309	15.29
298.776	14.69
299.243	19.99
299.71	11.09
300.177	26.59
300.644	25.69
301.111	25.29
301.578	22.89
302.045	17.99
302.512	26.39
302.979	28.19
303.446	28.39
303.913	24.59
304.379	20.29
304.846	25.89
305.313	23.89
305.78	19.69
306.246	27.69
306.713	26.19
307.18	25.99
307.646	34.09
308.113	31.69
308.579	28.29
309.046	29.69
309.512	30.19
309.979	21.19
310.445	26.99
310.912	30.59
311.378	43.29
311.845	29.89
312.311	36.59
312.777	35.19
313.244	36.69
313.71	37.39
314.176	34.79
314.642	38.69
315.109	27.99
315.575	42.29
316.041	43.29
316.507	33.29
316.973	42.99
317.439	37.69
317.905	36.49
318.371	40.19
318.837	36.99
319.303	32.99
319.769	37.79
320.235	36.39
320.701	41.29
321.167	39.19
321.633	39.39
322.099	42.79
322.564	47.09
323.03	42.59
323.496	46.99
323.962	45.69
324.427	40.79
324.893	45.79
325.359	35.69
325.824	41.59
326.29	38.39
326.755	42.99
327.221	41.89
327.686	40.59
328.152	52.39
328.617	41.99
329.083	48.99
329.548	55.99
330.014	46.59
330.479	41.49
330.944	45.89
331.41	44.99
331.875	47.79
332.34	40.59
332.805	47.69
333.271	47.99
333.736	44.09
334.201	61.39
334.666	52.59
335.131	60.49
335.596	47.89
336.061	46.79
336.526	46.89
336.991	57.79
337.456	63.39
337.921	49.29
338.386	45.19
338.851	43.89
339.316	48.89
339.781	53.19
340.246	56.99
340.711	49.99
341.175	47.09
341.64	44.79
342.105	57.19
342.569	55.59
343.034	69.19
343.499	58.69
343.963	59.79
344.428	63.69
344.893	62.79
345.357	63.79
345.822	63.39
346.286	75.59
346.751	77.99
347.215	65.59
347.679	79.79
348.144	104.79
348.608	88.29
349.073	73.99
349.537	82.39
350.001	82.59
350.465	93.89
350.93	79.99
351.394	83.59
351.858	80.29
352.322	87.59
352.786	86.79
353.25	100.79
353.715	112.89
354.179	103.09
354.643	125.99
355.107	137.09
355.571	104.29
356.035	105.59
356.498	116.69
356.962	126.19
357.426	137.09
357.89	122.39
358.354	101.49
358.818	95.89
359.281	85.29
359.745	86.29
360.209	77.59
360.673	78.69
361.136	84.79
361.6	86.49
362.064	88.49
362.527	85.19
362.991	92.59
363.454	74.99
363.918	78.39
364.381	81.99
364.845	87.59
365.308	95.99
365.772	85.59
366.235	86.79
366.698	89.89
367.162	90.49
367.625	91.59
368.088	91.49
368.552	89.19
369.015	85.49
369.478	105.59
369.941	102.69
370.404	99.29
370.867	107.89
371.331	117.69
371.794	116.89
372.257	110.69
372.72	122.49
373.183	102.29
373.646	104.59
374.109	107.29
374.572	111.79
375.035	110.19
375.497	116.29
375.96	114.69
376.423	107.99
376.886	120.59
377.349	111.99
377.811	107.39
378.274	112.79
378.737	109.99
379.199	108.49
379.662	113.59
380.125	121.69
380.587	124.49
381.05	124.19
381.512	135.49
381.975	143.39
382.437	132.29
382.9	134.09
383.362	135.69
383.825	139.99
384.287	148.49
384.75	143.19
385.212	137.99
385.674	141.99
386.136	141.09
386.599	126.69
387.061	128.59
387.523	137.39
387.985	149.29
388.447	144.59
388.91	153.39
389.372	157.39
389.834	153.19
390.296	149.09
390.758	153.89
391.22	171.99
391.682	212.89
392.144	283.99
392.606	220.89
393.068	166.19
393.529	168.99
393.991	155.19
394.453	151.29
394.915	164.99
395.377	198.09
395.838	208.69
396.3	156.89
396.762	148.19
397.224	137.69
397.685	127.59
398.147	134.79
398.608	132.39
399.07	132.49
399.531	141.69
399.993	145.99
400.454	158.29
400.916	150.49
401.377	144.19
401.839	146.49
402.3	154.39
402.762	167.89
403.223	185.39
403.684	172.69
404.145	163.29
404.607	157.09
405.068	166.79
405.529	172.59
405.99	190.99
406.451	180.39
406.913	174.19
407.374	169.49
407.835	164.89
408.296	171.69
408.757	179.49
409.218	184.79
409.679	183.99
410.14	171.79
410.601	180.19
411.062	188.49
411.522	191.39
411.983	188.69
412.444	178.39
412.905	180.29
413.366	177.39
413.826	193.19
414.287	213.69
414.748	259.09
415.208	247.79
415.669	207.59
416.13	208.59
416.59	198.39
417.051	219.59
417.511	215.49
417.972	241.39
418.432	246.09
418.893	293.49
419.353	247.69
419.814	198.99
420.274	195.09
420.734	183.39
421.195	204.29
421.655	197.89
422.115	191.89
422.576	189.89
423.036	197.49
423.496	206.29
423.956	222.19
424.416	235.89
424.876	269.29
425.336	256.79
425.797	272.19
426.257	253.19
426.717	236.99
427.177	233.89
427.637	231.29
428.097	238.19
428.556	245.39
429.016	271.89
429.476	268.29
429.936	277.99
430.396	279.89
430.856	295.59
431.315	321.39
431.775	345.09
432.235	384.19
432.694	361.89
433.154	375.49
433.614	401.49
434.073	343.09
434.533	289.19
434.993	267.19
435.452	285.39
435.912	303.69
436.371	289.09
436.83	290.69
437.29	280.19
437.749	253.59
438.209	253.99
438.668	282.69
439.127	296.49
439.587	268.59
440.046	255.39
440.505	268.79
440.964	284.39
441.424	328.19
441.883	318.19
442.342	270.49
442.801	224.09
443.26	221.39
443.719	219.79
444.178	223.89
444.637	208.69
445.096	229.79
445.555	223.29
446.014	221.09
446.473	227.69
446.932	237.09
447.391	227.59
447.849	228.49
448.308	215.59
448.767	225.59
449.226	237.39
449.685	239.49
450.143	251.79
450.602	238.19
451.061	229.49
451.519	235.09
451.978	236.79
452.436	239.39
452.895	243.39
453.353	254.99
453.812	248.59
454.27	243.09
454.729	239.19
455.187	243.29
455.646	249.29
456.104	255.49
456.562	262.89
457.021	270.99
457.479	266.29
457.937	272.89
458.395	264.99
458.854	254.59
459.312	256.49
459.77	279.09
460.228	264.29
460.686	249.19
461.144	255.99
461.602	248.69
462.06	242.89
462.518	259.99
462.976	253.89
463.434	265.19
463.892	267.09
464.35	281.09
464.808	292.39
465.266	270.19
465.724	273.79
466.181	281.39
466.639	270.49
467.097	298.99
467.555	300.89
468.012	306.19
468.47	317.19
468.928	333.29
469.385	342.99
469.843	355.99
470.3	355.49
470.758	366.79
471.215	393.49
471.673	425.29
472.13	414.19
472.588	429.59
473.045	373.69
473.503	382.99
473.96	396.99
474.417	410.19
474.875	437.79
475.332	485.99
475.789	468.99
476.246	472.99
476.704	487.59
477.161	514.59
477.618	537.59
478.075	567.39
478.532	630.49
478.989	691.89
479.446	818.49
479.903	784.19
480.36	817.39
480.817	872.49
481.274	989.49
481.731	1079.59
482.188	1179.59
482.645	1315.89
483.102	1419.79
483.558	1566.39
484.015	1621.69
484.472	1582.39
484.929	1534.59
485.385	1493.19
485.842	1457.39
486.299	1401.89
486.755	1319.69
487.212	1111.59
487.668	930.79
488.125	865.09
488.582	791.29
489.038	764.29
489.494	721.59
489.951	698.69
490.407	676.79
490.864	660.29
491.32	649.59
491.776	654.59
492.233	657.89
492.689	617.89
493.145	614.99
493.602	602.19
494.058	617.39
494.514	617.39
494.97	648.79
495.426	659.89
495.882	635.49
496.338	625.19
496.794	637.79
497.251	627.79
497.707	648.89
498.163	651.29
498.618	654.79
499.074	665.09
499.53	676.59
499.986	687.19
500.442	660.69
500.898	638.79
501.354	626.89
501.809	626.09
502.265	640.49
502.721	666.09
503.177	671.39
503.632	672.89
504.088	686.19
504.543	715.69
504.999	726.59
505.455	664.19
505.91	634.09
506.366	642.39
506.821	638.59
507.277	633.69
507.732	633.09
508.187	631.69
508.643	648.89
509.098	640.79
509.553	662.39
510.009	680.99
510.464	673.99
510.919	697.09
511.375	709.99
511.83	722.99
512.285	733.69
512.74	776.09
513.195	794.29
513.65	782.59
514.105	778.69
514.56	775.09
515.015	802.59
515.47	811.29
515.925	805.39
516.38	801.69
516.835	803.79
517.29	784.29
517.745	787.89
518.2	777.19
518.655	754.19
519.109	750.39
519.564	760.69
520.019	750.19
520.474	736.89
520.928	737.09
521.383	732.79
521.838	721.19
522.292	715.99
522.747	717.49
523.201	711.89
523.656	703.29
524.11	705.29
524.565	697.49
525.019	694.19
525.474	716.49
525.928	713.09
526.382	703.59
526.837	711.19
527.291	707.09
527.745	714.39
528.2	707.39
528.654	703.99
529.108	697.19
529.562	695.19
530.016	695.79
530.47	704.59
530.925	702.69
531.379	705.49
531.833	716.19
532.287	712.69
532.741	718.09
533.195	710.09
533.649	728.49
534.103	732.19
534.556	715.89
535.01	721.09
535.464	728.09
535.918	734.09
536.372	735.09
536.826	738.79
537.279	730.99
537.733	718.09
538.187	720.89
538.64	728.69
539.094	729.69
539.548	735.29
540.001	737.79
540.455	731.89
540.908	728.49
541.362	737.99
541.815	743.79
542.269	759.79
542.722	782.19
543.175	777.39
543.629	779.89
544.082	797.39
544.536	795.29
544.989	792.49
545.442	804.29
545.895	793.09
546.349	796.89
546.802	796.09
547.255	802.89
547.708	809.69
548.161	815.49
548.614	833.79
549.067	834.89
549.52	821.29
549.973	818.19
550.426	805.99
550.879	792.39
551.332	799.49
551.785	814.39
552.238	812.89
552.691	815.99
553.144	848.99
553.596	852.69
554.049	862.39
554.502	886.19
554.955	920.09
555.407	921.99
555.86	905.59
556.313	898.89
556.765	892.49
557.218	879.29
557.67	878.89
558.123	880.59
558.576	876.69
559.028	878.09
559.48	888.49
559.933	868.29
560.385	836.09
560.838	815.79
561.29	784.99
561.742	785.29
562.195	768.99
562.647	775.09
563.099	767.49
563.551	759.99
564.004	794.09
564.456	770.19
564.908	763.09
565.36	752.89
565.812	749.59
566.264	730.99
566.716	730.39
567.168	721.59
567.62	719.99
568.072	705.49
568.524	692.99
568.976	686.49
569.428	678.49
569.88	671.19
570.332	675.39
570.784	676.49
571.235	680.79
571.687	688.09
572.139	703.49
572.59	726.29
573.042	712.79
573.494	714.79
573.945	697.39
574.397	692.29
574.849	691.09
575.3	684.89
575.752	687.89
576.203	681.59
576.655	682.39
577.106	677.19
577.557	660.59
578.009	660.69
578.46	659.39
578.912	658.79
579.363	660.99
579.814	666.69
580.265	657.49
580.717	659.69
581.168	660.49
581.619	673.49
582.07	672.19
582.521	670.39
582.972	672.09
583.423	692.89
583.875	678.89
584.326	690.89
584.777	741.19
585.227	807.59
585.678	899.99
586.129	997.29
586.58	1054.59
587.031	1139.29
587.482	1284.99
587.933	1453.29
588.384	1275.49
588.834	960.19
589.285	796.49
589.736	780.79
590.186	758.09
590.637	748.99
591.088	739.39
591.538	727.79
591.989	724.99
592.439	732.89
592.89	718.89
593.34	712.69
593.791	700.89
594.241	706.89
594.692	711.99
595.142	692.49
595.593	705.49
596.043	700.99
596.493	715.59
596.943	712.89
597.394	705.49
597.844	713.39
598.294	729.59
598.744	750.29
599.195	775.19
599.645	798.69
600.095	844.89
600.545	894.19
600.995	964.29
601.445	1010.39
601.895	1084.79
602.345	1114.29
602.795	1100.19
603.245	1055.49
603.695	994.79
604.145	950.39
604.594	906.69
605.044	859.59
605.494	789.89
605.944	742.99
606.393	740.19
606.843	727.39
607.293	725.19
607.743	723.89
608.192	736.09
608.642	752.09
609.091	758.89
609.541	757.79
609.99	755.89
610.44	758.69
610.889	721.49
611.339	695.29
611.788	676.99
612.238	678.59
612.687	709.09
613.136	708.19
613.586	723.09
614.035	726.19
614.484	734.49
614.933	740.09
615.383	731.99
615.832	726.49
616.281	708.39
616.73	673.69
617.179	650.09
617.628	644.09
618.077	611.99
618.526	609.39
618.975	611.89
619.424	612.19
619.873	605.09
620.322	608.09
620.771	593.69
621.22	596.49
621.669	582.19
622.118	588.19
622.567	573.49
623.015	560.49
623.464	557.49
623.913	550.49
624.361	544.49
624.81	533.69
625.259	549.09
625.707	549.29
626.156	543.59
626.604	553.79
627.053	559.99
627.501	556.79
627.95	558.29
628.398	566.29
628.847	557.49
629.295	561.69
629.744	566.49
630.192	557.79
630.64	550.39
631.089	554.09
631.537	556.39
631.985	578.89
632.433	575.69
632.881	589.19
633.33	634.99
633.778	622.89
634.226	556.49
634.674	563.29
635.122	561.19
635.57	573.49
636.018	601.19
636.466	571.29
636.914	545.39
637.362	556.99
637.81	552.69
638.258	563.59
638.705	569.19
639.153	596.29
639.601	593.79
640.049	623.49
640.497	656.79
640.944	685.99
641.392	629.69
641.84	609.39
642.287	564.69
642.735	553.59
643.182	553.99
643.63	560.79
644.078	557.99
644.525	567.49
644.973	588.59
645.42	581.59
645.867	605.99
646.315	620.79
646.762	649.99
647.21	684.49
647.657	701.19
648.104	727.09
648.551	752.99
648.999	814.89
649.446	894.69
649.893	963.69
650.34	1124.59
650.787	1351.99
651.234	1657.89
651.682	2185.09
652.129	2986.99
652.576	4280.09
653.023	6333.19
653.47	8725.09
653.917	10904.69
654.363	12653.89
654.81	14068.19
655.257	13397.89
655.704	8762.79
656.151	5180.99
656.598	3350.09
657.044	2362.69
657.491	1815.49
657.938	1454.89
658.385	1212.29
658.831	1050.69
659.278	937.59
659.724	824.99
660.171	772.39
660.618	702.89
661.064	671.69
661.511	654.09
661.957	645.69
662.404	631.89
662.85	643.09
663.296	611.89
663.743	539.99
664.189	525.49
664.635	527.49
665.082	515.49
665.528	505.79
665.974	507.89
666.42	501.79
666.867	501.69
667.313	474.69
667.759	469.09
668.205	460.39
668.651	470.59
669.097	468.99
669.543	493.69
669.989	456.79
670.435	438.29
670.881	432.59
671.327	429.99
671.773	454.29
672.219	474.59
672.665	519.59
673.11	558.19
673.556	605.69
674.002	653.29
674.448	630.39
674.893	537.89
675.339	461.19
675.785	425.59
676.23	409.09
676.676	377.79
677.122	369.59
677.567	354.39
678.013	355.29
678.458	344.09
678.904	346.09
679.349	335.89
679.794	345.09
680.24	338.59
680.685	337.49
681.131	333.29
681.576	334.79
682.021	346.99
682.466	329.49
682.912	335.29
683.357	343.69
683.802	363.79
684.247	393.19
684.692	436.89
685.137	478.19
685.583	514.19
686.028	548.89
686.473	504.39
686.918	439.19
687.363	404.79
687.807	378.59
688.252	352.79
688.697	333.99
689.142	324.39
689.587	318.59
690.032	313.09
690.477	325.39
690.921	345.49
691.366	361.99
691.811	386.79
692.255	411.59
692.7	439.09
693.145	475.69
693.589	647.89
694.034	1072.09
694.478	1460.79
694.923	1688.89
695.367	2207.49
695.812	1147.49
696.256	481.39
696.701	361.79
697.145	325.29
697.59	312.69
698.034	305.99
698.478	314.49
698.922	314.69
699.367	311.69
699.811	319.19
700.255	334.49
700.699	370.89
701.143	411.09
701.588	464.69
702.032	493.59
702.476	486.19
702.92	470.79
703.364	462.39
703.808	594.09
704.252	958.29
704.696	1377.49
705.14	1616.89
705.584	2069.99
706.027	1033.99
706.471	504.59
706.915	378.59
707.359	334.59
707.803	307.19
708.246	299.89
708.69	293.29
709.134	308.29
709.577	295.99
710.021	306.19
710.465	292.39
710.908	294.19
711.352	284.99
711.795	299.09
712.239	333.99
712.682	372.29
713.126	400.89
713.569	442.79
714.012	355.79
714.456	310.49
714.899	290.19
715.342	255.69
715.786	256.59
716.229	243.49
716.672	244.39
717.115	240.19
717.558	233.79
718.002	243.59
718.445	248.49
718.888	272.69
719.331	279.39
719.774	297.59
720.217	298.09
720.66	275.39
721.103	249.89
721.546	243.19
721.989	243.29
722.432	220.39
722.874	222.09
723.317	218.99
723.76	219.19
724.203	248.19
724.645	300.39
725.088	421.59
725.531	542.89
725.974	618.99
726.416	515.79
726.859	294.19
727.301	233.89
727.744	224.69
728.187	218.69
728.629	232.49
729.071	229.59
729.514	254.89
729.956	251.99
730.399	268.59
730.841	278.69
731.283	269.79
731.726	255.19
732.168	248.49
732.61	252.09
733.053	267.99
733.495	297.19
733.937	331.39
734.379	367.39
734.821	413.99
735.263	510.89
735.705	778.69
736.148	1473.09
736.59	2438.69
737.032	2950.49
737.474	2399.49
737.916	772.79
738.357	409.59
738.799	308.19
739.241	283.19
739.683	274.09
740.125	275.79
740.567	283.99
741.008	303.89
741.45	304.59
741.892	298.69
742.334	330.09
742.775	341.59
743.217	324.09
743.658	258.49
744.1	236.19
744.542	247.99
744.983	291.59
745.425	328.29
745.866	334.49
746.307	273.39
746.749	268.79
747.19	309.29
747.632	427.19
748.073	817.99
748.514	1737.59
748.956	2723.79
749.397	3419.69
749.838	2819.29
750.279	2861.29
750.72	1436.39
751.162	524.19
751.603	307.29
752.044	239.39
752.485	208.49
752.926	200.99
753.367	193.09
753.808	179.29
754.249	184.99
754.69	176.69
755.131	176.79
755.572	174.69
756.013	171.49
756.453	173.19
756.894	177.89
757.335	181.19
757.776	189.99
758.216	189.59
758.657	190.79
759.098	189.69
759.538	207.69
759.979	250.89
760.42	350.79
760.86	649.79
761.301	1675.19
761.741	4163.89
762.182	6196.29
762.622	4361.99
763.063	1238.89
763.503	513.69
763.943	326.49
764.384	312.79
764.824	370.29
765.264	408.09
765.705	281.99
766.145	198.19
766.585	174.29
767.025	173.29
767.465	178.19
767.906	225.19
768.346	293.79
768.786	319.99
769.226	243.69
769.666	299.09
770.106	574.19
770.546	1448.29
770.986	2543.89
771.426	2285.59
771.866	760.29
772.306	311.69
772.745	198.49
773.185	167.49
773.625	164.59
774.065	155.49
774.505	182.89
774.944	289.59
775.384	618.79
775.824	1147.99
776.263	1120.89
776.703	470.19
777.142	211.59
777.582	153.59
778.021	134.79
778.461	137.49
778.9	137.29
779.34	125.99
779.779	106.49
780.219	106.39
780.658	99.59
781.097	104.39
781.537	104.29
781.976	103.59
782.415	108.59
782.855	103.99
783.294	104.69
783.733	103.89
784.172	99.69
784.611	95.69
785.05	105.49
785.489	107.69
785.928	114.79
786.367	111.99
786.806	104.29
787.245	120.49
787.684	133.39
788.123	131.99
788.562	129.79
789.001	122.89
789.44	114.79
789.879	114.69
790.317	111.69
790.756	123.59
791.195	123.69
791.634	139.29
792.072	189.39
792.511	335.49
792.95	927.69
793.388	2028.39
793.827	1888.59
794.265	644.39
794.704	270.19
795.142	174.49
795.581	148.79
796.019	127.49
796.458	119.69
796.896	119.89
797.334	116.59
797.773	143.69
798.211	214.49
798.649	408.19
799.087	966.69
799.526	1503.89
799.964	1901.69
800.402	1951.19
800.84	733.99
801.278	279.89
801.716	180.29
802.154	140.99
802.592	133.99
803.03	134.49
803.468	121.49
803.906	136.69
804.344	143.19
804.782	132.19
805.22	127.59
805.658	123.59
806.096	137.99
806.533	142.59
806.971	166.39
807.409	202.09
807.847	292.59
808.284	611.09
808.722	1732.89
809.16	3153.09
809.597	2933.29
810.035	5114.09
810.472	5589.79
810.91	2007.09
811.347	761.59
811.785	382.19
812.222	239.39
812.66	192.79
813.097	155.89
813.535	138.59
813.972	126.39
814.409	113.09
814.846	104.39
815.284	113.19
815.721	101.39
816.158	103.59
816.595	117.19
817.032	168.69
817.47	188.19
817.907	169.69
818.344	143.19
818.781	105.09
819.218	92.09
819.655	120.89
820.092	173.49
820.529	210.89
820.966	168.59
821.403	127.49
821.839	106.29
822.276	98.29
822.713	118.59
823.15	127.89
823.587	109.19
824.023	137.89
824.46	269.59
824.897	832.49
825.333	1303.49
825.77	552.89
826.206	222.69
826.643	123.69
827.08	94.19
827.516	80.39
827.953	71.59
828.389	80.79
828.825	67.89
829.262	65.89
829.698	54.19
830.135	57.29
830.571	53.49
831.007	64.49
831.443	56.69
831.88	54.59
832.316	58.19
832.752	60.79
833.188	64.19
833.624	61.89
834.06	65.79
834.497	64.39
834.933	69.79
835.369	68.09
835.805	62.39
836.241	69.19
836.677	77.49
837.112	88.39
837.548	99.29
837.984	123.09
838.42	184.89
838.856	460.49
839.292	1406.39
839.727	2222.79
840.163	1026.69
840.599	864.59
841.034	1925.19
841.47	2056.79
841.906	741.99
842.341	314.59
842.777	221.19
843.212	293.59
843.648	293.39
844.083	143.69
844.519	87.09
844.954	67.89
845.39	56.79
845.825	54.69
846.261	54.09
846.696	48.99
847.131	50.69
847.566	58.29
848.002	49.29
848.437	48.99
848.872	54.69
849.307	58.39
849.742	79.49
850.177	167.29
850.613	523.39
851.048	838.69
851.483	367.29
851.918	146.09
852.353	83.09
852.788	57.59
853.223	58.09
853.657	43.09
854.092	46.29
854.527	35.39
854.962	40.49
855.397	38.79
855.832	44.99
856.266	41.79
856.701	34.59
857.136	35.29
857.57	40.29
858.005	51.19
858.44	68.59
858.874	39.49
859.309	56.09
859.743	34.89
860.178	45.99
860.612	35.39
861.047	49.39
861.481	62.29
861.915	63.69
862.35	47.19
862.784	28.79
863.218	33.79
863.653	29.49
864.087	41.99
864.521	54.59
864.955	64.89
865.39	146.79
865.824	162.19
866.258	107.89
866.692	154.99
867.126	167.09
867.56	102.39
867.994	51.09
868.428	32.09
868.862	47.09
869.296	52.69
869.73	52.99
870.164	56.89
870.598	49.09
871.031	33.09
871.465	25.29
871.899	25.69
872.333	18.99
872.766	27.89
873.2	23.69
873.634	30.39
874.067	27.39
874.501	30.29
874.935	37.79
875.368	36.19
875.802	25.69
876.235	25.39
876.669	27.49
877.102	19.99
877.535	24.99
877.969	19.29
878.402	18.19
878.836	18.79
879.269	16.19
879.702	24.79
880.135	18.99
880.569	17.69
881.002	30.39
881.435	21.59
881.868	15.79
882.301	18.69
882.734	22.09
883.167	23.09
883.601	20.19
884.034	21.59
884.467	17.89
884.899	22.89
885.332	16.99
885.765	15.49
886.198	21.09
886.631	20.99
887.064	21.39
887.497	24.79
887.929	20.79
888.362	14.19
888.795	10.39
889.228	13.29
889.66	16.89
890.093	17.79
890.526	15.39
890.958	16.89
891.391	22.59
891.823	18.29
892.256	18.29
892.688	13.59
893.121	15.99
893.553	7.59
893.985	15.49
894.418	23.09
894.85	12.99
895.282	13.09
895.715	16.09
896.147	12.39
896.579	17.59
897.011	12.59
897.444	15.59
897.876	8.09
898.308	14.49
898.74	14.89
899.172	21.69
899.604	22.79
900.036	20.29
900.468	11.79
900.9	16.39
901.332	15.69
901.764	14.59
902.196	17.99
902.628	21.29
903.06	15.49
903.491	22.59
903.923	23.59
904.355	17.59
904.787	23.09
905.218	22.29
905.65	13.89
906.082	7.39
906.513	10.59
906.945	19.29
907.376	12.69
907.808	17.09
908.239	14.39
908.671	20.69
909.102	17.99
909.534	28.29
909.965	44.89
910.397	82.79
910.828	298.09
911.259	458.49
911.691	210.89
912.122	96.19
912.553	45.69
912.984	35.79
913.415	31.49
913.847	19.79
914.278	16.49
914.709	14.79
915.14	16.59
915.571	19.49
916.002	11.09
916.433	20.49
916.864	13.99
917.295	7.69
917.726	15.79
918.157	9.59
918.587	29.99
919.018	24.89
919.449	23.79
919.88	16.79
920.311	25.99
920.741	43.59
921.172	156.89
921.603	150.09
922.033	66.19
922.464	48.69
922.895	24.09
923.325	23.39
923.756	13.99
924.186	16.09
924.617	27.39
925.047	47.39
925.478	52.09
925.908	41.89
926.338	20.29
926.769	17.69
927.199	21.69
927.629	8.19
928.06	14.29
928.49	17.39
928.92	18.39
929.35	7.39
929.78	11.89
930.21	8.99
930.641	8.59
931.071	8.29
931.501	7.69
931.931	8.09
932.361	3.29
932.791	8.59
933.221	6.89
933.651	4.99
934.08	23.39
934.51	30.99
934.94	12.19
935.37	7.29
935.8	10.49
936.229	6.19
936.659	12.79
937.089	1.29
937.519	16.49
937.948	20.49
938.378	18.59
938.807	4.99
939.237	8.59
939.666	6.59
940.096	-3.91
940.525	5.39
940.955	6.09
941.384	3.99
941.814	-5.61
942.243	2.59
942.672	7.09
943.102	2.29
943.531	1.89
943.96	5.39
944.39	0.29
944.819	0.29
945.248	7.59
945.677	5.89
946.106	-1.71
946.535	5.09
946.964	-1.31
947.393	0.19
947.822	4.09
948.251	-4.21
948.68	7.39
949.109	5.29
949.538	5.19
949.967	-0.91
950.396	0.69
950.825	-1.41
951.254	-2.51
951.682	-5.11
952.111	4.79
952.54	0.39
952.969	-9.51
953.397	-6.71
953.826	-1.11
954.254	-4.41
954.683	0.49
955.112	0.19
955.54	-0.61
955.969	5.39
956.397	1.49
956.826	-2.51
957.254	2.29
957.682	0.99
958.111	1.49
958.539	-0.11
958.967	1.99
959.396	1.29
959.824	1.19
960.252	0.19
960.68	-3.71
961.109	-0.21
961.537	-1.91
961.965	-2.61
962.393	1.09
962.821	-6.31
963.249	2.19
963.677	3.99
964.105	4.59
964.533	45.69
964.961	38.29
965.389	22.09
965.817	8.39
966.245	1.29
966.672	-4.41
967.1	-9.81
967.528	-2.81
967.956	-3.11
968.383	-3.31
968.811	-2.31
969.239	-5.41
969.666	-4.11
970.094	2.59
970.522	-0.01
970.949	-0.11
971.377	-3.01
971.804	-2.11
972.232	1.19
972.659	-4.11
973.087	-2.61
973.514	-0.11
973.941	-3.51
974.369	2.59
974.796	1.79
975.223	3.59
975.651	-1.71
976.078	2.49
976.505	-3.21
976.932	-0.81
977.359	17.49
977.786	8.89
978.214	3.09
978.641	-8.11
979.068	1.29
979.495	-6.41
979.922	1.29
980.349	-1.31
980.776	4.79
981.202	-3.41
981.629	1.59
982.056	4.59
982.483	1.19
982.91	-1.91
983.337	-13.11
983.763	3.79
984.19	-3.11
984.617	-8.61
985.043	-8.51
985.47	-4.01
985.897	0.69
986.323	-2.31
986.75	0.99
987.176	0.59
987.603	-0.31
988.029	-4.31
988.456	-3.01
988.882	0.39
989.308	-0.21
989.735	-0.91
990.161	2.79
990.587	-5.21
991.014	-0.51
991.44	3.69
991.866	-4.71
992.292	-4.01
992.719	-3.91
993.145	7.39
993.571	-10.71
993.997	-4.41
994.423	-0.31
994.849	-7.91
995.275	-1.71
995.701	1.59
996.127	-0.41
996.553	-3.41
996.979	-3.31
997.405	-0.61
997.83	-10.21
998.256	-7.71
998.682	-7.31
999.108	-1.81
999.534	2.49
999.959	1.49
1000.385	-3.01
1000.811	0.09
1001.236	-3.61
1001.662	-8.01
1002.087	-9.21
1002.513	-0.81
1002.938	0.29
1003.364	-0.41
1003.789	5.19
1004.215	5.99
1004.64	-5.51
1005.066	3.49
1005.491	-3.41
1005.916	-0.11
1006.342	-5.81
1006.767	-9.11
1007.192	6.39
1007.617	0.09
1008.042	-3.11
1008.468	-6.61
1008.893	-2.61
1009.318	-2.21
1009.743	0.39
1010.168	4.99
1010.593	2.69
1011.018	-7.71
1011.443	-6.01
1011.868	-5.51
1012.293	-7.61
1012.718	-7.21
1013.143	1.49
1013.567	-0.71
1013.992	-3.11
1014.417	-14.11
1014.842	-3.21
1015.267	-0.91
1015.691	1.29
1016.116	7.39
1016.541	-2.91
1016.965	-3.81
1017.39	1.49
1017.814	-0.61
1018.239	-2.11
1018.663	-6.61
1019.088	-12.31
1019.512	-7.11
1019.937	-4.51
1020.361	-6.91
1020.785	-10.21
1021.21	-7.31
1021.634	-0.71
1022.058	3.69
1022.483	7.99
1022.907	1.59
1023.331	-2.91
1023.755	-3.01
1024.179	2.09
1024.604	-4.01
1025.028	1.19
1025.452	-5.91
1025.876	-0.61
1026.3	-1.21
1026.724	-9.51
1027.148	2.79
1027.572	-10.01
1027.996	-1.61
1028.42	1.49
1028.843	-1.91
1029.267	-6.81
1029.691	-2.91
1030.115	-4.91
1030.539	-4.91
1030.962	-10.01
1031.386	-9.41
1031.81	-5.21
1032.233	0.79
1032.657	0.69
1033.08	-0.71
1033.504	-3.21
1033.927	-7.31
1034.351	-2.61
1034.774	-4.51
1035.198	-0.71
1035.621	-3.41
1036.045	-11.31
1036.468	0.29
1036.891	-7.51
1037.315	-5.71
1037.738	-8.11
1038.161	-1.71
1038.584	-8.51
1039.008	-7.11
1039.431	-7.71
1039.854	-1.01
1040.277	-12.01
1040.7	-10.61
1041.123	2.39
1041.546	-3.41
1041.969	-7.41
1042.392	0.29
1042.815	-1.81
1043.238	-0.41
1043.661	0.39
1044.084	-7.01
1044.507	-5.41
1044.93	-1.11
1045.352	-7.81
1045.775	-0.91
1046.198	-8.01
1046.621	1.09
1047.043	-3.51
1047.466	4.99
1047.889	-2.01
1048.311	-12.01
1048.734	-2.01
1049.156	-7.51
1049.579	0.79
1050.001	-5.11
1050.424	-1.31
1050.846	-0.41
1051.269	-3.21
1051.691	-9.61
1052.113	0.39
1052.536	-0.71
1052.958	-5.51
1053.38	-5.71
1053.802	-8.81
1054.225	1.59
1054.647	-8.31
1055.069	-5.51
1055.491	2.29
1055.913	-7.21
1056.335	3.39
1056.757	-7.01
1057.179	-9.01
1057.601	-7.91
1058.023	-1.11
1058.445	-10.21
1058.867	-5.91
1059.289	-3.51
1059.711	-9.11
1060.133	-5.81
1060.555	-11.61
1060.976	-0.11
1061.398	-7.51
1061.82	-5.51
1062.241	-6.61
1062.663	-8.81
1063.085	-3.01
1063.506	-1.11
1063.928	-1.01
1064.35	-2.01
1064.771	-3.71
1065.193	-2.61
1065.614	-4.01
1066.035	-2.71
1066.457	-8.71
1066.878	0.49
1067.3	-5.01
1067.721	-1.21
1068.142	-2.11
1068.564	-7.21
1068.985	-1.91
1069.406	-6.71
1069.827	-5.21
1070.248	0.99
1070.67	-8.01
1071.091	-6.91
1071.512	-8.91
1071.933	-5.81
1072.354	-8.21
1072.775	-11.41
1073.196	-7.31
1073.617	-3.91
1074.038	-3.51
1074.459	2.79
1074.88	-5.01
1075.3	4.39
1075.721	-5.41
1076.142	-2.01
1076.563	2.59
1076.983	-10.61
1077.404	-0.71
1077.825	-10.91
1078.246	-5.61
1078.666	-5.61
1079.087	0.49
1079.507	-8.21
1079.928	-0.31
1080.348	-5.51
1080.769	1.29
1081.189	-1.81
1081.61	-9.81
1082.03	-5.81
1082.451	-4.01
1082.871	-4.71
1083.291	-6.61
1083.711	-3.01
1084.132	-6.01
1084.552	-2.31
1084.972	-3.51
1085.392	-10.21
1085.813	-9.61
1086.233	-8.61
1086.653	-2.01
1087.073	-1.01
1087.493	-6.51
1087.913	-7.81
1088.333	-8.31
1088.753	-4.61
1089.173	3.29
1089.593	0.19
1090.013	9.29
1090.433	0.89
1090.852	-5.31
1091.272	-0.71
1091.692	-3.41
1092.112	-7.81
1092.531	-8.11
1092.951	-10.51
1093.371	-0.91
1093.79	4.39
1094.21	-8.81
1094.63	-5.11
1095.049	-13.11
1095.469	-2.41
1095.888	-2.61
1096.308	-5.31
1096.727	2.99
1097.146	-9.01
1097.566	-1.81
1097.985	-9.41
1098.405	-3.41
1098.824	-1.91
1099.243	-4.41
1099.662	-7.71
1100.082	-2.01
1100.501	-1.51
1100.92	-3.31
1101.339	-5.11
1101.758	-4.81
