Data from 20171114-ORNL-Ar_H_NY_Subt18_08-06-28-923.txt Node
Date: Tue Nov 14 08:06:28 EST 2017
User: Ender
Spectrometer: HR+D1039
Trigger mode: 0
Integration Time (sec): 2.730000E-2
Scans to average: 10
Electric dark correction enabled: true
Nonlinearity correction enabled: false
Boxcar width: 0
XAxis mode: Wavelengths
Number of Pixels in Spectrum: 2048
>>>>>Begin Spectral Data<<<<<
187.836	-3.84
188.309	-3.84
188.782	-3.84
189.255	2.66
189.728	3.76
190.201	7.76
190.674	-4.34
191.147	1.06
191.619	-6.04
192.092	2.06
192.565	2.66
193.038	3.06
193.511	1.66
193.984	-1.74
194.456	-0.34
194.929	-4.44
195.402	-1.94
195.874	-2.04
196.347	-4.44
196.82	-8.84
197.292	7.96
197.765	1.46
198.237	-4.24
198.71	1.26
199.182	-3.74
199.655	1.66
200.127	8.26
200.6	-5.04
201.072	-5.94
201.544	-6.74
202.017	-7.74
202.489	-0.74
202.961	-1.74
203.433	-6.84
203.906	-6.74
204.378	-10.44
204.85	-2.04
205.322	-9.34
205.794	-4.64
206.266	-4.14
206.739	-10.74
207.211	-0.74
207.683	-6.04
208.155	-7.94
208.627	-11.24
209.099	-7.04
209.57	-7.64
210.042	-7.64
210.514	-5.74
210.986	-1.84
211.458	-4.34
211.93	0.16
212.402	0.36
212.873	-10.34
213.345	-7.24
213.817	-10.54
214.288	-3.34
214.76	-13.54
215.232	-5.44
215.703	-1.64
216.175	-7.14
216.646	-3.54
217.118	-11.44
217.589	-7.44
218.061	-4.24
218.532	-4.04
219.004	-2.24
219.475	0.56
219.946	-6.54
220.418	-0.94
220.889	0.16
221.36	1.06
221.832	-4.04
222.303	-9.34
222.774	-0.94
223.245	-9.74
223.717	-5.54
224.188	-6.64
224.659	-8.44
225.13	-8.44
225.601	-4.44
226.072	0.16
226.543	-1.64
227.014	0.36
227.485	2.36
227.956	-8.44
228.427	-3.54
228.898	-4.64
229.369	4.06
229.839	-3.04
230.31	-8.04
230.781	0.96
231.252	-2.84
231.722	-6.24
232.193	-2.54
232.664	-4.14
233.135	1.36
233.605	-0.34
234.076	-3.74
234.546	2.06
235.017	-0.34
235.487	-0.34
235.958	-3.74
236.428	-6.44
236.899	0.26
237.369	9.46
237.84	-1.54
238.31	10.86
238.78	-0.94
239.251	-0.54
239.721	-2.04
240.191	-5.64
240.662	-3.64
241.132	-0.84
241.602	0.16
242.072	-0.44
242.542	5.46
243.013	-3.04
243.483	4.06
243.953	4.66
244.423	-0.64
244.893	-7.64
245.363	2.56
245.833	-0.24
246.303	-1.74
246.773	14.26
247.243	-1.14
247.712	5.26
248.182	12.06
248.652	8.26
249.122	5.36
249.592	9.66
250.061	15.96
250.531	30.86
251.001	17.26
251.471	14.76
251.94	21.26
252.41	0.86
252.879	-4.84
253.349	14.46
253.818	10.16
254.288	6.36
254.757	2.46
255.227	7.96
255.696	1.86
256.166	16.26
256.635	14.36
257.105	8.06
257.574	5.16
258.043	6.76
258.513	9.16
258.982	9.16
259.451	12.96
259.92	15.46
260.389	7.56
260.859	14.96
261.328	7.66
261.797	14.86
262.266	6.16
262.735	9.26
263.204	4.06
263.673	4.46
264.142	4.76
264.611	-0.84
265.08	-1.24
265.549	-6.94
266.018	7.66
266.487	0.56
266.955	-5.44
267.424	-6.44
267.893	1.96
268.362	0.36
268.83	3.26
269.299	2.96
269.768	7.96
270.236	7.66
270.705	2.76
271.174	9.76
271.642	5.46
272.111	3.36
272.579	11.76
273.048	22.36
273.516	25.96
273.985	22.36
274.453	20.86
274.922	19.76
275.39	10.26
275.858	7.06
276.327	13.16
276.795	15.46
277.263	13.26
277.731	30.66
278.2	58.26
278.668	58.96
279.136	47.46
279.604	23.66
280.072	13.86
280.54	7.86
281.008	12.06
281.477	14.66
281.945	12.06
282.413	19.56
282.881	14.46
283.348	5.36
283.816	18.76
284.284	10.66
284.752	23.96
285.22	6.56
285.688	11.86
286.156	19.46
286.623	46.96
287.091	58.56
287.559	28.96
288.026	19.96
288.494	18.46
288.962	5.96
289.429	8.56
289.897	22.16
290.364	14.96
290.832	15.86
291.3	16.16
291.767	14.66
292.234	19.96
292.702	13.96
293.169	20.36
293.637	21.46
294.104	23.46
294.571	10.76
295.039	9.46
295.506	17.56
295.973	12.76
296.44	14.56
296.908	18.36
297.375	17.36
297.842	18.86
298.309	18.66
298.776	11.76
299.243	23.36
299.71	15.66
300.177	25.06
300.644	20.36
301.111	18.76
301.578	22.96
302.045	17.96
302.512	22.66
302.979	24.36
303.446	27.96
303.913	20.56
304.379	16.16
304.846	25.66
305.313	20.76
305.78	25.56
306.246	20.86
306.713	28.16
307.18	26.36
307.646	26.96
308.113	27.66
308.579	24.86
309.046	26.46
309.512	25.66
309.979	21.66
310.445	28.86
310.912	24.16
311.378	30.46
311.845	23.06
312.311	32.76
312.777	30.06
313.244	29.46
313.71	40.56
314.176	33.66
314.642	34.36
315.109	30.66
315.575	35.66
316.041	38.16
316.507	25.86
316.973	38.56
317.439	32.16
317.905	33.86
318.371	35.56
318.837	29.76
319.303	35.46
319.769	33.66
320.235	35.76
320.701	37.26
321.167	34.96
321.633	34.26
322.099	40.76
322.564	46.66
323.03	44.86
323.496	35.26
323.962	41.46
324.427	34.86
324.893	40.66
325.359	40.06
325.824	35.76
326.29	42.96
326.755	39.46
327.221	41.46
327.686	41.46
328.152	47.66
328.617	41.96
329.083	49.96
329.548	52.26
330.014	47.36
330.479	44.36
330.944	43.96
331.41	42.46
331.875	49.66
332.34	37.66
332.805	46.66
333.271	50.26
333.736	46.06
334.201	53.06
334.666	53.96
335.131	54.26
335.596	49.46
336.061	54.56
336.526	42.36
336.991	48.56
337.456	55.16
337.921	47.96
338.386	45.56
338.851	46.86
339.316	50.36
339.781	50.46
340.246	53.76
340.711	47.26
341.175	53.96
341.64	45.26
342.105	57.86
342.569	56.06
343.034	62.16
343.499	54.06
343.963	56.66
344.428	70.76
344.893	65.56
345.357	64.16
345.822	67.36
346.286	73.66
346.751	75.16
347.215	69.56
347.679	80.66
348.144	96.46
348.608	92.16
349.073	67.46
349.537	82.06
350.001	77.76
350.465	94.66
350.93	80.36
351.394	80.16
351.858	76.56
352.322	88.76
352.786	86.46
353.25	98.36
353.715	118.86
354.179	102.66
354.643	115.56
355.107	130.16
355.571	115.46
356.035	107.26
356.498	120.36
356.962	126.36
357.426	132.26
357.89	118.56
358.354	94.86
358.818	94.16
359.281	81.46
359.745	85.96
360.209	83.26
360.673	82.36
361.136	82.56
361.6	82.36
362.064	91.76
362.527	83.96
362.991	96.16
363.454	86.26
363.918	78.06
364.381	82.36
364.845	90.16
365.308	91.06
365.772	89.06
366.235	94.36
366.698	85.06
367.162	93.86
367.625	91.96
368.088	90.66
368.552	95.96
369.015	95.46
369.478	106.96
369.941	104.86
370.404	100.26
370.867	112.26
371.331	117.36
371.794	121.46
372.257	121.16
372.72	120.86
373.183	116.16
373.646	106.36
374.109	107.06
374.572	108.06
375.035	111.66
375.497	114.46
375.96	108.46
376.423	103.26
376.886	118.46
377.349	111.76
377.811	109.76
378.274	110.86
378.737	110.06
379.199	123.26
379.662	124.26
380.125	127.06
380.587	128.36
381.05	123.76
381.512	135.36
381.975	135.56
382.437	134.06
382.9	134.96
383.362	133.56
383.825	146.06
384.287	150.76
384.75	145.76
385.212	143.66
385.674	143.56
386.136	147.86
386.599	132.46
387.061	137.16
387.523	134.06
387.985	146.26
388.447	148.26
388.91	150.36
389.372	164.06
389.834	155.56
390.296	147.06
390.758	166.36
391.22	172.16
391.682	212.26
392.144	306.16
392.606	236.16
393.068	171.26
393.529	172.96
393.991	158.76
394.453	152.66
394.915	165.76
395.377	201.26
395.838	219.66
396.3	167.26
396.762	150.56
397.224	141.36
397.685	129.06
398.147	137.96
398.608	134.96
399.07	138.56
399.531	142.56
399.993	144.96
400.454	163.16
400.916	148.16
401.377	153.76
401.839	158.36
402.3	155.56
402.762	176.96
403.223	188.76
403.684	179.66
404.145	166.26
404.607	163.86
405.068	170.86
405.529	179.66
405.99	185.76
406.451	184.06
406.913	180.06
407.374	173.26
407.835	172.46
408.296	172.86
408.757	184.96
409.218	199.76
409.679	191.66
410.14	183.16
410.601	188.66
411.062	179.76
411.522	207.06
411.983	203.76
412.444	182.16
412.905	194.06
413.366	188.36
413.826	205.86
414.287	227.66
414.748	273.46
415.208	258.76
415.669	226.56
416.13	212.16
416.59	209.46
417.051	214.06
417.511	228.66
417.972	244.46
418.432	260.96
418.893	303.26
419.353	260.76
419.814	206.06
420.274	189.86
420.734	191.26
421.195	214.16
421.655	202.36
422.115	200.26
422.576	208.86
423.036	211.16
423.496	215.26
423.956	228.06
424.416	238.26
424.876	282.26
425.336	278.66
425.797	284.46
426.257	264.56
426.717	246.86
427.177	234.16
427.637	229.96
428.097	248.26
428.556	254.36
429.016	281.66
429.476	277.36
429.936	282.76
430.396	299.16
430.856	309.16
431.315	335.16
431.775	367.76
432.235	400.56
432.694	374.56
433.154	384.46
433.614	414.26
434.073	353.76
434.533	302.96
434.993	278.06
435.452	302.16
435.912	306.06
436.371	308.56
436.83	294.06
437.29	287.26
437.749	267.16
438.209	263.36
438.668	289.46
439.127	298.06
439.587	277.56
440.046	265.56
440.505	267.36
440.964	291.86
441.424	339.06
441.883	330.06
442.342	277.96
442.801	235.86
443.26	233.26
443.719	240.16
444.178	230.06
444.637	226.26
445.096	231.06
445.555	238.66
446.014	235.26
446.473	237.16
446.932	240.36
447.391	236.86
447.849	230.76
448.308	231.36
448.767	236.46
449.226	249.46
449.685	246.36
450.143	254.66
450.602	244.76
451.061	239.46
451.519	250.36
451.978	250.76
452.436	239.26
452.895	247.76
453.353	256.56
453.812	251.06
454.27	253.86
454.729	252.86
455.187	246.86
455.646	250.76
456.104	255.96
456.562	263.56
457.021	282.66
457.479	272.46
457.937	298.96
458.395	286.16
458.854	258.26
459.312	272.16
459.77	287.76
460.228	265.16
460.686	251.76
461.144	259.56
461.602	254.36
462.06	257.16
462.518	265.56
462.976	268.26
463.434	266.16
463.892	275.56
464.35	291.66
464.808	309.76
465.266	277.56
465.724	279.86
466.181	281.56
466.639	279.86
467.097	300.06
467.555	310.06
468.012	321.66
468.47	327.66
468.928	342.36
469.385	361.36
469.843	366.86
470.3	372.96
470.758	383.46
471.215	403.06
471.673	424.66
472.13	431.26
472.588	437.26
473.045	397.86
473.503	395.56
473.96	411.56
474.417	420.96
474.875	455.16
475.332	499.66
475.789	486.46
476.246	494.76
476.704	513.36
477.161	531.86
477.618	549.76
478.075	591.56
478.532	651.76
478.989	732.66
479.446	842.96
479.903	812.46
480.36	849.16
480.817	896.56
481.274	1013.86
481.731	1113.96
482.188	1209.96
482.645	1346.76
483.102	1460.46
483.558	1613.26
484.015	1642.56
484.472	1616.16
484.929	1567.16
485.385	1532.36
485.842	1487.16
486.299	1426.96
486.755	1343.76
487.212	1128.16
487.668	968.06
488.125	884.66
488.582	813.76
489.038	782.36
489.494	750.46
489.951	724.56
490.407	699.96
490.864	682.36
491.32	671.16
491.776	669.56
492.233	679.56
492.689	641.76
493.145	640.56
493.602	622.56
494.058	643.86
494.514	645.76
494.97	674.86
495.426	680.46
495.882	649.86
496.338	639.46
496.794	653.06
497.251	645.26
497.707	660.66
498.163	667.86
498.618	670.36
499.074	681.86
499.53	704.46
499.986	703.56
500.442	682.46
500.898	662.06
501.354	654.76
501.809	671.96
502.265	677.66
502.721	696.16
503.177	707.06
503.632	688.06
504.088	702.06
504.543	747.06
504.999	745.66
505.455	691.66
505.91	666.16
506.366	672.26
506.821	661.66
507.277	657.06
507.732	656.26
508.187	651.26
508.643	649.16
509.098	672.86
509.553	687.16
510.009	696.56
510.464	701.86
510.919	723.76
511.375	720.06
511.83	739.66
512.285	758.46
512.74	783.36
513.195	815.76
513.65	804.36
514.105	805.06
514.56	808.26
515.015	826.06
515.47	846.16
515.925	822.86
516.38	822.16
516.835	819.86
517.29	811.56
517.745	813.06
518.2	804.26
518.655	790.86
519.109	776.46
519.564	774.76
520.019	768.56
520.474	767.86
520.928	756.86
521.383	757.96
521.838	748.46
522.292	741.46
522.747	742.76
523.201	734.86
523.656	722.96
524.11	734.26
524.565	721.86
525.019	722.06
525.474	742.66
525.928	739.36
526.382	731.06
526.837	729.26
527.291	742.06
527.745	723.26
528.2	718.46
528.654	717.76
529.108	713.56
529.562	722.46
530.016	732.16
530.47	724.36
530.925	716.06
531.379	731.36
531.833	743.86
532.287	730.16
532.741	742.26
533.195	736.76
533.649	739.26
534.103	748.16
534.556	736.26
535.01	740.46
535.464	726.26
535.918	748.96
536.372	758.56
536.826	737.96
537.279	730.86
537.733	741.46
538.187	750.06
538.64	747.26
539.094	762.06
539.548	758.26
540.001	763.16
540.455	755.56
540.908	759.76
541.362	769.06
541.815	780.36
542.269	785.46
542.722	801.06
543.175	803.86
543.629	802.86
544.082	813.56
544.536	813.66
544.989	820.96
545.442	821.96
545.895	814.76
546.349	831.26
546.802	833.56
547.255	839.26
547.708	835.16
548.161	852.36
548.614	865.96
549.067	876.36
549.52	849.66
549.973	847.56
550.426	845.06
550.879	824.36
551.332	837.16
551.785	842.76
552.238	842.86
552.691	852.36
553.144	860.56
553.596	876.66
554.049	905.76
554.502	929.46
554.955	956.76
555.407	949.16
555.86	940.56
556.313	938.56
556.765	929.66
557.218	918.16
557.67	926.16
558.123	922.66
558.576	916.16
559.028	911.26
559.48	914.46
559.933	909.96
560.385	866.56
560.838	845.76
561.29	816.96
561.742	815.86
562.195	798.36
562.647	797.86
563.099	810.56
563.551	814.06
564.004	826.36
564.456	801.86
564.908	796.96
565.36	778.36
565.812	767.06
566.264	755.76
566.716	762.86
567.168	749.06
567.62	749.86
568.072	735.56
568.524	721.56
568.976	720.76
569.428	706.96
569.88	692.76
570.332	705.56
570.784	711.66
571.235	713.96
571.687	724.56
572.139	736.06
572.59	729.26
573.042	743.06
573.494	739.56
573.945	735.96
574.397	713.76
574.849	718.56
575.3	724.46
575.752	708.76
576.203	706.76
576.655	710.46
577.106	698.56
577.557	684.96
578.009	694.06
578.46	693.36
578.912	682.96
579.363	685.16
579.814	703.96
580.265	688.36
580.717	687.96
581.168	692.06
581.619	707.36
582.07	708.36
582.521	703.66
582.972	697.36
583.423	707.36
583.875	708.66
584.326	730.56
584.777	773.16
585.227	849.66
585.678	946.16
586.129	1021.46
586.58	1083.06
587.031	1172.16
587.482	1312.06
587.933	1486.66
588.384	1305.96
588.834	985.66
589.285	845.06
589.736	816.16
590.186	800.86
590.637	788.26
591.088	777.16
591.538	771.06
591.989	766.16
592.439	748.66
592.89	744.26
593.34	737.96
593.791	735.86
594.241	729.76
594.692	743.26
595.142	727.96
595.593	724.46
596.043	734.16
596.493	742.16
596.943	742.76
597.394	743.66
597.844	747.26
598.294	758.86
598.744	777.26
599.195	809.96
599.645	845.26
600.095	887.16
600.545	947.06
600.995	997.56
601.445	1054.06
601.895	1123.36
602.345	1177.26
602.795	1154.96
603.245	1111.06
603.695	1054.76
604.145	990.86
604.594	941.66
605.044	881.76
605.494	827.16
605.944	777.46
606.393	770.76
606.843	746.36
607.293	758.66
607.743	751.26
608.192	777.86
608.642	783.46
609.091	797.36
609.541	790.86
609.99	792.46
610.44	795.96
610.889	748.06
611.339	737.06
611.788	701.36
612.238	732.56
612.687	748.26
613.136	743.76
613.586	765.06
614.035	754.16
614.484	788.46
614.933	771.96
615.383	774.16
615.832	757.26
616.281	738.96
616.73	713.26
617.179	690.86
617.628	672.76
618.077	665.36
618.526	638.66
618.975	639.26
619.424	631.96
619.873	627.26
620.322	640.56
620.771	630.46
621.22	622.36
621.669	613.26
622.118	604.06
622.567	602.46
623.015	582.06
623.464	597.46
623.913	581.86
624.361	574.06
624.81	570.16
625.259	576.26
625.707	568.26
626.156	573.76
626.604	577.86
627.053	588.36
627.501	582.66
627.95	587.66
628.398	599.96
628.847	582.26
629.295	583.26
629.744	587.16
630.192	589.36
630.64	594.76
631.089	583.56
631.537	599.06
631.985	601.76
632.433	617.56
632.881	620.86
633.33	674.66
633.778	647.86
634.226	583.76
634.674	594.96
635.122	595.06
635.57	610.26
636.018	641.06
636.466	595.16
636.914	577.86
637.362	592.26
637.81	594.26
638.258	594.46
638.705	598.26
639.153	633.66
639.601	639.06
640.049	651.96
640.497	699.76
640.944	723.26
641.392	660.76
641.84	631.96
642.287	607.26
642.735	593.46
643.182	597.16
643.63	595.16
644.078	596.36
644.525	615.16
644.973	613.96
645.42	625.16
645.867	641.56
646.315	663.66
646.762	683.16
647.21	706.16
647.657	734.76
648.104	773.76
648.551	793.26
648.999	862.06
649.446	941.46
649.893	1044.66
650.34	1189.86
650.787	1426.66
651.234	1764.86
651.682	2311.16
652.129	3161.56
652.576	4532.56
653.023	6668.96
653.47	9165.36
653.917	11420.06
654.363	13176.56
654.81	14543.06
655.257	13854.56
655.704	9092.06
656.151	5384.16
656.598	3506.66
657.044	2479.46
657.491	1903.66
657.938	1531.36
658.385	1275.66
658.831	1106.36
659.278	999.86
659.724	881.16
660.171	812.46
660.618	739.66
661.064	706.56
661.511	683.36
661.957	673.86
662.404	658.46
662.85	667.06
663.296	655.66
663.743	571.06
664.189	545.56
664.635	549.56
665.082	539.06
665.528	548.36
665.974	536.86
666.42	522.16
666.867	523.66
667.313	504.26
667.759	492.16
668.205	487.36
668.651	498.46
669.097	490.46
669.543	511.76
669.989	479.26
670.435	461.46
670.881	461.86
671.327	460.26
671.773	484.66
672.219	502.16
672.665	558.16
673.11	604.56
673.556	641.96
674.002	677.36
674.448	667.06
674.893	556.66
675.339	490.06
675.785	451.16
676.23	419.96
676.676	402.76
677.122	393.86
677.567	384.76
678.013	375.26
678.458	369.36
678.904	372.16
679.349	356.56
679.794	361.86
680.24	361.36
680.685	361.06
681.131	352.26
681.576	364.76
682.021	365.96
682.466	352.66
682.912	351.96
683.357	366.86
683.802	395.46
684.247	412.66
684.692	469.56
685.137	505.16
685.583	554.76
686.028	574.66
686.473	532.86
686.918	461.76
687.363	427.06
687.807	401.76
688.252	380.06
688.697	363.06
689.142	348.16
689.587	346.46
690.032	337.36
690.477	361.16
690.921	368.96
691.366	389.56
691.811	415.96
692.255	450.06
692.7	472.66
693.145	512.86
693.589	713.56
694.034	1152.26
694.478	1578.06
694.923	1772.56
695.367	2329.26
695.812	1218.66
696.256	510.26
696.701	384.86
697.145	348.96
697.59	336.66
698.034	323.96
698.478	333.66
698.922	336.66
699.367	334.76
699.811	342.16
700.255	363.16
700.699	395.96
701.143	438.26
701.588	488.66
702.032	525.76
702.476	525.76
702.92	499.16
703.364	489.86
703.808	648.26
704.252	1056.36
704.696	1491.66
705.14	1715.76
705.584	2188.66
706.027	1086.36
706.471	535.16
706.915	405.06
707.359	359.46
707.803	334.06
708.246	322.16
708.69	318.06
709.134	323.96
709.577	321.66
710.021	321.66
710.465	315.36
710.908	308.46
711.352	308.16
711.795	317.26
712.239	357.06
712.682	386.66
713.126	427.96
713.569	475.96
714.012	371.06
714.456	329.56
714.899	307.46
715.342	288.76
715.786	278.56
716.229	266.76
716.672	262.76
717.115	250.36
717.558	257.06
718.002	254.66
718.445	271.26
718.888	283.66
719.331	299.36
719.774	316.16
720.217	309.96
720.66	295.36
721.103	275.66
721.546	259.86
721.989	250.26
722.432	242.16
722.874	249.46
723.317	235.56
723.76	244.86
724.203	260.26
724.645	325.06
725.088	452.26
725.531	584.36
725.974	669.26
726.416	553.96
726.859	319.56
727.301	254.36
727.744	244.46
728.187	239.26
728.629	243.76
729.071	245.46
729.514	262.56
729.956	277.16
730.399	288.76
730.841	297.26
731.283	285.26
731.726	271.96
732.168	263.86
732.61	274.96
733.053	293.26
733.495	324.16
733.937	360.16
734.379	410.16
734.821	447.86
735.263	553.86
735.705	852.66
736.148	1614.16
736.59	2624.76
737.032	3132.06
737.474	2545.66
737.916	824.26
738.357	439.46
738.799	332.76
739.241	301.16
739.683	288.56
740.125	303.26
740.567	304.76
741.008	326.86
741.45	318.16
741.892	317.86
742.334	350.06
742.775	369.56
743.217	352.26
743.658	274.76
744.1	262.36
744.542	268.06
744.983	319.26
745.425	352.06
745.866	347.76
746.307	290.86
746.749	290.46
747.19	335.76
747.632	464.76
748.073	890.06
748.514	1901.16
748.956	2917.76
749.397	3662.66
749.838	3016.86
750.279	3033.56
750.72	1534.96
751.162	558.36
751.603	321.96
752.044	261.66
752.485	221.36
752.926	219.26
753.367	209.16
753.808	200.66
754.249	190.26
754.69	193.96
755.131	191.26
755.572	188.46
756.013	189.66
756.453	189.56
756.894	196.56
757.335	190.96
757.776	194.46
758.216	197.76
758.657	207.56
759.098	206.06
759.538	233.06
759.979	267.56
760.42	380.96
760.86	712.96
761.301	1854.46
761.741	4510.46
762.182	6583.66
762.622	4627.86
763.063	1334.16
763.503	553.96
763.943	354.36
764.384	348.56
764.824	404.16
765.264	434.56
765.705	298.86
766.145	213.96
766.585	191.56
767.025	191.16
767.465	195.46
767.906	243.16
768.346	312.96
768.786	336.16
769.226	260.26
769.666	325.26
770.106	632.36
770.546	1578.76
770.986	2689.66
771.426	2411.76
771.866	804.56
772.306	337.46
772.745	214.56
773.185	181.26
773.625	171.36
774.065	164.56
774.505	193.76
774.944	299.96
775.384	648.26
775.824	1170.96
776.263	1141.96
776.703	498.06
777.142	219.66
777.582	158.36
778.021	137.16
778.461	145.26
778.9	139.16
779.34	138.86
779.779	126.46
780.219	115.36
780.658	109.76
781.097	106.06
781.537	108.96
781.976	114.56
782.415	101.46
782.855	103.16
783.294	104.56
783.733	112.26
784.172	113.96
784.611	104.06
785.05	119.86
785.489	114.16
785.928	120.36
786.367	117.46
786.806	119.66
787.245	140.26
787.684	144.56
788.123	152.26
788.562	142.66
789.001	127.16
789.44	121.76
789.879	118.06
790.317	124.26
790.756	129.66
791.195	128.36
791.634	145.96
792.072	212.26
792.511	379.36
792.95	1025.26
793.388	2182.96
793.827	1982.56
794.265	691.56
794.704	282.86
795.142	183.46
795.581	157.96
796.019	135.06
796.458	132.36
796.896	124.46
797.334	137.86
797.773	155.46
798.211	221.16
798.649	451.86
799.087	1041.76
799.526	1632.06
799.964	2043.76
800.402	2058.46
800.84	770.46
801.278	296.86
801.716	193.36
802.154	153.66
802.592	150.96
803.03	144.66
803.468	136.06
803.906	147.06
804.344	155.86
804.782	143.26
805.22	134.46
805.658	135.36
806.096	152.96
806.533	162.96
806.971	177.36
807.409	220.06
807.847	317.06
808.284	676.76
808.722	1908.86
809.16	3370.66
809.597	3170.46
810.035	5516.86
810.472	5877.76
810.91	2128.96
811.347	805.06
811.785	404.26
812.222	256.76
812.66	195.76
813.097	165.06
813.535	137.56
813.972	134.46
814.409	122.16
814.846	112.56
815.284	110.86
815.721	100.96
816.158	108.56
816.595	124.86
817.032	180.56
817.47	202.96
817.907	172.46
818.344	157.06
818.781	119.26
819.218	102.16
819.655	124.36
820.092	182.36
820.529	217.96
820.966	181.56
821.403	134.86
821.839	109.46
822.276	106.76
822.713	118.96
823.15	143.66
823.587	117.76
824.023	148.96
824.46	309.36
824.897	908.76
825.333	1384.46
825.77	594.96
826.206	238.16
826.643	137.26
827.08	103.66
827.516	83.46
827.953	80.56
828.389	81.86
828.825	71.36
829.262	59.66
829.698	64.16
830.135	60.96
830.571	58.76
831.007	65.26
831.443	65.26
831.88	61.66
832.316	61.06
832.752	60.56
833.188	64.56
833.624	65.66
834.06	68.46
834.497	70.56
834.933	67.86
835.369	69.36
835.805	67.56
836.241	70.56
836.677	80.76
837.112	86.96
837.548	102.76
837.984	137.56
838.42	202.86
838.856	501.46
839.292	1535.46
839.727	2341.26
840.163	1084.46
840.599	932.96
841.034	2064.26
841.47	2160.16
841.906	787.96
842.341	335.76
842.777	228.06
843.212	303.76
843.648	301.96
844.083	145.16
844.519	102.66
844.954	81.56
845.39	59.26
845.825	59.06
846.261	56.26
846.696	54.26
847.131	52.86
847.566	61.16
848.002	56.36
848.437	64.36
848.872	60.66
849.307	63.06
849.742	87.66
850.177	187.16
850.613	561.66
851.048	897.26
851.483	387.96
851.918	146.86
852.353	85.76
852.788	67.66
853.223	61.26
853.657	56.86
854.092	48.16
854.527	42.96
854.962	41.56
855.397	42.16
855.832	47.86
856.266	45.86
856.701	42.16
857.136	39.66
857.57	41.86
858.005	48.76
858.44	62.96
858.874	39.76
859.309	53.76
859.743	38.06
860.178	48.16
860.612	41.66
861.047	51.76
861.481	69.46
861.915	65.26
862.35	47.06
862.784	34.96
863.218	40.26
863.653	39.86
864.087	52.46
864.521	51.76
864.955	73.96
865.39	156.96
865.824	179.96
866.258	115.96
866.692	169.66
867.126	180.96
867.56	111.86
867.994	60.96
868.428	38.06
868.862	48.36
869.296	55.06
869.73	58.26
870.164	58.06
870.598	48.56
871.031	38.76
871.465	30.36
871.899	31.56
872.333	23.86
872.766	26.56
873.2	29.66
873.634	28.76
874.067	25.66
874.501	23.26
874.935	37.56
875.368	28.56
875.802	28.96
876.235	24.26
876.669	23.56
877.102	25.16
877.535	25.06
877.969	27.16
878.402	22.36
878.836	23.16
879.269	28.56
879.702	28.36
880.135	22.46
880.569	16.96
881.002	27.76
881.435	19.56
881.868	17.16
882.301	22.46
882.734	13.56
883.167	23.16
883.601	22.56
884.034	15.86
884.467	15.16
884.899	21.86
885.332	15.76
885.765	16.86
886.198	18.36
886.631	19.96
887.064	17.46
887.497	18.46
887.929	23.96
888.362	12.86
888.795	10.96
889.228	17.56
889.66	23.96
890.093	16.36
890.526	23.26
890.958	14.96
891.391	17.76
891.823	16.76
892.256	15.66
892.688	15.36
893.121	12.86
893.553	17.66
893.985	20.36
894.418	22.46
894.85	15.66
895.282	20.06
895.715	17.16
896.147	17.86
896.579	16.06
897.011	17.56
897.444	20.76
897.876	11.56
898.308	19.46
898.74	11.16
899.172	14.46
899.604	21.96
900.036	26.66
900.468	20.76
900.9	18.36
901.332	16.16
901.764	17.66
902.196	20.56
902.628	18.96
903.06	14.96
903.491	25.96
903.923	18.96
904.355	20.86
904.787	23.46
905.218	20.36
905.65	24.16
906.082	13.36
906.513	15.46
906.945	18.36
907.376	10.76
907.808	21.96
908.239	21.66
908.671	18.96
909.102	25.46
909.534	31.06
909.965	36.76
910.397	87.26
910.828	315.96
911.259	479.46
911.691	223.96
912.122	107.06
912.553	48.96
912.984	32.06
913.415	23.96
913.847	24.66
914.278	15.06
914.709	12.86
915.14	13.16
915.571	18.66
916.002	10.46
916.433	20.96
916.864	20.86
917.295	13.36
917.726	21.96
918.157	13.26
918.587	23.16
919.018	24.66
919.449	20.66
919.88	19.16
920.311	34.86
920.741	51.56
921.172	164.56
921.603	146.56
922.033	74.46
922.464	39.86
922.895	23.46
923.325	24.96
923.756	14.66
924.186	14.76
924.617	22.36
925.047	43.96
925.478	50.86
925.908	38.36
926.338	27.76
926.769	13.66
927.199	21.06
927.629	15.06
928.06	12.96
928.49	16.26
928.92	15.96
929.35	15.56
929.78	13.76
930.21	6.76
930.641	11.46
931.071	5.46
931.501	5.66
931.931	10.76
932.361	7.56
932.791	1.86
933.221	0.76
933.651	-1.14
934.08	21.46
934.51	24.86
934.94	11.86
935.37	6.46
935.8	9.66
936.229	10.26
936.659	12.86
937.089	0.76
937.519	13.66
937.948	27.96
938.378	15.96
938.807	7.86
939.237	5.06
939.666	7.76
940.096	0.36
940.525	-0.44
940.955	4.26
941.384	4.86
941.814	-2.04
942.243	-1.34
942.672	0.46
943.102	-7.24
943.531	1.36
943.96	5.06
944.39	4.96
944.819	0.86
945.248	6.36
945.677	0.06
946.106	6.16
946.535	4.96
946.964	2.36
947.393	1.16
947.822	5.56
948.251	-3.24
948.68	-0.74
949.109	4.46
949.538	4.46
949.967	-4.04
950.396	-6.34
950.825	-4.04
951.254	3.66
951.682	-2.54
952.111	0.46
952.54	9.86
952.969	-0.04
953.397	-9.04
953.826	-5.04
954.254	-10.64
954.683	0.26
955.112	-3.14
955.54	-3.34
955.969	4.36
956.397	2.36
956.826	-4.34
957.254	4.66
957.682	0.76
958.111	2.56
958.539	2.76
958.967	1.46
959.396	-7.34
959.824	0.16
960.252	-1.94
960.68	-4.94
961.109	-5.74
961.537	-10.34
961.965	-4.34
962.393	-0.74
962.821	-8.94
963.249	4.56
963.677	7.46
964.105	7.16
964.533	44.36
964.961	38.06
965.389	21.76
965.817	8.76
966.245	1.16
966.672	-3.54
967.1	-6.64
967.528	-0.04
967.956	-6.54
968.383	4.36
968.811	-5.94
969.239	-3.04
969.666	-7.64
970.094	-1.14
970.522	6.56
970.949	-6.74
971.377	-7.54
971.804	-2.44
972.232	1.46
972.659	-2.84
973.087	-6.64
973.514	-6.04
973.941	-4.24
974.369	0.26
974.796	6.76
975.223	-0.24
975.651	0.76
976.078	-1.54
976.505	-3.24
976.932	4.66
977.359	14.96
977.786	11.36
978.214	-0.54
978.641	-4.74
979.068	-8.24
979.495	-3.44
979.922	6.36
980.349	-7.54
980.776	6.66
981.202	3.16
981.629	5.66
982.056	5.06
982.483	-8.54
982.91	1.16
983.337	-8.64
983.763	1.76
984.19	-6.74
984.617	-6.94
985.043	-5.54
985.47	-0.64
985.897	-5.44
986.323	-10.64
986.75	-0.04
987.176	-1.44
987.603	-3.44
988.029	-3.44
988.456	-9.14
988.882	-1.84
989.308	-11.14
989.735	-2.84
990.161	-2.14
990.587	-5.84
991.014	-0.84
991.44	9.06
991.866	-1.84
992.292	-0.34
992.719	-6.64
993.145	-3.74
993.571	-6.64
993.997	-1.44
994.423	0.16
994.849	-8.64
995.275	-0.74
995.701	-2.54
996.127	-4.74
996.553	-3.74
996.979	-4.04
997.405	-3.04
997.83	-5.04
998.256	-4.44
998.682	-9.54
999.108	-10.84
999.534	-4.14
999.959	0.76
1000.385	-1.04
1000.811	0.16
1001.236	-5.74
1001.662	-7.44
1002.087	-11.84
1002.513	-2.34
1002.938	-0.44
1003.364	-4.14
1003.789	-6.24
1004.215	3.46
1004.64	-3.94
1005.066	-2.94
1005.491	-1.04
1005.916	-7.94
1006.342	-7.04
1006.767	-9.64
1007.192	0.96
1007.617	-9.84
1008.042	-4.54
1008.468	-9.04
1008.893	-3.94
1009.318	-10.74
1009.743	-8.74
1010.168	0.06
1010.593	-0.14
1011.018	-12.34
1011.443	-2.64
1011.868	-1.64
1012.293	-2.94
1012.718	-8.44
1013.143	-0.34
1013.567	-5.54
1013.992	-6.14
1014.417	-14.74
1014.842	-1.24
1015.267	-8.04
1015.691	-1.84
1016.116	-1.04
1016.541	-0.34
1016.965	-1.24
1017.39	2.16
1017.814	1.96
1018.239	-7.44
1018.663	-7.84
1019.088	-10.64
1019.512	-1.54
1019.937	-2.84
1020.361	-5.14
1020.785	-11.24
1021.21	1.46
1021.634	-10.34
1022.058	-2.44
1022.483	5.36
1022.907	-2.44
1023.331	-6.94
1023.755	-4.34
1024.179	-0.24
1024.604	-6.54
1025.028	-9.14
1025.452	-10.54
1025.876	-3.74
1026.3	-1.14
1026.724	-10.34
1027.148	-5.54
1027.572	-11.84
1027.996	-5.94
1028.42	-6.84
1028.843	-7.74
1029.267	-6.84
1029.691	-4.04
1030.115	-8.54
1030.539	-14.04
1030.962	-9.04
1031.386	-7.34
1031.81	-4.44
1032.233	-3.84
1032.657	-0.54
1033.08	-2.04
1033.504	-9.64
1033.927	-10.94
1034.351	-5.54
1034.774	-10.44
1035.198	-8.24
1035.621	-11.44
1036.045	-6.14
1036.468	-3.84
1036.891	-11.34
1037.315	-9.74
1037.738	-10.74
1038.161	-0.34
1038.584	-5.94
1039.008	-6.74
1039.431	-5.64
1039.854	-4.14
1040.277	-2.04
1040.7	-13.64
1041.123	-4.74
1041.546	-14.34
1041.969	-10.74
1042.392	-4.04
1042.815	-3.74
1043.238	-0.44
1043.661	-0.64
1044.084	-5.34
1044.507	-7.84
1044.93	-5.04
1045.352	-8.44
1045.775	1.96
1046.198	-3.04
1046.621	-0.74
1047.043	-3.64
1047.466	-0.54
1047.889	-9.04
1048.311	-13.44
1048.734	-8.94
1049.156	-4.14
1049.579	-0.44
1050.001	-2.94
1050.424	-2.74
1050.846	-6.64
1051.269	0.36
1051.691	-3.74
1052.113	-2.84
1052.536	-0.84
1052.958	-8.14
1053.38	-5.64
1053.802	-13.44
1054.225	0.16
1054.647	-7.04
1055.069	-6.94
1055.491	3.66
1055.913	-8.04
1056.335	-1.34
1056.757	-6.94
1057.179	-6.34
1057.601	-8.44
1058.023	-5.04
1058.445	-7.24
1058.867	-5.14
1059.289	-8.24
1059.711	-11.54
1060.133	-2.14
1060.555	-4.54
1060.976	-8.24
1061.398	-12.64
1061.82	-8.64
1062.241	-7.14
1062.663	-7.54
1063.085	-6.74
1063.506	-1.94
1063.928	-2.24
1064.35	-1.84
1064.771	-17.24
1065.193	-5.94
1065.614	-9.04
1066.035	-5.74
1066.457	-3.64
1066.878	-3.74
1067.3	-3.14
1067.721	-11.84
1068.142	-8.64
1068.564	-8.84
1068.985	-9.14
1069.406	-7.94
1069.827	-12.74
1070.248	-2.84
1070.67	-13.94
1071.091	-7.54
1071.512	-5.24
1071.933	-10.54
1072.354	-10.44
1072.775	-10.24
1073.196	-13.54
1073.617	-4.64
1074.038	-8.04
1074.459	-3.34
1074.88	-8.74
1075.3	-2.14
1075.721	-7.54
1076.142	-6.54
1076.563	-3.44
1076.983	-4.34
1077.404	-8.84
1077.825	-7.84
1078.246	-9.64
1078.666	-13.54
1079.087	-7.14
1079.507	-9.64
1079.928	-5.74
1080.348	-5.04
1080.769	-4.04
1081.189	-5.14
1081.61	-4.24
1082.03	-15.94
1082.451	-6.74
1082.871	-6.24
1083.291	-7.04
1083.711	-11.74
1084.132	-10.44
1084.552	-8.94
1084.972	4.16
1085.392	-12.94
1085.813	-10.34
1086.233	-9.54
1086.653	-5.64
1087.073	-3.74
1087.493	-9.34
1087.913	-6.74
1088.333	-9.94
1088.753	-4.54
1089.173	-1.24
1089.593	-5.44
1090.013	0.36
1090.433	-2.34
1090.852	-1.94
1091.272	6.96
1091.692	-2.54
1092.112	-0.84
1092.531	-13.54
1092.951	-14.54
1093.371	-9.54
1093.79	-2.94
1094.21	-8.84
1094.63	-9.14
1095.049	-3.54
1095.469	-0.14
1095.888	-0.54
1096.308	-1.54
1096.727	-1.24
1097.146	-9.34
1097.566	-2.94
1097.985	-9.84
1098.405	-1.64
1098.824	-11.44
1099.243	-5.04
1099.662	-6.44
1100.082	-6.74
1100.501	0.06
1100.92	-8.64
1101.339	-7.04
1101.758	-6.14
