Data from 20171114-ORNL-Ar_H_NY_Subt18_08-07-51-089.txt Node
Date: Tue Nov 14 08:07:51 EST 2017
User: Ender
Spectrometer: HR+D1039
Trigger mode: 0
Integration Time (sec): 2.730000E-2
Scans to average: 10
Electric dark correction enabled: true
Nonlinearity correction enabled: false
Boxcar width: 0
XAxis mode: Wavelengths
Number of Pixels in Spectrum: 2048
>>>>>Begin Spectral Data<<<<<
187.836	-5.13
188.309	-5.13
188.782	-5.13
189.255	2.87
189.728	-3.53
190.201	3.27
190.674	0.77
191.147	3.57
191.619	-6.43
192.092	-1.23
192.565	0.67
193.038	3.27
193.511	4.67
193.984	1.27
194.456	-6.33
194.929	-2.33
195.402	1.47
195.874	3.17
196.347	-3.63
196.82	-2.73
197.292	7.07
197.765	-0.63
198.237	-5.83
198.71	4.27
199.182	-1.63
199.655	0.07
200.127	4.37
200.6	-5.83
201.072	-2.73
201.544	-2.83
202.017	3.47
202.489	2.27
202.961	0.37
203.433	-2.43
203.906	-6.83
204.378	-4.33
204.85	0.67
205.322	-2.63
205.794	-2.73
206.266	-6.33
206.739	-4.43
207.211	3.97
207.683	-3.23
208.155	-3.63
208.627	-1.53
209.099	-3.53
209.57	-8.33
210.042	-5.23
210.514	-3.03
210.986	0.47
211.458	-7.03
211.93	-0.03
212.402	3.97
212.873	-4.13
213.345	-7.93
213.817	-11.73
214.288	-8.33
214.76	-10.93
215.232	-2.03
215.703	1.87
216.175	-3.43
216.646	-2.33
217.118	-8.93
217.589	-2.23
218.061	-0.53
218.532	-0.83
219.004	0.67
219.475	-3.23
219.946	-0.93
220.418	-7.33
220.889	5.87
221.36	0.77
221.832	-2.63
222.303	-9.13
222.774	2.17
223.245	-14.13
223.717	-10.03
224.188	-4.43
224.659	-10.33
225.13	-2.93
225.601	-2.13
226.072	1.17
226.543	0.47
227.014	2.07
227.485	-1.33
227.956	-9.73
228.427	2.57
228.898	-1.53
229.369	2.17
229.839	-5.43
230.31	-5.93
230.781	0.57
231.252	0.57
231.722	-8.03
232.193	-5.53
232.664	3.47
233.135	7.37
233.605	2.77
234.076	-0.23
234.546	3.07
235.017	4.07
235.487	1.87
235.958	-2.53
236.428	0.47
236.899	4.27
237.369	2.47
237.84	0.87
238.31	7.47
238.78	5.27
239.251	4.57
239.721	0.67
240.191	-3.03
240.662	-2.83
241.132	1.17
241.602	1.47
242.072	2.17
242.542	0.97
243.013	-0.73
243.483	11.17
243.953	3.97
244.423	2.97
244.893	-1.43
245.363	1.57
245.833	-5.53
246.303	-2.63
246.773	3.77
247.243	3.47
247.712	3.27
248.182	5.47
248.652	4.57
249.122	0.47
249.592	11.57
250.061	21.17
250.531	28.57
251.001	18.47
251.471	21.17
251.94	23.77
252.41	10.07
252.879	5.47
253.349	12.87
253.818	12.57
254.288	5.27
254.757	10.97
255.227	5.27
255.696	2.37
256.166	7.07
256.635	4.97
257.105	12.47
257.574	7.47
258.043	11.27
258.513	11.07
258.982	19.67
259.451	6.27
259.92	9.77
260.389	14.27
260.859	17.37
261.328	4.17
261.797	18.27
262.266	6.87
262.735	12.17
263.204	3.27
263.673	3.27
264.142	8.67
264.611	-2.33
265.08	-1.73
265.549	1.27
266.018	6.17
266.487	0.77
266.955	-2.83
267.424	2.57
267.893	8.77
268.362	3.67
268.83	4.47
269.299	9.47
269.768	8.77
270.236	4.77
270.705	2.17
271.174	4.17
271.642	13.67
272.111	11.67
272.579	14.77
273.048	16.57
273.516	27.27
273.985	26.07
274.453	32.97
274.922	18.97
275.39	11.27
275.858	8.47
276.327	14.27
276.795	21.27
277.263	14.17
277.731	31.17
278.2	53.77
278.668	57.37
279.136	52.67
279.604	17.17
280.072	10.77
280.54	8.77
281.008	14.37
281.477	12.67
281.945	11.77
282.413	13.67
282.881	14.17
283.348	8.67
283.816	18.77
284.284	16.07
284.752	16.97
285.22	13.77
285.688	11.37
286.156	20.77
286.623	50.07
287.091	49.67
287.559	30.47
288.026	19.57
288.494	22.87
288.962	9.67
289.429	5.47
289.897	16.27
290.364	13.27
290.832	13.47
291.3	16.97
291.767	19.87
292.234	17.77
292.702	12.07
293.169	14.17
293.637	21.97
294.104	24.07
294.571	8.17
295.039	14.27
295.506	13.77
295.973	18.37
296.44	11.37
296.908	19.87
297.375	16.27
297.842	21.47
298.309	14.97
298.776	13.07
299.243	20.57
299.71	8.67
300.177	15.77
300.644	22.27
301.111	23.47
301.578	21.77
302.045	15.07
302.512	20.57
302.979	27.87
303.446	21.97
303.913	13.97
304.379	21.57
304.846	28.17
305.313	18.07
305.78	25.77
306.246	22.17
306.713	28.17
307.18	18.97
307.646	18.07
308.113	25.67
308.579	23.47
309.046	26.37
309.512	26.97
309.979	19.47
310.445	25.57
310.912	23.97
311.378	32.77
311.845	23.37
312.311	28.57
312.777	31.27
313.244	27.57
313.71	36.97
314.176	26.77
314.642	31.47
315.109	29.17
315.575	31.47
316.041	36.57
316.507	32.27
316.973	44.77
317.439	27.77
317.905	36.47
318.371	30.07
318.837	31.87
319.303	32.97
319.769	36.87
320.235	29.17
320.701	33.07
321.167	36.87
321.633	34.27
322.099	40.87
322.564	45.47
323.03	38.67
323.496	37.27
323.962	37.37
324.427	31.87
324.893	40.37
325.359	34.37
325.824	28.77
326.29	35.67
326.755	41.77
327.221	36.27
327.686	36.27
328.152	44.97
328.617	40.27
329.083	46.77
329.548	48.17
330.014	49.27
330.479	42.27
330.944	39.27
331.41	43.17
331.875	44.07
332.34	39.07
332.805	45.47
333.271	46.67
333.736	40.77
334.201	50.67
334.666	48.97
335.131	50.27
335.596	50.77
336.061	48.67
336.526	41.77
336.991	49.57
337.456	55.97
337.921	42.77
338.386	46.07
338.851	47.77
339.316	42.87
339.781	43.67
340.246	53.37
340.711	50.37
341.175	47.87
341.64	47.77
342.105	47.87
342.569	45.67
343.034	60.97
343.499	57.87
343.963	52.47
344.428	63.77
344.893	63.47
345.357	58.87
345.822	58.87
346.286	63.67
346.751	69.07
347.215	64.97
347.679	69.27
348.144	92.57
348.608	75.07
349.073	69.47
349.537	73.67
350.001	77.27
350.465	84.57
350.93	83.07
351.394	84.97
351.858	67.47
352.322	81.07
352.786	83.87
353.25	98.57
353.715	104.57
354.179	98.47
354.643	121.07
355.107	124.17
355.571	102.77
356.035	96.47
356.498	115.27
356.962	114.67
357.426	127.57
357.89	109.17
358.354	92.27
358.818	80.37
359.281	79.37
359.745	74.27
360.209	79.17
360.673	75.97
361.136	77.57
361.6	84.97
362.064	81.57
362.527	84.17
362.991	91.97
363.454	79.47
363.918	76.27
364.381	78.37
364.845	86.87
365.308	79.67
365.772	85.07
366.235	80.57
366.698	81.07
367.162	78.67
367.625	92.27
368.088	88.07
368.552	82.67
369.015	87.97
369.478	94.07
369.941	102.57
370.404	94.07
370.867	103.17
371.331	107.77
371.794	111.07
372.257	108.87
372.72	118.67
373.183	112.87
373.646	99.17
374.109	102.97
374.572	110.37
375.035	111.87
375.497	105.87
375.96	108.27
376.423	101.27
376.886	109.77
377.349	102.07
377.811	97.77
378.274	106.27
378.737	105.37
379.199	112.27
379.662	109.37
380.125	118.57
380.587	115.97
381.05	122.27
381.512	129.97
381.975	131.97
382.437	134.87
382.9	126.77
383.362	135.77
383.825	141.87
384.287	145.57
384.75	144.27
385.212	137.77
385.674	145.47
386.136	134.97
386.599	125.07
387.061	129.37
387.523	130.37
387.985	132.87
388.447	144.87
388.91	147.07
389.372	160.77
389.834	158.57
390.296	149.27
390.758	152.27
391.22	171.57
391.682	219.87
392.144	307.27
392.606	237.07
393.068	171.47
393.529	172.97
393.991	155.17
394.453	154.97
394.915	162.37
395.377	189.77
395.838	219.07
396.3	160.47
396.762	142.87
397.224	131.07
397.685	130.37
398.147	137.67
398.608	128.97
399.07	134.17
399.531	132.67
399.993	141.47
400.454	153.17
400.916	147.27
401.377	143.07
401.839	154.07
402.3	155.97
402.762	163.07
403.223	185.67
403.684	172.37
404.145	166.37
404.607	158.27
405.068	168.67
405.529	169.57
405.99	181.57
406.451	171.27
406.913	171.77
407.374	167.87
407.835	166.17
408.296	171.97
408.757	175.97
409.218	188.27
409.679	183.87
410.14	184.97
410.601	180.07
411.062	182.17
411.522	188.47
411.983	193.97
412.444	176.67
412.905	183.37
413.366	182.67
413.826	193.77
414.287	214.47
414.748	260.67
415.208	244.07
415.669	207.87
416.13	204.67
416.59	206.77
417.051	215.97
417.511	224.87
417.972	234.77
418.432	242.77
418.893	293.57
419.353	250.57
419.814	195.77
420.274	184.97
420.734	180.27
421.195	203.77
421.655	197.57
422.115	187.07
422.576	191.27
423.036	200.47
423.496	207.47
423.956	214.27
424.416	231.37
424.876	262.17
425.336	254.27
425.797	265.47
426.257	254.67
426.717	239.87
427.177	237.27
427.637	225.47
428.097	230.97
428.556	249.47
429.016	270.17
429.476	272.37
429.936	283.97
430.396	276.27
430.856	295.27
431.315	326.37
431.775	353.57
432.235	380.97
432.694	342.27
433.154	362.77
433.614	403.37
434.073	341.17
434.533	291.77
434.993	276.47
435.452	278.47
435.912	295.07
436.371	290.27
436.83	285.67
437.29	275.27
437.749	244.77
438.209	248.47
438.668	280.07
439.127	291.77
439.587	267.57
440.046	250.47
440.505	258.67
440.964	277.07
441.424	326.87
441.883	312.47
442.342	264.37
442.801	228.17
443.26	219.37
443.719	225.27
444.178	222.77
444.637	209.87
445.096	220.97
445.555	226.27
446.014	219.47
446.473	234.37
446.932	236.67
447.391	231.27
447.849	230.17
448.308	219.37
448.767	226.47
449.226	236.07
449.685	231.77
450.143	246.07
450.602	236.87
451.061	230.27
451.519	237.37
451.978	230.87
452.436	231.77
452.895	242.87
453.353	252.37
453.812	241.27
454.27	244.67
454.729	238.87
455.187	241.17
455.646	242.87
456.104	250.07
456.562	265.07
457.021	263.97
457.479	260.17
457.937	273.27
458.395	266.87
458.854	252.97
459.312	255.07
459.77	278.87
460.228	252.57
460.686	243.17
461.144	251.57
461.602	237.97
462.06	249.07
462.518	256.37
462.976	253.87
463.434	260.77
463.892	268.17
464.35	270.57
464.808	286.67
465.266	266.47
465.724	268.27
466.181	270.17
466.639	273.97
467.097	288.57
467.555	294.47
468.012	300.27
468.47	311.87
468.928	324.87
469.385	343.97
469.843	356.27
470.3	348.57
470.758	364.07
471.215	389.87
471.673	401.97
472.13	407.27
472.588	423.47
473.045	371.37
473.503	383.27
473.96	401.87
474.417	407.77
474.875	439.47
475.332	479.57
475.789	457.97
476.246	466.47
476.704	491.17
477.161	512.37
477.618	526.87
478.075	565.27
478.532	612.87
478.989	687.67
479.446	814.47
479.903	780.77
480.36	814.97
480.817	871.27
481.274	975.57
481.731	1071.77
482.188	1165.77
482.645	1300.07
483.102	1410.27
483.558	1541.87
484.015	1600.67
484.472	1576.07
484.929	1532.37
485.385	1490.97
485.842	1446.97
486.299	1370.57
486.755	1297.87
487.212	1088.37
487.668	926.87
488.125	849.77
488.582	783.17
489.038	737.87
489.494	714.17
489.951	681.57
490.407	664.47
490.864	644.07
491.32	647.17
491.776	637.27
492.233	651.37
492.689	614.57
493.145	608.77
493.602	599.57
494.058	618.57
494.514	617.17
494.97	640.67
495.426	643.17
495.882	616.67
496.338	614.27
496.794	624.67
497.251	619.27
497.707	628.47
498.163	626.77
498.618	638.67
499.074	635.97
499.53	681.37
499.986	679.87
500.442	649.27
500.898	633.77
501.354	629.57
501.809	626.77
502.265	651.57
502.721	669.97
503.177	674.47
503.632	668.47
504.088	676.57
504.543	715.67
504.999	710.37
505.455	653.47
505.91	630.87
506.366	625.77
506.821	628.17
507.277	623.47
507.732	623.57
508.187	618.47
508.643	628.57
509.098	632.07
509.553	653.87
510.009	664.77
510.464	659.67
510.919	681.37
511.375	688.07
511.83	709.27
512.285	720.37
512.74	749.37
513.195	783.47
513.65	766.57
514.105	772.87
514.56	766.47
515.015	790.87
515.47	804.37
515.925	783.87
516.38	788.87
516.835	798.87
517.29	781.47
517.745	776.67
518.2	765.67
518.655	746.67
519.109	732.57
519.564	738.37
520.019	734.17
520.474	721.07
520.928	724.97
521.383	721.87
521.838	714.27
522.292	721.57
522.747	711.67
523.201	709.07
523.656	704.17
524.11	693.67
524.565	696.97
525.019	693.37
525.474	702.67
525.928	703.77
526.382	689.87
526.837	691.57
527.291	707.37
527.745	700.57
528.2	696.07
528.654	690.97
529.108	693.67
529.562	686.37
530.016	684.67
530.47	688.17
530.925	699.47
531.379	694.37
531.833	692.57
532.287	698.97
532.741	697.37
533.195	700.97
533.649	703.77
534.103	720.07
534.556	716.27
535.01	710.27
535.464	706.47
535.918	722.77
536.372	715.67
536.826	714.27
537.279	701.57
537.733	704.97
538.187	716.47
538.64	711.97
539.094	722.67
539.548	727.47
540.001	714.27
540.455	729.17
540.908	727.77
541.362	739.67
541.815	755.87
542.269	759.97
542.722	763.97
543.175	772.07
543.629	772.57
544.082	782.57
544.536	783.67
544.989	782.17
545.442	799.07
545.895	794.87
546.349	793.57
546.802	793.57
547.255	790.77
547.708	803.87
548.161	803.07
548.614	818.37
549.067	821.97
549.52	822.27
549.973	810.87
550.426	806.97
550.879	795.77
551.332	805.77
551.785	804.37
552.238	807.27
552.691	811.07
553.144	823.57
553.596	850.57
554.049	870.67
554.502	890.47
554.955	922.67
555.407	905.67
555.86	894.17
556.313	894.37
556.765	887.77
557.218	873.37
557.67	886.27
558.123	872.27
558.576	863.47
559.028	870.57
559.48	888.57
559.933	880.87
560.385	847.77
560.838	818.97
561.29	782.57
561.742	783.87
562.195	769.87
562.647	758.77
563.099	773.07
563.551	778.97
564.004	788.77
564.456	768.17
564.908	763.17
565.36	751.17
565.812	736.87
566.264	735.97
566.716	730.17
567.168	721.47
567.62	729.17
568.072	709.17
568.524	704.47
568.976	687.07
569.428	672.97
569.88	672.57
570.332	684.27
570.784	675.47
571.235	698.47
571.687	692.67
572.139	701.57
572.59	712.37
573.042	708.07
573.494	710.57
573.945	700.07
574.397	686.77
574.849	693.87
575.3	682.57
575.752	683.17
576.203	679.77
576.655	684.17
577.106	674.57
577.557	673.07
578.009	675.47
578.46	663.37
578.912	671.97
579.363	671.27
579.814	666.27
580.265	665.87
580.717	657.97
581.168	671.07
581.619	676.27
582.07	688.77
582.521	683.77
582.972	672.07
583.423	683.77
583.875	692.97
584.326	714.77
584.777	755.57
585.227	835.87
585.678	925.97
586.129	1025.47
586.58	1098.47
587.031	1197.77
587.482	1345.67
587.933	1545.57
588.384	1346.77
588.834	986.77
589.285	813.47
589.736	786.37
590.186	785.87
590.637	766.47
591.088	754.17
591.538	746.37
591.989	731.67
592.439	733.37
592.89	723.67
593.34	711.47
593.791	721.27
594.241	710.77
594.692	718.27
595.142	707.37
595.593	708.37
596.043	716.67
596.493	723.27
596.943	726.57
597.394	727.97
597.844	722.87
598.294	730.17
598.744	761.07
599.195	776.37
599.645	817.27
600.095	854.77
600.545	918.67
600.995	968.17
601.445	1035.47
601.895	1091.27
602.345	1146.57
602.795	1113.57
603.245	1064.77
603.695	1012.57
604.145	960.07
604.594	912.27
605.044	859.77
605.494	799.07
605.944	756.47
606.393	752.27
606.843	736.77
607.293	750.27
607.743	729.57
608.192	745.57
608.642	762.97
609.091	779.27
609.541	782.17
609.99	773.47
610.44	777.57
610.889	730.87
611.339	700.47
611.788	688.47
612.238	705.17
612.687	732.57
613.136	727.27
613.586	745.67
614.035	745.37
614.484	761.07
614.933	771.97
615.383	764.97
615.832	747.97
616.281	729.57
616.73	695.87
617.179	670.37
617.628	659.27
618.077	636.47
618.526	630.87
618.975	622.37
619.424	612.77
619.873	616.87
620.322	628.27
620.771	611.07
621.22	609.07
621.669	600.17
622.118	603.97
622.567	579.27
623.015	576.07
623.464	573.37
623.913	557.57
624.361	558.47
624.81	560.07
625.259	563.07
625.707	554.17
626.156	561.77
626.604	572.77
627.053	566.87
627.501	567.47
627.95	573.17
628.398	580.37
628.847	571.17
629.295	570.27
629.744	577.77
630.192	573.87
630.64	573.07
631.089	573.27
631.537	586.47
631.985	600.57
632.433	610.17
632.881	622.37
633.33	676.07
633.778	663.37
634.226	579.57
634.674	580.87
635.122	582.97
635.57	611.97
636.018	629.27
636.466	591.77
636.914	562.27
637.362	568.07
637.81	585.77
638.258	572.67
638.705	588.27
639.153	618.67
639.601	619.97
640.049	649.07
640.497	676.77
640.944	699.67
641.392	649.27
641.84	619.47
642.287	590.97
642.735	579.17
643.182	583.67
643.63	578.67
644.078	577.97
644.525	598.27
644.973	601.97
645.42	619.67
645.867	632.57
646.315	649.27
646.762	675.47
647.21	700.57
647.657	722.27
648.104	760.57
648.551	769.57
648.999	837.97
649.446	937.17
649.893	1017.27
650.34	1184.77
650.787	1416.07
651.234	1773.97
651.682	2308.67
652.129	3193.37
652.576	4603.87
653.023	6823.17
653.47	9294.17
653.917	11514.97
654.363	13246.17
654.81	14567.77
655.257	13828.17
655.704	9062.37
656.151	5350.17
656.598	3463.27
657.044	2445.57
657.491	1884.67
657.938	1507.07
658.385	1256.37
658.831	1100.77
659.278	978.97
659.724	864.57
660.171	797.37
660.618	735.97
661.064	689.27
661.511	674.17
661.957	661.97
662.404	651.17
662.85	655.17
663.296	630.97
663.743	572.57
664.189	540.47
664.635	535.27
665.082	529.87
665.528	528.57
665.974	524.17
666.42	517.17
666.867	512.97
667.313	496.37
667.759	494.77
668.205	485.07
668.651	494.77
669.097	491.07
669.543	517.57
669.989	479.17
670.435	456.87
670.881	452.47
671.327	452.97
671.773	476.77
672.219	497.67
672.665	556.57
673.11	576.27
673.556	638.97
674.002	663.47
674.448	662.57
674.893	547.67
675.339	474.57
675.785	452.97
676.23	418.37
676.676	386.67
677.122	388.37
677.567	379.37
678.013	366.77
678.458	367.37
678.904	362.87
679.349	347.17
679.794	356.67
680.24	350.37
680.685	356.57
681.131	354.97
681.576	362.37
682.021	352.17
682.466	353.27
682.912	351.57
683.357	353.97
683.802	393.17
684.247	408.47
684.692	463.47
685.137	494.47
685.583	544.67
686.028	567.67
686.473	515.17
686.918	452.57
687.363	417.87
687.807	396.37
688.252	359.97
688.697	357.77
689.142	344.07
689.587	336.87
690.032	333.57
690.477	353.47
690.921	359.27
691.366	391.67
691.811	410.67
692.255	436.77
692.7	465.17
693.145	512.27
693.589	716.27
694.034	1149.07
694.478	1554.77
694.923	1727.07
695.367	2246.37
695.812	1185.97
696.256	500.07
696.701	386.17
697.145	355.37
697.59	326.47
698.034	321.07
698.478	333.27
698.922	330.47
699.367	329.37
699.811	340.77
700.255	363.17
700.699	392.57
701.143	430.67
701.588	481.87
702.032	521.07
702.476	515.87
702.92	498.77
703.364	494.17
703.808	649.87
704.252	1056.67
704.696	1482.17
705.14	1672.57
705.584	2116.07
706.027	1063.77
706.471	524.17
706.915	400.17
707.359	355.67
707.803	323.77
708.246	320.07
708.69	314.17
709.134	323.87
709.577	317.37
710.021	320.37
710.465	314.07
710.908	309.57
711.352	304.57
711.795	310.47
712.239	356.67
712.682	389.37
713.126	410.47
713.569	466.67
714.012	368.17
714.456	323.57
714.899	304.37
715.342	277.47
715.786	265.97
716.229	263.67
716.672	256.47
717.115	250.07
717.558	250.17
718.002	249.57
718.445	265.77
718.888	288.67
719.331	297.47
719.774	316.37
720.217	299.77
720.66	291.27
721.103	274.77
721.546	261.87
721.989	247.17
722.432	237.67
722.874	239.97
723.317	235.67
723.76	247.67
724.203	268.97
724.645	328.07
725.088	449.77
725.531	581.67
725.974	638.97
726.416	543.27
726.859	307.77
727.301	250.97
727.744	240.27
728.187	227.17
728.629	240.27
729.071	242.17
729.514	256.47
729.956	277.07
730.399	291.27
730.841	295.37
731.283	276.97
731.726	272.07
732.168	263.57
732.61	274.57
733.053	294.37
733.495	327.37
733.937	362.17
734.379	407.67
734.821	432.37
735.263	549.07
735.705	856.77
736.148	1618.87
736.59	2622.67
737.032	3016.77
737.474	2464.47
737.916	797.87
738.357	434.67
738.799	327.17
739.241	303.87
739.683	288.67
740.125	297.17
740.567	293.87
741.008	314.87
741.45	320.47
741.892	319.97
742.334	350.67
742.775	365.77
743.217	340.07
743.658	270.87
744.1	261.27
744.542	263.37
744.983	316.97
745.425	340.07
745.866	349.87
746.307	288.77
746.749	290.17
747.19	329.67
747.632	465.57
748.073	909.37
748.514	1914.67
748.956	2858.17
749.397	3613.27
749.838	2973.07
750.279	2933.27
750.72	1488.57
751.162	551.67
751.603	325.27
752.044	258.67
752.485	220.47
752.926	210.77
753.367	210.87
753.808	194.57
754.249	193.77
754.69	185.67
755.131	191.97
755.572	183.77
756.013	182.97
756.453	190.57
756.894	193.77
757.335	193.67
757.776	185.57
758.216	199.47
758.657	201.47
759.098	207.07
759.538	228.37
759.979	269.47
760.42	387.37
760.86	730.07
761.301	1900.57
761.741	4504.47
762.182	6368.57
762.622	4463.97
763.063	1307.87
763.503	544.57
763.943	362.57
764.384	359.47
764.824	421.17
765.264	452.77
765.705	308.77
766.145	215.57
766.585	190.17
767.025	183.27
767.465	192.77
767.906	254.47
768.346	325.37
768.786	355.07
769.226	274.67
769.666	327.37
770.106	653.07
770.546	1589.27
770.986	2645.37
771.426	2331.47
771.866	778.77
772.306	333.77
772.745	209.67
773.185	181.97
773.625	175.07
774.065	168.07
774.505	199.87
774.944	325.87
775.384	718.97
775.824	1270.97
776.263	1214.07
776.703	515.27
777.142	226.17
777.582	158.67
778.021	137.77
778.461	142.97
778.9	144.77
779.34	133.37
779.779	129.87
780.219	115.07
780.658	113.67
781.097	112.77
781.537	115.37
781.976	114.47
782.415	110.27
782.855	101.37
783.294	103.97
783.733	105.77
784.172	107.67
784.611	103.57
785.05	110.67
785.489	114.67
785.928	120.37
786.367	120.67
786.806	122.87
787.245	138.07
787.684	147.47
788.123	155.27
788.562	139.57
789.001	134.47
789.44	115.67
789.879	119.27
790.317	115.97
790.756	135.77
791.195	129.17
791.634	144.27
792.072	204.07
792.511	379.67
792.95	1048.97
793.388	2154.57
793.827	1921.27
794.265	685.67
794.704	289.07
795.142	184.17
795.581	152.07
796.019	145.27
796.458	132.17
796.896	125.07
797.334	136.17
797.773	161.77
798.211	223.27
798.649	458.17
799.087	1046.27
799.526	1612.07
799.964	2028.97
800.402	1981.37
800.84	755.67
801.278	304.57
801.716	186.77
802.154	159.27
802.592	153.17
803.03	141.57
803.468	136.07
803.906	148.57
804.344	149.77
804.782	138.07
805.22	138.77
805.658	135.07
806.096	155.27
806.533	156.27
806.971	175.97
807.409	227.87
807.847	331.17
808.284	682.67
808.722	1905.37
809.16	3281.97
809.597	3172.97
810.035	5449.07
810.472	5682.47
810.91	2065.27
811.347	798.37
811.785	403.67
812.222	257.67
812.66	197.47
813.097	165.57
813.535	153.27
813.972	138.67
814.409	120.47
814.846	113.57
815.284	110.57
815.721	104.27
816.158	106.87
816.595	121.17
817.032	184.27
817.47	211.07
817.907	174.77
818.344	158.57
818.781	116.57
819.218	102.57
819.655	121.47
820.092	189.37
820.529	214.37
820.966	177.37
821.403	133.77
821.839	107.97
822.276	110.07
822.713	126.47
823.15	142.87
823.587	118.77
824.023	146.67
824.46	306.27
824.897	914.47
825.333	1336.67
825.77	575.87
826.206	228.47
826.643	132.87
827.08	102.27
827.516	80.97
827.953	78.97
828.389	79.37
828.825	68.97
829.262	64.57
829.698	54.47
830.135	69.87
830.571	65.47
831.007	61.37
831.443	62.37
831.88	70.87
832.316	65.77
832.752	67.47
833.188	61.57
833.624	67.27
834.06	65.07
834.497	73.37
834.933	84.47
835.369	72.47
835.805	70.87
836.241	77.97
836.677	86.77
837.112	93.17
837.548	103.97
837.984	134.77
838.42	201.67
838.856	520.67
839.292	1536.37
839.727	2276.07
840.163	1070.17
840.599	956.57
841.034	2050.57
841.47	2090.17
841.906	772.57
842.341	334.87
842.777	237.07
843.212	330.67
843.648	313.57
844.083	147.07
844.519	101.07
844.954	77.87
845.39	57.97
845.825	60.57
846.261	61.97
846.696	52.47
847.131	54.97
847.566	67.47
848.002	58.57
848.437	57.77
848.872	67.77
849.307	61.47
849.742	88.97
850.177	190.87
850.613	569.17
851.048	874.47
851.483	377.77
851.918	157.97
852.353	87.27
852.788	61.67
853.223	58.37
853.657	58.97
854.092	50.07
854.527	46.57
854.962	40.87
855.397	44.77
855.832	54.87
856.266	40.77
856.701	36.07
857.136	37.97
857.57	46.57
858.005	50.47
858.44	63.87
858.874	47.57
859.309	50.87
859.743	35.57
860.178	50.27
860.612	41.47
861.047	51.97
861.481	68.07
861.915	70.47
862.35	53.77
862.784	33.07
863.218	42.77
863.653	32.07
864.087	41.67
864.521	57.97
864.955	78.97
865.39	161.47
865.824	175.87
866.258	114.07
866.692	165.87
867.126	173.97
867.56	106.97
867.994	52.77
868.428	41.67
868.862	45.07
869.296	57.07
869.73	50.97
870.164	52.67
870.598	46.27
871.031	36.17
871.465	29.47
871.899	33.77
872.333	25.87
872.766	21.47
873.2	26.67
873.634	30.97
874.067	28.17
874.501	28.97
874.935	38.77
875.368	36.77
875.802	31.97
876.235	28.27
876.669	23.97
877.102	26.07
877.535	32.17
877.969	21.27
878.402	21.47
878.836	24.17
879.269	19.07
879.702	21.77
880.135	25.17
880.569	27.97
881.002	33.07
881.435	20.37
881.868	18.77
882.301	21.67
882.734	19.47
883.167	22.67
883.601	20.47
884.034	27.07
884.467	11.27
884.899	18.87
885.332	14.77
885.765	19.17
886.198	21.17
886.631	20.57
887.064	19.07
887.497	24.97
887.929	29.37
888.362	23.37
888.795	13.57
889.228	18.57
889.66	24.27
890.093	21.37
890.526	18.97
890.958	20.77
891.391	16.47
891.823	19.87
892.256	16.07
892.688	13.77
893.121	18.97
893.553	15.47
893.985	23.67
894.418	20.37
894.85	9.27
895.282	14.67
895.715	16.77
896.147	17.27
896.579	16.37
897.011	12.87
897.444	16.57
897.876	7.07
898.308	22.87
898.74	14.27
899.172	13.37
899.604	22.77
900.036	27.17
900.468	16.67
900.9	18.57
901.332	22.47
901.764	8.57
902.196	14.17
902.628	15.97
903.06	16.77
903.491	30.17
903.923	20.37
904.355	16.47
904.787	26.67
905.218	23.77
905.65	18.97
906.082	14.57
906.513	15.57
906.945	17.27
907.376	9.97
907.808	20.07
908.239	23.27
908.671	15.67
909.102	26.97
909.534	22.97
909.965	48.57
910.397	89.57
910.828	322.87
911.259	475.67
911.691	219.67
912.122	107.47
912.553	53.77
912.984	41.37
913.415	29.07
913.847	27.27
914.278	14.57
914.709	15.47
915.14	22.87
915.571	19.37
916.002	8.17
916.433	15.07
916.864	12.67
917.295	15.27
917.726	22.17
918.157	12.77
918.587	30.47
919.018	25.17
919.449	24.37
919.88	27.07
920.311	34.77
920.741	48.87
921.172	167.37
921.603	149.27
922.033	68.87
922.464	47.87
922.895	32.77
923.325	18.97
923.756	19.37
924.186	18.47
924.617	26.27
925.047	47.07
925.478	52.47
925.908	48.37
926.338	28.87
926.769	21.67
927.199	22.37
927.629	4.87
928.06	15.87
928.49	16.07
928.92	19.87
929.35	14.27
929.78	8.97
930.21	14.27
930.641	8.37
931.071	12.67
931.501	3.07
931.931	10.77
932.361	9.27
932.791	3.67
933.221	6.67
933.651	2.57
934.08	16.37
934.51	30.27
934.94	16.77
935.37	12.47
935.8	13.97
936.229	10.87
936.659	12.07
937.089	6.67
937.519	14.47
937.948	25.67
938.378	14.87
938.807	8.07
939.237	1.17
939.666	11.47
940.096	-2.73
940.525	0.47
940.955	7.97
941.384	-0.33
941.814	-6.23
942.243	0.47
942.672	2.47
943.102	-0.53
943.531	3.67
943.96	4.67
944.39	6.17
944.819	4.97
945.248	0.27
945.677	1.67
946.106	7.47
946.535	7.27
946.964	-3.03
947.393	2.27
947.822	-2.73
948.251	-1.43
948.68	9.97
949.109	12.17
949.538	10.97
949.967	-4.63
950.396	3.77
950.825	8.87
951.254	3.27
951.682	-3.73
952.111	3.67
952.54	3.27
952.969	-2.73
953.397	-11.23
953.826	-2.23
954.254	-5.53
954.683	5.07
955.112	-0.23
955.54	0.37
955.969	2.77
956.397	3.37
956.826	0.27
957.254	-2.33
957.682	6.37
958.111	8.37
958.539	5.97
958.967	0.27
959.396	-1.73
959.824	5.77
960.252	8.57
960.68	-4.63
961.109	1.87
961.537	3.77
961.965	2.67
962.393	-2.43
962.821	1.67
963.249	1.47
963.677	6.27
964.105	1.67
964.533	42.07
964.961	38.27
965.389	17.27
965.817	12.17
966.245	7.37
966.672	-2.43
967.1	-6.93
967.528	2.97
967.956	-1.63
968.383	2.97
968.811	-0.43
969.239	1.07
969.666	-6.53
970.094	-2.03
970.522	2.47
970.949	-1.43
971.377	-3.33
971.804	-5.13
972.232	-4.43
972.659	-2.73
973.087	-0.63
973.514	-2.53
973.941	-7.63
974.369	4.47
974.796	-4.53
975.223	-1.33
975.651	-2.23
976.078	-1.13
976.505	2.67
976.932	3.97
977.359	25.47
977.786	13.47
978.214	2.87
978.641	-0.33
979.068	-0.43
979.495	-4.13
979.922	2.57
980.349	-2.33
980.776	-2.33
981.202	-4.73
981.629	-2.33
982.056	9.17
982.483	2.47
982.91	6.87
983.337	-4.43
983.763	1.47
984.19	-4.23
984.617	-1.83
985.043	-6.73
985.47	-1.53
985.897	-5.93
986.323	-12.23
986.75	0.47
987.176	-3.53
987.603	-0.93
988.029	-1.53
988.456	-7.03
988.882	1.87
989.308	-12.53
989.735	-1.93
990.161	0.77
990.587	-6.83
991.014	-2.63
991.44	8.87
991.866	-3.23
992.292	-3.23
992.719	0.07
993.145	0.47
993.571	-1.63
993.997	-4.23
994.423	2.37
994.849	-5.93
995.275	3.97
995.701	-1.13
996.127	-3.93
996.553	5.77
996.979	-1.73
997.405	-7.73
997.83	-6.43
998.256	-2.93
998.682	-6.33
999.108	-3.83
999.534	5.67
999.959	-1.23
1000.385	-6.93
1000.811	1.77
1001.236	-7.83
1001.662	-7.33
1002.087	-2.93
1002.513	2.67
1002.938	0.77
1003.364	-2.53
1003.789	-2.03
1004.215	5.87
1004.64	-4.63
1005.066	4.97
1005.491	1.57
1005.916	-1.63
1006.342	-6.63
1006.767	-5.23
1007.192	6.67
1007.617	-5.33
1008.042	1.67
1008.468	-6.13
1008.893	-6.33
1009.318	-2.43
1009.743	-5.83
1010.168	6.57
1010.593	3.37
1011.018	-5.43
1011.443	-1.23
1011.868	1.97
1012.293	-1.33
1012.718	-2.33
1013.143	0.67
1013.567	3.07
1013.992	-1.43
1014.417	-12.83
1014.842	3.37
1015.267	-2.93
1015.691	-5.53
1016.116	4.17
1016.541	-2.03
1016.965	0.57
1017.39	1.87
1017.814	3.37
1018.239	2.17
1018.663	-5.33
1019.088	-10.63
1019.512	-3.63
1019.937	0.47
1020.361	-3.53
1020.785	-11.43
1021.21	-0.23
1021.634	-4.63
1022.058	-0.63
1022.483	-1.23
1022.907	-3.43
1023.331	-2.93
1023.755	-5.03
1024.179	1.37
1024.604	-4.33
1025.028	-3.23
1025.452	-2.43
1025.876	0.57
1026.3	-3.73
1026.724	-10.13
1027.148	-2.33
1027.572	-14.53
1027.996	-4.03
1028.42	-1.43
1028.843	-6.33
1029.267	-2.53
1029.691	-2.53
1030.115	-10.83
1030.539	-11.23
1030.962	-2.83
1031.386	-11.83
1031.81	0.07
1032.233	-2.53
1032.657	-2.63
1033.08	-2.13
1033.504	-6.13
1033.927	-8.83
1034.351	-0.73
1034.774	-4.93
1035.198	-4.23
1035.621	-9.53
1036.045	-8.93
1036.468	7.47
1036.891	-8.93
1037.315	-1.93
1037.738	-6.53
1038.161	0.97
1038.584	-1.73
1039.008	-0.73
1039.431	-1.73
1039.854	-5.73
1040.277	-4.33
1040.7	-10.13
1041.123	3.77
1041.546	-8.93
1041.969	-7.33
1042.392	-3.83
1042.815	-2.33
1043.238	8.47
1043.661	4.67
1044.084	-2.63
1044.507	-9.43
1044.93	-2.63
1045.352	-2.13
1045.775	4.57
1046.198	-0.93
1046.621	-0.93
1047.043	2.97
1047.466	5.37
1047.889	-4.33
1048.311	-8.13
1048.734	-5.23
1049.156	0.27
1049.579	-4.93
1050.001	-1.13
1050.424	1.97
1050.846	0.87
1051.269	-7.23
1051.691	-6.53
1052.113	-10.63
1052.536	-1.03
1052.958	-4.03
1053.38	-1.13
1053.802	-9.63
1054.225	-0.53
1054.647	-8.53
1055.069	-5.03
1055.491	4.47
1055.913	-10.73
1056.335	-4.33
1056.757	-11.03
1057.179	-0.83
1057.601	-4.83
1058.023	-1.43
1058.445	-3.13
1058.867	-1.53
1059.289	2.07
1059.711	-7.53
1060.133	-2.43
1060.555	-3.33
1060.976	-4.53
1061.398	-2.93
1061.82	-4.63
1062.241	-7.33
1062.663	-13.03
1063.085	-6.13
1063.506	-5.03
1063.928	0.57
1064.35	-4.73
1064.771	-11.93
1065.193	-7.53
1065.614	-11.73
1066.035	2.47
1066.457	-4.63
1066.878	1.97
1067.3	-6.03
1067.721	-2.83
1068.142	0.07
1068.564	-3.23
1068.985	-1.83
1069.406	-2.03
1069.827	-7.23
1070.248	0.97
1070.67	-4.23
1071.091	0.17
1071.512	-8.73
1071.933	-6.93
1072.354	-6.53
1072.775	-7.43
1073.196	-4.83
1073.617	-4.23
1074.038	-4.63
1074.459	-1.93
1074.88	-9.33
1075.3	0.67
1075.721	-10.93
1076.142	-0.33
1076.563	-5.63
1076.983	-7.23
1077.404	-5.73
1077.825	-5.43
1078.246	-1.43
1078.666	-13.93
1079.087	-1.03
1079.507	-2.43
1079.928	-5.93
1080.348	-2.63
1080.769	-4.53
1081.189	-1.23
1081.61	-5.63
1082.03	-1.33
1082.451	-12.83
1082.871	-2.33
1083.291	-7.83
1083.711	-5.43
1084.132	-0.63
1084.552	-5.73
1084.972	-6.33
1085.392	-11.93
1085.813	-8.73
1086.233	-8.63
1086.653	-1.13
1087.073	-0.93
1087.493	-5.83
1087.913	-7.73
1088.333	-4.83
1088.753	-3.93
1089.173	-0.93
1089.593	-4.53
1090.013	5.47
1090.433	7.47
1090.852	-4.53
1091.272	3.07
1091.692	-0.13
1092.112	-3.93
1092.531	-10.03
1092.951	-11.93
1093.371	-6.73
1093.79	3.77
1094.21	-3.93
1094.63	-8.63
1095.049	-8.33
1095.469	-2.93
1095.888	0.97
1096.308	-2.43
1096.727	10.87
1097.146	-5.83
1097.566	-5.03
1097.985	-2.63
1098.405	2.77
1098.824	-6.93
1099.243	-7.03
1099.662	-9.53
1100.082	-5.93
1100.501	-2.03
1100.92	-3.83
1101.339	-7.13
1101.758	-5.33
