Data from 20171114-ORNL-Ar_H_NY_Subt18_08-06-11-999.txt Node
Date: Tue Nov 14 08:06:11 EST 2017
User: Ender
Spectrometer: HR+D1039
Trigger mode: 0
Integration Time (sec): 2.730000E-2
Scans to average: 10
Electric dark correction enabled: true
Nonlinearity correction enabled: false
Boxcar width: 0
XAxis mode: Wavelengths
Number of Pixels in Spectrum: 2048
>>>>>Begin Spectral Data<<<<<
187.836	-10.62
188.309	-10.62
188.782	-10.62
189.255	-2.62
189.728	-2.42
190.201	5.48
190.674	4.38
191.147	2.48
191.619	-8.22
192.092	3.38
192.565	11.28
193.038	1.68
193.511	-1.02
193.984	0.28
194.456	-4.62
194.929	-1.82
195.402	0.18
195.874	2.18
196.347	0.18
196.82	-7.22
197.292	-1.72
197.765	0.58
198.237	-2.02
198.71	3.18
199.182	-3.42
199.655	3.58
200.127	-0.02
200.6	-9.32
201.072	-1.82
201.544	-7.52
202.017	-9.12
202.489	2.88
202.961	-8.22
203.433	-6.52
203.906	-7.42
204.378	-1.62
204.85	-8.22
205.322	-8.92
205.794	1.58
206.266	-4.32
206.739	-9.12
207.211	3.18
207.683	-7.62
208.155	-7.12
208.627	-2.02
209.099	-7.72
209.57	-7.22
210.042	-3.62
210.514	-6.22
210.986	-1.02
211.458	-6.92
211.93	-2.82
212.402	0.18
212.873	-9.12
213.345	-9.12
213.817	-8.82
214.288	-3.22
214.76	-12.92
215.232	-0.82
215.703	-1.92
216.175	-2.42
216.646	-0.02
217.118	-5.82
217.589	-0.22
218.061	-2.72
218.532	-0.92
219.004	-7.42
219.475	-2.52
219.946	-4.52
220.418	-9.92
220.889	3.58
221.36	-1.62
221.832	-10.42
222.303	-8.32
222.774	1.28
223.245	-11.42
223.717	-10.42
224.188	-6.12
224.659	-12.22
225.13	-5.92
225.601	-10.72
226.072	3.18
226.543	-1.52
227.014	-3.42
227.485	-3.02
227.956	-1.72
228.427	-1.12
228.898	-4.42
229.369	2.48
229.839	-4.42
230.31	-5.62
230.781	2.68
231.252	2.08
231.722	-1.42
232.193	-0.12
232.664	-6.22
233.135	0.18
233.605	-1.02
234.076	-4.42
234.546	-2.22
235.017	2.98
235.487	-0.92
235.958	-2.72
236.428	-5.32
236.899	5.48
237.369	2.58
237.84	-1.42
238.31	5.38
238.78	-1.72
239.251	2.68
239.721	1.68
240.191	3.78
240.662	-2.02
241.132	0.98
241.602	-4.72
242.072	-0.22
242.542	1.38
243.013	2.08
243.483	5.38
243.953	-1.62
244.423	6.68
244.893	-1.82
245.363	5.88
245.833	1.58
246.303	-1.72
246.773	6.48
247.243	3.08
247.712	3.48
248.182	9.28
248.652	10.28
249.122	-3.12
249.592	13.58
250.061	19.58
250.531	28.88
251.001	17.28
251.471	16.78
251.94	12.78
252.41	10.88
252.879	-2.12
253.349	16.88
253.818	8.38
254.288	4.48
254.757	5.08
255.227	-0.92
255.696	3.18
256.166	7.28
256.635	7.08
257.105	10.68
257.574	7.28
258.043	9.68
258.513	14.78
258.982	14.38
259.451	6.18
259.92	13.88
260.389	11.38
260.859	15.08
261.328	17.48
261.797	14.58
262.266	5.18
262.735	10.48
263.204	4.78
263.673	1.18
264.142	-0.62
264.611	-6.42
265.08	-4.52
265.549	2.08
266.018	5.68
266.487	-3.02
266.955	-8.72
267.424	-0.82
267.893	1.98
268.362	-0.62
268.83	2.48
269.299	14.58
269.768	7.38
270.236	6.58
270.705	1.98
271.174	3.68
271.642	10.38
272.111	15.48
272.579	12.08
273.048	23.58
273.516	25.58
273.985	26.38
274.453	26.78
274.922	23.08
275.39	14.88
275.858	5.38
276.327	15.08
276.795	16.68
277.263	9.68
277.731	25.98
278.2	63.98
278.668	56.38
279.136	45.68
279.604	19.58
280.072	12.68
280.54	13.28
281.008	12.58
281.477	12.98
281.945	11.38
282.413	19.48
282.881	16.98
283.348	9.48
283.816	17.48
284.284	9.88
284.752	19.08
285.22	14.78
285.688	16.48
286.156	19.48
286.623	49.88
287.091	56.38
287.559	34.88
288.026	14.58
288.494	21.18
288.962	14.38
289.429	8.98
289.897	18.58
290.364	11.78
290.832	17.38
291.3	13.88
291.767	17.18
292.234	16.78
292.702	7.98
293.169	23.48
293.637	24.98
294.104	23.38
294.571	12.48
295.039	14.18
295.506	16.08
295.973	14.98
296.44	16.18
296.908	20.68
297.375	15.88
297.842	19.48
298.309	12.88
298.776	11.58
299.243	20.38
299.71	16.78
300.177	24.58
300.644	27.78
301.111	20.88
301.578	16.78
302.045	20.48
302.512	21.58
302.979	22.68
303.446	24.98
303.913	18.58
304.379	19.78
304.846	26.18
305.313	24.08
305.78	20.68
306.246	28.38
306.713	22.58
307.18	23.68
307.646	28.48
308.113	32.38
308.579	21.98
309.046	21.28
309.512	29.18
309.979	16.68
310.445	22.98
310.912	33.68
311.378	28.98
311.845	31.28
312.311	36.78
312.777	33.48
313.244	32.28
313.71	38.68
314.176	32.58
314.642	28.48
315.109	33.68
315.575	31.98
316.041	41.18
316.507	34.58
316.973	42.68
317.439	29.58
317.905	36.58
318.371	31.88
318.837	36.88
319.303	35.28
319.769	33.28
320.235	39.88
320.701	33.78
321.167	40.68
321.633	34.58
322.099	42.18
322.564	48.38
323.03	42.98
323.496	44.58
323.962	48.18
324.427	39.28
324.893	42.58
325.359	35.08
325.824	39.88
326.29	35.38
326.755	39.28
327.221	44.28
327.686	46.28
328.152	51.18
328.617	43.68
329.083	52.58
329.548	51.28
330.014	53.98
330.479	39.08
330.944	40.98
331.41	44.68
331.875	45.18
332.34	37.78
332.805	44.58
333.271	50.78
333.736	45.68
334.201	55.28
334.666	53.08
335.131	57.58
335.596	48.38
336.061	54.58
336.526	45.48
336.991	48.78
337.456	51.08
337.921	51.28
338.386	53.58
338.851	50.48
339.316	53.08
339.781	46.88
340.246	50.28
340.711	47.58
341.175	55.48
341.64	45.58
342.105	52.38
342.569	59.78
343.034	54.48
343.499	55.58
343.963	53.88
344.428	67.08
344.893	63.28
345.357	61.18
345.822	62.58
346.286	73.18
346.751	76.18
347.215	71.18
347.679	76.18
348.144	104.78
348.608	84.78
349.073	76.18
349.537	76.78
350.001	82.78
350.465	93.98
350.93	88.28
351.394	79.08
351.858	75.08
352.322	94.48
352.786	87.18
353.25	107.38
353.715	107.98
354.179	96.78
354.643	123.38
355.107	128.68
355.571	108.48
356.035	111.98
356.498	123.78
356.962	133.58
357.426	133.38
357.89	118.58
358.354	97.98
358.818	91.68
359.281	79.08
359.745	79.18
360.209	76.48
360.673	72.98
361.136	87.78
361.6	91.68
362.064	85.18
362.527	90.18
362.991	90.18
363.454	80.78
363.918	78.28
364.381	85.28
364.845	81.68
365.308	80.08
365.772	86.88
366.235	91.18
366.698	83.98
367.162	90.88
367.625	85.98
368.088	87.58
368.552	89.98
369.015	96.78
369.478	101.48
369.941	104.78
370.404	94.98
370.867	103.98
371.331	110.78
371.794	113.28
372.257	108.98
372.72	118.38
373.183	105.28
373.646	103.88
374.109	103.68
374.572	108.08
375.035	111.08
375.497	114.08
375.96	109.08
376.423	102.98
376.886	111.68
377.349	120.58
377.811	106.28
378.274	101.88
378.737	112.88
379.199	112.48
379.662	112.28
380.125	119.68
380.587	129.38
381.05	132.58
381.512	131.08
381.975	132.48
382.437	129.28
382.9	129.08
383.362	137.58
383.825	149.18
384.287	153.18
384.75	147.08
385.212	147.58
385.674	143.48
386.136	143.28
386.599	120.78
387.061	127.48
387.523	133.08
387.985	139.58
388.447	140.68
388.91	140.68
389.372	164.08
389.834	153.08
390.296	147.88
390.758	157.68
391.22	171.28
391.682	217.58
392.144	302.28
392.606	227.58
393.068	170.88
393.529	170.78
393.991	157.38
394.453	154.68
394.915	157.78
395.377	195.78
395.838	223.88
396.3	166.28
396.762	147.28
397.224	137.08
397.685	134.28
398.147	132.18
398.608	132.68
399.07	128.78
399.531	133.78
399.993	146.28
400.454	156.98
400.916	148.88
401.377	148.88
401.839	156.98
402.3	157.08
402.762	168.78
403.223	186.88
403.684	175.88
404.145	168.98
404.607	162.18
405.068	171.08
405.529	181.58
405.99	190.78
406.451	185.58
406.913	176.08
407.374	163.48
407.835	164.98
408.296	164.48
408.757	176.48
409.218	190.48
409.679	183.68
410.14	181.28
410.601	185.28
411.062	189.48
411.522	192.28
411.983	188.88
412.444	179.68
412.905	183.38
413.366	186.48
413.826	193.88
414.287	216.58
414.748	269.98
415.208	246.08
415.669	216.68
416.13	211.98
416.59	205.48
417.051	211.38
417.511	220.28
417.972	239.98
418.432	254.88
418.893	294.78
419.353	244.78
419.814	201.58
420.274	194.98
420.734	188.98
421.195	204.78
421.655	195.28
422.115	194.88
422.576	199.68
423.036	205.08
423.496	210.68
423.956	217.08
424.416	234.18
424.876	270.88
425.336	271.28
425.797	275.88
426.257	259.98
426.717	253.88
427.177	235.08
427.637	230.58
428.097	241.38
428.556	245.18
429.016	267.68
429.476	272.68
429.936	282.88
430.396	287.48
430.856	300.38
431.315	324.58
431.775	356.18
432.235	378.58
432.694	360.48
433.154	368.38
433.614	394.98
434.073	335.78
434.533	293.28
434.993	277.58
435.452	292.18
435.912	301.28
436.371	297.58
436.83	291.28
437.29	280.78
437.749	253.98
438.209	247.98
438.668	279.78
439.127	296.08
439.587	268.58
440.046	248.68
440.505	269.78
440.964	280.08
441.424	335.58
441.883	322.48
442.342	272.38
442.801	223.78
443.26	226.48
443.719	217.98
444.178	220.08
444.637	213.18
445.096	224.88
445.555	223.28
446.014	233.08
446.473	238.08
446.932	242.58
447.391	229.98
447.849	234.88
448.308	221.28
448.767	226.18
449.226	230.38
449.685	241.78
450.143	249.68
450.602	242.08
451.061	236.48
451.519	239.08
451.978	237.88
452.436	231.78
452.895	244.68
453.353	255.88
453.812	253.18
454.27	247.58
454.729	246.68
455.187	254.08
455.646	247.08
456.104	254.48
456.562	261.78
457.021	275.78
457.479	272.38
457.937	272.78
458.395	272.88
458.854	253.28
459.312	263.08
459.77	281.38
460.228	266.48
460.686	250.48
461.144	261.68
461.602	247.78
462.06	245.28
462.518	257.48
462.976	264.58
463.434	270.18
463.892	274.58
464.35	284.38
464.808	299.18
465.266	279.58
465.724	282.48
466.181	276.38
466.639	279.48
467.097	297.68
467.555	309.98
468.012	309.28
468.47	316.28
468.928	339.48
469.385	351.28
469.843	354.28
470.3	360.38
470.758	364.88
471.215	398.78
471.673	425.28
472.13	416.38
472.588	431.98
473.045	380.18
473.503	390.18
473.96	406.48
474.417	409.98
474.875	444.88
475.332	492.58
475.789	471.08
476.246	478.28
476.704	497.28
477.161	519.08
477.618	529.28
478.075	581.48
478.532	641.18
478.989	709.98
479.446	841.88
479.903	793.28
480.36	831.68
480.817	888.68
481.274	997.48
481.731	1096.18
482.188	1184.08
482.645	1328.88
483.102	1441.88
483.558	1571.08
484.015	1641.48
484.472	1612.68
484.929	1558.58
485.385	1502.18
485.842	1468.18
486.299	1400.88
486.755	1327.88
487.212	1127.28
487.668	944.98
488.125	861.68
488.582	804.58
489.038	760.08
489.494	725.18
489.951	709.48
490.407	684.08
490.864	666.48
491.32	659.78
491.776	661.28
492.233	668.58
492.689	626.58
493.145	625.08
493.602	610.68
494.058	623.08
494.514	633.48
494.97	651.18
495.426	662.68
495.882	639.28
496.338	632.18
496.794	640.58
497.251	638.78
497.707	643.68
498.163	658.28
498.618	659.18
499.074	655.58
499.53	701.78
499.986	689.68
500.442	668.08
500.898	646.98
501.354	636.08
501.809	657.68
502.265	670.58
502.721	680.28
503.177	681.98
503.632	672.28
504.088	688.18
504.543	736.58
504.999	731.88
505.455	666.48
505.91	652.58
506.366	646.48
506.821	636.78
507.277	638.98
507.732	630.78
508.187	638.88
508.643	643.28
509.098	644.18
509.553	670.68
510.009	685.58
510.464	686.08
510.919	708.98
511.375	698.58
511.83	716.48
512.285	737.08
512.74	773.48
513.195	805.68
513.65	784.08
514.105	783.18
514.56	790.68
515.015	816.68
515.47	826.38
515.925	812.48
516.38	803.78
516.835	809.78
517.29	803.18
517.745	797.18
518.2	783.48
518.655	768.68
519.109	758.98
519.564	755.78
520.019	749.38
520.474	742.68
520.928	740.38
521.383	737.28
521.838	736.18
522.292	730.08
522.747	736.98
523.201	725.48
523.656	710.28
524.11	710.68
524.565	714.98
525.019	708.98
525.474	710.98
525.928	717.18
526.382	715.08
526.837	712.78
527.291	717.08
527.745	713.38
528.2	713.98
528.654	709.28
529.108	697.38
529.562	709.88
530.016	697.78
530.47	712.38
530.925	714.18
531.379	716.78
531.833	721.58
532.287	713.08
532.741	722.18
533.195	720.18
533.649	727.48
534.103	736.18
534.556	723.18
535.01	728.58
535.464	713.68
535.918	731.58
536.372	734.28
536.826	737.38
537.279	727.88
537.733	725.58
538.187	735.38
538.64	731.58
539.094	744.98
539.548	737.98
540.001	735.58
540.455	743.68
540.908	749.08
541.362	747.08
541.815	755.58
542.269	776.48
542.722	776.68
543.175	791.38
543.629	776.18
544.082	801.08
544.536	808.68
544.989	796.88
545.442	806.58
545.895	801.48
546.349	811.48
546.802	814.58
547.255	807.48
547.708	824.38
548.161	836.28
548.614	837.88
549.067	836.88
549.52	837.08
549.973	837.08
550.426	817.88
550.879	811.88
551.332	817.88
551.785	814.68
552.238	823.78
552.691	845.68
553.144	857.68
553.596	862.28
554.049	883.28
554.502	921.98
554.955	930.28
555.407	929.98
555.86	921.18
556.313	911.48
556.765	915.28
557.218	915.28
557.67	901.88
558.123	896.98
558.576	894.38
559.028	895.18
559.48	893.08
559.933	889.18
560.385	863.88
560.838	823.68
561.29	793.98
561.742	794.38
562.195	779.18
562.647	775.68
563.099	787.78
563.551	775.28
564.004	793.18
564.456	793.68
564.908	776.48
565.36	761.88
565.812	745.08
566.264	733.58
566.716	737.98
567.168	733.48
567.62	735.88
568.072	716.38
568.524	710.78
568.976	702.58
569.428	692.48
569.88	684.58
570.332	690.28
570.784	688.08
571.235	694.78
571.687	701.28
572.139	711.38
572.59	726.88
573.042	731.08
573.494	726.88
573.945	716.28
574.397	698.98
574.849	697.18
575.3	705.18
575.752	698.98
576.203	692.58
576.655	692.88
577.106	677.08
577.557	681.98
578.009	680.78
578.46	679.48
578.912	675.68
579.363	667.78
579.814	682.68
580.265	666.48
580.717	684.28
581.168	691.48
581.619	692.58
582.07	688.18
582.521	687.88
582.972	687.28
583.423	689.88
583.875	686.28
584.326	717.98
584.777	753.28
585.227	839.78
585.678	923.28
586.129	1011.68
586.58	1092.68
587.031	1166.38
587.482	1314.68
587.933	1511.98
588.384	1311.08
588.834	984.18
589.285	816.28
589.736	793.18
590.186	788.88
590.637	778.28
591.088	760.28
591.538	752.48
591.989	737.58
592.439	727.38
592.89	734.98
593.34	716.18
593.791	722.88
594.241	709.78
594.692	721.88
595.142	720.68
595.593	703.98
596.043	719.28
596.493	724.48
596.943	728.38
597.394	735.68
597.844	727.18
598.294	738.68
598.744	759.78
599.195	780.68
599.645	822.28
600.095	864.38
600.545	927.08
600.995	975.68
601.445	1033.08
601.895	1092.98
602.345	1147.88
602.795	1127.38
603.245	1075.88
603.695	1024.08
604.145	961.68
604.594	924.18
605.044	873.88
605.494	804.18
605.944	765.08
606.393	751.18
606.843	732.08
607.293	745.18
607.743	739.78
608.192	762.48
608.642	767.18
609.091	775.98
609.541	768.58
609.99	779.58
610.44	777.78
610.889	735.08
611.339	711.68
611.788	690.58
612.238	714.28
612.687	728.58
613.136	727.68
613.586	746.18
614.035	739.68
614.484	770.88
614.933	759.98
615.383	769.28
615.832	743.18
616.281	729.78
616.73	698.18
617.179	673.28
617.628	657.88
618.077	642.38
618.526	631.88
618.975	622.68
619.424	615.58
619.873	625.98
620.322	631.28
620.771	612.48
621.22	599.38
621.669	601.08
622.118	591.88
622.567	587.88
623.015	577.58
623.464	574.48
623.913	565.78
624.361	556.08
624.81	557.68
625.259	558.28
625.707	563.98
626.156	563.78
626.604	577.98
627.053	560.68
627.501	571.18
627.95	581.58
628.398	578.98
628.847	569.48
629.295	569.38
629.744	575.88
630.192	565.78
630.64	572.18
631.089	580.68
631.537	588.18
631.985	592.78
632.433	606.78
632.881	620.28
633.33	664.48
633.778	648.48
634.226	574.58
634.674	585.28
635.122	580.58
635.57	605.88
636.018	627.38
636.466	588.48
636.914	555.58
637.362	568.28
637.81	583.18
638.258	586.58
638.705	582.48
639.153	613.48
639.601	616.88
640.049	648.28
640.497	677.88
640.944	698.58
641.392	648.78
641.84	621.08
642.287	598.08
642.735	571.38
643.182	573.48
643.63	583.28
644.078	577.48
644.525	601.48
644.973	596.98
645.42	597.48
645.867	621.58
646.315	643.58
646.762	667.08
647.21	699.18
647.657	714.38
648.104	755.58
648.551	778.58
648.999	838.98
649.446	927.58
649.893	1016.08
650.34	1172.28
650.787	1402.58
651.234	1726.68
651.682	2257.78
652.129	3104.68
652.576	4445.08
653.023	6593.48
653.47	9072.78
653.917	11343.88
654.363	13075.18
654.81	14472.88
655.257	13754.98
655.704	9007.78
656.151	5328.88
656.598	3448.28
657.044	2442.48
657.491	1874.78
657.938	1500.28
658.385	1247.68
658.831	1092.28
659.278	970.08
659.724	866.38
660.171	797.48
660.618	728.78
661.064	692.98
661.511	672.58
661.957	656.98
662.404	650.28
662.85	655.68
663.296	628.28
663.743	554.18
664.189	543.68
664.635	531.28
665.082	529.38
665.528	529.08
665.974	518.18
666.42	520.18
666.867	510.48
667.313	491.08
667.759	482.98
668.205	480.28
668.651	488.48
669.097	481.28
669.543	500.48
669.989	468.98
670.435	450.88
670.881	447.38
671.327	452.88
671.773	469.18
672.219	490.28
672.665	549.08
673.11	581.58
673.556	622.08
674.002	677.48
674.448	653.98
674.893	547.28
675.339	476.18
675.785	443.58
676.23	421.68
676.676	383.68
677.122	382.58
677.567	375.58
678.013	362.98
678.458	354.98
678.904	359.58
679.349	342.68
679.794	351.28
680.24	353.58
680.685	343.08
681.131	345.38
681.576	353.38
682.021	348.28
682.466	346.18
682.912	343.18
683.357	352.98
683.802	383.78
684.247	409.78
684.692	456.08
685.137	495.08
685.583	524.78
686.028	561.38
686.473	512.38
686.918	441.18
687.363	412.78
687.807	397.98
688.252	364.28
688.697	350.88
689.142	332.58
689.587	330.38
690.032	330.88
690.477	346.68
690.921	351.78
691.366	370.98
691.811	400.08
692.255	433.38
692.7	465.78
693.145	493.98
693.589	686.08
694.034	1113.38
694.478	1512.08
694.923	1729.18
695.367	2254.88
695.812	1192.78
696.256	499.08
696.701	369.98
697.145	335.78
697.59	331.38
698.034	320.08
698.478	327.58
698.922	322.88
699.367	322.88
699.811	338.38
700.255	348.68
700.699	386.18
701.143	422.88
701.588	472.88
702.032	513.78
702.476	495.68
702.92	488.98
703.364	488.48
703.808	621.38
704.252	1011.48
704.696	1431.68
705.14	1653.08
705.584	2130.18
706.027	1051.68
706.471	519.28
706.915	392.58
707.359	346.88
707.803	318.18
708.246	308.88
708.69	311.98
709.134	308.88
709.577	313.68
710.021	316.58
710.465	301.08
710.908	295.78
711.352	302.08
711.795	306.38
712.239	343.98
712.682	380.08
713.126	410.98
713.569	465.08
714.012	371.08
714.456	320.98
714.899	299.38
715.342	274.98
715.786	259.48
716.229	252.98
716.672	259.78
717.115	249.38
717.558	247.98
718.002	248.78
718.445	261.38
718.888	283.18
719.331	297.28
719.774	311.88
720.217	296.48
720.66	282.88
721.103	263.18
721.546	252.88
721.989	255.88
722.432	220.28
722.874	226.78
723.317	228.68
723.76	233.58
724.203	250.88
724.645	309.68
725.088	440.18
725.531	559.68
725.974	638.98
726.416	544.68
726.859	302.38
727.301	247.08
727.744	235.38
728.187	228.68
728.629	237.08
729.071	235.78
729.514	255.08
729.956	273.68
730.399	275.18
730.841	285.28
731.283	274.48
731.726	269.18
732.168	262.68
732.61	268.88
733.053	287.68
733.495	309.78
733.937	352.68
734.379	389.68
734.821	431.98
735.263	540.38
735.705	823.88
736.148	1546.88
736.59	2565.28
737.032	3037.38
737.474	2480.88
737.916	799.88
738.357	419.98
738.799	328.38
739.241	293.78
739.683	278.68
740.125	289.18
740.567	290.18
741.008	309.18
741.45	312.18
741.892	317.58
742.334	339.68
742.775	357.28
743.217	342.18
743.658	264.98
744.1	253.68
744.542	260.98
744.983	315.78
745.425	344.18
745.866	345.68
746.307	282.28
746.749	281.78
747.19	314.68
747.632	451.28
748.073	862.38
748.514	1819.58
748.956	2813.18
749.397	3521.78
749.838	2945.58
750.279	2963.98
750.72	1481.78
751.162	547.58
751.603	314.58
752.044	251.48
752.485	214.18
752.926	210.18
753.367	199.08
753.808	190.48
754.249	184.68
754.69	177.28
755.131	170.28
755.572	175.68
756.013	179.68
756.453	179.08
756.894	195.28
757.335	192.28
757.776	186.48
758.216	193.88
758.657	198.08
759.098	199.38
759.538	216.58
759.979	259.38
760.42	371.08
760.86	680.08
761.301	1776.68
761.741	4312.38
762.182	6372.08
762.622	4475.78
763.063	1297.58
763.503	528.88
763.943	338.68
764.384	336.38
764.824	397.48
765.264	437.08
765.705	305.28
766.145	212.38
766.585	184.48
767.025	181.78
767.465	185.88
767.906	242.48
768.346	312.88
768.786	336.18
769.226	259.08
769.666	323.08
770.106	616.38
770.546	1520.58
770.986	2630.08
771.426	2363.58
771.866	782.08
772.306	327.18
772.745	209.98
773.185	174.58
773.625	165.68
774.065	162.58
774.505	196.28
774.944	295.08
775.384	658.28
775.824	1200.28
776.263	1183.58
776.703	500.48
777.142	219.78
777.582	159.68
778.021	134.78
778.461	132.38
778.9	137.88
779.34	130.68
779.779	116.48
780.219	113.88
780.658	109.48
781.097	107.78
781.537	112.48
781.976	103.18
782.415	101.98
782.855	103.28
783.294	103.28
783.733	103.38
784.172	103.28
784.611	104.08
785.05	101.18
785.489	101.58
785.928	113.18
786.367	113.28
786.806	116.78
787.245	126.98
787.684	136.18
788.123	144.58
788.562	131.48
789.001	125.48
789.44	123.08
789.879	116.18
790.317	114.38
790.756	123.18
791.195	122.38
791.634	144.38
792.072	200.88
792.511	360.08
792.95	981.98
793.388	2115.68
793.827	1919.18
794.265	668.68
794.704	278.28
795.142	174.78
795.581	144.78
796.019	135.18
796.458	128.58
796.896	127.38
797.334	129.88
797.773	156.88
798.211	214.78
798.649	431.48
799.087	995.38
799.526	1582.38
799.964	1978.88
800.402	1994.98
800.84	753.78
801.278	297.48
801.716	181.88
802.154	152.78
802.592	146.68
803.03	136.68
803.468	136.98
803.906	138.88
804.344	149.28
804.782	135.98
805.22	131.58
805.658	120.48
806.096	146.88
806.533	150.58
806.971	167.88
807.409	214.58
807.847	305.68
808.284	649.78
808.722	1817.88
809.16	3228.28
809.597	3051.18
810.035	5311.48
810.472	5729.28
810.91	2058.48
811.347	786.78
811.785	396.48
812.222	253.68
812.66	193.28
813.097	157.18
813.535	139.78
813.972	128.28
814.409	113.68
814.846	109.78
815.284	108.98
815.721	101.28
816.158	102.48
816.595	110.58
817.032	174.38
817.47	193.28
817.907	170.38
818.344	152.48
818.781	113.48
819.218	104.48
819.655	112.88
820.092	178.58
820.529	210.38
820.966	182.48
821.403	127.98
821.839	108.38
822.276	100.38
822.713	118.88
823.15	128.98
823.587	109.58
824.023	148.38
824.46	291.28
824.897	879.88
825.333	1343.08
825.77	571.28
826.206	220.38
826.643	124.38
827.08	94.98
827.516	79.88
827.953	79.08
828.389	80.88
828.825	69.58
829.262	61.68
829.698	63.28
830.135	65.58
830.571	61.28
831.007	64.48
831.443	62.98
831.88	63.98
832.316	62.18
832.752	60.48
833.188	67.78
833.624	61.18
834.06	62.48
834.497	67.28
834.933	70.58
835.369	69.28
835.805	64.68
836.241	75.08
836.677	74.28
837.112	88.08
837.548	106.98
837.984	129.48
838.42	192.18
838.856	476.48
839.292	1465.98
839.727	2268.48
840.163	1056.98
840.599	910.08
841.034	1984.68
841.47	2103.68
841.906	765.08
842.341	334.98
842.777	231.38
843.212	314.78
843.648	306.58
844.083	154.28
844.519	100.48
844.954	69.18
845.39	55.78
845.825	55.48
846.261	52.88
846.696	53.48
847.131	51.08
847.566	62.48
848.002	50.88
848.437	53.48
848.872	57.88
849.307	60.78
849.742	84.08
850.177	176.38
850.613	541.78
851.048	869.88
851.483	374.28
851.918	148.98
852.353	89.18
852.788	62.28
853.223	51.08
853.657	48.88
854.092	43.08
854.527	38.98
854.962	41.98
855.397	42.38
855.832	45.88
856.266	37.58
856.701	36.58
857.136	32.98
857.57	39.48
858.005	48.88
858.44	58.68
858.874	46.98
859.309	54.28
859.743	36.58
860.178	43.48
860.612	38.78
861.047	49.18
861.481	57.48
861.915	70.88
862.35	47.68
862.784	36.18
863.218	35.78
863.653	35.98
864.087	49.58
864.521	52.78
864.955	70.28
865.39	150.98
865.824	168.38
866.258	114.88
866.692	155.58
867.126	176.38
867.56	99.78
867.994	54.28
868.428	36.88
868.862	40.78
869.296	54.58
869.73	56.68
870.164	49.88
870.598	48.98
871.031	33.68
871.465	27.08
871.899	29.58
872.333	19.88
872.766	21.18
873.2	25.08
873.634	29.88
874.067	23.08
874.501	29.48
874.935	33.18
875.368	29.78
875.802	25.38
876.235	23.98
876.669	24.28
877.102	22.18
877.535	28.28
877.969	27.18
878.402	24.68
878.836	16.88
879.269	19.28
879.702	23.08
880.135	18.28
880.569	21.88
881.002	30.38
881.435	20.38
881.868	17.98
882.301	24.28
882.734	12.98
883.167	25.88
883.601	17.18
884.034	19.18
884.467	16.38
884.899	20.58
885.332	20.28
885.765	20.48
886.198	15.88
886.631	18.18
887.064	23.78
887.497	22.38
887.929	25.08
888.362	17.68
888.795	13.48
889.228	24.18
889.66	16.88
890.093	20.78
890.526	12.18
890.958	16.38
891.391	20.38
891.823	25.28
892.256	14.08
892.688	9.08
893.121	16.48
893.553	12.58
893.985	25.58
894.418	20.98
894.85	13.08
895.282	19.98
895.715	13.78
896.147	18.98
896.579	15.28
897.011	16.18
897.444	18.28
897.876	10.48
898.308	15.68
898.74	16.78
899.172	8.98
899.604	22.38
900.036	21.18
900.468	9.98
900.9	17.28
901.332	19.58
901.764	14.58
902.196	14.78
902.628	17.58
903.06	13.18
903.491	26.28
903.923	24.78
904.355	22.98
904.787	27.18
905.218	25.48
905.65	15.48
906.082	9.18
906.513	14.08
906.945	18.78
907.376	8.48
907.808	16.78
908.239	18.08
908.671	22.18
909.102	16.48
909.534	27.88
909.965	44.58
910.397	95.38
910.828	313.08
911.259	458.28
911.691	204.18
912.122	103.38
912.553	54.08
912.984	36.48
913.415	29.78
913.847	23.38
914.278	19.68
914.709	10.08
915.14	20.38
915.571	16.88
916.002	16.48
916.433	19.38
916.864	15.08
917.295	10.58
917.726	15.88
918.157	10.98
918.587	26.88
919.018	21.78
919.449	17.78
919.88	23.28
920.311	29.18
920.741	50.28
921.172	166.28
921.603	148.38
922.033	71.78
922.464	44.98
922.895	20.38
923.325	17.98
923.756	14.28
924.186	14.08
924.617	24.98
925.047	43.68
925.478	52.38
925.908	37.68
926.338	25.28
926.769	22.18
927.199	21.88
927.629	8.18
928.06	18.28
928.49	13.88
928.92	13.18
929.35	6.68
929.78	3.98
930.21	5.28
930.641	11.48
931.071	7.68
931.501	1.48
931.931	9.08
932.361	7.78
932.791	0.28
933.221	3.58
933.651	12.08
934.08	19.98
934.51	33.28
934.94	11.78
935.37	9.48
935.8	13.48
936.229	5.58
936.659	6.78
937.089	4.48
937.519	13.78
937.948	22.78
938.378	15.88
938.807	3.78
939.237	5.48
939.666	6.58
940.096	-5.02
940.525	3.28
940.955	3.88
941.384	2.68
941.814	-6.62
942.243	-0.12
942.672	9.38
943.102	-2.82
943.531	6.78
943.96	1.18
944.39	-0.22
944.819	1.78
945.248	1.58
945.677	6.88
946.106	10.48
946.535	7.38
946.964	0.18
947.393	0.88
947.822	0.48
948.251	-3.42
948.68	0.78
949.109	8.58
949.538	6.18
949.967	-5.42
950.396	1.28
950.825	1.08
951.254	0.68
951.682	-8.92
952.111	1.38
952.54	4.88
952.969	-6.72
953.397	-2.52
953.826	0.98
954.254	-5.02
954.683	3.08
955.112	-6.72
955.54	1.28
955.969	2.88
956.397	1.28
956.826	6.08
957.254	7.98
957.682	4.78
958.111	4.08
958.539	-2.02
958.967	1.98
959.396	-4.22
959.824	1.98
960.252	2.28
960.68	-6.92
961.109	-4.32
961.537	-6.32
961.965	1.48
962.393	-0.12
962.821	-2.82
963.249	4.58
963.677	8.08
964.105	5.18
964.533	38.38
964.961	41.58
965.389	21.08
965.817	4.78
966.245	5.58
966.672	3.98
967.1	-3.62
967.528	1.28
967.956	-1.22
968.383	1.18
968.811	-4.02
969.239	-0.92
969.666	-8.72
970.094	5.28
970.522	-1.32
970.949	-1.02
971.377	-4.82
971.804	0.68
972.232	0.58
972.659	1.08
973.087	-7.72
973.514	-8.92
973.941	2.18
974.369	1.78
974.796	0.98
975.223	-2.92
975.651	-5.12
976.078	1.38
976.505	-0.92
976.932	3.48
977.359	9.68
977.786	13.38
978.214	3.08
978.641	-1.32
979.068	-7.32
979.495	-1.02
979.922	2.78
980.349	-3.42
980.776	-1.42
981.202	-0.12
981.629	9.78
982.056	1.68
982.483	-0.12
982.91	4.68
983.337	-3.52
983.763	10.48
984.19	-3.42
984.617	-5.42
985.043	-5.62
985.47	-4.32
985.897	2.08
986.323	-5.72
986.75	3.48
987.176	-0.82
987.603	-6.02
988.029	-1.62
988.456	-0.82
988.882	3.28
989.308	-5.82
989.735	-2.92
990.161	1.58
990.587	-7.82
991.014	-1.62
991.44	2.58
991.866	-4.12
992.292	-0.82
992.719	-3.12
993.145	4.68
993.571	-9.82
993.997	-5.52
994.423	-0.12
994.849	-6.22
995.275	1.08
995.701	1.28
996.127	-8.82
996.553	-2.72
996.979	-4.02
997.405	-6.62
997.83	-0.92
998.256	-6.32
998.682	-4.52
999.108	-8.72
999.534	-6.52
999.959	1.58
1000.385	-0.12
1000.811	2.08
1001.236	-5.92
1001.662	-10.82
1002.087	-12.42
1002.513	0.98
1002.938	5.68
1003.364	-1.12
1003.789	-1.22
1004.215	6.58
1004.64	1.58
1005.066	-1.02
1005.491	-4.52
1005.916	1.48
1006.342	-5.82
1006.767	-7.82
1007.192	5.38
1007.617	-3.32
1008.042	-6.12
1008.468	-9.32
1008.893	-5.02
1009.318	-6.32
1009.743	-0.62
1010.168	2.08
1010.593	-0.62
1011.018	-7.02
1011.443	-0.62
1011.868	-4.42
1012.293	-6.92
1012.718	-6.52
1013.143	4.38
1013.567	2.88
1013.992	-5.42
1014.417	-10.02
1014.842	2.68
1015.267	-2.42
1015.691	-5.12
1016.116	2.68
1016.541	-4.62
1016.965	6.08
1017.39	5.78
1017.814	-5.12
1018.239	3.58
1018.663	-5.82
1019.088	-10.32
1019.512	-2.02
1019.937	-0.82
1020.361	-9.72
1020.785	-11.42
1021.21	-3.62
1021.634	-4.22
1022.058	2.48
1022.483	3.18
1022.907	-0.72
1023.331	-6.82
1023.755	-3.72
1024.179	-2.42
1024.604	-6.12
1025.028	-8.22
1025.452	-6.72
1025.876	-4.22
1026.3	2.68
1026.724	-9.52
1027.148	-6.92
1027.572	-8.02
1027.996	-6.62
1028.42	-2.32
1028.843	-5.92
1029.267	-5.62
1029.691	-5.72
1030.115	-5.92
1030.539	-5.82
1030.962	-7.12
1031.386	-3.22
1031.81	-7.52
1032.233	1.48
1032.657	-1.82
1033.08	-1.02
1033.504	-3.02
1033.927	-3.72
1034.351	-1.42
1034.774	-3.42
1035.198	-4.82
1035.621	-3.12
1036.045	-2.22
1036.468	-2.62
1036.891	-9.62
1037.315	-6.12
1037.738	-10.22
1038.161	-1.42
1038.584	-5.42
1039.008	-10.42
1039.431	-7.22
1039.854	-7.52
1040.277	-13.92
1040.7	-9.12
1041.123	-2.32
1041.546	-6.72
1041.969	-6.92
1042.392	-6.72
1042.815	-2.22
1043.238	-1.52
1043.661	1.28
1044.084	-5.32
1044.507	-0.72
1044.93	-6.22
1045.352	-3.92
1045.775	-2.62
1046.198	-3.02
1046.621	1.18
1047.043	-3.62
1047.466	8.08
1047.889	-7.92
1048.311	-1.92
1048.734	-2.82
1049.156	-3.12
1049.579	-2.82
1050.001	-4.22
1050.424	-1.62
1050.846	-7.62
1051.269	-4.02
1051.691	-7.22
1052.113	-5.32
1052.536	-9.12
1052.958	-7.62
1053.38	-7.82
1053.802	-13.52
1054.225	-0.52
1054.647	-6.62
1055.069	-5.22
1055.491	-1.62
1055.913	-9.02
1056.335	-1.62
1056.757	-4.02
1057.179	-7.92
1057.601	-0.12
1058.023	-0.52
1058.445	-5.12
1058.867	-2.22
1059.289	-4.32
1059.711	-10.42
1060.133	0.38
1060.555	-7.12
1060.976	-8.32
1061.398	-6.82
1061.82	-2.32
1062.241	-4.62
1062.663	-12.02
1063.085	-2.12
1063.506	-1.52
1063.928	-2.42
1064.35	-5.32
1064.771	-14.22
1065.193	-3.42
1065.614	-6.72
1066.035	-7.82
1066.457	-3.02
1066.878	3.58
1067.3	-5.82
1067.721	-4.12
1068.142	-6.12
1068.564	-4.02
1068.985	-6.42
1069.406	-3.02
1069.827	-3.52
1070.248	0.28
1070.67	-8.32
1071.091	-4.02
1071.512	-3.82
1071.933	-7.02
1072.354	-9.72
1072.775	-9.22
1073.196	-7.12
1073.617	-4.12
1074.038	-5.92
1074.459	-4.62
1074.88	-6.42
1075.3	0.68
1075.721	-5.42
1076.142	1.08
1076.563	-2.32
1076.983	-7.52
1077.404	-9.22
1077.825	-12.12
1078.246	-2.02
1078.666	-9.12
1079.087	-4.92
1079.507	-8.42
1079.928	-0.52
1080.348	-4.02
1080.769	-5.62
1081.189	-2.62
1081.61	-1.42
1082.03	-9.62
1082.451	-7.72
1082.871	-7.42
1083.291	-7.42
1083.711	-10.82
1084.132	-2.42
1084.552	-7.02
1084.972	-0.72
1085.392	-16.92
1085.813	-8.22
1086.233	-7.52
1086.653	-2.62
1087.073	0.98
1087.493	-9.42
1087.913	-8.02
1088.333	-7.22
1088.753	-3.02
1089.173	2.48
1089.593	-4.62
1090.013	2.78
1090.433	-2.32
1090.852	-3.32
1091.272	-8.42
1091.692	-4.32
1092.112	1.48
1092.531	-5.22
1092.951	-12.32
1093.371	-2.52
1093.79	-5.62
1094.21	-4.72
1094.63	-4.82
1095.049	-5.72
1095.469	-5.82
1095.888	-2.72
1096.308	3.38
1096.727	5.48
1097.146	-7.62
1097.566	-1.72
1097.985	-1.62
1098.405	0.88
1098.824	-8.02
1099.243	-4.52
1099.662	-10.92
1100.082	-4.92
1100.501	-4.02
1100.92	-6.22
1101.339	-7.32
1101.758	-8.52
