Data from 20171114-ORNL-Ar_H_NY_Subt18_08-05-56-439.txt Node
Date: Tue Nov 14 08:05:56 EST 2017
User: Ender
Spectrometer: HR+D1039
Trigger mode: 0
Integration Time (sec): 2.730000E-2
Scans to average: 10
Electric dark correction enabled: true
Nonlinearity correction enabled: false
Boxcar width: 0
XAxis mode: Wavelengths
Number of Pixels in Spectrum: 2048
>>>>>Begin Spectral Data<<<<<
187.836	-3.82
188.309	-3.82
188.782	-3.82
189.255	2.98
189.728	-1.52
190.201	2.38
190.674	4.38
191.147	3.28
191.619	-6.82
192.092	-1.92
192.565	2.88
193.038	3.08
193.511	-4.52
193.984	3.98
194.456	-2.62
194.929	-1.72
195.402	-3.42
195.874	3.38
196.347	1.68
196.82	-5.12
197.292	10.18
197.765	1.08
198.237	-0.92
198.71	-0.72
199.182	0.58
199.655	0.58
200.127	1.58
200.6	1.08
201.072	-4.42
201.544	-2.52
202.017	-1.02
202.489	0.58
202.961	-0.12
203.433	-8.22
203.906	-8.32
204.378	-4.22
204.85	-9.12
205.322	-11.32
205.794	0.28
206.266	-10.12
206.739	-7.82
207.211	-5.32
207.683	-7.72
208.155	-5.02
208.627	-5.02
209.099	-1.22
209.57	-5.02
210.042	-3.12
210.514	-4.52
210.986	-0.92
211.458	-10.32
211.93	-0.42
212.402	-2.32
212.873	-4.72
213.345	-7.72
213.817	-8.92
214.288	-4.62
214.76	-12.92
215.232	-7.22
215.703	-7.72
216.175	-1.52
216.646	-3.92
217.118	1.38
217.589	-1.92
218.061	2.18
218.532	-4.02
219.004	-3.02
219.475	-6.52
219.946	-3.12
220.418	-1.62
220.889	9.58
221.36	0.48
221.832	-1.42
222.303	-4.92
222.774	5.48
223.245	-11.12
223.717	-4.12
224.188	-4.22
224.659	-4.62
225.13	-3.32
225.601	0.88
226.072	-1.32
226.543	-2.82
227.014	-7.32
227.485	-2.72
227.956	0.48
228.427	-1.92
228.898	0.68
229.369	8.48
229.839	1.18
230.31	-0.92
230.781	0.58
231.252	-1.92
231.722	-3.62
232.193	-0.32
232.664	-4.62
233.135	2.88
233.605	-0.52
234.076	-2.02
234.546	1.78
235.017	2.28
235.487	0.28
235.958	3.88
236.428	-0.52
236.899	4.08
237.369	3.08
237.84	4.38
238.31	3.38
238.78	-1.12
239.251	0.58
239.721	3.88
240.191	0.78
240.662	-2.32
241.132	0.18
241.602	-0.32
242.072	1.78
242.542	12.48
243.013	1.98
243.483	2.28
243.953	7.58
244.423	-0.92
244.893	-2.62
245.363	1.28
245.833	3.08
246.303	2.88
246.773	9.48
247.243	5.88
247.712	1.68
248.182	8.98
248.652	5.78
249.122	-3.72
249.592	13.48
250.061	24.28
250.531	35.58
251.001	16.48
251.471	18.98
251.94	22.88
252.41	7.88
252.879	0.58
253.349	9.08
253.818	13.48
254.288	6.08
254.757	3.48
255.227	1.48
255.696	4.68
256.166	8.68
256.635	7.98
257.105	8.88
257.574	9.38
258.043	9.98
258.513	7.78
258.982	18.38
259.451	5.38
259.92	10.08
260.389	9.98
260.859	11.38
261.328	13.18
261.797	21.38
262.266	1.18
262.735	10.78
263.204	7.98
263.673	2.88
264.142	4.98
264.611	-0.32
265.08	1.28
265.549	2.18
266.018	5.08
266.487	2.18
266.955	3.08
267.424	3.08
267.893	3.58
268.362	2.28
268.83	8.98
269.299	12.28
269.768	8.48
270.236	10.38
270.705	2.58
271.174	9.08
271.642	12.58
272.111	8.48
272.579	17.18
273.048	25.18
273.516	28.08
273.985	27.38
274.453	23.68
274.922	16.28
275.39	11.48
275.858	1.78
276.327	15.28
276.795	19.98
277.263	16.68
277.731	35.98
278.2	59.48
278.668	55.18
279.136	46.48
279.604	19.58
280.072	19.88
280.54	16.78
281.008	16.38
281.477	13.28
281.945	7.08
282.413	17.58
282.881	13.68
283.348	7.48
283.816	19.78
284.284	14.78
284.752	23.98
285.22	12.78
285.688	16.38
286.156	14.48
286.623	48.28
287.091	54.48
287.559	26.58
288.026	20.28
288.494	15.98
288.962	8.78
289.429	12.98
289.897	22.78
290.364	10.38
290.832	18.88
291.3	18.48
291.767	17.38
292.234	15.48
292.702	11.88
293.169	20.98
293.637	19.78
294.104	27.48
294.571	9.78
295.039	16.18
295.506	14.98
295.973	18.48
296.44	17.48
296.908	23.38
297.375	17.78
297.842	17.58
298.309	25.98
298.776	8.98
299.243	23.98
299.71	15.68
300.177	26.98
300.644	24.68
301.111	21.28
301.578	16.78
302.045	16.38
302.512	25.98
302.979	26.88
303.446	27.98
303.913	18.88
304.379	20.38
304.846	25.68
305.313	26.48
305.78	26.78
306.246	31.38
306.713	26.18
307.18	29.68
307.646	29.28
308.113	29.88
308.579	26.78
309.046	28.68
309.512	26.68
309.979	23.88
310.445	29.28
310.912	33.28
311.378	33.98
311.845	34.38
312.311	31.38
312.777	30.68
313.244	31.88
313.71	39.28
314.176	37.28
314.642	33.58
315.109	36.18
315.575	33.88
316.041	42.78
316.507	33.68
316.973	42.58
317.439	30.68
317.905	33.28
318.371	36.08
318.837	40.78
319.303	33.48
319.769	31.28
320.235	31.88
320.701	34.18
321.167	38.48
321.633	33.98
322.099	36.78
322.564	48.48
323.03	35.78
323.496	42.88
323.962	39.48
324.427	35.38
324.893	44.38
325.359	39.78
325.824	40.78
326.29	36.98
326.755	39.48
327.221	43.38
327.686	42.48
328.152	44.28
328.617	45.88
329.083	51.98
329.548	55.68
330.014	54.28
330.479	38.38
330.944	46.98
331.41	43.58
331.875	46.68
332.34	42.28
332.805	44.38
333.271	51.48
333.736	48.58
334.201	53.88
334.666	56.28
335.131	57.08
335.596	55.18
336.061	53.98
336.526	44.28
336.991	52.08
337.456	58.08
337.921	55.58
338.386	44.88
338.851	47.88
339.316	45.18
339.781	42.98
340.246	51.78
340.711	48.18
341.175	53.18
341.64	40.58
342.105	65.08
342.569	59.98
343.034	60.98
343.499	54.68
343.963	52.48
344.428	63.68
344.893	63.18
345.357	62.08
345.822	59.88
346.286	66.18
346.751	73.68
347.215	72.28
347.679	79.88
348.144	95.38
348.608	88.98
349.073	68.48
349.537	80.58
350.001	78.88
350.465	95.48
350.93	78.68
351.394	84.78
351.858	74.18
352.322	91.68
352.786	80.68
353.25	100.58
353.715	112.98
354.179	98.18
354.643	130.78
355.107	126.88
355.571	105.68
356.035	104.38
356.498	118.68
356.962	121.28
357.426	129.08
357.89	116.58
358.354	93.08
358.818	87.08
359.281	79.08
359.745	74.38
360.209	74.18
360.673	78.48
361.136	76.78
361.6	86.88
362.064	87.08
362.527	85.88
362.991	84.88
363.454	88.08
363.918	77.68
364.381	77.08
364.845	84.28
365.308	85.28
365.772	82.68
366.235	87.08
366.698	87.28
367.162	95.78
367.625	88.98
368.088	94.28
368.552	90.88
369.015	93.68
369.478	100.48
369.941	97.68
370.404	97.68
370.867	103.18
371.331	106.28
371.794	109.38
372.257	111.38
372.72	112.78
373.183	108.58
373.646	111.88
374.109	110.98
374.572	106.68
375.035	109.28
375.497	110.68
375.96	101.08
376.423	106.58
376.886	112.48
377.349	110.78
377.811	102.68
378.274	101.98
378.737	110.08
379.199	106.98
379.662	112.58
380.125	114.78
380.587	122.68
381.05	122.68
381.512	130.78
381.975	133.08
382.437	130.78
382.9	131.88
383.362	135.78
383.825	145.48
384.287	148.08
384.75	144.88
385.212	134.98
385.674	141.78
386.136	130.08
386.599	122.78
387.061	131.68
387.523	125.38
387.985	136.88
388.447	148.68
388.91	143.78
389.372	153.28
389.834	154.18
390.296	152.18
390.758	159.18
391.22	172.28
391.682	212.38
392.144	293.08
392.606	226.58
393.068	172.78
393.529	162.38
393.991	153.98
394.453	151.38
394.915	150.58
395.377	198.78
395.838	213.98
396.3	155.18
396.762	145.88
397.224	131.28
397.685	125.58
398.147	132.88
398.608	136.78
399.07	127.18
399.531	127.88
399.993	139.68
400.454	157.68
400.916	144.28
401.377	144.78
401.839	150.08
402.3	151.88
402.762	162.18
403.223	183.58
403.684	174.88
404.145	166.28
404.607	161.18
405.068	166.68
405.529	172.28
405.99	179.48
406.451	181.98
406.913	170.58
407.374	165.88
407.835	166.68
408.296	169.08
408.757	169.18
409.218	180.98
409.679	182.38
410.14	178.58
410.601	184.58
411.062	182.78
411.522	197.88
411.983	190.08
412.444	170.28
412.905	183.38
413.366	178.38
413.826	197.78
414.287	220.48
414.748	269.98
415.208	239.48
415.669	211.78
416.13	202.98
416.59	205.08
417.051	217.38
417.511	222.08
417.972	235.98
418.432	250.48
418.893	290.08
419.353	245.38
419.814	200.98
420.274	169.68
420.734	184.28
421.195	200.48
421.655	197.78
422.115	196.48
422.576	187.98
423.036	192.88
423.496	208.18
423.956	218.18
424.416	226.18
424.876	268.88
425.336	258.48
425.797	263.68
426.257	251.58
426.717	242.28
427.177	224.08
427.637	220.28
428.097	237.88
428.556	241.08
429.016	271.68
429.476	265.78
429.936	279.28
430.396	276.98
430.856	295.88
431.315	316.18
431.775	353.98
432.235	380.48
432.694	347.98
433.154	361.58
433.614	392.28
434.073	344.88
434.533	280.68
434.993	274.28
435.452	292.18
435.912	300.88
436.371	296.18
436.83	280.38
437.29	278.48
437.749	246.98
438.209	251.48
438.668	274.08
439.127	296.58
439.587	264.88
440.046	255.18
440.505	263.88
440.964	283.08
441.424	324.28
441.883	304.68
442.342	258.58
442.801	224.28
443.26	221.48
443.719	218.98
444.178	217.98
444.637	211.68
445.096	214.78
445.555	228.38
446.014	225.48
446.473	228.88
446.932	232.08
447.391	235.38
447.849	229.38
448.308	223.38
448.767	225.08
449.226	237.28
449.685	233.78
450.143	242.88
450.602	236.08
451.061	227.38
451.519	228.58
451.978	232.08
452.436	238.38
452.895	240.08
453.353	253.38
453.812	242.88
454.27	237.38
454.729	237.38
455.187	236.88
455.646	245.68
456.104	247.78
456.562	259.68
457.021	263.28
457.479	267.08
457.937	284.08
458.395	262.38
458.854	253.78
459.312	251.68
459.77	278.88
460.228	258.28
460.686	240.48
461.144	251.18
461.602	251.58
462.06	248.98
462.518	254.98
462.976	256.68
463.434	258.28
463.892	271.18
464.35	280.58
464.808	289.38
465.266	270.78
465.724	271.38
466.181	279.28
466.639	270.78
467.097	290.38
467.555	300.08
468.012	299.68
468.47	313.68
468.928	324.48
469.385	348.98
469.843	347.48
470.3	356.38
470.758	362.48
471.215	389.48
471.673	414.68
472.13	412.38
472.588	424.18
473.045	367.68
473.503	372.18
473.96	396.18
474.417	408.68
474.875	434.18
475.332	481.18
475.789	458.78
476.246	464.88
476.704	495.38
477.161	513.18
477.618	522.18
478.075	564.08
478.532	632.68
478.989	691.58
479.446	806.08
479.903	782.78
480.36	815.08
480.817	872.78
481.274	980.28
481.731	1079.28
482.188	1173.48
482.645	1308.88
483.102	1424.08
483.558	1559.18
484.015	1616.88
484.472	1590.78
484.929	1536.28
485.385	1487.38
485.842	1447.98
486.299	1374.78
486.755	1308.58
487.212	1101.48
487.668	935.68
488.125	861.98
488.582	784.58
489.038	754.38
489.494	712.38
489.951	693.18
490.407	662.88
490.864	650.68
491.32	644.28
491.776	650.58
492.233	649.08
492.689	612.28
493.145	609.08
493.602	597.38
494.058	620.58
494.514	611.38
494.97	645.38
495.426	639.18
495.882	626.88
496.338	621.18
496.794	631.78
497.251	627.28
497.707	644.18
498.163	639.68
498.618	648.08
499.074	647.48
499.53	678.58
499.986	677.68
500.442	657.88
500.898	634.18
501.354	621.08
501.809	642.38
502.265	648.58
502.721	663.18
503.177	673.18
503.632	667.58
504.088	682.08
504.543	718.28
504.999	713.08
505.455	660.88
505.91	637.38
506.366	630.68
506.821	629.78
507.277	614.68
507.732	626.58
508.187	626.38
508.643	642.98
509.098	639.28
509.553	661.38
510.009	667.98
510.464	665.08
510.919	693.58
511.375	700.78
511.83	706.28
512.285	729.08
512.74	756.88
513.195	792.08
513.65	776.98
514.105	772.18
514.56	769.78
515.015	794.58
515.47	816.98
515.925	790.78
516.38	784.88
516.835	794.18
517.29	784.78
517.745	779.28
518.2	770.48
518.655	746.98
519.109	745.08
519.564	739.78
520.019	727.88
520.474	734.18
520.928	734.18
521.383	728.58
521.838	722.78
522.292	712.48
522.747	702.18
523.201	707.48
523.656	694.88
524.11	693.28
524.565	690.08
525.019	688.88
525.474	703.68
525.928	705.38
526.382	708.38
526.837	707.48
527.291	709.88
527.745	696.58
528.2	699.38
528.654	692.28
529.108	686.88
529.562	688.98
530.016	685.38
530.47	700.58
530.925	687.88
531.379	691.28
531.833	703.68
532.287	696.18
532.741	705.58
533.195	711.98
533.649	711.58
534.103	713.38
534.556	714.58
535.01	713.08
535.464	722.18
535.918	722.58
536.372	719.98
536.826	716.58
537.279	701.18
537.733	711.08
538.187	708.08
538.64	711.58
539.094	725.38
539.548	726.08
540.001	721.98
540.455	720.68
540.908	732.88
541.362	739.08
541.815	745.18
542.269	755.88
542.722	757.98
543.175	766.18
543.629	774.58
544.082	787.08
544.536	784.48
544.989	776.78
545.442	793.08
545.895	791.98
546.349	778.18
546.802	786.58
547.255	790.28
547.708	806.68
548.161	802.88
548.614	824.38
549.067	824.68
549.52	821.88
549.973	808.18
550.426	793.98
550.879	800.18
551.332	800.58
551.785	801.98
552.238	804.28
552.691	812.38
553.144	831.68
553.596	834.68
554.049	863.08
554.502	877.48
554.955	909.78
555.407	907.18
555.86	902.78
556.313	892.38
556.765	892.18
557.218	876.28
557.67	885.18
558.123	871.88
558.576	879.68
559.028	871.18
559.48	885.88
559.933	873.18
560.385	837.88
560.838	812.48
561.29	774.18
561.742	782.58
562.195	772.38
562.647	757.88
563.099	773.68
563.551	773.48
564.004	781.98
564.456	764.68
564.908	758.18
565.36	744.68
565.812	737.78
566.264	725.68
566.716	723.28
567.168	709.18
567.62	726.68
568.072	712.48
568.524	698.38
568.976	677.28
569.428	673.88
569.88	673.08
570.332	677.88
570.784	682.58
571.235	668.58
571.687	676.68
572.139	693.88
572.59	708.48
573.042	710.28
573.494	713.28
573.945	703.68
574.397	677.08
574.849	686.68
575.3	686.28
575.752	681.78
576.203	673.48
576.655	688.98
577.106	672.38
577.557	662.48
578.009	661.88
578.46	665.98
578.912	651.98
579.363	658.48
579.814	664.48
580.265	660.48
580.717	658.68
581.168	667.78
581.619	675.38
582.07	670.88
582.521	679.88
582.972	665.98
583.423	674.48
583.875	672.78
584.326	693.58
584.777	736.58
585.227	807.48
585.678	900.88
586.129	989.88
586.58	1072.38
587.031	1147.98
587.482	1295.68
587.933	1487.08
588.384	1301.38
588.834	966.68
589.285	795.48
589.736	772.78
590.186	773.68
590.637	750.28
591.088	737.08
591.538	729.18
591.989	716.78
592.439	726.98
592.89	714.78
593.34	697.18
593.791	698.18
594.241	700.18
594.692	700.08
595.142	704.78
595.593	695.98
596.043	701.38
596.493	710.68
596.943	707.58
597.394	721.08
597.844	695.38
598.294	714.28
598.744	736.78
599.195	775.98
599.645	808.48
600.095	843.28
600.545	896.08
600.995	956.18
601.445	1012.58
601.895	1070.48
602.345	1126.58
602.795	1093.88
603.245	1054.08
603.695	996.18
604.145	949.08
604.594	908.98
605.044	851.08
605.494	788.48
605.944	734.68
606.393	730.08
606.843	710.68
607.293	717.98
607.743	719.28
608.192	743.58
608.642	744.18
609.091	760.28
609.541	758.28
609.99	765.98
610.44	763.48
610.889	714.18
611.339	696.38
611.788	680.58
612.238	689.88
612.687	707.18
613.136	710.58
613.586	729.88
614.035	732.28
614.484	741.58
614.933	741.88
615.383	741.08
615.832	728.58
616.281	721.48
616.73	684.08
617.179	661.28
617.628	639.08
618.077	629.48
618.526	618.98
618.975	609.38
619.424	605.28
619.873	607.08
620.322	614.48
620.771	592.48
621.22	593.78
621.669	586.08
622.118	587.18
622.567	584.28
623.015	556.68
623.464	560.58
623.913	558.38
624.361	541.68
624.81	535.38
625.259	544.48
625.707	546.58
626.156	543.48
626.604	560.18
627.053	551.08
627.501	552.88
627.95	558.38
628.398	570.08
628.847	560.68
629.295	561.98
629.744	566.98
630.192	560.98
630.64	564.78
631.089	551.28
631.537	565.38
631.985	574.88
632.433	594.88
632.881	598.38
633.33	648.28
633.778	630.18
634.226	562.38
634.674	571.18
635.122	566.98
635.57	588.28
636.018	618.48
636.466	574.98
636.914	549.38
637.362	552.68
637.81	564.68
638.258	566.88
638.705	565.38
639.153	603.48
639.601	613.68
640.049	631.38
640.497	656.48
640.944	677.78
641.392	623.98
641.84	588.68
642.287	579.28
642.735	551.58
643.182	561.58
643.63	567.68
644.078	562.88
644.525	587.48
644.973	578.28
645.42	596.68
645.867	610.68
646.315	625.98
646.762	648.08
647.21	677.38
647.657	704.78
648.104	733.28
648.551	750.28
648.999	819.48
649.446	907.88
649.893	990.78
650.34	1127.28
650.787	1358.28
651.234	1691.48
651.682	2202.68
652.129	3016.58
652.576	4369.78
653.023	6454.98
653.47	8860.28
653.917	11066.88
654.363	12807.48
654.81	14257.38
655.257	13536.28
655.704	8910.08
656.151	5222.28
656.598	3369.28
657.044	2385.28
657.491	1839.18
657.938	1471.88
658.385	1231.08
658.831	1066.18
659.278	946.88
659.724	829.88
660.171	773.88
660.618	709.58
661.064	674.08
661.511	659.08
661.957	643.98
662.404	625.68
662.85	637.08
663.296	613.38
663.743	544.88
664.189	522.88
664.635	524.78
665.082	510.68
665.528	511.18
665.974	505.48
666.42	491.98
666.867	492.18
667.313	479.18
667.759	457.78
668.205	459.58
668.651	472.38
669.097	472.38
669.543	485.18
669.989	463.68
670.435	435.68
670.881	438.08
671.327	439.18
671.773	453.48
672.219	465.18
672.665	528.08
673.11	568.08
673.556	606.38
674.002	643.58
674.448	639.18
674.893	538.18
675.339	458.18
675.785	426.48
676.23	406.18
676.676	383.78
677.122	371.38
677.567	362.28
678.013	354.48
678.458	355.38
678.904	347.98
679.349	332.88
679.794	350.78
680.24	350.08
680.685	350.08
681.131	340.98
681.576	339.08
682.021	351.68
682.466	337.78
682.912	339.98
683.357	341.38
683.802	373.18
684.247	401.28
684.692	445.58
685.137	480.48
685.583	517.78
686.028	550.68
686.473	498.98
686.918	435.58
687.363	398.48
687.807	377.68
688.252	356.18
688.697	348.28
689.142	332.98
689.587	325.58
690.032	310.18
690.477	340.38
690.921	341.68
691.366	372.68
691.811	391.18
692.255	411.18
692.7	450.58
693.145	480.08
693.589	668.38
694.034	1074.08
694.478	1481.08
694.923	1679.28
695.367	2198.38
695.812	1141.98
696.256	485.28
696.701	353.18
697.145	334.48
697.59	320.18
698.034	307.38
698.478	319.78
698.922	322.48
699.367	318.38
699.811	329.68
700.255	349.88
700.699	368.88
701.143	417.88
701.588	459.98
702.032	501.28
702.476	498.48
702.92	477.78
703.364	478.08
703.808	607.78
704.252	978.28
704.696	1390.08
705.14	1607.48
705.584	2071.78
706.027	1028.38
706.471	513.08
706.915	382.98
707.359	336.98
707.803	308.98
708.246	300.08
708.69	297.38
709.134	298.38
709.577	303.48
710.021	304.88
710.465	294.08
710.908	290.88
711.352	293.48
711.795	308.78
712.239	342.18
712.682	370.48
713.126	395.38
713.569	455.88
714.012	357.68
714.456	312.68
714.899	284.48
715.342	269.48
715.786	249.28
716.229	251.68
716.672	249.98
717.115	240.68
717.558	241.68
718.002	246.98
718.445	250.98
718.888	276.98
719.331	288.18
719.774	299.58
720.217	293.08
720.66	280.38
721.103	263.98
721.546	243.28
721.989	242.28
722.432	225.88
722.874	226.48
723.317	217.28
723.76	225.58
724.203	251.48
724.645	299.78
725.088	420.98
725.531	544.78
725.974	615.18
726.416	533.58
726.859	301.18
727.301	240.68
727.744	229.38
728.187	225.28
728.629	232.18
729.071	231.38
729.514	259.98
729.956	261.88
730.399	274.28
730.841	275.28
731.283	249.88
731.726	251.78
732.168	247.48
732.61	253.28
733.053	275.58
733.495	301.28
733.937	340.78
734.379	381.48
734.821	414.78
735.263	513.08
735.705	800.28
736.148	1491.18
736.59	2465.18
737.032	2940.78
737.474	2383.28
737.916	771.48
738.357	410.28
738.799	312.08
739.241	287.48
739.683	272.88
740.125	281.28
740.567	284.18
741.008	304.38
741.45	306.88
741.892	301.88
742.334	328.98
742.775	348.68
743.217	325.78
743.658	262.48
744.1	245.38
744.542	255.08
744.983	300.08
745.425	331.38
745.866	334.78
746.307	279.08
746.749	263.88
747.19	312.28
747.632	425.78
748.073	826.18
748.514	1768.58
748.956	2724.88
749.397	3399.28
749.838	2850.38
750.279	2855.68
750.72	1438.88
751.162	527.88
751.603	305.88
752.044	244.78
752.485	205.08
752.926	204.08
753.367	199.68
753.808	187.78
754.249	174.78
754.69	177.58
755.131	179.78
755.572	172.18
756.013	176.98
756.453	180.28
756.894	178.08
757.335	183.98
757.776	185.88
758.216	192.48
758.657	192.78
759.098	194.28
759.538	216.28
759.979	249.78
760.42	357.18
760.86	663.28
761.301	1708.68
761.741	4161.88
762.182	6213.58
762.622	4364.98
763.063	1253.38
763.503	517.38
763.943	331.08
764.384	333.18
764.824	394.38
765.264	419.78
765.705	301.78
766.145	202.48
766.585	182.08
767.025	177.58
767.465	180.08
767.906	232.68
768.346	305.58
768.786	334.88
769.226	248.18
769.666	300.98
770.106	583.98
770.546	1457.78
770.986	2524.88
771.426	2280.48
771.866	771.48
772.306	319.08
772.745	203.78
773.185	166.98
773.625	167.38
774.065	159.18
774.505	192.88
774.944	296.58
775.384	647.58
775.824	1206.98
776.263	1172.38
776.703	504.68
777.142	218.98
777.582	157.38
778.021	132.98
778.461	139.08
778.9	135.58
779.34	127.78
779.779	113.18
780.219	108.88
780.658	109.88
781.097	110.38
781.537	114.48
781.976	112.28
782.415	102.08
782.855	104.98
783.294	104.08
783.733	105.78
784.172	108.68
784.611	103.98
785.05	104.88
785.489	111.48
785.928	107.18
786.367	119.28
786.806	112.38
787.245	129.48
787.684	131.58
788.123	144.08
788.562	133.98
789.001	124.98
789.44	117.48
789.879	108.18
790.317	117.08
790.756	119.58
791.195	130.48
791.634	143.78
792.072	196.48
792.511	348.98
792.95	943.88
793.388	2047.08
793.827	1879.38
794.265	650.58
794.704	265.78
795.142	174.18
795.581	144.58
796.019	126.18
796.458	120.88
796.896	117.88
797.334	127.88
797.773	153.68
798.211	205.68
798.649	414.38
799.087	963.18
799.526	1518.08
799.964	1921.98
800.402	1945.18
800.84	721.08
801.278	292.38
801.716	182.08
802.154	142.48
802.592	140.78
803.03	131.18
803.468	130.18
803.906	138.58
804.344	146.68
804.782	135.48
805.22	122.98
805.658	127.18
806.096	141.98
806.533	153.28
806.971	167.28
807.409	214.88
807.847	298.08
808.284	618.78
808.722	1778.68
809.16	3151.78
809.597	2954.78
810.035	5143.08
810.472	5574.18
810.91	2001.68
811.347	751.68
811.785	372.88
812.222	241.58
812.66	184.28
813.097	150.18
813.535	138.28
813.972	128.68
814.409	116.88
814.846	105.58
815.284	107.88
815.721	93.78
816.158	98.38
816.595	112.98
817.032	173.18
817.47	183.08
817.907	161.98
818.344	144.38
818.781	108.78
819.218	90.08
819.655	111.48
820.092	183.18
820.529	210.18
820.966	175.78
821.403	136.28
821.839	109.88
822.276	97.18
822.713	115.88
823.15	129.18
823.587	114.18
824.023	139.88
824.46	276.28
824.897	845.38
825.333	1305.68
825.77	564.18
826.206	225.58
826.643	126.08
827.08	95.88
827.516	86.48
827.953	75.68
828.389	79.48
828.825	68.98
829.262	61.08
829.698	62.18
830.135	60.68
830.571	63.48
831.007	54.38
831.443	58.88
831.88	60.58
832.316	60.98
832.752	69.88
833.188	68.78
833.624	60.88
834.06	68.78
834.497	69.18
834.933	67.48
835.369	75.88
835.805	65.68
836.241	72.28
836.677	86.28
837.112	88.88
837.548	99.48
837.984	131.28
838.42	181.98
838.856	463.38
839.292	1432.28
839.727	2218.98
840.163	1020.48
840.599	872.18
841.034	1908.48
841.47	2046.78
841.906	747.28
842.341	318.78
842.777	221.48
843.212	309.78
843.648	306.38
844.083	148.18
844.519	90.58
844.954	71.98
845.39	62.08
845.825	55.68
846.261	57.38
846.696	57.08
847.131	55.98
847.566	56.78
848.002	51.28
848.437	57.98
848.872	63.28
849.307	58.88
849.742	78.28
850.177	169.98
850.613	519.68
851.048	835.28
851.483	363.48
851.918	144.58
852.353	84.38
852.788	58.58
853.223	53.48
853.657	48.18
854.092	48.78
854.527	43.98
854.962	34.98
855.397	42.18
855.832	49.28
856.266	43.28
856.701	42.38
857.136	38.98
857.57	38.98
858.005	53.48
858.44	53.48
858.874	46.98
859.309	52.98
859.743	40.48
860.178	49.58
860.612	37.88
861.047	49.58
861.481	61.08
861.915	70.68
862.35	51.68
862.784	35.68
863.218	40.88
863.653	36.78
864.087	52.18
864.521	49.68
864.955	65.08
865.39	140.68
865.824	170.08
866.258	117.28
866.692	156.58
867.126	167.98
867.56	103.78
867.994	51.28
868.428	33.38
868.862	44.78
869.296	48.38
869.73	52.18
870.164	49.68
870.598	47.28
871.031	40.58
871.465	32.28
871.899	28.38
872.333	22.98
872.766	21.78
873.2	21.78
873.634	33.58
874.067	28.88
874.501	28.18
874.935	28.18
875.368	28.48
875.802	24.68
876.235	26.78
876.669	30.48
877.102	19.48
877.535	33.28
877.969	20.08
878.402	26.78
878.836	18.38
879.269	18.58
879.702	22.48
880.135	23.28
880.569	24.98
881.002	24.98
881.435	23.18
881.868	19.28
882.301	27.08
882.734	16.38
883.167	18.78
883.601	18.88
884.034	15.38
884.467	14.88
884.899	21.28
885.332	20.38
885.765	14.78
886.198	19.28
886.631	19.68
887.064	23.08
887.497	20.38
887.929	28.08
888.362	15.48
888.795	13.28
889.228	18.68
889.66	21.88
890.093	19.98
890.526	17.58
890.958	21.38
891.391	23.38
891.823	25.58
892.256	19.58
892.688	12.58
893.121	16.58
893.553	12.98
893.985	28.08
894.418	18.58
894.85	13.48
895.282	13.08
895.715	11.58
896.147	14.58
896.579	20.98
897.011	14.88
897.444	17.38
897.876	14.68
898.308	17.98
898.74	15.08
899.172	12.68
899.604	19.08
900.036	20.78
900.468	15.78
900.9	13.58
901.332	17.68
901.764	17.08
902.196	19.38
902.628	13.38
903.06	19.38
903.491	27.78
903.923	19.98
904.355	21.28
904.787	20.28
905.218	17.48
905.65	21.68
906.082	7.18
906.513	13.88
906.945	17.88
907.376	19.78
907.808	18.98
908.239	18.68
908.671	16.28
909.102	23.38
909.534	21.28
909.965	44.88
910.397	94.58
910.828	294.78
911.259	460.58
911.691	214.28
912.122	101.38
912.553	49.98
912.984	29.68
913.415	20.18
913.847	26.88
914.278	19.08
914.709	16.68
915.14	20.38
915.571	21.98
916.002	4.58
916.433	20.78
916.864	14.78
917.295	12.28
917.726	19.48
918.157	18.28
918.587	29.08
919.018	23.98
919.449	24.28
919.88	19.18
920.311	28.88
920.741	42.28
921.172	156.28
921.603	149.88
922.033	75.68
922.464	42.68
922.895	18.88
923.325	24.78
923.756	20.18
924.186	20.78
924.617	23.68
925.047	41.48
925.478	55.68
925.908	42.78
926.338	25.88
926.769	19.48
927.199	17.38
927.629	12.28
928.06	15.28
928.49	10.88
928.92	16.18
929.35	14.78
929.78	14.08
930.21	5.98
930.641	7.38
931.071	6.68
931.501	4.48
931.931	9.58
932.361	7.18
932.791	5.68
933.221	7.68
933.651	9.78
934.08	9.78
934.51	31.38
934.94	9.98
935.37	10.78
935.8	9.18
936.229	7.88
936.659	9.68
937.089	2.78
937.519	15.58
937.948	21.38
938.378	15.78
938.807	10.08
939.237	2.88
939.666	11.08
940.096	-10.02
940.525	7.48
940.955	6.48
941.384	7.88
941.814	-6.62
942.243	-2.52
942.672	9.38
943.102	6.18
943.531	3.28
943.96	6.48
944.39	7.48
944.819	-1.52
945.248	3.88
945.677	-4.92
946.106	5.18
946.535	6.38
946.964	1.48
947.393	-0.52
947.822	3.98
948.251	-0.12
948.68	4.78
949.109	6.58
949.538	8.98
949.967	6.38
950.396	-0.72
950.825	-1.92
951.254	2.58
951.682	-1.52
952.111	4.78
952.54	7.68
952.969	-3.92
953.397	-3.92
953.826	3.28
954.254	-6.82
954.683	1.68
955.112	-2.22
955.54	1.18
955.969	6.58
956.397	0.48
956.826	-0.12
957.254	4.98
957.682	0.28
958.111	8.18
958.539	-1.32
958.967	5.98
959.396	6.38
959.824	6.18
960.252	2.88
960.68	0.68
961.109	-3.12
961.537	0.48
961.965	5.58
962.393	4.98
962.821	-9.82
963.249	1.88
963.677	9.28
964.105	6.38
964.533	41.98
964.961	38.58
965.389	17.08
965.817	5.98
966.245	-2.02
966.672	-1.82
967.1	-4.02
967.528	2.98
967.956	0.18
968.383	1.28
968.811	-0.02
969.239	0.28
969.666	0.48
970.094	0.18
970.522	1.88
970.949	0.88
971.377	-3.72
971.804	-3.72
972.232	0.18
972.659	3.58
973.087	-0.42
973.514	-1.92
973.941	-0.72
974.369	5.38
974.796	2.78
975.223	-0.42
975.651	-0.32
976.078	4.88
976.505	1.08
976.932	5.58
977.359	13.48
977.786	15.28
978.214	-0.92
978.641	-3.32
979.068	0.38
979.495	-6.12
979.922	1.88
980.349	-0.52
980.776	6.48
981.202	-1.72
981.629	6.08
982.056	1.98
982.483	0.48
982.91	-0.12
983.337	-2.92
983.763	5.08
984.19	-8.52
984.617	-2.82
985.043	-13.62
985.47	-4.42
985.897	-3.42
986.323	-3.62
986.75	5.28
987.176	-5.02
987.603	1.58
988.029	-3.52
988.456	-0.32
988.882	0.18
989.308	-0.22
989.735	-2.72
990.161	-0.02
990.587	-3.22
991.014	2.28
991.44	8.28
991.866	-8.42
992.292	-3.52
992.719	-4.42
993.145	5.28
993.571	-6.92
993.997	0.08
994.423	-3.12
994.849	1.58
995.275	5.38
995.701	2.58
996.127	-0.42
996.553	6.38
996.979	-1.12
997.405	-3.12
997.83	-1.72
998.256	-4.52
998.682	-7.52
999.108	-4.62
999.534	2.48
999.959	2.58
1000.385	-3.72
1000.811	1.98
1001.236	-10.22
1001.662	-0.82
1002.087	-13.02
1002.513	2.88
1002.938	4.08
1003.364	-1.82
1003.789	-2.82
1004.215	4.58
1004.64	-4.02
1005.066	0.48
1005.491	0.78
1005.916	-3.72
1006.342	0.38
1006.767	-7.72
1007.192	3.88
1007.617	-7.42
1008.042	-10.02
1008.468	-6.02
1008.893	-0.72
1009.318	0.48
1009.743	1.88
1010.168	2.08
1010.593	4.68
1011.018	-6.42
1011.443	-1.72
1011.868	3.88
1012.293	-1.02
1012.718	-8.22
1013.143	-0.72
1013.567	-0.92
1013.992	-3.82
1014.417	-13.72
1014.842	2.18
1015.267	0.18
1015.691	-6.82
1016.116	7.48
1016.541	-1.52
1016.965	2.68
1017.39	0.08
1017.814	-1.92
1018.239	-1.82
1018.663	-3.72
1019.088	-7.22
1019.512	-4.42
1019.937	2.48
1020.361	-4.32
1020.785	-14.92
1021.21	-3.52
1021.634	-4.72
1022.058	4.38
1022.483	2.68
1022.907	-3.22
1023.331	-7.82
1023.755	-8.42
1024.179	-7.62
1024.604	-6.22
1025.028	-5.02
1025.452	-4.32
1025.876	-8.02
1026.3	4.08
1026.724	-13.02
1027.148	-5.82
1027.572	-9.52
1027.996	-4.02
1028.42	-2.22
1028.843	-9.72
1029.267	-3.12
1029.691	-9.62
1030.115	-5.62
1030.539	-6.22
1030.962	-10.42
1031.386	-5.52
1031.81	-4.82
1032.233	-2.42
1032.657	-1.12
1033.08	2.58
1033.504	-2.92
1033.927	-4.52
1034.351	-2.42
1034.774	-5.82
1035.198	-2.22
1035.621	-15.42
1036.045	1.28
1036.468	-2.42
1036.891	-2.32
1037.315	-11.42
1037.738	-1.52
1038.161	6.68
1038.584	-6.92
1039.008	-8.82
1039.431	-1.52
1039.854	1.08
1040.277	-9.82
1040.7	-10.22
1041.123	0.68
1041.546	-2.62
1041.969	-3.42
1042.392	-8.72
1042.815	-5.82
1043.238	-3.32
1043.661	0.28
1044.084	-6.62
1044.507	-7.12
1044.93	-3.72
1045.352	-8.02
1045.775	-0.62
1046.198	-2.32
1046.621	-2.82
1047.043	2.58
1047.466	9.48
1047.889	-2.52
1048.311	-2.12
1048.734	-8.42
1049.156	-5.92
1049.579	-0.32
1050.001	4.28
1050.424	-0.12
1050.846	-7.62
1051.269	-9.12
1051.691	-6.82
1052.113	-1.72
1052.536	-5.02
1052.958	2.68
1053.38	-11.72
1053.802	-8.42
1054.225	0.18
1054.647	-15.82
1055.069	-6.22
1055.491	-3.02
1055.913	-3.82
1056.335	-0.92
1056.757	3.58
1057.179	-6.02
1057.601	-5.12
1058.023	-6.72
1058.445	-3.12
1058.867	-4.22
1059.289	-4.22
1059.711	1.68
1060.133	-6.52
1060.555	1.48
1060.976	-8.52
1061.398	-8.42
1061.82	-6.42
1062.241	-7.72
1062.663	-4.52
1063.085	-4.62
1063.506	-4.42
1063.928	-3.82
1064.35	6.08
1064.771	-10.22
1065.193	-0.32
1065.614	-5.12
1066.035	0.18
1066.457	0.68
1066.878	-1.02
1067.3	-3.72
1067.721	0.68
1068.142	1.98
1068.564	-3.02
1068.985	-2.72
1069.406	-8.22
1069.827	-1.82
1070.248	0.58
1070.67	-10.72
1071.091	-2.22
1071.512	2.28
1071.933	-6.02
1072.354	-6.62
1072.775	-5.22
1073.196	-2.12
1073.617	1.48
1074.038	-10.32
1074.459	-0.02
1074.88	-10.22
1075.3	-0.42
1075.721	-7.92
1076.142	-1.92
1076.563	0.38
1076.983	-10.12
1077.404	-3.62
1077.825	-3.42
1078.246	-9.32
1078.666	-13.52
1079.087	-4.62
1079.507	-2.52
1079.928	-2.82
1080.348	1.68
1080.769	-7.72
1081.189	2.48
1081.61	-4.12
1082.03	-7.92
1082.451	-9.12
1082.871	-4.22
1083.291	-7.32
1083.711	-6.42
1084.132	-4.62
1084.552	-4.52
1084.972	-5.72
1085.392	-15.42
1085.813	-12.22
1086.233	-5.12
1086.653	-2.72
1087.073	-0.22
1087.493	-1.82
1087.913	-5.72
1088.333	-6.52
1088.753	-4.72
1089.173	6.88
1089.593	-3.62
1090.013	0.58
1090.433	0.98
1090.852	-7.62
1091.272	-4.52
1091.692	0.48
1092.112	-8.22
1092.531	-8.52
1092.951	-13.42
1093.371	-5.62
1093.79	-3.02
1094.21	-9.42
1094.63	-3.52
1095.049	-3.62
1095.469	-6.42
1095.888	-4.32
1096.308	3.58
1096.727	1.28
1097.146	-8.02
1097.566	-1.52
1097.985	-6.22
1098.405	-3.52
1098.824	-6.72
1099.243	-10.42
1099.662	-4.32
1100.082	-3.92
1100.501	-0.12
1100.92	-10.02
1101.339	-4.82
1101.758	-11.72
