Data from 20171114-ORNL-Ar_H_NY_Subt18_08-07-32-254.txt Node
Date: Tue Nov 14 08:07:32 EST 2017
User: Ender
Spectrometer: HR+D1039
Trigger mode: 0
Integration Time (sec): 2.730000E-2
Scans to average: 10
Electric dark correction enabled: true
Nonlinearity correction enabled: false
Boxcar width: 0
XAxis mode: Wavelengths
Number of Pixels in Spectrum: 2048
>>>>>Begin Spectral Data<<<<<
187.836	-5.79
188.309	-5.79
188.782	-5.79
189.255	3.81
189.728	-0.29
190.201	2.41
190.674	2.81
191.147	3.11
191.619	-7.79
192.092	2.51
192.565	9.31
193.038	-1.39
193.511	0.21
193.984	6.71
194.456	-1.39
194.929	-3.09
195.402	-5.99
195.874	-5.19
196.347	-3.69
196.82	-4.19
197.292	3.71
197.765	-4.19
198.237	-7.69
198.71	0.21
199.182	-3.59
199.655	-1.69
200.127	2.11
200.6	-0.89
201.072	-1.19
201.544	-3.69
202.017	-0.19
202.489	-2.49
202.961	-4.59
203.433	-1.39
203.906	-8.99
204.378	-0.49
204.85	-10.59
205.322	-9.39
205.794	-3.69
206.266	-9.49
206.739	-9.49
207.211	4.11
207.683	-7.29
208.155	-7.09
208.627	-4.69
209.099	-7.19
209.57	-14.29
210.042	-11.99
210.514	-6.29
210.986	-1.19
211.458	-3.39
211.93	-2.89
212.402	-4.49
212.873	-4.89
213.345	-10.39
213.817	-13.59
214.288	-3.49
214.76	-10.79
215.232	-4.09
215.703	-5.89
216.175	-1.39
216.646	-2.09
217.118	-7.69
217.589	-7.59
218.061	-5.69
218.532	-3.99
219.004	-4.59
219.475	-8.39
219.946	-3.59
220.418	-10.99
220.889	0.61
221.36	-2.59
221.832	-5.09
222.303	-8.99
222.774	1.81
223.245	-6.69
223.717	-7.79
224.188	-6.39
224.659	-8.09
225.13	-7.49
225.601	-4.79
226.072	-2.09
226.543	-6.79
227.014	-6.49
227.485	-6.99
227.956	-10.19
228.427	0.31
228.898	3.11
229.369	3.31
229.839	-5.59
230.31	-9.19
230.781	0.61
231.252	-8.39
231.722	-8.49
232.193	0.61
232.664	-3.39
233.135	3.51
233.605	-3.59
234.076	-1.99
234.546	-2.79
235.017	2.21
235.487	-4.49
235.958	-0.49
236.428	-0.59
236.899	-0.39
237.369	0.81
237.84	-0.09
238.31	1.11
238.78	-1.39
239.251	-1.39
239.721	-5.59
240.191	-3.49
240.662	-2.19
241.132	-2.29
241.602	-1.59
242.072	0.91
242.542	2.51
243.013	0.31
243.483	0.21
243.953	-1.39
244.423	0.81
244.893	-3.39
245.363	5.31
245.833	-0.69
246.303	-4.19
246.773	8.01
247.243	0.01
247.712	1.51
248.182	-0.89
248.652	6.41
249.122	0.11
249.592	4.81
250.061	15.31
250.531	32.51
251.001	14.81
251.471	18.11
251.94	15.01
252.41	4.51
252.879	-0.79
253.349	11.71
253.818	4.51
254.288	2.11
254.757	-0.59
255.227	-2.69
255.696	7.81
256.166	-0.19
256.635	0.61
257.105	4.21
257.574	6.81
258.043	2.41
258.513	6.61
258.982	9.41
259.451	3.71
259.92	9.51
260.389	7.91
260.859	9.51
261.328	8.71
261.797	11.01
262.266	1.51
262.735	7.61
263.204	1.31
263.673	-1.59
264.142	-2.29
264.611	-9.69
265.08	0.41
265.549	-2.19
266.018	-1.29
266.487	-1.39
266.955	-5.39
267.424	-0.29
267.893	2.01
268.362	-5.19
268.83	1.91
269.299	6.81
269.768	3.61
270.236	-4.99
270.705	3.21
271.174	1.71
271.642	4.51
272.111	1.61
272.579	15.91
273.048	17.81
273.516	19.51
273.985	21.61
274.453	14.51
274.922	12.41
275.39	9.61
275.858	-0.69
276.327	7.31
276.795	14.21
277.263	7.01
277.731	19.61
278.2	41.91
278.668	44.21
279.136	39.91
279.604	11.91
280.072	13.21
280.54	13.31
281.008	5.71
281.477	8.81
281.945	5.31
282.413	5.81
282.881	4.11
283.348	5.51
283.816	13.71
284.284	12.71
284.752	12.11
285.22	3.71
285.688	12.81
286.156	12.41
286.623	32.01
287.091	40.01
287.559	20.11
288.026	10.81
288.494	12.11
288.962	0.71
289.429	3.01
289.897	12.91
290.364	8.31
290.832	14.81
291.3	11.71
291.767	12.91
292.234	12.11
292.702	8.91
293.169	7.41
293.637	17.41
294.104	13.11
294.571	5.91
295.039	9.41
295.506	4.81
295.973	14.41
296.44	4.91
296.908	13.01
297.375	8.81
297.842	10.61
298.309	14.71
298.776	5.11
299.243	10.91
299.71	7.51
300.177	16.61
300.644	20.81
301.111	18.61
301.578	16.21
302.045	10.41
302.512	20.11
302.979	17.91
303.446	14.61
303.913	12.41
304.379	16.11
304.846	18.41
305.313	17.11
305.78	16.61
306.246	24.91
306.713	23.01
307.18	18.31
307.646	20.61
308.113	16.81
308.579	12.31
309.046	21.01
309.512	21.71
309.979	12.11
310.445	24.11
310.912	25.51
311.378	24.51
311.845	22.01
312.311	19.11
312.777	20.81
313.244	20.31
313.71	30.81
314.176	25.31
314.642	23.01
315.109	17.81
315.575	31.21
316.041	31.81
316.507	25.01
316.973	27.01
317.439	26.01
317.905	27.51
318.371	26.41
318.837	31.51
319.303	27.31
319.769	23.91
320.235	22.51
320.701	31.01
321.167	28.31
321.633	23.21
322.099	35.01
322.564	37.91
323.03	27.21
323.496	29.51
323.962	27.21
324.427	21.71
324.893	35.71
325.359	33.81
325.824	33.81
326.29	29.61
326.755	33.51
327.221	30.11
327.686	26.21
328.152	38.81
328.617	35.71
329.083	34.71
329.548	40.51
330.014	36.31
330.479	29.81
330.944	37.41
331.41	35.61
331.875	41.11
332.34	41.91
332.805	33.71
333.271	38.21
333.736	45.21
334.201	41.01
334.666	44.71
335.131	41.41
335.596	44.01
336.061	40.81
336.526	29.41
336.991	41.01
337.456	51.71
337.921	36.61
338.386	33.81
338.851	40.01
339.316	37.51
339.781	33.61
340.246	42.11
340.711	41.41
341.175	40.21
341.64	38.61
342.105	46.11
342.569	46.31
343.034	50.61
343.499	50.41
343.963	41.51
344.428	50.51
344.893	49.81
345.357	51.31
345.822	44.61
346.286	57.41
346.751	65.51
347.215	55.51
347.679	54.31
348.144	79.31
348.608	70.21
349.073	58.91
349.537	61.31
350.001	68.91
350.465	72.81
350.93	62.51
351.394	69.11
351.858	54.81
352.322	74.31
352.786	74.41
353.25	88.61
353.715	92.51
354.179	82.61
354.643	96.51
355.107	100.21
355.571	89.51
356.035	85.01
356.498	98.41
356.962	97.21
357.426	105.11
357.89	95.11
358.354	76.51
358.818	70.51
359.281	65.01
359.745	56.91
360.209	62.71
360.673	62.61
361.136	71.71
361.6	72.61
362.064	71.31
362.527	79.51
362.991	73.11
363.454	73.81
363.918	68.21
364.381	61.31
364.845	70.81
365.308	76.51
365.772	77.21
366.235	74.11
366.698	75.11
367.162	69.81
367.625	68.51
368.088	74.81
368.552	75.61
369.015	73.31
369.478	77.41
369.941	84.51
370.404	82.21
370.867	95.21
371.331	87.81
371.794	95.21
372.257	102.11
372.72	108.91
373.183	97.41
373.646	86.61
374.109	91.51
374.572	90.21
375.035	97.61
375.497	93.91
375.96	95.91
376.423	93.91
376.886	98.01
377.349	95.31
377.811	91.81
378.274	91.51
378.737	94.41
379.199	101.61
379.662	100.41
380.125	108.51
380.587	110.61
381.05	107.11
381.512	110.21
381.975	121.11
382.437	106.51
382.9	115.21
383.362	118.81
383.825	122.51
384.287	128.01
384.75	121.21
385.212	122.91
385.674	121.51
386.136	116.41
386.599	115.51
387.061	114.51
387.523	119.31
387.985	120.81
388.447	137.61
388.91	134.81
389.372	145.61
389.834	135.81
390.296	136.31
390.758	141.81
391.22	150.81
391.682	196.21
392.144	267.91
392.606	215.81
393.068	154.41
393.529	158.41
393.991	140.41
394.453	132.61
394.915	142.31
395.377	169.11
395.838	194.81
396.3	141.71
396.762	132.01
397.224	120.21
397.685	112.61
398.147	118.81
398.608	114.21
399.07	117.81
399.531	120.91
399.993	123.61
400.454	135.81
400.916	132.41
401.377	130.41
401.839	128.31
402.3	138.41
402.762	153.91
403.223	170.41
403.684	156.91
404.145	142.31
404.607	147.61
405.068	150.41
405.529	159.91
405.99	170.31
406.451	160.31
406.913	167.31
407.374	150.21
407.835	151.41
408.296	157.71
408.757	169.21
409.218	171.81
409.679	164.61
410.14	169.01
410.601	162.01
411.062	169.11
411.522	178.61
411.983	173.11
412.444	164.51
412.905	172.41
413.366	169.51
413.826	181.11
414.287	203.01
414.748	238.71
415.208	227.51
415.669	198.51
416.13	193.91
416.59	193.91
417.051	204.01
417.511	202.01
417.972	219.01
418.432	235.21
418.893	272.11
419.353	234.61
419.814	193.51
420.274	170.21
420.734	166.51
421.195	184.51
421.655	186.21
422.115	182.91
422.576	183.41
423.036	189.31
423.496	194.51
423.956	201.01
424.416	218.61
424.876	253.31
425.336	240.41
425.797	239.41
426.257	242.51
426.717	223.21
427.177	215.91
427.637	210.81
428.097	220.41
428.556	229.51
429.016	256.51
429.476	247.61
429.936	252.31
430.396	264.71
430.856	274.01
431.315	297.11
431.775	326.61
432.235	361.31
432.694	330.41
433.154	340.31
433.614	367.11
434.073	315.11
434.533	268.81
434.993	257.51
435.452	261.51
435.912	271.71
436.371	267.01
436.83	265.81
437.29	258.21
437.749	236.71
438.209	238.01
438.668	255.81
439.127	268.11
439.587	242.61
440.046	236.21
440.505	245.41
440.964	260.01
441.424	299.81
441.883	291.71
442.342	243.81
442.801	212.31
443.26	213.41
443.719	211.41
444.178	207.91
444.637	199.11
445.096	209.51
445.555	214.51
446.014	207.01
446.473	218.21
446.932	228.91
447.391	220.21
447.849	215.11
448.308	209.11
448.767	216.41
449.226	223.11
449.685	231.51
450.143	241.01
450.602	226.21
451.061	218.21
451.519	223.71
451.978	224.41
452.436	222.81
452.895	228.21
453.353	241.41
453.812	231.91
454.27	228.21
454.729	228.01
455.187	227.81
455.646	236.01
456.104	235.11
456.562	247.61
457.021	252.41
457.479	253.61
457.937	263.41
458.395	251.11
458.854	235.61
459.312	235.51
459.77	265.81
460.228	251.51
460.686	234.31
461.144	244.51
461.602	232.31
462.06	236.01
462.518	237.71
462.976	247.41
463.434	254.01
463.892	252.61
464.35	268.21
464.808	277.61
465.266	260.21
465.724	257.81
466.181	265.01
466.639	259.71
467.097	274.31
467.555	284.81
468.012	294.01
468.47	303.01
468.928	314.31
469.385	327.71
469.843	325.91
470.3	334.41
470.758	345.01
471.215	371.81
471.673	390.21
472.13	383.11
472.588	409.71
473.045	367.01
473.503	365.31
473.96	381.11
474.417	388.61
474.875	420.71
475.332	455.81
475.789	452.51
476.246	449.31
476.704	474.01
477.161	494.71
477.618	504.01
478.075	545.01
478.532	596.31
478.989	664.01
479.446	773.91
479.903	741.51
480.36	789.01
480.817	835.61
481.274	933.61
481.731	1047.31
482.188	1117.01
482.645	1244.21
483.102	1349.21
483.558	1480.71
484.015	1542.61
484.472	1510.71
484.929	1466.01
485.385	1419.21
485.842	1382.71
486.299	1312.71
486.755	1244.31
487.212	1058.31
487.668	897.81
488.125	816.91
488.582	753.51
489.038	723.51
489.494	683.21
489.951	662.21
490.407	654.01
490.864	623.41
491.32	614.61
491.776	624.61
492.233	622.21
492.689	596.01
493.145	585.31
493.602	575.01
494.058	594.51
494.514	595.41
494.97	607.91
495.426	627.11
495.882	608.61
496.338	586.21
496.794	613.41
497.251	603.71
497.707	617.41
498.163	616.31
498.618	617.41
499.074	636.21
499.53	648.51
499.986	658.11
500.442	629.31
500.898	614.11
501.354	603.11
501.809	614.91
502.265	623.21
502.721	643.81
503.177	652.11
503.632	646.81
504.088	660.51
504.543	686.71
504.999	683.01
505.455	631.31
505.91	612.41
506.366	615.41
506.821	613.61
507.277	606.11
507.732	603.61
508.187	611.21
508.643	613.21
509.098	619.81
509.553	640.41
510.009	649.81
510.464	657.91
510.919	671.81
511.375	674.81
511.83	687.11
512.285	706.31
512.74	734.11
513.195	767.01
513.65	754.91
514.105	750.71
514.56	750.31
515.015	778.21
515.47	782.01
515.925	761.71
516.38	769.51
516.835	773.61
517.29	768.51
517.745	757.81
518.2	739.71
518.655	730.21
519.109	720.61
519.564	715.71
520.019	701.21
520.474	707.51
520.928	702.41
521.383	694.61
521.838	695.21
522.292	695.51
522.747	696.71
523.201	693.71
523.656	685.21
524.11	677.51
524.565	685.01
525.019	673.41
525.474	680.51
525.928	682.91
526.382	686.71
526.837	677.41
527.291	680.41
527.745	690.81
528.2	679.61
528.654	667.61
529.108	675.41
529.562	680.41
530.016	678.01
530.47	675.01
530.925	678.01
531.379	686.71
531.833	685.11
532.287	694.11
532.741	679.31
533.195	685.31
533.649	693.41
534.103	699.01
534.556	701.71
535.01	701.01
535.464	691.21
535.918	700.61
536.372	700.21
536.826	713.51
537.279	694.41
537.733	699.31
538.187	689.11
538.64	697.91
539.094	722.61
539.548	718.31
540.001	706.01
540.455	704.51
540.908	719.81
541.362	731.91
541.815	732.31
542.269	744.01
542.722	740.11
543.175	751.01
543.629	754.71
544.082	776.61
544.536	771.91
544.989	766.61
545.442	778.21
545.895	778.51
546.349	779.11
546.802	773.11
547.255	777.21
547.708	794.61
548.161	797.31
548.614	816.71
549.067	810.11
549.52	812.91
549.973	792.51
550.426	789.91
550.879	782.71
551.332	795.91
551.785	790.81
552.238	794.71
552.691	802.61
553.144	815.61
553.596	829.51
554.049	849.71
554.502	874.11
554.955	892.31
555.407	900.31
555.86	893.91
556.313	877.21
556.765	859.21
557.218	871.71
557.67	856.31
558.123	860.61
558.576	863.11
559.028	866.61
559.48	871.11
559.933	863.41
560.385	826.61
560.838	781.31
561.29	768.81
561.742	776.51
562.195	762.11
562.647	749.71
563.099	761.11
563.551	761.21
564.004	776.41
564.456	760.31
564.908	751.51
565.36	725.21
565.812	714.41
566.264	720.11
566.716	724.51
567.168	710.71
567.62	713.51
568.072	685.81
568.524	689.21
568.976	681.61
569.428	675.51
569.88	669.61
570.332	672.91
570.784	671.21
571.235	676.11
571.687	689.91
572.139	694.01
572.59	695.51
573.042	704.91
573.494	699.91
573.945	693.51
574.397	664.01
574.849	689.51
575.3	672.71
575.752	682.81
576.203	665.81
576.655	671.81
577.106	660.81
577.557	656.81
578.009	664.31
578.46	649.71
578.912	655.11
579.363	651.51
579.814	661.91
580.265	654.11
580.717	650.51
581.168	661.81
581.619	664.81
582.07	668.71
582.521	658.31
582.972	656.81
583.423	675.81
583.875	670.91
584.326	694.91
584.777	742.11
585.227	811.91
585.678	898.01
586.129	970.71
586.58	1049.81
587.031	1127.41
587.482	1272.81
587.933	1443.91
588.384	1256.61
588.834	948.61
589.285	800.41
589.736	774.41
590.186	770.21
590.637	763.21
591.088	745.31
591.538	721.11
591.989	729.51
592.439	718.61
592.89	708.41
593.34	699.51
593.791	708.21
594.241	696.61
594.692	697.71
595.142	694.71
595.593	686.61
596.043	695.81
596.493	702.81
596.943	708.71
597.394	718.31
597.844	705.41
598.294	724.71
598.744	743.31
599.195	764.01
599.645	803.51
600.095	857.61
600.545	911.31
600.995	956.71
601.445	1014.61
601.895	1073.61
602.345	1125.11
602.795	1093.91
603.245	1052.61
603.695	991.91
604.145	953.91
604.594	893.41
605.044	847.61
605.494	789.81
605.944	738.61
606.393	739.61
606.843	723.91
607.293	719.51
607.743	720.11
608.192	735.11
608.642	755.11
609.091	755.41
609.541	757.51
609.99	767.81
610.44	757.91
610.889	707.91
611.339	695.51
611.788	677.01
612.238	691.71
612.687	702.71
613.136	708.71
613.586	733.81
614.035	725.11
614.484	749.81
614.933	749.61
615.383	734.21
615.832	732.61
616.281	720.11
616.73	685.41
617.179	647.61
617.628	652.01
618.077	624.71
618.526	624.01
618.975	613.31
619.424	612.31
619.873	607.11
620.322	622.81
620.771	608.31
621.22	599.81
621.669	589.41
622.118	581.21
622.567	589.41
623.015	566.71
623.464	569.91
623.913	558.71
624.361	549.41
624.81	540.71
625.259	544.61
625.707	555.61
626.156	556.21
626.604	557.91
627.053	559.81
627.501	555.71
627.95	565.71
628.398	583.01
628.847	556.01
629.295	572.41
629.744	566.71
630.192	569.41
630.64	564.71
631.089	563.71
631.537	570.51
631.985	590.41
632.433	595.91
632.881	607.71
633.33	657.51
633.778	637.71
634.226	560.61
634.674	566.71
635.122	567.41
635.57	595.41
636.018	614.41
636.466	584.11
636.914	551.61
637.362	564.71
637.81	569.41
638.258	569.91
638.705	576.31
639.153	605.71
639.601	606.81
640.049	638.51
640.497	667.31
640.944	685.61
641.392	626.31
641.84	603.71
642.287	575.61
642.735	560.61
643.182	564.11
643.63	567.81
644.078	567.81
644.525	584.91
644.973	591.11
645.42	598.91
645.867	619.21
646.315	633.31
646.762	663.01
647.21	687.51
647.657	713.41
648.104	746.21
648.551	775.91
648.999	840.11
649.446	921.71
649.893	992.41
650.34	1160.81
650.787	1392.61
651.234	1730.91
651.682	2245.61
652.129	3116.91
652.576	4474.51
653.023	6595.41
653.47	9007.21
653.917	11179.41
654.363	12891.81
654.81	14145.51
655.257	13473.01
655.704	8800.71
656.151	5233.11
656.598	3373.41
657.044	2381.31
657.491	1842.71
657.938	1464.31
658.385	1243.91
658.831	1061.71
659.278	955.41
659.724	841.51
660.171	775.51
660.618	719.01
661.064	685.61
661.511	669.11
661.957	643.81
662.404	630.61
662.85	652.11
663.296	618.51
663.743	558.41
664.189	539.91
664.635	530.81
665.082	534.11
665.528	524.61
665.974	521.21
666.42	512.01
666.867	501.41
667.313	488.61
667.759	474.81
668.205	473.21
668.651	485.31
669.097	480.81
669.543	494.31
669.989	460.51
670.435	441.71
670.881	434.21
671.327	452.01
671.773	459.31
672.219	489.31
672.665	542.71
673.11	577.81
673.556	632.91
674.002	659.51
674.448	648.01
674.893	543.01
675.339	471.81
675.785	435.11
676.23	414.61
676.676	387.91
677.122	375.71
677.567	370.01
678.013	370.31
678.458	357.41
678.904	360.71
679.349	348.11
679.794	350.61
680.24	349.61
680.685	349.51
681.131	354.31
681.576	345.21
682.021	357.21
682.466	342.01
682.912	338.91
683.357	350.61
683.802	380.51
684.247	410.61
684.692	448.31
685.137	489.61
685.583	524.31
686.028	558.11
686.473	519.01
686.918	444.91
687.363	421.61
687.807	389.21
688.252	368.81
688.697	352.31
689.142	331.31
689.587	327.11
690.032	327.01
690.477	337.61
690.921	345.91
691.366	383.11
691.811	403.91
692.255	422.41
692.7	454.91
693.145	503.71
693.589	706.81
694.034	1128.01
694.478	1532.91
694.923	1710.61
695.367	2228.71
695.812	1179.11
696.256	492.61
696.701	370.51
697.145	344.41
697.59	325.51
698.034	320.41
698.478	326.01
698.922	317.21
699.367	326.71
699.811	343.41
700.255	352.91
700.699	384.61
701.143	425.31
701.588	472.71
702.032	516.41
702.476	515.41
702.92	484.11
703.364	487.81
703.808	648.71
704.252	1037.21
704.696	1453.81
705.14	1671.51
705.584	2106.11
706.027	1053.91
706.471	516.71
706.915	386.21
707.359	348.71
707.803	318.51
708.246	301.51
708.69	301.11
709.134	308.31
709.577	310.31
710.021	307.01
710.465	306.21
710.908	300.51
711.352	294.61
711.795	315.31
712.239	347.51
712.682	383.01
713.126	413.11
713.569	458.61
714.012	373.51
714.456	325.81
714.899	297.51
715.342	271.51
715.786	266.71
716.229	259.41
716.672	251.21
717.115	242.21
717.558	249.71
718.002	243.21
718.445	258.51
718.888	283.01
719.331	296.51
719.774	292.91
720.217	298.71
720.66	283.41
721.103	268.61
721.546	255.51
721.989	252.71
722.432	230.61
722.874	238.51
723.317	225.81
723.76	226.71
724.203	256.01
724.645	317.71
725.088	445.41
725.531	574.21
725.974	639.01
726.416	542.61
726.859	300.01
727.301	252.81
727.744	241.21
728.187	234.41
728.629	237.61
729.071	241.91
729.514	262.51
729.956	266.71
730.399	281.41
730.841	287.51
731.283	270.31
731.726	261.41
732.168	258.01
732.61	267.61
733.053	283.91
733.495	317.71
733.937	352.11
734.379	385.61
734.821	439.41
735.263	549.71
735.705	847.51
736.148	1602.71
736.59	2592.91
737.032	3005.51
737.474	2452.01
737.916	791.01
738.357	421.21
738.799	319.71
739.241	298.81
739.683	279.11
740.125	287.21
740.567	289.61
741.008	313.21
741.45	310.41
741.892	315.81
742.334	339.01
742.775	350.21
743.217	337.71
743.658	272.01
744.1	252.81
744.542	262.41
744.983	310.41
745.425	342.91
745.866	335.11
746.307	282.21
746.749	280.91
747.19	318.61
747.632	467.71
748.073	897.01
748.514	1876.21
748.956	2837.61
749.397	3583.71
749.838	2944.31
750.279	2921.91
750.72	1473.21
751.162	544.81
751.603	317.21
752.044	249.41
752.485	219.11
752.926	213.11
753.367	198.71
753.808	198.81
754.249	190.91
754.69	189.81
755.131	180.61
755.572	180.31
756.013	182.11
756.453	188.31
756.894	190.01
757.335	187.71
757.776	194.61
758.216	192.21
758.657	198.21
759.098	200.51
759.538	228.81
759.979	271.01
760.42	381.11
760.86	718.31
761.301	1868.01
761.741	4464.31
762.182	6336.71
762.622	4435.01
763.063	1293.21
763.503	528.61
763.943	343.01
764.384	339.11
764.824	394.51
765.264	417.21
765.705	293.01
766.145	208.51
766.585	185.91
767.025	179.71
767.465	184.91
767.906	237.51
768.346	305.81
768.786	328.51
769.226	256.31
769.666	318.51
770.106	638.61
770.546	1573.71
770.986	2619.51
771.426	2329.71
771.866	790.61
772.306	328.91
772.745	211.71
773.185	174.61
773.625	169.61
774.065	169.91
774.505	190.91
774.944	307.81
775.384	677.41
775.824	1174.11
776.263	1126.01
776.703	488.71
777.142	213.41
777.582	151.11
778.021	138.51
778.461	134.01
778.9	144.11
779.34	129.11
779.779	114.31
780.219	113.91
780.658	110.21
781.097	108.91
781.537	114.41
781.976	106.11
782.415	104.11
782.855	98.51
783.294	107.41
783.733	108.51
784.172	110.21
784.611	98.71
785.05	110.51
785.489	105.91
785.928	112.31
786.367	117.11
786.806	113.91
787.245	129.51
787.684	136.61
788.123	145.31
788.562	134.71
789.001	121.21
789.44	116.11
789.879	110.01
790.317	112.01
790.756	124.71
791.195	125.11
791.634	147.71
792.072	202.11
792.511	371.11
792.95	1021.91
793.388	2112.01
793.827	1911.31
794.265	672.61
794.704	282.61
795.142	183.11
795.581	149.01
796.019	138.31
796.458	124.81
796.896	122.11
797.334	130.41
797.773	153.11
798.211	215.91
798.649	451.31
799.087	1028.81
799.526	1585.11
799.964	1992.11
800.402	1982.81
800.84	748.91
801.278	297.21
801.716	189.21
802.154	150.21
802.592	145.41
803.03	139.91
803.468	144.41
803.906	144.51
804.344	149.31
804.782	140.11
805.22	127.91
805.658	128.41
806.096	145.11
806.533	152.01
806.971	172.21
807.409	224.71
807.847	324.21
808.284	678.61
808.722	1877.71
809.16	3261.91
809.597	3169.61
810.035	5400.81
810.472	5689.11
810.91	2054.81
811.347	788.51
811.785	402.91
812.222	259.31
812.66	199.21
813.097	165.81
813.535	144.91
813.972	123.41
814.409	124.91
814.846	102.91
815.284	103.11
815.721	90.21
816.158	106.81
816.595	117.71
817.032	171.91
817.47	190.21
817.907	154.21
818.344	142.71
818.781	118.11
819.218	97.91
819.655	126.11
820.092	186.21
820.529	215.51
820.966	176.31
821.403	131.21
821.839	105.01
822.276	100.21
822.713	116.61
823.15	129.51
823.587	116.91
824.023	152.71
824.46	301.41
824.897	901.81
825.333	1339.51
825.77	570.81
826.206	228.71
826.643	133.41
827.08	93.71
827.516	81.31
827.953	78.61
828.389	84.91
828.825	72.01
829.262	64.91
829.698	64.41
830.135	65.61
830.571	57.51
831.007	60.11
831.443	57.31
831.88	57.11
832.316	60.21
832.752	57.11
833.188	63.41
833.624	64.41
834.06	70.81
834.497	67.81
834.933	69.51
835.369	71.61
835.805	70.31
836.241	76.11
836.677	82.91
837.112	85.81
837.548	105.21
837.984	130.01
838.42	199.31
838.856	503.71
839.292	1527.11
839.727	2261.41
840.163	1066.11
840.599	939.81
841.034	2027.01
841.47	2088.51
841.906	767.91
842.341	331.31
842.777	229.31
843.212	303.71
843.648	300.41
844.083	149.91
844.519	94.31
844.954	73.01
845.39	59.01
845.825	67.31
846.261	55.41
846.696	55.71
847.131	55.91
847.566	61.81
848.002	51.51
848.437	54.91
848.872	61.81
849.307	57.61
849.742	86.71
850.177	181.71
850.613	558.01
851.048	867.41
851.483	367.61
851.918	149.01
852.353	80.61
852.788	54.31
853.223	56.01
853.657	54.11
854.092	48.81
854.527	43.01
854.962	36.81
855.397	48.91
855.832	46.51
856.266	44.41
856.701	38.81
857.136	37.71
857.57	41.41
858.005	44.81
858.44	48.81
858.874	46.61
859.309	50.71
859.743	42.71
860.178	50.01
860.612	40.11
861.047	50.11
861.481	63.61
861.915	71.11
862.35	54.41
862.784	30.41
863.218	40.01
863.653	27.91
864.087	40.11
864.521	48.61
864.955	66.31
865.39	158.01
865.824	167.61
866.258	116.21
866.692	163.81
867.126	172.21
867.56	100.31
867.994	50.31
868.428	38.41
868.862	49.91
869.296	49.91
869.73	53.41
870.164	49.11
870.598	47.11
871.031	35.51
871.465	32.11
871.899	29.71
872.333	23.51
872.766	27.21
873.2	23.81
873.634	31.41
874.067	20.61
874.501	19.01
874.935	30.81
875.368	28.61
875.802	23.11
876.235	20.61
876.669	21.81
877.102	25.01
877.535	22.51
877.969	18.41
878.402	17.71
878.836	13.11
879.269	24.61
879.702	24.71
880.135	19.11
880.569	27.11
881.002	27.51
881.435	20.61
881.868	14.31
882.301	21.41
882.734	21.41
883.167	23.21
883.601	25.51
884.034	24.21
884.467	13.81
884.899	19.81
885.332	11.61
885.765	14.31
886.198	13.11
886.631	10.11
887.064	13.31
887.497	21.61
887.929	26.21
888.362	16.31
888.795	11.01
889.228	17.81
889.66	14.41
890.093	15.91
890.526	21.61
890.958	15.01
891.391	17.11
891.823	18.91
892.256	18.11
892.688	13.01
893.121	16.31
893.553	17.31
893.985	19.21
894.418	21.81
894.85	8.01
895.282	14.21
895.715	20.01
896.147	16.61
896.579	8.31
897.011	11.81
897.444	18.71
897.876	15.81
898.308	17.31
898.74	18.41
899.172	8.21
899.604	21.81
900.036	16.91
900.468	8.61
900.9	13.01
901.332	17.51
901.764	13.41
902.196	14.91
902.628	17.21
903.06	14.71
903.491	28.91
903.923	20.51
904.355	20.81
904.787	26.71
905.218	21.41
905.65	16.81
906.082	11.41
906.513	15.71
906.945	14.81
907.376	13.31
907.808	18.31
908.239	16.61
908.671	22.01
909.102	22.91
909.534	26.51
909.965	51.71
910.397	95.31
910.828	310.91
911.259	458.51
911.691	220.01
912.122	104.61
912.553	51.61
912.984	32.11
913.415	30.81
913.847	24.01
914.278	17.41
914.709	15.81
915.14	18.41
915.571	18.41
916.002	9.51
916.433	22.21
916.864	15.91
917.295	10.61
917.726	24.31
918.157	14.71
918.587	26.31
919.018	17.11
919.449	25.81
919.88	24.61
920.311	33.01
920.741	52.81
921.172	162.91
921.603	146.91
922.033	68.31
922.464	50.51
922.895	21.91
923.325	24.91
923.756	20.71
924.186	20.71
924.617	24.61
925.047	40.51
925.478	51.81
925.908	36.81
926.338	25.51
926.769	15.41
927.199	18.91
927.629	11.91
928.06	19.01
928.49	16.31
928.92	10.81
929.35	13.11
929.78	4.11
930.21	8.21
930.641	5.11
931.071	7.31
931.501	3.41
931.931	6.91
932.361	7.51
932.791	2.01
933.221	-0.49
933.651	5.21
934.08	15.91
934.51	25.41
934.94	11.41
935.37	7.11
935.8	8.31
936.229	5.71
936.659	6.91
937.089	2.11
937.519	14.81
937.948	25.71
938.378	17.01
938.807	4.51
939.237	-0.89
939.666	1.31
940.096	-3.59
940.525	3.31
940.955	0.41
941.384	0.41
941.814	-8.99
942.243	2.11
942.672	0.71
943.102	-5.79
943.531	-2.69
943.96	7.11
944.39	4.41
944.819	6.01
945.248	1.31
945.677	3.81
946.106	5.91
946.535	9.91
946.964	-0.69
947.393	2.51
947.822	6.31
948.251	1.71
948.68	6.51
949.109	7.31
949.538	5.81
949.967	0.21
950.396	5.21
950.825	3.01
951.254	0.01
951.682	-6.29
952.111	8.01
952.54	1.81
952.969	-1.89
953.397	-6.79
953.826	-1.89
954.254	-4.79
954.683	-0.29
955.112	-0.39
955.54	5.01
955.969	2.41
956.397	3.71
956.826	-6.09
957.254	-5.89
957.682	1.71
958.111	6.51
958.539	0.11
958.967	2.91
959.396	3.01
959.824	-0.49
960.252	-0.09
960.68	-0.79
961.109	-2.89
961.537	-6.49
961.965	1.11
962.393	0.91
962.821	-2.89
963.249	-3.09
963.677	2.41
964.105	6.11
964.533	44.31
964.961	41.01
965.389	23.61
965.817	7.91
966.245	4.61
966.672	-1.59
967.1	-6.89
967.528	1.11
967.956	-0.09
968.383	1.91
968.811	-3.99
969.239	0.91
969.666	-7.79
970.094	-4.39
970.522	-1.99
970.949	1.51
971.377	-4.79
971.804	-2.29
972.232	3.61
972.659	-6.19
973.087	-3.19
973.514	-2.59
973.941	-7.19
974.369	6.41
974.796	-0.99
975.223	-2.39
975.651	1.91
976.078	-0.99
976.505	-2.99
976.932	3.31
977.359	10.81
977.786	9.91
978.214	-1.59
978.641	-1.89
979.068	-0.49
979.495	-13.49
979.922	-0.59
980.349	-2.19
980.776	0.31
981.202	-8.19
981.629	7.21
982.056	5.81
982.483	-6.89
982.91	4.11
983.337	-4.79
983.763	-2.49
984.19	-3.09
984.617	-2.09
985.043	-3.79
985.47	-4.69
985.897	-8.29
986.323	-5.79
986.75	-1.19
987.176	1.51
987.603	-2.49
988.029	0.11
988.456	-2.19
988.882	4.41
989.308	-9.09
989.735	-2.69
990.161	1.01
990.587	-5.19
991.014	-4.59
991.44	8.71
991.866	2.61
992.292	-7.19
992.719	-5.19
993.145	-0.09
993.571	-7.59
993.997	-4.59
994.423	-0.09
994.849	-1.79
995.275	-3.09
995.701	4.91
996.127	-3.89
996.553	-4.29
996.979	-0.99
997.405	0.81
997.83	-8.19
998.256	-7.69
998.682	-4.89
999.108	-8.69
999.534	-1.99
999.959	-0.99
1000.385	2.91
1000.811	0.31
1001.236	-6.09
1001.662	-9.09
1002.087	-8.89
1002.513	-2.89
1002.938	0.11
1003.364	-6.59
1003.789	-2.69
1004.215	-1.39
1004.64	-2.99
1005.066	0.41
1005.491	-6.49
1005.916	-2.69
1006.342	-4.99
1006.767	-4.59
1007.192	1.41
1007.617	-2.49
1008.042	-6.19
1008.468	-9.09
1008.893	-5.99
1009.318	-2.59
1009.743	-3.29
1010.168	-4.09
1010.593	0.01
1011.018	-9.89
1011.443	-3.99
1011.868	1.71
1012.293	-6.49
1012.718	-8.19
1013.143	-4.29
1013.567	-0.79
1013.992	-3.39
1014.417	-10.19
1014.842	-0.89
1015.267	-2.59
1015.691	-2.59
1016.116	4.21
1016.541	-1.09
1016.965	-0.19
1017.39	4.91
1017.814	3.51
1018.239	-1.19
1018.663	-4.59
1019.088	-5.99
1019.512	-4.39
1019.937	-2.99
1020.361	0.81
1020.785	-10.79
1021.21	-2.19
1021.634	1.01
1022.058	-2.89
1022.483	2.11
1022.907	-1.39
1023.331	-5.99
1023.755	-0.89
1024.179	-2.79
1024.604	-4.89
1025.028	-5.89
1025.452	-5.99
1025.876	-7.39
1026.3	4.21
1026.724	-12.19
1027.148	-8.49
1027.572	-7.19
1027.996	-9.09
1028.42	-3.49
1028.843	-7.59
1029.267	-6.59
1029.691	-2.79
1030.115	-8.19
1030.539	-7.49
1030.962	-2.59
1031.386	-9.69
1031.81	2.41
1032.233	-3.19
1032.657	-4.69
1033.08	-1.99
1033.504	-2.79
1033.927	-4.79
1034.351	3.81
1034.774	-5.79
1035.198	-2.09
1035.621	-5.59
1036.045	-7.99
1036.468	4.11
1036.891	-10.29
1037.315	-12.99
1037.738	-7.49
1038.161	-1.99
1038.584	-8.99
1039.008	-5.79
1039.431	-4.09
1039.854	-4.79
1040.277	-5.19
1040.7	-9.99
1041.123	-4.79
1041.546	-6.09
1041.969	-5.59
1042.392	-3.49
1042.815	0.71
1043.238	0.01
1043.661	-1.49
1044.084	-9.09
1044.507	-8.89
1044.93	-5.79
1045.352	-9.79
1045.775	-2.39
1046.198	0.51
1046.621	0.71
1047.043	-3.99
1047.466	7.21
1047.889	-4.49
1048.311	-10.39
1048.734	-10.09
1049.156	-6.49
1049.579	-3.59
1050.001	-8.09
1050.424	0.31
1050.846	-3.49
1051.269	-4.39
1051.691	-7.99
1052.113	-7.69
1052.536	-4.69
1052.958	-3.29
1053.38	-4.29
1053.802	-14.19
1054.225	1.91
1054.647	-8.39
1055.069	-6.69
1055.491	2.21
1055.913	-10.99
1056.335	-0.89
1056.757	-2.89
1057.179	0.61
1057.601	-9.89
1058.023	-0.69
1058.445	-4.59
1058.867	-3.69
1059.289	-1.29
1059.711	-8.49
1060.133	-2.59
1060.555	-2.79
1060.976	-9.19
1061.398	-10.19
1061.82	-10.49
1062.241	-1.99
1062.663	-6.79
1063.085	-5.49
1063.506	5.01
1063.928	-3.09
1064.35	-1.99
1064.771	-12.09
1065.193	-9.09
1065.614	-14.39
1066.035	0.41
1066.457	-3.69
1066.878	2.11
1067.3	-6.49
1067.721	-5.29
1068.142	-1.99
1068.564	-11.09
1068.985	-1.79
1069.406	-4.39
1069.827	-2.79
1070.248	-10.19
1070.67	-4.59
1071.091	-7.79
1071.512	-0.89
1071.933	0.11
1072.354	-10.49
1072.775	-4.69
1073.196	-4.19
1073.617	-3.59
1074.038	-9.29
1074.459	-7.89
1074.88	-2.19
1075.3	-2.99
1075.721	-4.79
1076.142	-4.79
1076.563	-3.09
1076.983	-8.49
1077.404	-5.79
1077.825	-7.69
1078.246	-3.59
1078.666	-4.39
1079.087	-3.19
1079.507	-8.39
1079.928	-6.19
1080.348	-2.89
1080.769	-6.69
1081.189	-0.19
1081.61	-5.39
1082.03	-10.29
1082.451	-4.99
1082.871	-5.89
1083.291	-9.49
1083.711	-15.59
1084.132	-6.09
1084.552	-9.69
1084.972	2.71
1085.392	-9.89
1085.813	-1.89
1086.233	-9.39
1086.653	-6.79
1087.073	-2.69
1087.493	-11.99
1087.913	-6.69
1088.333	-5.99
1088.753	-3.59
1089.173	-0.29
1089.593	-6.99
1090.013	1.41
1090.433	3.61
1090.852	-4.29
1091.272	-1.29
1091.692	-1.49
1092.112	0.01
1092.531	-5.89
1092.951	-15.69
1093.371	-3.59
1093.79	-0.29
1094.21	0.11
1094.63	-10.79
1095.049	-13.69
1095.469	-1.69
1095.888	-1.99
1096.308	2.81
1096.727	-0.79
1097.146	-5.39
1097.566	-0.89
1097.985	-6.69
1098.405	-5.59
1098.824	-9.39
1099.243	-5.19
1099.662	-12.69
1100.082	-4.29
1100.501	-0.99
1100.92	-9.29
1101.339	-2.29
1101.758	-6.49
