Data from 20171114-ORNL-Ar_H_NY_Subt18_08-04-32-909.txt Node
Date: Tue Nov 14 08:04:32 EST 2017
User: Ender
Spectrometer: HR+D1039
Trigger mode: 0
Integration Time (sec): 2.730000E-2
Scans to average: 10
Electric dark correction enabled: true
Nonlinearity correction enabled: false
Boxcar width: 0
XAxis mode: Wavelengths
Number of Pixels in Spectrum: 2048
>>>>>Begin Spectral Data<<<<<
187.836	-2.62
188.309	-2.62
188.782	-2.62
189.255	0.88
189.728	-0.22
190.201	5.18
190.674	1.98
191.147	4.68
191.619	-9.62
192.092	3.08
192.565	0.78
193.038	3.68
193.511	-1.92
193.984	-2.42
194.456	-3.32
194.929	-1.32
195.402	-3.02
195.874	4.18
196.347	-3.52
196.82	-6.22
197.292	4.08
197.765	-2.72
198.237	-2.32
198.71	3.08
199.182	2.08
199.655	4.68
200.127	4.58
200.6	0.28
201.072	-0.02
201.544	0.18
202.017	-7.12
202.489	6.68
202.961	-3.62
203.433	-8.32
203.906	-4.32
204.378	-2.02
204.85	-4.62
205.322	-4.52
205.794	-1.12
206.266	-4.02
206.739	-9.32
207.211	0.18
207.683	-7.52
208.155	-4.42
208.627	-2.22
209.099	-5.92
209.57	-8.02
210.042	-5.32
210.514	-2.82
210.986	0.28
211.458	-5.42
211.93	-2.02
212.402	0.38
212.873	-3.72
213.345	-11.22
213.817	-12.42
214.288	-0.92
214.76	-10.82
215.232	1.18
215.703	-0.92
216.175	-0.82
216.646	-5.22
217.118	-9.32
217.589	0.38
218.061	-2.42
218.532	-5.52
219.004	1.78
219.475	-3.02
219.946	-6.72
220.418	-4.82
220.889	1.88
221.36	3.58
221.832	-3.22
222.303	-1.32
222.774	-1.32
223.245	-7.22
223.717	-0.52
224.188	0.28
224.659	-2.02
225.13	-11.02
225.601	1.78
226.072	2.48
226.543	-1.32
227.014	-1.12
227.485	-1.32
227.956	-9.02
228.427	-3.42
228.898	7.48
229.369	2.98
229.839	-0.22
230.31	0.18
230.781	4.18
231.252	-3.22
231.722	-2.92
232.193	1.08
232.664	-0.12
233.135	5.08
233.605	1.68
234.076	-1.22
234.546	-0.32
235.017	0.88
235.487	5.28
235.958	-1.82
236.428	-3.82
236.899	2.58
237.369	6.48
237.84	-5.02
238.31	7.78
238.78	2.48
239.251	-4.02
239.721	2.98
240.191	4.78
240.662	5.28
241.132	4.98
241.602	-5.52
242.072	0.18
242.542	4.98
243.013	-0.02
243.483	7.28
243.953	-1.62
244.423	0.08
244.893	5.38
245.363	1.48
245.833	3.68
246.303	7.08
246.773	9.08
247.243	4.18
247.712	1.78
248.182	7.28
248.652	10.88
249.122	0.98
249.592	14.18
250.061	20.68
250.531	32.98
251.001	18.68
251.471	24.58
251.94	19.38
252.41	9.98
252.879	1.38
253.349	20.18
253.818	12.08
254.288	9.58
254.757	5.28
255.227	9.98
255.696	5.98
256.166	8.48
256.635	8.08
257.105	13.38
257.574	14.48
258.043	15.88
258.513	10.08
258.982	14.48
259.451	13.58
259.92	9.88
260.389	9.68
260.859	20.68
261.328	11.98
261.797	22.68
262.266	13.18
262.735	11.68
263.204	7.98
263.673	1.08
264.142	9.08
264.611	1.08
265.08	2.68
265.549	3.18
266.018	11.08
266.487	-3.12
266.955	-1.42
267.424	5.18
267.893	7.68
268.362	5.48
268.83	5.48
269.299	12.18
269.768	13.98
270.236	10.38
270.705	8.98
271.174	4.68
271.642	14.38
272.111	10.28
272.579	21.68
273.048	25.78
273.516	28.78
273.985	30.68
274.453	27.68
274.922	23.28
275.39	15.38
275.858	9.38
276.327	15.98
276.795	21.28
277.263	20.08
277.731	28.08
278.2	58.08
278.668	60.78
279.136	51.78
279.604	23.88
280.072	20.18
280.54	14.28
281.008	15.78
281.477	21.68
281.945	17.78
282.413	21.58
282.881	19.48
283.348	9.68
283.816	16.98
284.284	12.48
284.752	27.88
285.22	18.88
285.688	19.38
286.156	18.78
286.623	48.08
287.091	53.68
287.559	27.68
288.026	16.18
288.494	23.48
288.962	8.78
289.429	9.88
289.897	16.98
290.364	14.48
290.832	15.48
291.3	16.28
291.767	23.98
292.234	20.88
292.702	17.18
293.169	21.98
293.637	25.18
294.104	23.88
294.571	13.18
295.039	17.98
295.506	20.28
295.973	18.18
296.44	16.48
296.908	23.98
297.375	22.88
297.842	21.58
298.309	18.68
298.776	20.18
299.243	22.18
299.71	15.88
300.177	21.28
300.644	30.38
301.111	23.88
301.578	25.48
302.045	17.78
302.512	23.78
302.979	29.58
303.446	24.38
303.913	14.78
304.379	17.68
304.846	27.78
305.313	24.88
305.78	30.88
306.246	29.58
306.713	29.68
307.18	24.98
307.646	35.18
308.113	37.78
308.579	26.28
309.046	29.28
309.512	31.48
309.979	22.78
310.445	30.18
310.912	33.58
311.378	32.68
311.845	31.08
312.311	32.68
312.777	33.08
313.244	35.58
313.71	41.18
314.176	34.78
314.642	38.88
315.109	36.68
315.575	38.18
316.041	46.88
316.507	30.88
316.973	37.68
317.439	39.98
317.905	38.08
318.371	35.48
318.837	38.48
319.303	33.18
319.769	36.88
320.235	32.78
320.701	37.48
321.167	44.98
321.633	37.78
322.099	43.38
322.564	52.48
323.03	43.68
323.496	41.78
323.962	41.58
324.427	37.38
324.893	48.28
325.359	37.48
325.824	39.68
326.29	46.18
326.755	46.58
327.221	39.18
327.686	41.58
328.152	48.58
328.617	45.78
329.083	50.38
329.548	46.48
330.014	44.48
330.479	46.08
330.944	46.38
331.41	42.38
331.875	49.58
332.34	47.18
332.805	49.48
333.271	46.28
333.736	46.58
334.201	51.78
334.666	52.88
335.131	58.88
335.596	57.08
336.061	53.08
336.526	50.28
336.991	51.98
337.456	56.18
337.921	54.58
338.386	40.18
338.851	46.18
339.316	49.88
339.781	49.48
340.246	49.68
340.711	48.28
341.175	51.98
341.64	46.38
342.105	58.38
342.569	54.28
343.034	61.78
343.499	56.48
343.963	50.68
344.428	66.28
344.893	59.58
345.357	50.48
345.822	56.88
346.286	67.98
346.751	70.68
347.215	69.48
347.679	71.78
348.144	90.88
348.608	79.48
349.073	65.38
349.537	74.18
350.001	77.88
350.465	91.38
350.93	80.18
351.394	82.28
351.858	73.28
352.322	85.98
352.786	82.88
353.25	96.98
353.715	107.18
354.179	90.08
354.643	116.58
355.107	124.28
355.571	103.78
356.035	102.48
356.498	118.38
356.962	115.98
357.426	123.58
357.89	111.88
358.354	89.38
358.818	86.18
359.281	75.38
359.745	77.78
360.209	77.68
360.673	74.98
361.136	81.48
361.6	80.28
362.064	76.18
362.527	87.18
362.991	94.48
363.454	76.08
363.918	78.48
364.381	73.58
364.845	79.08
365.308	84.78
365.772	85.58
366.235	85.48
366.698	82.88
367.162	84.98
367.625	90.58
368.088	87.08
368.552	87.88
369.015	87.18
369.478	89.98
369.941	95.38
370.404	90.48
370.867	100.58
371.331	98.78
371.794	112.78
372.257	106.88
372.72	114.48
373.183	103.78
373.646	99.38
374.109	96.28
374.572	107.18
375.035	101.18
375.497	101.48
375.96	98.98
376.423	102.78
376.886	105.08
377.349	106.68
377.811	100.48
378.274	102.08
378.737	102.08
379.199	104.78
379.662	105.38
380.125	111.18
380.587	112.88
381.05	122.88
381.512	120.88
381.975	127.28
382.437	126.38
382.9	128.78
383.362	124.18
383.825	132.68
384.287	140.78
384.75	131.38
385.212	141.88
385.674	136.48
386.136	132.28
386.599	118.08
387.061	121.48
387.523	122.08
387.985	131.18
388.447	140.28
388.91	136.08
389.372	146.38
389.834	141.28
390.296	134.48
390.758	146.88
391.22	160.98
391.682	199.48
392.144	275.18
392.606	219.28
393.068	154.98
393.529	160.38
393.991	152.58
394.453	139.08
394.915	147.88
395.377	174.18
395.838	199.38
396.3	151.78
396.762	135.88
397.224	123.78
397.685	127.48
398.147	124.88
398.608	125.58
399.07	123.08
399.531	128.48
399.993	133.98
400.454	150.88
400.916	132.48
401.377	138.58
401.839	141.68
402.3	136.28
402.762	157.98
403.223	177.38
403.684	153.48
404.145	152.78
404.607	152.38
405.068	157.58
405.529	163.98
405.99	181.38
406.451	170.98
406.913	165.78
407.374	157.58
407.835	148.58
408.296	160.48
408.757	160.08
409.218	166.98
409.679	172.58
410.14	167.08
410.601	167.08
411.062	179.88
411.522	188.78
411.983	180.28
412.444	165.58
412.905	167.98
413.366	171.58
413.826	180.48
414.287	204.08
414.748	246.08
415.208	230.68
415.669	202.58
416.13	192.98
416.59	192.18
417.051	204.48
417.511	212.68
417.972	223.18
418.432	240.68
418.893	278.28
419.353	236.88
419.814	184.28
420.274	173.08
420.734	167.98
421.195	186.38
421.655	181.78
422.115	177.48
422.576	181.78
423.036	177.68
423.496	195.58
423.956	202.68
424.416	215.18
424.876	253.18
425.336	247.18
425.797	242.28
426.257	246.88
426.717	221.78
427.177	220.58
427.637	211.98
428.097	225.98
428.556	231.18
429.016	251.28
429.476	239.58
429.936	258.78
430.396	261.28
430.856	265.08
431.315	297.98
431.775	333.68
432.235	357.78
432.694	327.78
433.154	336.38
433.614	352.98
434.073	313.18
434.533	270.38
434.993	255.98
435.452	263.68
435.912	275.18
436.371	272.88
436.83	265.08
437.29	247.68
437.749	234.88
438.209	227.08
438.668	263.58
439.127	264.88
439.587	249.28
440.046	230.58
440.505	244.68
440.964	255.98
441.424	289.98
441.883	281.88
442.342	239.88
442.801	209.78
443.26	207.58
443.719	206.38
444.178	199.38
444.637	200.58
445.096	208.48
445.555	208.08
446.014	208.18
446.473	210.78
446.932	217.58
447.391	215.88
447.849	210.48
448.308	209.18
448.767	204.38
449.226	219.88
449.685	221.68
450.143	231.98
450.602	218.98
451.061	211.08
451.519	224.68
451.978	218.18
452.436	217.88
452.895	228.58
453.353	240.08
453.812	226.88
454.27	227.18
454.729	224.28
455.187	223.98
455.646	228.68
456.104	226.88
456.562	240.18
457.021	247.38
457.479	246.48
457.937	251.48
458.395	244.18
458.854	226.18
459.312	241.68
459.77	249.38
460.228	238.38
460.686	233.98
461.144	234.78
461.602	225.98
462.06	225.68
462.518	235.78
462.976	236.18
463.434	246.58
463.892	247.48
464.35	266.68
464.808	271.08
465.266	249.78
465.724	256.08
466.181	258.58
466.639	257.08
467.097	272.98
467.555	282.38
468.012	285.18
468.47	281.78
468.928	310.28
469.385	318.68
469.843	321.38
470.3	328.28
470.758	335.38
471.215	360.78
471.673	381.18
472.13	374.88
472.588	379.28
473.045	344.08
473.503	347.88
473.96	364.88
474.417	378.68
474.875	403.08
475.332	438.08
475.789	433.58
476.246	444.48
476.704	449.68
477.161	478.78
477.618	487.88
478.075	526.28
478.532	572.28
478.989	632.58
479.446	745.78
479.903	711.98
480.36	744.88
480.817	801.28
481.274	917.88
481.731	1022.48
482.188	1099.08
482.645	1229.48
483.102	1340.28
483.558	1452.68
484.015	1509.88
484.472	1479.28
484.929	1433.48
485.385	1390.28
485.842	1363.78
486.299	1292.28
486.755	1214.28
487.212	1023.68
487.668	864.08
488.125	798.08
488.582	738.38
489.038	706.48
489.494	665.68
489.951	648.28
490.407	627.88
490.864	614.28
491.32	601.68
491.776	593.78
492.233	609.68
492.689	562.28
493.145	566.48
493.602	555.88
494.058	568.58
494.514	572.78
494.97	599.98
495.426	608.28
495.882	580.68
496.338	573.28
496.794	590.28
497.251	574.38
497.707	595.18
498.163	590.08
498.618	603.58
499.074	605.98
499.53	634.68
499.986	632.58
500.442	598.98
500.898	590.38
501.354	584.78
501.809	595.88
502.265	607.98
502.721	621.28
503.177	623.38
503.632	616.38
504.088	626.98
504.543	663.58
504.999	649.28
505.455	621.58
505.91	596.98
506.366	600.88
506.821	591.58
507.277	574.28
507.732	591.18
508.187	578.28
508.643	592.58
509.098	589.48
509.553	608.08
510.009	615.38
510.464	630.98
510.919	641.68
511.375	647.98
511.83	663.58
512.285	677.28
512.74	714.68
513.195	737.38
513.65	718.88
514.105	723.68
514.56	729.88
515.015	741.48
515.47	753.58
515.925	743.48
516.38	744.58
516.835	742.48
517.29	735.98
517.745	719.88
518.2	712.18
518.655	704.08
519.109	702.68
519.564	688.08
520.019	686.58
520.474	680.08
520.928	678.78
521.383	671.98
521.838	665.68
522.292	665.98
522.747	659.08
523.201	658.48
523.656	646.88
524.11	647.38
524.565	651.88
525.019	641.08
525.474	644.08
525.928	652.48
526.382	645.88
526.837	651.88
527.291	656.28
527.745	649.88
528.2	655.28
528.654	641.58
529.108	628.98
529.562	634.98
530.016	644.78
530.47	643.68
530.925	641.88
531.379	648.08
531.833	642.58
532.287	661.08
532.741	646.98
533.195	655.08
533.649	671.18
534.103	662.78
534.556	661.38
535.01	665.58
535.464	664.48
535.918	666.18
536.372	675.28
536.826	665.28
537.279	657.58
537.733	662.28
538.187	656.88
538.64	654.68
539.094	668.98
539.548	660.78
540.001	673.18
540.455	662.18
540.908	677.88
541.362	690.18
541.815	688.38
542.269	707.88
542.722	690.58
543.175	708.58
543.629	715.58
544.082	736.98
544.536	725.38
544.989	725.78
545.442	727.18
545.895	735.68
546.349	729.68
546.802	725.58
547.255	739.28
547.708	735.48
548.161	748.58
548.614	757.18
549.067	760.88
549.52	751.98
549.973	753.58
550.426	736.18
550.879	729.68
551.332	735.78
551.785	729.58
552.238	737.38
552.691	748.98
553.144	760.98
553.596	781.78
554.049	802.88
554.502	814.18
554.955	836.98
555.407	837.58
555.86	828.78
556.313	814.88
556.765	809.88
557.218	804.78
557.67	811.78
558.123	797.98
558.576	809.28
559.028	801.08
559.48	812.98
559.933	792.48
560.385	766.38
560.838	740.28
561.29	713.88
561.742	707.38
562.195	685.48
562.647	693.18
563.099	704.18
563.551	693.98
564.004	716.88
564.456	699.98
564.908	691.88
565.36	686.38
565.812	670.08
566.264	650.68
566.716	661.08
567.168	644.48
567.62	651.28
568.072	632.88
568.524	634.78
568.976	626.18
569.428	611.08
569.88	609.18
570.332	613.58
570.784	616.48
571.235	605.98
571.687	631.28
572.139	637.38
572.59	644.38
573.042	638.78
573.494	649.38
573.945	634.58
574.397	625.38
574.849	635.88
575.3	624.28
575.752	620.18
576.203	622.98
576.655	618.88
577.106	607.98
577.557	598.68
578.009	599.38
578.46	594.88
578.912	598.38
579.363	594.08
579.814	606.88
580.265	593.48
580.717	603.18
581.168	596.38
581.619	614.88
582.07	608.88
582.521	599.58
582.972	608.38
583.423	608.38
583.875	621.08
584.326	628.58
584.777	666.48
585.227	733.68
585.678	816.18
586.129	894.68
586.58	973.88
587.031	1044.18
587.482	1197.88
587.933	1358.38
588.384	1182.58
588.834	882.28
589.285	721.38
589.736	701.28
590.186	694.48
590.637	681.98
591.088	663.28
591.538	661.08
591.989	654.18
592.439	653.18
592.89	643.18
593.34	636.78
593.791	637.08
594.241	628.68
594.692	629.08
595.142	630.78
595.593	624.88
596.043	628.28
596.493	627.88
596.943	639.38
597.394	640.98
597.844	628.38
598.294	653.48
598.744	657.28
599.195	683.68
599.645	719.28
600.095	752.88
600.545	811.88
600.995	847.08
601.445	906.78
601.895	963.68
602.345	998.08
602.795	997.08
603.245	957.28
603.695	902.08
604.145	848.78
604.594	805.18
605.044	766.28
605.494	703.28
605.944	664.78
606.393	663.48
606.843	632.98
607.293	649.28
607.743	631.08
608.192	655.58
608.642	674.38
609.091	682.88
609.541	677.18
609.99	680.88
610.44	671.28
610.889	635.48
611.339	616.28
611.788	607.38
612.238	600.38
612.687	633.78
613.136	633.58
613.586	649.68
614.035	650.68
614.484	664.78
614.933	666.48
615.383	657.68
615.832	649.88
616.281	635.58
616.73	598.78
617.179	589.78
617.628	565.18
618.077	552.58
618.526	548.08
618.975	543.08
619.424	542.18
619.873	537.88
620.322	543.68
620.771	525.98
621.22	534.98
621.669	519.38
622.118	506.38
622.567	502.18
623.015	505.28
623.464	489.38
623.913	496.18
624.361	485.38
624.81	487.98
625.259	483.08
625.707	487.08
626.156	480.68
626.604	495.78
627.053	492.48
627.501	494.28
627.95	499.38
628.398	509.08
628.847	500.28
629.295	496.48
629.744	497.68
630.192	489.38
630.64	493.98
631.089	493.18
631.537	495.08
631.985	501.08
632.433	515.88
632.881	522.08
633.33	565.98
633.778	549.58
634.226	485.28
634.674	499.48
635.122	501.38
635.57	513.28
636.018	537.68
636.466	500.48
636.914	479.38
637.362	493.38
637.81	497.78
638.258	499.88
638.705	500.38
639.153	523.38
639.601	526.98
640.049	550.18
640.497	578.48
640.944	602.98
641.392	553.78
641.84	533.88
642.287	500.58
642.735	485.18
643.182	491.28
643.63	489.08
644.078	488.28
644.525	514.78
644.973	512.98
645.42	520.48
645.867	532.38
646.315	552.98
646.762	575.08
647.21	601.18
647.657	613.78
648.104	640.88
648.551	664.48
648.999	719.68
649.446	783.78
649.893	852.98
650.34	995.08
650.787	1173.58
651.234	1458.18
651.682	1909.58
652.129	2618.28
652.576	3738.78
653.023	5567.78
653.47	7645.18
653.917	9696.18
654.363	11336.98
654.81	12753.78
655.257	12122.88
655.704	7857.88
656.151	4610.88
656.598	2992.58
657.044	2107.28
657.491	1618.78
657.938	1295.88
658.385	1073.48
658.831	925.08
659.278	832.68
659.724	730.48
660.171	679.18
660.618	627.58
661.064	596.68
661.511	559.58
661.957	559.88
662.404	546.88
662.85	553.18
663.296	527.98
663.743	477.48
664.189	463.58
664.635	461.88
665.082	456.68
665.528	448.58
665.974	438.68
666.42	436.98
666.867	428.48
667.313	407.88
667.759	410.08
668.205	407.18
668.651	412.28
669.097	410.58
669.543	431.18
669.989	403.78
670.435	383.28
670.881	375.28
671.327	387.28
671.773	397.88
672.219	410.68
672.665	457.38
673.11	489.88
673.556	533.98
674.002	573.68
674.448	553.18
674.893	469.38
675.339	409.48
675.785	368.18
676.23	358.38
676.676	340.88
677.122	321.78
677.567	319.98
678.013	312.88
678.458	298.28
678.904	304.58
679.349	292.28
679.794	295.78
680.24	296.88
680.685	299.68
681.131	296.98
681.576	291.78
682.021	295.58
682.466	289.68
682.912	291.78
683.357	291.78
683.802	317.18
684.247	344.88
684.692	377.98
685.137	414.48
685.583	454.08
686.028	476.98
686.473	442.08
686.918	382.08
687.363	356.88
687.807	337.08
688.252	309.18
688.697	297.98
689.142	288.58
689.587	285.28
690.032	270.38
690.477	287.08
690.921	286.48
691.366	323.78
691.811	330.48
692.255	364.18
692.7	390.98
693.145	418.68
693.589	578.08
694.034	921.68
694.478	1279.68
694.923	1490.18
695.367	1962.88
695.812	1024.88
696.256	424.48
696.701	310.38
697.145	291.88
697.59	283.48
698.034	267.28
698.478	285.18
698.922	274.08
699.367	278.78
699.811	279.48
700.255	304.98
700.699	320.08
701.143	356.68
701.588	403.18
702.032	436.48
702.476	438.98
702.92	410.48
703.364	410.88
703.808	531.48
704.252	850.88
704.696	1197.68
705.14	1431.38
705.584	1842.98
706.027	899.28
706.471	433.38
706.915	327.38
707.359	294.58
707.803	270.88
708.246	261.48
708.69	260.58
709.134	261.78
709.577	265.08
710.021	264.18
710.465	263.18
710.908	248.88
711.352	252.88
711.795	255.98
712.239	292.38
712.682	316.08
713.126	346.68
713.569	405.18
714.012	314.18
714.456	276.48
714.899	257.98
715.342	228.48
715.786	223.58
716.229	215.48
716.672	210.18
717.115	208.08
717.558	210.28
718.002	212.48
718.445	219.38
718.888	240.78
719.331	245.68
719.774	260.68
720.217	257.08
720.66	238.38
721.103	221.78
721.546	214.68
721.989	210.18
722.432	198.18
722.874	200.08
723.317	196.18
723.76	195.68
724.203	215.58
724.645	258.48
725.088	365.18
725.531	472.88
725.974	549.58
726.416	467.98
726.859	252.38
727.301	208.38
727.744	191.88
728.187	197.08
728.629	200.58
729.071	208.28
729.514	221.98
729.956	226.38
730.399	235.78
730.841	238.08
731.283	228.68
731.726	228.88
732.168	213.98
732.61	225.28
733.053	238.38
733.495	257.98
733.937	286.68
734.379	335.18
734.821	363.68
735.263	441.08
735.705	681.28
736.148	1276.08
736.59	2136.68
737.032	2639.68
737.474	2139.78
737.916	684.28
738.357	357.38
738.799	271.18
739.241	253.28
739.683	235.78
740.125	240.48
740.567	250.48
741.008	260.28
741.45	266.38
741.892	263.38
742.334	295.38
742.775	306.48
743.217	286.68
743.658	225.28
744.1	214.28
744.542	212.08
744.983	263.28
745.425	287.88
745.866	292.18
746.307	241.78
746.749	234.28
747.19	262.48
747.632	366.98
748.073	701.48
748.514	1509.08
748.956	2391.88
749.397	2995.38
749.838	2487.58
750.279	2563.38
750.72	1274.58
751.162	461.78
751.603	273.98
752.044	208.68
752.485	177.98
752.926	176.38
753.367	163.88
753.808	167.98
754.249	158.88
754.69	152.98
755.131	150.48
755.572	149.38
756.013	147.88
756.453	149.98
756.894	161.78
757.335	159.18
757.776	163.58
758.216	164.38
758.657	168.18
759.098	164.78
759.538	183.48
759.979	218.18
760.42	302.58
760.86	568.28
761.301	1452.18
761.741	3637.28
762.182	5599.28
762.622	3936.08
763.063	1117.98
763.503	458.28
763.943	284.68
764.384	284.08
764.824	340.98
765.264	375.08
765.705	256.98
766.145	178.18
766.585	154.78
767.025	152.08
767.465	150.58
767.906	197.38
768.346	269.68
768.786	286.78
769.226	212.88
769.666	259.48
770.106	492.28
770.546	1247.38
770.986	2258.18
771.426	2057.28
771.866	679.38
772.306	267.48
772.745	174.58
773.185	144.68
773.625	144.48
774.065	141.98
774.505	163.68
774.944	254.78
775.384	547.18
775.824	1054.98
776.263	1058.98
776.703	438.18
777.142	189.38
777.582	131.78
778.021	121.08
778.461	115.18
778.9	118.98
779.34	112.38
779.779	101.98
780.219	95.08
780.658	89.68
781.097	97.88
781.537	95.68
781.976	87.18
782.415	83.08
782.855	84.78
783.294	83.08
783.733	89.78
784.172	88.68
784.611	85.98
785.05	88.88
785.489	93.68
785.928	101.88
786.367	103.98
786.806	99.98
787.245	112.68
787.684	112.38
788.123	124.58
788.562	114.28
789.001	108.78
789.44	108.28
789.879	96.08
790.317	99.58
790.756	105.98
791.195	105.88
791.634	122.68
792.072	165.58
792.511	288.58
792.95	805.78
793.388	1803.88
793.827	1678.38
794.265	567.98
794.704	238.68
795.142	155.68
795.581	123.88
796.019	114.18
796.458	111.48
796.896	100.48
797.334	102.18
797.773	128.98
798.211	176.68
798.649	349.38
799.087	833.78
799.526	1335.88
799.964	1677.98
800.402	1740.28
800.84	645.98
801.278	250.68
801.716	151.18
802.154	126.08
802.592	118.18
803.03	113.08
803.468	109.58
803.906	118.78
804.344	122.18
804.782	120.28
805.22	118.58
805.658	107.08
806.096	121.58
806.533	128.58
806.971	145.68
807.409	176.98
807.847	258.68
808.284	528.58
808.722	1529.78
809.16	2804.68
809.597	2581.48
810.035	4567.68
810.472	5101.38
810.91	1809.38
811.347	667.88
811.785	336.18
812.222	218.18
812.66	163.58
813.097	136.18
813.535	124.38
813.972	112.68
814.409	95.58
814.846	92.28
815.284	92.18
815.721	83.08
816.158	87.28
816.595	102.88
817.032	145.68
817.47	174.58
817.907	147.18
818.344	127.78
818.781	91.08
819.218	82.58
819.655	101.58
820.092	153.58
820.529	190.88
820.966	150.98
821.403	116.18
821.839	90.28
822.276	94.28
822.713	108.08
823.15	121.38
823.587	99.88
824.023	118.78
824.46	241.38
824.897	734.18
825.333	1170.38
825.77	502.28
826.206	192.78
826.643	108.68
827.08	86.28
827.516	69.48
827.953	65.08
828.389	71.08
828.825	59.28
829.262	56.28
829.698	54.08
830.135	48.18
830.571	47.88
831.007	59.38
831.443	53.08
831.88	54.68
832.316	51.08
832.752	55.08
833.188	54.28
833.624	48.58
834.06	55.18
834.497	53.98
834.933	60.68
835.369	60.58
835.805	56.48
836.241	61.18
836.677	71.48
837.112	74.08
837.548	84.18
837.984	109.78
838.42	165.98
838.856	397.98
839.292	1262.38
839.727	2001.48
840.163	920.58
840.599	759.88
841.034	1709.28
841.47	1855.38
841.906	672.38
842.341	278.18
842.777	189.38
843.212	264.48
843.648	278.38
844.083	132.38
844.519	75.88
844.954	61.98
845.39	47.28
845.825	49.98
846.261	40.88
846.696	43.08
847.131	42.58
847.566	55.28
848.002	49.68
848.437	43.88
848.872	54.88
849.307	48.98
849.742	77.58
850.177	141.58
850.613	461.98
851.048	764.28
851.483	321.78
851.918	125.48
852.353	67.18
852.788	49.68
853.223	46.38
853.657	44.58
854.092	43.38
854.527	34.68
854.962	33.58
855.397	31.08
855.832	34.78
856.266	38.48
856.701	36.68
857.136	28.08
857.57	34.58
858.005	45.28
858.44	52.68
858.874	31.78
859.309	44.78
859.743	34.28
860.178	37.08
860.612	31.48
861.047	39.38
861.481	55.18
861.915	67.88
862.35	45.08
862.784	25.18
863.218	36.28
863.653	26.28
864.087	37.88
864.521	49.28
864.955	55.68
865.39	126.18
865.824	145.28
866.258	95.98
866.692	142.68
867.126	155.08
867.56	90.98
867.994	42.08
868.428	28.28
868.862	38.88
869.296	46.98
869.73	50.38
870.164	48.28
870.598	41.48
871.031	33.28
871.465	25.88
871.899	23.68
872.333	20.68
872.766	23.08
873.2	22.88
873.634	24.08
874.067	24.28
874.501	20.28
874.935	29.48
875.368	31.08
875.802	18.28
876.235	19.78
876.669	18.38
877.102	26.88
877.535	23.78
877.969	17.98
878.402	25.98
878.836	21.68
879.269	19.58
879.702	20.38
880.135	18.08
880.569	17.78
881.002	31.28
881.435	13.88
881.868	15.48
882.301	21.08
882.734	11.28
883.167	25.28
883.601	15.48
884.034	23.88
884.467	8.58
884.899	12.38
885.332	7.68
885.765	16.18
886.198	12.98
886.631	16.88
887.064	18.48
887.497	16.48
887.929	22.68
888.362	14.08
888.795	11.18
889.228	15.88
889.66	17.88
890.093	14.28
890.526	13.98
890.958	13.08
891.391	11.28
891.823	25.38
892.256	17.68
892.688	6.88
893.121	18.18
893.553	12.78
893.985	25.38
894.418	14.38
894.85	15.08
895.282	18.38
895.715	14.98
896.147	13.08
896.579	14.88
897.011	8.08
897.444	14.68
897.876	15.88
898.308	14.48
898.74	17.08
899.172	14.68
899.604	23.38
900.036	17.18
900.468	14.68
900.9	9.58
901.332	17.38
901.764	5.48
902.196	20.18
902.628	13.58
903.06	10.98
903.491	27.78
903.923	16.88
904.355	21.18
904.787	25.48
905.218	20.68
905.65	17.28
906.082	8.28
906.513	8.68
906.945	14.08
907.376	11.98
907.808	13.78
908.239	18.08
908.671	11.88
909.102	20.98
909.534	21.58
909.965	37.18
910.397	81.68
910.828	264.98
911.259	409.68
911.691	181.88
912.122	87.38
912.553	42.18
912.984	31.68
913.415	21.58
913.847	23.18
914.278	11.48
914.709	9.68
915.14	17.68
915.571	14.68
916.002	11.48
916.433	16.18
916.864	14.58
917.295	7.88
917.726	20.98
918.157	18.88
918.587	25.48
919.018	14.58
919.449	18.98
919.88	19.38
920.311	26.58
920.741	40.98
921.172	148.48
921.603	135.08
922.033	59.38
922.464	38.78
922.895	13.98
923.325	14.78
923.756	11.28
924.186	21.08
924.617	23.88
925.047	36.78
925.478	45.48
925.908	36.48
926.338	20.18
926.769	17.68
927.199	24.18
927.629	7.68
928.06	14.68
928.49	11.28
928.92	12.08
929.35	5.08
929.78	10.28
930.21	8.08
930.641	7.38
931.071	9.38
931.501	-0.12
931.931	11.68
932.361	14.08
932.791	-1.92
933.221	1.38
933.651	11.38
934.08	8.98
934.51	25.78
934.94	11.38
935.37	6.58
935.8	9.78
936.229	3.18
936.659	5.58
937.089	4.48
937.519	16.68
937.948	21.68
938.378	13.88
938.807	0.48
939.237	1.88
939.666	9.48
940.096	-3.42
940.525	5.38
940.955	7.08
941.384	7.78
941.814	-1.32
942.243	-2.32
942.672	2.78
943.102	0.08
943.531	5.68
943.96	7.88
944.39	-2.12
944.819	0.68
945.248	0.88
945.677	6.98
946.106	4.68
946.535	5.78
946.964	0.88
947.393	1.38
947.822	0.58
948.251	-7.62
948.68	1.78
949.109	2.18
949.538	7.98
949.967	-1.02
950.396	-2.52
950.825	-1.42
951.254	-0.32
951.682	-6.52
952.111	3.68
952.54	12.78
952.969	-0.22
953.397	-1.92
953.826	3.78
954.254	-4.32
954.683	3.48
955.112	-4.72
955.54	0.08
955.969	7.18
956.397	2.98
956.826	-0.32
957.254	3.68
957.682	2.18
958.111	13.08
958.539	7.08
958.967	-3.52
959.396	3.88
959.824	0.48
960.252	6.48
960.68	-3.62
961.109	-2.62
961.537	-4.22
961.965	0.28
962.393	-3.92
962.821	-2.52
963.249	-4.12
963.677	1.58
964.105	6.18
964.533	32.78
964.961	43.68
965.389	23.18
965.817	9.18
966.245	-4.52
966.672	0.98
967.1	-7.12
967.528	-0.92
967.956	-1.12
968.383	1.98
968.811	-2.32
969.239	-3.22
969.666	-2.12
970.094	-1.22
970.522	-0.02
970.949	-3.12
971.377	-5.62
971.804	-4.22
972.232	-0.42
972.659	0.58
973.087	-4.42
973.514	-0.02
973.941	-2.02
974.369	-0.12
974.796	5.08
975.223	3.98
975.651	-2.42
976.078	5.68
976.505	4.48
976.932	6.38
977.359	7.88
977.786	6.78
978.214	-3.52
978.641	0.38
979.068	4.68
979.495	-3.42
979.922	-3.52
980.349	-6.72
980.776	-0.72
981.202	1.08
981.629	0.98
982.056	4.18
982.483	-4.72
982.91	4.98
983.337	-3.42
983.763	-0.12
984.19	-8.52
984.617	-8.82
985.043	-3.72
985.47	-1.72
985.897	-3.32
986.323	-7.02
986.75	6.48
987.176	0.38
987.603	4.78
988.029	4.58
988.456	1.58
988.882	-2.22
989.308	-8.12
989.735	-7.62
990.161	-0.92
990.587	-1.72
991.014	-0.82
991.44	8.38
991.866	-3.22
992.292	-3.62
992.719	0.98
993.145	-0.42
993.571	-3.52
993.997	1.38
994.423	-4.02
994.849	-5.62
995.275	-4.22
995.701	1.78
996.127	0.38
996.553	-1.82
996.979	-2.22
997.405	3.78
997.83	-8.72
998.256	-4.32
998.682	-4.82
999.108	-8.82
999.534	-1.62
999.959	-2.52
1000.385	-5.02
1000.811	-2.22
1001.236	-11.42
1001.662	-4.12
1002.087	-7.32
1002.513	-1.32
1002.938	7.28
1003.364	3.48
1003.789	0.68
1004.215	4.28
1004.64	-5.22
1005.066	2.38
1005.491	5.78
1005.916	1.38
1006.342	-8.12
1006.767	-6.22
1007.192	1.58
1007.617	-8.32
1008.042	-5.12
1008.468	-2.82
1008.893	-3.22
1009.318	0.48
1009.743	-0.22
1010.168	1.98
1010.593	3.68
1011.018	-9.82
1011.443	-2.72
1011.868	-2.52
1012.293	0.38
1012.718	-2.92
1013.143	-1.32
1013.567	-1.32
1013.992	2.08
1014.417	-10.62
1014.842	0.88
1015.267	-3.22
1015.691	-2.72
1016.116	6.38
1016.541	0.58
1016.965	1.58
1017.39	2.18
1017.814	-3.12
1018.239	0.48
1018.663	-3.12
1019.088	-6.12
1019.512	-0.22
1019.937	-3.92
1020.361	-6.32
1020.785	-9.02
1021.21	-6.12
1021.634	0.78
1022.058	2.88
1022.483	-3.42
1022.907	-0.62
1023.331	-4.42
1023.755	-6.22
1024.179	1.18
1024.604	-4.32
1025.028	-1.82
1025.452	-4.12
1025.876	-1.12
1026.3	-1.72
1026.724	-6.32
1027.148	-0.32
1027.572	-6.52
1027.996	-5.82
1028.42	-0.62
1028.843	-2.72
1029.267	-7.12
1029.691	-4.12
1030.115	-8.32
1030.539	-6.02
1030.962	-6.02
1031.386	-9.02
1031.81	-2.42
1032.233	-2.12
1032.657	-3.42
1033.08	1.48
1033.504	-2.62
1033.927	-4.12
1034.351	-1.22
1034.774	-4.52
1035.198	-5.52
1035.621	-2.22
1036.045	-6.52
1036.468	-1.82
1036.891	-11.92
1037.315	-8.52
1037.738	-7.12
1038.161	-1.32
1038.584	-2.42
1039.008	-6.92
1039.431	-3.62
1039.854	1.88
1040.277	-6.42
1040.7	-10.62
1041.123	-1.72
1041.546	-7.62
1041.969	-4.72
1042.392	-10.22
1042.815	-3.82
1043.238	5.78
1043.661	4.58
1044.084	-9.32
1044.507	-9.32
1044.93	-9.82
1045.352	-10.32
1045.775	-2.02
1046.198	-1.02
1046.621	-3.32
1047.043	-6.32
1047.466	7.88
1047.889	-3.02
1048.311	-6.62
1048.734	-3.12
1049.156	-0.52
1049.579	1.38
1050.001	-7.32
1050.424	0.88
1050.846	-2.42
1051.269	-0.22
1051.691	-11.12
1052.113	-7.02
1052.536	-0.42
1052.958	0.88
1053.38	1.68
1053.802	-6.82
1054.225	-2.82
1054.647	-10.92
1055.069	-9.62
1055.491	1.18
1055.913	-11.02
1056.335	2.18
1056.757	-3.22
1057.179	-11.12
1057.601	-8.82
1058.023	-2.62
1058.445	-2.22
1058.867	-6.32
1059.289	-5.92
1059.711	-10.32
1060.133	0.58
1060.555	-5.22
1060.976	-5.82
1061.398	-4.82
1061.82	-2.52
1062.241	-0.52
1062.663	-7.02
1063.085	-8.42
1063.506	-3.32
1063.928	-5.62
1064.35	-0.02
1064.771	-12.22
1065.193	-2.12
1065.614	-4.82
1066.035	-1.22
1066.457	-10.42
1066.878	-6.22
1067.3	-4.42
1067.721	-4.82
1068.142	-2.42
1068.564	-6.22
1068.985	-2.42
1069.406	-10.22
1069.827	5.88
1070.248	1.98
1070.67	-3.32
1071.091	-4.22
1071.512	-3.62
1071.933	-10.42
1072.354	-5.42
1072.775	-7.52
1073.196	-8.42
1073.617	-4.22
1074.038	-7.42
1074.459	-2.72
1074.88	-3.12
1075.3	-2.52
1075.721	-7.82
1076.142	-2.02
1076.563	-3.22
1076.983	-11.62
1077.404	-8.12
1077.825	-10.22
1078.246	-6.22
1078.666	-11.92
1079.087	-9.72
1079.507	-2.42
1079.928	-5.62
1080.348	-2.92
1080.769	-2.82
1081.189	-4.12
1081.61	2.58
1082.03	-16.62
1082.451	-6.92
1082.871	-6.52
1083.291	-9.02
1083.711	-11.52
1084.132	-8.82
1084.552	-1.02
1084.972	1.38
1085.392	-2.72
1085.813	-9.22
1086.233	-2.72
1086.653	-3.72
1087.073	-0.72
1087.493	-9.02
1087.913	-6.52
1088.333	-9.22
1088.753	-1.22
1089.173	8.38
1089.593	-2.42
1090.013	-2.82
1090.433	-0.32
1090.852	-1.42
1091.272	-2.82
1091.692	-2.92
1092.112	-4.72
1092.531	-11.72
1092.951	-11.02
1093.371	-1.22
1093.79	-4.52
1094.21	-6.42
1094.63	-7.12
1095.049	-9.12
1095.469	-3.82
1095.888	-7.72
1096.308	-2.22
1096.727	5.08
1097.146	-2.62
1097.566	-0.32
1097.985	-6.52
1098.405	-3.82
1098.824	-6.22
1099.243	-11.12
1099.662	-7.02
1100.082	-5.22
1100.501	-6.52
1100.92	-14.62
1101.339	-5.92
1101.758	-9.42
