Data from 20171114-ORNL-Ar_H_NY_Subt18_08-04-37-003.txt Node
Date: Tue Nov 14 08:04:37 EST 2017
User: Ender
Spectrometer: HR+D1039
Trigger mode: 0
Integration Time (sec): 2.730000E-2
Scans to average: 10
Electric dark correction enabled: true
Nonlinearity correction enabled: false
Boxcar width: 0
XAxis mode: Wavelengths
Number of Pixels in Spectrum: 2048
>>>>>Begin Spectral Data<<<<<
187.836	-2.72
188.309	-2.72
188.782	-2.72
189.255	1.88
189.728	-1.22
190.201	6.48
190.674	3.18
191.147	0.38
191.619	-10.02
192.092	0.88
192.565	2.58
193.038	2.48
193.511	-3.32
193.984	3.38
194.456	-4.52
194.929	3.98
195.402	-4.02
195.874	0.58
196.347	0.68
196.82	-9.22
197.292	9.48
197.765	3.88
198.237	-2.42
198.71	-0.12
199.182	2.68
199.655	-0.22
200.127	-0.12
200.6	2.98
201.072	-1.32
201.544	-7.02
202.017	-1.62
202.489	2.18
202.961	-2.92
203.433	1.98
203.906	-6.12
204.378	-5.22
204.85	-3.62
205.322	-5.32
205.794	-2.92
206.266	-5.32
206.739	-10.52
207.211	1.88
207.683	-3.42
208.155	-4.22
208.627	-4.42
209.099	1.38
209.57	-7.82
210.042	-3.12
210.514	-9.12
210.986	-2.52
211.458	-5.42
211.93	-5.52
212.402	-3.22
212.873	-6.72
213.345	-7.42
213.817	-13.72
214.288	-2.82
214.76	-9.62
215.232	-3.62
215.703	-4.32
216.175	-5.32
216.646	-0.92
217.118	-2.62
217.589	-3.42
218.061	-1.92
218.532	-5.72
219.004	0.58
219.475	-4.02
219.946	-10.02
220.418	-5.42
220.889	1.88
221.36	3.58
221.832	-3.82
222.303	-7.92
222.774	3.68
223.245	-5.22
223.717	-3.32
224.188	-6.42
224.659	-6.02
225.13	-7.52
225.601	-4.02
226.072	-2.42
226.543	-4.62
227.014	-1.02
227.485	-5.72
227.956	-13.32
228.427	0.18
228.898	-2.42
229.369	0.88
229.839	-1.72
230.31	-3.02
230.781	4.58
231.252	-1.02
231.722	-4.42
232.193	-1.22
232.664	-1.32
233.135	2.88
233.605	-0.72
234.076	-4.12
234.546	3.48
235.017	9.88
235.487	0.88
235.958	2.68
236.428	0.08
236.899	7.48
237.369	6.78
237.84	-3.12
238.31	7.88
238.78	1.78
239.251	2.08
239.721	6.78
240.191	1.68
240.662	0.08
241.132	1.98
241.602	0.78
242.072	-0.52
242.542	12.98
243.013	1.58
243.483	4.98
243.953	1.68
244.423	-3.02
244.893	-0.12
245.363	2.48
245.833	2.88
246.303	0.88
246.773	3.18
247.243	5.48
247.712	5.78
248.182	8.68
248.652	9.08
249.122	0.68
249.592	14.48
250.061	27.78
250.531	37.58
251.001	19.68
251.471	19.18
251.94	19.38
252.41	12.58
252.879	4.48
253.349	8.28
253.818	9.08
254.288	2.98
254.757	3.08
255.227	10.68
255.696	7.48
256.166	5.58
256.635	8.78
257.105	14.08
257.574	5.88
258.043	12.28
258.513	14.68
258.982	16.98
259.451	7.58
259.92	12.38
260.389	14.68
260.859	15.28
261.328	15.18
261.797	19.08
262.266	11.98
262.735	8.88
263.204	4.88
263.673	5.68
264.142	11.48
264.611	1.68
265.08	1.08
265.549	2.68
266.018	2.08
266.487	-4.02
266.955	3.38
267.424	5.08
267.893	7.78
268.362	-2.32
268.83	11.38
269.299	12.58
269.768	11.98
270.236	13.98
270.705	7.98
271.174	13.78
271.642	14.18
272.111	9.58
272.579	17.28
273.048	20.68
273.516	27.88
273.985	30.18
274.453	25.28
274.922	18.28
275.39	15.78
275.858	4.08
276.327	12.98
276.795	14.48
277.263	9.38
277.731	28.68
278.2	57.58
278.668	62.28
279.136	55.48
279.604	25.78
280.072	15.78
280.54	11.78
281.008	11.18
281.477	16.88
281.945	10.68
282.413	13.18
282.881	18.58
283.348	10.98
283.816	19.68
284.284	11.28
284.752	27.48
285.22	14.98
285.688	13.38
286.156	13.18
286.623	43.68
287.091	51.28
287.559	36.18
288.026	21.68
288.494	19.08
288.962	5.28
289.429	11.58
289.897	21.48
290.364	15.78
290.832	19.88
291.3	17.48
291.767	24.78
292.234	20.28
292.702	21.68
293.169	16.68
293.637	19.88
294.104	26.08
294.571	7.88
295.039	13.98
295.506	17.48
295.973	22.88
296.44	14.38
296.908	19.38
297.375	23.28
297.842	24.38
298.309	21.38
298.776	12.38
299.243	21.38
299.71	7.48
300.177	24.78
300.644	22.18
301.111	30.08
301.578	23.88
302.045	16.68
302.512	23.88
302.979	26.38
303.446	25.48
303.913	20.48
304.379	19.38
304.846	25.78
305.313	23.38
305.78	26.68
306.246	24.78
306.713	25.28
307.18	23.18
307.646	31.28
308.113	30.48
308.579	30.58
309.046	29.18
309.512	32.48
309.979	22.68
310.445	30.98
310.912	36.78
311.378	31.78
311.845	30.98
312.311	33.28
312.777	39.28
313.244	30.78
313.71	43.58
314.176	29.18
314.642	26.28
315.109	35.48
315.575	38.18
316.041	39.98
316.507	34.18
316.973	38.08
317.439	31.38
317.905	41.78
318.371	39.58
318.837	31.58
319.303	34.28
319.769	32.58
320.235	35.98
320.701	33.18
321.167	42.88
321.633	33.38
322.099	39.88
322.564	41.98
323.03	43.48
323.496	41.18
323.962	43.38
324.427	46.28
324.893	45.88
325.359	44.68
325.824	40.08
326.29	34.98
326.755	37.88
327.221	43.58
327.686	41.68
328.152	42.48
328.617	48.48
329.083	48.88
329.548	54.08
330.014	46.18
330.479	40.38
330.944	44.38
331.41	46.88
331.875	47.08
332.34	42.18
332.805	43.48
333.271	49.68
333.736	44.08
334.201	53.78
334.666	52.08
335.131	49.38
335.596	50.08
336.061	56.18
336.526	46.18
336.991	55.28
337.456	54.78
337.921	48.88
338.386	45.08
338.851	45.48
339.316	48.38
339.781	54.08
340.246	57.68
340.711	43.68
341.175	54.78
341.64	44.48
342.105	55.48
342.569	52.68
343.034	53.68
343.499	53.88
343.963	54.38
344.428	62.78
344.893	60.18
345.357	52.78
345.822	57.28
346.286	68.18
346.751	73.48
347.215	66.68
347.679	69.08
348.144	95.08
348.608	76.18
349.073	68.88
349.537	74.68
350.001	77.68
350.465	86.08
350.93	78.18
351.394	82.48
351.858	66.58
352.322	92.08
352.786	78.58
353.25	95.68
353.715	106.28
354.179	99.18
354.643	116.68
355.107	117.78
355.571	107.08
356.035	96.48
356.498	122.28
356.962	120.58
357.426	124.88
357.89	112.98
358.354	88.38
358.818	83.28
359.281	78.48
359.745	77.98
360.209	76.38
360.673	66.48
361.136	79.28
361.6	82.88
362.064	80.98
362.527	76.18
362.991	90.98
363.454	81.58
363.918	77.78
364.381	73.68
364.845	82.18
365.308	84.98
365.772	80.38
366.235	83.18
366.698	76.68
367.162	81.78
367.625	78.68
368.088	80.58
368.552	83.98
369.015	87.48
369.478	94.38
369.941	97.28
370.404	96.78
370.867	98.18
371.331	105.38
371.794	114.48
372.257	110.78
372.72	115.28
373.183	109.48
373.646	100.88
374.109	96.58
374.572	97.78
375.035	105.38
375.497	101.28
375.96	98.78
376.423	98.48
376.886	104.08
377.349	102.58
377.811	94.68
378.274	103.18
378.737	97.08
379.199	106.58
379.662	102.88
380.125	108.48
380.587	108.98
381.05	117.58
381.512	123.98
381.975	125.38
382.437	118.48
382.9	124.18
383.362	125.08
383.825	135.18
384.287	135.48
384.75	133.48
385.212	134.68
385.674	133.98
386.136	126.28
386.599	115.78
387.061	115.68
387.523	119.98
387.985	125.98
388.447	143.28
388.91	131.88
389.372	144.78
389.834	139.28
390.296	139.78
390.758	150.18
391.22	153.28
391.682	192.48
392.144	269.38
392.606	212.08
393.068	157.78
393.529	158.58
393.991	146.88
394.453	139.08
394.915	152.68
395.377	184.48
395.838	198.78
396.3	145.28
396.762	132.08
397.224	128.68
397.685	119.48
398.147	127.58
398.608	119.18
399.07	126.38
399.531	127.38
399.993	138.78
400.454	142.98
400.916	137.28
401.377	135.58
401.839	144.48
402.3	151.38
402.762	155.18
403.223	173.28
403.684	164.08
404.145	151.28
404.607	147.18
405.068	154.38
405.529	155.78
405.99	178.38
406.451	161.08
406.913	155.78
407.374	158.28
407.835	148.58
408.296	161.88
408.757	158.98
409.218	168.98
409.679	167.28
410.14	162.58
410.601	166.88
411.062	170.78
411.522	174.18
411.983	176.88
412.444	169.68
412.905	166.08
413.366	161.88
413.826	174.48
414.287	198.98
414.748	244.38
415.208	228.78
415.669	202.88
416.13	192.38
416.59	190.58
417.051	196.18
417.511	208.18
417.972	221.08
418.432	227.28
418.893	272.98
419.353	237.28
419.814	181.48
420.274	168.48
420.734	168.78
421.195	187.88
421.655	175.88
422.115	180.78
422.576	179.28
423.036	180.38
423.496	192.88
423.956	205.38
424.416	209.88
424.876	248.28
425.336	240.88
425.797	241.48
426.257	233.48
426.717	223.18
427.177	216.18
427.637	206.88
428.097	220.08
428.556	227.68
429.016	255.68
429.476	246.68
429.936	259.18
430.396	255.08
430.856	275.38
431.315	296.88
431.775	323.18
432.235	348.58
432.694	327.18
433.154	335.98
433.614	356.78
434.073	318.38
434.533	267.68
434.993	258.38
435.452	261.88
435.912	282.08
436.371	265.88
436.83	263.98
437.29	252.08
437.749	227.28
438.209	228.08
438.668	252.58
439.127	266.28
439.587	249.58
440.046	237.08
440.505	245.28
440.964	254.38
441.424	301.48
441.883	289.08
442.342	241.58
442.801	209.98
443.26	208.28
443.719	203.88
444.178	208.58
444.637	194.78
445.096	205.08
445.555	213.98
446.014	210.58
446.473	210.58
446.932	210.98
447.391	208.88
447.849	214.48
448.308	200.58
448.767	206.88
449.226	225.88
449.685	220.68
450.143	234.68
450.602	225.78
451.061	211.58
451.519	218.88
451.978	221.28
452.436	215.98
452.895	229.38
453.353	242.18
453.812	227.38
454.27	224.18
454.729	224.78
455.187	224.78
455.646	229.38
456.104	229.28
456.562	238.18
457.021	243.88
457.479	233.18
457.937	251.48
458.395	243.98
458.854	227.78
459.312	231.68
459.77	257.48
460.228	243.58
460.686	224.58
461.144	229.58
461.602	230.98
462.06	219.38
462.518	225.78
462.976	235.68
463.434	244.78
463.892	242.08
464.35	259.08
464.808	270.28
465.266	247.08
465.724	257.88
466.181	257.78
466.639	259.48
467.097	270.08
467.555	281.28
468.012	278.98
468.47	291.18
468.928	309.28
469.385	316.58
469.843	331.98
470.3	314.28
470.758	336.98
471.215	354.78
471.673	377.48
472.13	377.18
472.588	374.48
473.045	343.18
473.503	340.88
473.96	372.58
474.417	375.78
474.875	397.48
475.332	442.58
475.789	423.98
476.246	435.28
476.704	451.28
477.161	473.68
477.618	488.88
478.075	517.88
478.532	571.38
478.989	640.58
479.446	750.08
479.903	719.48
480.36	751.18
480.817	800.98
481.274	901.98
481.731	1006.28
482.188	1086.38
482.645	1218.98
483.102	1315.98
483.558	1458.58
484.015	1506.28
484.472	1477.78
484.929	1425.68
485.385	1390.18
485.842	1342.58
486.299	1288.78
486.755	1208.78
487.212	1013.68
487.668	868.88
488.125	793.38
488.582	734.98
489.038	698.38
489.494	665.68
489.951	640.98
490.407	631.08
490.864	604.68
491.32	602.28
491.776	601.98
492.233	604.78
492.689	565.48
493.145	559.88
493.602	553.98
494.058	564.58
494.514	588.98
494.97	594.98
495.426	600.48
495.882	573.18
496.338	573.38
496.794	593.68
497.251	576.68
497.707	594.78
498.163	585.88
498.618	609.98
499.074	603.08
499.53	629.68
499.986	633.88
500.442	614.28
500.898	584.18
501.354	576.58
501.809	594.38
502.265	599.68
502.721	618.88
503.177	620.18
503.632	620.58
504.088	635.08
504.543	669.98
504.999	655.98
505.455	615.28
505.91	587.08
506.366	588.18
506.821	587.98
507.277	574.38
507.732	570.78
508.187	579.68
508.643	590.68
509.098	592.88
509.553	601.18
510.009	616.68
510.464	616.88
510.919	633.78
511.375	639.38
511.83	660.78
512.285	671.78
512.74	709.98
513.195	729.38
513.65	722.88
514.105	716.68
514.56	708.38
515.015	750.98
515.47	757.08
515.925	746.98
516.38	742.68
516.835	752.18
517.29	729.08
517.745	720.28
518.2	714.18
518.655	699.08
519.109	702.58
519.564	691.48
520.019	687.78
520.474	681.78
520.928	677.18
521.383	664.88
521.838	659.48
522.292	664.08
522.747	662.98
523.201	647.28
523.656	645.58
524.11	636.28
524.565	639.58
525.019	643.88
525.474	650.28
525.928	652.78
526.382	642.48
526.837	646.68
527.291	649.78
527.745	641.58
528.2	644.28
528.654	633.58
529.108	630.28
529.562	637.98
530.016	631.48
530.47	638.18
530.925	640.58
531.379	645.68
531.833	652.38
532.287	652.28
532.741	645.58
533.195	645.18
533.649	657.48
534.103	664.98
534.556	661.08
535.01	668.58
535.464	656.88
535.918	665.58
536.372	669.28
536.826	656.48
537.279	654.38
537.733	648.68
538.187	666.18
538.64	667.18
539.094	663.58
539.548	671.28
540.001	660.68
540.455	675.18
540.908	671.48
541.362	684.18
541.815	681.38
542.269	707.98
542.722	697.28
543.175	712.58
543.629	709.78
544.082	720.78
544.536	724.08
544.989	720.48
545.442	730.68
545.895	723.38
546.349	717.58
546.802	725.68
547.255	723.38
547.708	731.98
548.161	751.88
548.614	753.68
549.067	755.88
549.52	760.78
549.973	746.78
550.426	749.38
550.879	734.98
551.332	730.78
551.785	737.88
552.238	736.68
552.691	747.08
553.144	766.28
553.596	782.08
554.049	794.08
554.502	827.48
554.955	831.28
555.407	835.08
555.86	835.38
556.313	815.38
556.765	804.98
557.218	804.98
557.67	808.98
558.123	791.18
558.576	796.48
559.028	800.28
559.48	807.48
559.933	788.38
560.385	762.18
560.838	733.18
561.29	712.58
561.742	714.78
562.195	698.08
562.647	697.28
563.099	702.08
563.551	697.98
564.004	706.58
564.456	699.68
564.908	697.88
565.36	676.78
565.812	669.38
566.264	659.08
566.716	653.78
567.168	651.28
567.62	659.68
568.072	635.08
568.524	632.28
568.976	621.48
569.428	615.38
569.88	612.18
570.332	614.68
570.784	625.18
571.235	621.38
571.687	636.58
572.139	640.58
572.59	637.28
573.042	644.98
573.494	646.98
573.945	636.18
574.397	620.38
574.849	625.08
575.3	633.28
575.752	619.58
576.203	619.98
576.655	614.48
577.106	602.38
577.557	601.88
578.009	607.28
578.46	604.98
578.912	599.68
579.363	596.38
579.814	593.18
580.265	594.48
580.717	604.08
581.168	597.38
581.619	614.78
582.07	615.78
582.521	605.68
582.972	598.78
583.423	603.98
583.875	620.18
584.326	619.28
584.777	662.48
585.227	730.28
585.678	822.08
586.129	900.88
586.58	967.38
587.031	1050.58
587.482	1195.38
587.933	1370.28
588.384	1188.88
588.834	878.98
589.285	720.68
589.736	689.78
590.186	690.28
590.637	691.98
591.088	664.28
591.538	657.48
591.989	658.28
592.439	656.98
592.89	648.98
593.34	636.38
593.791	637.98
594.241	638.88
594.692	630.48
595.142	626.28
595.593	610.48
596.043	633.38
596.493	638.98
596.943	635.08
597.394	639.88
597.844	638.78
598.294	651.48
598.744	667.18
599.195	685.48
599.645	725.38
600.095	756.88
600.545	811.88
600.995	859.28
601.445	912.98
601.895	957.78
602.345	1012.18
602.795	996.18
603.245	956.88
603.695	895.78
604.145	841.68
604.594	808.08
605.044	758.78
605.494	703.78
605.944	669.38
606.393	656.18
606.843	644.28
607.293	645.88
607.743	641.28
608.192	651.58
608.642	674.08
609.091	684.48
609.541	681.68
609.99	673.78
610.44	674.48
610.889	637.38
611.339	618.08
611.788	601.08
612.238	610.08
612.687	633.38
613.136	631.88
613.586	645.18
614.035	662.88
614.484	664.08
614.933	669.98
615.383	658.98
615.832	641.78
616.281	636.68
616.73	608.88
617.179	592.88
617.628	574.18
618.077	566.08
618.526	539.18
618.975	541.88
619.424	535.88
619.873	542.88
620.322	540.58
620.771	530.68
621.22	543.28
621.669	517.78
622.118	516.28
622.567	508.68
623.015	500.68
623.464	499.78
623.913	489.68
624.361	478.28
624.81	484.98
625.259	488.28
625.707	481.68
626.156	482.48
626.604	493.78
627.053	485.78
627.501	489.88
627.95	496.68
628.398	507.88
628.847	497.98
629.295	499.68
629.744	487.28
630.192	500.28
630.64	495.08
631.089	492.98
631.537	493.98
631.985	507.58
632.433	511.18
632.881	527.58
633.33	569.18
633.778	553.08
634.226	492.38
634.674	496.28
635.122	505.38
635.57	522.58
636.018	532.98
636.466	500.38
636.914	483.08
637.362	496.28
637.81	506.08
638.258	502.18
638.705	495.98
639.153	516.88
639.601	524.48
640.049	548.28
640.497	585.08
640.944	589.08
641.392	550.68
641.84	519.88
642.287	507.88
642.735	483.58
643.182	497.18
643.63	489.48
644.078	500.38
644.525	509.98
644.973	517.58
645.42	519.18
645.867	526.38
646.315	556.68
646.762	564.68
647.21	589.98
647.657	611.08
648.104	646.18
648.551	666.78
648.999	726.18
649.446	793.38
649.893	859.38
650.34	993.78
650.787	1176.58
651.234	1467.28
651.682	1892.38
652.129	2586.38
652.576	3749.88
653.023	5574.78
653.47	7687.78
653.917	9699.98
654.363	11357.88
654.81	12755.88
655.257	12135.88
655.704	7833.38
656.151	4603.88
656.598	2983.48
657.044	2114.18
657.491	1602.58
657.938	1286.78
658.385	1067.48
658.831	926.88
659.278	835.68
659.724	734.98
660.171	685.38
660.618	613.98
661.064	590.48
661.511	578.78
661.957	550.08
662.404	541.58
662.85	546.18
663.296	532.58
663.743	480.38
664.189	462.88
664.635	464.18
665.082	457.98
665.528	442.08
665.974	447.48
666.42	437.08
666.867	432.48
667.313	418.38
667.759	410.78
668.205	418.48
668.651	423.18
669.097	422.38
669.543	426.98
669.989	397.98
670.435	375.98
670.881	374.18
671.327	379.98
671.773	403.38
672.219	424.08
672.665	460.98
673.11	492.18
673.556	536.78
674.002	578.48
674.448	563.08
674.893	464.98
675.339	403.58
675.785	371.78
676.23	353.78
676.676	335.98
677.122	323.98
677.567	311.38
678.013	313.38
678.458	306.48
678.904	304.78
679.349	289.08
679.794	297.18
680.24	295.98
680.685	295.68
681.131	295.28
681.576	296.38
682.021	306.78
682.466	298.48
682.912	294.48
683.357	297.18
683.802	319.68
684.247	344.48
684.692	388.68
685.137	420.08
685.583	460.78
686.028	482.08
686.473	439.68
686.918	371.98
687.363	349.48
687.807	332.58
688.252	312.08
688.697	301.88
689.142	291.68
689.587	273.68
690.032	274.48
690.477	283.78
690.921	289.88
691.366	318.18
691.811	334.08
692.255	364.38
692.7	389.98
693.145	416.48
693.589	575.08
694.034	913.88
694.478	1284.48
694.923	1487.98
695.367	1963.78
695.812	1022.88
696.256	428.18
696.701	311.38
697.145	287.88
697.59	279.78
698.034	277.78
698.478	272.28
698.922	269.08
699.367	279.68
699.811	288.48
700.255	301.98
700.699	321.88
701.143	350.78
701.588	396.78
702.032	439.18
702.476	440.38
702.92	417.78
703.364	414.58
703.808	518.38
704.252	852.58
704.696	1205.98
705.14	1430.08
705.584	1837.98
706.027	918.38
706.471	437.68
706.915	328.48
707.359	301.28
707.803	261.18
708.246	258.88
708.69	263.68
709.134	268.08
709.577	262.88
710.021	268.88
710.465	259.28
710.908	253.18
711.352	248.58
711.795	259.48
712.239	284.88
712.682	317.78
713.126	350.48
713.569	389.98
714.012	317.28
714.456	276.38
714.899	252.98
715.342	235.28
715.786	216.18
716.229	220.18
716.672	214.78
717.115	213.58
717.558	213.28
718.002	210.98
718.445	220.78
718.888	243.18
719.331	248.98
719.774	267.88
720.217	259.58
720.66	242.18
721.103	227.88
721.546	213.08
721.989	215.28
722.432	203.08
722.874	203.08
723.317	187.68
723.76	198.58
724.203	217.48
724.645	265.78
725.088	373.88
725.531	472.78
725.974	547.68
726.416	455.68
726.859	253.48
727.301	202.68
727.744	196.18
728.187	196.58
728.629	203.48
729.071	203.38
729.514	212.38
729.956	228.48
730.399	238.68
730.841	245.08
731.283	233.68
731.726	224.48
732.168	216.58
732.61	221.68
733.053	235.78
733.495	263.08
733.937	293.28
734.379	326.68
734.821	358.08
735.263	443.28
735.705	683.48
736.148	1277.68
736.59	2148.88
737.032	2619.88
737.474	2143.18
737.916	688.08
738.357	357.08
738.799	268.58
739.241	250.58
739.683	229.68
740.125	241.78
740.567	245.88
741.008	268.88
741.45	267.68
741.892	267.08
742.334	288.58
742.775	300.08
743.217	292.38
743.658	228.98
744.1	211.88
744.542	223.48
744.983	261.48
745.425	298.88
745.866	290.68
746.307	236.88
746.749	238.68
747.19	261.18
747.632	368.88
748.073	702.28
748.514	1516.58
748.956	2378.18
749.397	2982.58
749.838	2498.78
750.279	2545.08
750.72	1280.18
751.162	460.88
751.603	263.98
752.044	214.78
752.485	173.88
752.926	174.68
753.367	170.88
753.808	159.18
754.249	157.68
754.69	162.18
755.131	151.28
755.572	145.88
756.013	147.18
756.453	153.78
756.894	154.58
757.335	154.28
757.776	166.98
758.216	158.78
758.657	164.98
759.098	166.58
759.538	191.28
759.979	217.18
760.42	303.48
760.86	564.38
761.301	1465.28
761.741	3629.18
762.182	5613.68
762.622	3930.78
763.063	1103.28
763.503	457.08
763.943	286.68
764.384	279.68
764.824	348.18
765.264	384.88
765.705	258.48
766.145	177.48
766.585	157.38
767.025	144.78
767.465	156.98
767.906	203.68
768.346	267.78
768.786	283.48
769.226	223.78
769.666	254.88
770.106	494.08
770.546	1259.38
770.986	2252.88
771.426	2052.38
771.866	670.98
772.306	280.58
772.745	180.08
773.185	148.88
773.625	142.58
774.065	147.28
774.505	165.18
774.944	248.38
775.384	558.68
775.824	1056.68
776.263	1049.38
776.703	437.58
777.142	192.28
777.582	127.98
778.021	119.18
778.461	117.68
778.9	117.58
779.34	111.68
779.779	96.18
780.219	93.78
780.658	90.58
781.097	93.28
781.537	97.38
781.976	95.08
782.415	90.98
782.855	88.28
783.294	83.78
783.733	85.18
784.172	93.78
784.611	85.58
785.05	89.18
785.489	93.18
785.928	98.58
786.367	106.48
786.806	84.68
787.245	108.48
787.684	110.08
788.123	124.98
788.562	112.38
789.001	103.18
789.44	98.18
789.879	94.78
790.317	100.18
790.756	107.88
791.195	102.98
791.634	123.28
792.072	158.28
792.511	286.18
792.95	806.08
793.388	1810.78
793.827	1684.68
794.265	585.48
794.704	233.68
795.142	157.88
795.581	126.78
796.019	113.28
796.458	105.38
796.896	103.68
797.334	103.98
797.773	125.78
798.211	185.78
798.649	346.48
799.087	847.78
799.526	1322.78
799.964	1688.68
800.402	1752.48
800.84	647.18
801.278	250.08
801.716	157.88
802.154	125.78
802.592	121.98
803.03	121.08
803.468	103.18
803.906	113.78
804.344	125.58
804.782	117.58
805.22	105.68
805.658	111.38
806.096	121.18
806.533	130.48
806.971	140.08
807.409	175.38
807.847	258.48
808.284	533.08
808.722	1527.28
809.16	2801.38
809.597	2599.08
810.035	4569.58
810.472	5109.98
810.91	1806.18
811.347	664.88
811.785	334.88
812.222	218.68
812.66	167.68
813.097	137.88
813.535	115.58
813.972	105.88
814.409	98.98
814.846	94.68
815.284	98.78
815.721	84.58
816.158	87.08
816.595	95.48
817.032	153.28
817.47	171.98
817.907	151.08
818.344	120.98
818.781	96.68
819.218	87.98
819.655	100.68
820.092	154.58
820.529	183.48
820.966	153.88
821.403	116.98
821.839	91.08
822.276	84.18
822.713	104.58
823.15	115.68
823.587	98.68
824.023	119.38
824.46	235.38
824.897	735.88
825.333	1173.88
825.77	500.28
826.206	194.68
826.643	113.98
827.08	87.58
827.516	72.78
827.953	61.08
828.389	67.18
828.825	60.98
829.262	58.88
829.698	49.78
830.135	57.78
830.571	50.88
831.007	56.68
831.443	54.88
831.88	46.78
832.316	53.18
832.752	50.98
833.188	55.88
833.624	58.98
834.06	56.68
834.497	56.98
834.933	55.78
835.369	63.68
835.805	53.78
836.241	69.18
836.677	63.08
837.112	71.68
837.548	85.18
837.984	108.98
838.42	158.98
838.856	397.48
839.292	1266.08
839.727	1996.18
840.163	913.18
840.599	754.28
841.034	1699.68
841.47	1862.28
841.906	665.98
842.341	281.28
842.777	193.88
843.212	269.38
843.648	272.68
844.083	131.48
844.519	77.08
844.954	65.98
845.39	52.78
845.825	52.18
846.261	48.38
846.696	46.78
847.131	44.18
847.566	47.28
848.002	46.38
848.437	43.68
848.872	50.38
849.307	51.98
849.742	68.68
850.177	142.68
850.613	464.98
851.048	759.98
851.483	325.18
851.918	128.68
852.353	72.28
852.788	52.48
853.223	43.58
853.657	45.38
854.092	36.88
854.527	34.78
854.962	30.88
855.397	37.68
855.832	41.98
856.266	32.68
856.701	38.48
857.136	30.58
857.57	33.88
858.005	44.18
858.44	48.38
858.874	30.38
859.309	44.78
859.743	25.98
860.178	38.28
860.612	31.18
861.047	38.88
861.481	59.28
861.915	60.78
862.35	42.78
862.784	28.38
863.218	28.98
863.653	27.18
864.087	38.48
864.521	52.28
864.955	58.58
865.39	131.68
865.824	138.58
866.258	90.68
866.692	134.08
867.126	153.08
867.56	90.48
867.994	46.08
868.428	28.98
868.862	27.68
869.296	48.88
869.73	46.58
870.164	49.88
870.598	36.78
871.031	32.08
871.465	19.88
871.899	24.88
872.333	15.68
872.766	21.28
873.2	16.58
873.634	26.88
874.067	25.18
874.501	20.38
874.935	27.58
875.368	24.08
875.802	21.78
876.235	26.18
876.669	18.28
877.102	21.28
877.535	18.68
877.969	16.58
878.402	21.38
878.836	18.18
879.269	18.88
879.702	23.28
880.135	21.28
880.569	22.08
881.002	24.88
881.435	13.38
881.868	22.28
882.301	21.28
882.734	13.28
883.167	22.68
883.601	17.58
884.034	16.68
884.467	12.08
884.899	13.48
885.332	9.68
885.765	11.18
886.198	15.48
886.631	16.08
887.064	16.98
887.497	21.38
887.929	19.28
888.362	9.08
888.795	9.48
889.228	14.68
889.66	15.98
890.093	14.88
890.526	12.68
890.958	9.58
891.391	18.58
891.823	19.38
892.256	19.58
892.688	12.58
893.121	9.08
893.553	10.58
893.985	22.28
894.418	16.88
894.85	12.08
895.282	10.48
895.715	11.38
896.147	13.58
896.579	14.18
897.011	8.38
897.444	10.88
897.876	9.08
898.308	10.28
898.74	7.28
899.172	10.68
899.604	22.18
900.036	15.48
900.468	11.78
900.9	13.98
901.332	20.08
901.764	7.08
902.196	16.58
902.628	12.28
903.06	16.58
903.491	26.98
903.923	23.78
904.355	17.58
904.787	23.18
905.218	20.98
905.65	14.68
906.082	12.58
906.513	6.48
906.945	11.58
907.376	14.08
907.808	14.68
908.239	19.58
908.671	15.38
909.102	11.58
909.534	19.48
909.965	37.18
910.397	75.68
910.828	271.48
911.259	411.88
911.691	187.08
912.122	88.88
912.553	42.78
912.984	28.48
913.415	21.18
913.847	21.18
914.278	6.78
914.709	17.58
915.14	15.58
915.571	18.58
916.002	9.18
916.433	24.38
916.864	17.98
917.295	9.48
917.726	18.58
918.157	11.48
918.587	22.08
919.018	20.88
919.449	19.08
919.88	15.78
920.311	29.08
920.741	40.98
921.172	137.68
921.603	132.38
922.033	54.78
922.464	37.78
922.895	20.78
923.325	14.28
923.756	15.48
924.186	10.78
924.617	25.48
925.047	31.88
925.478	44.18
925.908	33.88
926.338	24.58
926.769	12.88
927.199	19.18
927.629	1.38
928.06	16.58
928.49	10.08
928.92	14.78
929.35	7.98
929.78	3.68
930.21	3.08
930.641	5.88
931.071	9.68
931.501	2.28
931.931	3.18
932.361	5.38
932.791	2.78
933.221	7.48
933.651	3.68
934.08	18.58
934.51	29.28
934.94	11.18
935.37	4.08
935.8	5.28
936.229	6.38
936.659	8.38
937.089	3.88
937.519	9.78
937.948	24.38
938.378	13.98
938.807	9.28
939.237	5.88
939.666	5.68
940.096	-5.52
940.525	1.28
940.955	1.78
941.384	-1.42
941.814	-10.02
942.243	-4.32
942.672	7.58
943.102	-7.42
943.531	-3.22
943.96	-2.32
944.39	2.98
944.819	-0.62
945.248	-1.72
945.677	3.08
946.106	1.48
946.535	9.38
946.964	-7.52
947.393	7.78
947.822	0.78
948.251	-4.12
948.68	1.88
949.109	4.28
949.538	6.08
949.967	-4.92
950.396	2.88
950.825	-2.22
951.254	0.28
951.682	-8.82
952.111	7.38
952.54	6.28
952.969	-5.12
953.397	-5.92
953.826	-2.72
954.254	0.78
954.683	2.68
955.112	3.48
955.54	-1.42
955.969	-2.22
956.397	1.48
956.826	-0.92
957.254	1.98
957.682	-1.82
958.111	11.88
958.539	-4.22
958.967	2.58
959.396	-5.62
959.824	3.58
960.252	5.78
960.68	-8.82
961.109	0.58
961.537	0.78
961.965	0.78
962.393	-2.32
962.821	-1.92
963.249	-0.22
963.677	6.28
964.105	1.98
964.533	37.58
964.961	36.78
965.389	16.08
965.817	7.38
966.245	-1.92
966.672	7.38
967.1	-9.32
967.528	4.08
967.956	-4.72
968.383	-0.72
968.811	-2.22
969.239	-5.32
969.666	-5.72
970.094	5.08
970.522	7.38
970.949	-1.42
971.377	-4.62
971.804	-5.72
972.232	0.48
972.659	-4.52
973.087	-1.92
973.514	-2.12
973.941	-10.22
974.369	2.48
974.796	2.98
975.223	-2.32
975.651	0.38
976.078	2.58
976.505	2.28
976.932	-1.42
977.359	14.88
977.786	16.68
978.214	2.48
978.641	-3.42
979.068	-5.42
979.495	-9.72
979.922	-1.32
980.349	-3.92
980.776	2.78
981.202	1.18
981.629	-0.82
982.056	6.68
982.483	-3.42
982.91	8.58
983.337	-3.82
983.763	9.48
984.19	-1.92
984.617	-4.12
985.043	-8.22
985.47	-0.22
985.897	-4.12
986.323	-8.92
986.75	3.08
987.176	-5.02
987.603	3.98
988.029	2.18
988.456	-0.42
988.882	-1.42
989.308	-1.52
989.735	-3.62
990.161	-3.82
990.587	-5.02
991.014	-0.22
991.44	4.88
991.866	-3.02
992.292	-2.82
992.719	-3.52
993.145	-1.42
993.571	-5.62
993.997	-8.22
994.423	2.48
994.849	-2.52
995.275	0.98
995.701	2.08
996.127	-1.32
996.553	7.18
996.979	-3.42
997.405	0.98
997.83	-7.62
998.256	-9.52
998.682	-5.62
999.108	-6.22
999.534	-1.22
999.959	-0.82
1000.385	-1.42
1000.811	-1.52
1001.236	-7.82
1001.662	-9.02
1002.087	-10.42
1002.513	0.48
1002.938	5.48
1003.364	2.38
1003.789	1.88
1004.215	4.48
1004.64	-2.82
1005.066	-0.72
1005.491	1.68
1005.916	1.78
1006.342	-1.32
1006.767	-4.82
1007.192	4.18
1007.617	1.58
1008.042	-0.62
1008.468	-5.12
1008.893	-2.22
1009.318	1.28
1009.743	-0.12
1010.168	6.28
1010.593	2.68
1011.018	-8.82
1011.443	4.98
1011.868	3.08
1012.293	-3.02
1012.718	-10.12
1013.143	2.58
1013.567	3.68
1013.992	-3.22
1014.417	-10.32
1014.842	0.98
1015.267	-6.02
1015.691	-3.32
1016.116	5.98
1016.541	-0.02
1016.965	-1.32
1017.39	-2.02
1017.814	-8.32
1018.239	-2.22
1018.663	-8.02
1019.088	-12.22
1019.512	0.18
1019.937	-2.12
1020.361	-0.52
1020.785	-13.42
1021.21	-0.02
1021.634	-1.62
1022.058	-1.42
1022.483	-1.12
1022.907	-0.82
1023.331	-4.22
1023.755	0.78
1024.179	-6.72
1024.604	-7.72
1025.028	-5.52
1025.452	-6.02
1025.876	-5.02
1026.3	-0.72
1026.724	-5.12
1027.148	-3.52
1027.572	-8.12
1027.996	-0.72
1028.42	0.58
1028.843	-6.92
1029.267	-2.92
1029.691	-4.62
1030.115	-2.02
1030.539	-3.22
1030.962	-7.42
1031.386	-10.02
1031.81	-1.62
1032.233	-2.52
1032.657	-3.42
1033.08	5.08
1033.504	1.98
1033.927	-8.42
1034.351	-7.42
1034.774	-4.82
1035.198	-2.42
1035.621	-6.52
1036.045	-5.82
1036.468	-0.72
1036.891	-12.52
1037.315	-3.02
1037.738	-9.22
1038.161	5.38
1038.584	-4.22
1039.008	-2.62
1039.431	-4.32
1039.854	-1.22
1040.277	-0.52
1040.7	-13.32
1041.123	0.88
1041.546	-5.12
1041.969	0.38
1042.392	-13.32
1042.815	-2.22
1043.238	2.28
1043.661	3.38
1044.084	-5.92
1044.507	-0.42
1044.93	-5.12
1045.352	-5.42
1045.775	0.38
1046.198	1.08
1046.621	3.48
1047.043	2.78
1047.466	1.68
1047.889	-1.12
1048.311	-3.82
1048.734	1.58
1049.156	4.58
1049.579	-0.72
1050.001	-1.92
1050.424	4.18
1050.846	-2.92
1051.269	-4.92
1051.691	-3.12
1052.113	-5.92
1052.536	-0.02
1052.958	-4.52
1053.38	-3.02
1053.802	-13.42
1054.225	3.08
1054.647	-7.12
1055.069	-0.72
1055.491	3.08
1055.913	-7.72
1056.335	-0.62
1056.757	-2.02
1057.179	-4.82
1057.601	-9.32
1058.023	-0.32
1058.445	-4.52
1058.867	-1.62
1059.289	-3.42
1059.711	-6.52
1060.133	-0.32
1060.555	-5.62
1060.976	-4.62
1061.398	-8.42
1061.82	-4.12
1062.241	-10.32
1062.663	-1.02
1063.085	-9.32
1063.506	1.88
1063.928	-1.92
1064.35	-0.92
1064.771	-10.42
1065.193	-2.82
1065.614	-5.52
1066.035	-8.52
1066.457	-1.42
1066.878	0.08
1067.3	-4.82
1067.721	-8.42
1068.142	-1.62
1068.564	-3.42
1068.985	-6.52
1069.406	-2.92
1069.827	-8.12
1070.248	0.28
1070.67	-8.02
1071.091	-8.32
1071.512	-7.52
1071.933	-1.32
1072.354	-7.82
1072.775	-0.82
1073.196	0.18
1073.617	-10.82
1074.038	-2.62
1074.459	-3.72
1074.88	-3.72
1075.3	2.88
1075.721	-4.92
1076.142	1.28
1076.563	-0.32
1076.983	-7.52
1077.404	-10.52
1077.825	-5.82
1078.246	-6.82
1078.666	-9.72
1079.087	-8.12
1079.507	-4.32
1079.928	4.28
1080.348	1.38
1080.769	-6.12
1081.189	-4.32
1081.61	0.08
1082.03	-2.02
1082.451	-6.12
1082.871	-5.92
1083.291	-4.32
1083.711	-13.62
1084.132	-4.22
1084.552	-1.12
1084.972	5.48
1085.392	-8.82
1085.813	-9.62
1086.233	-5.62
1086.653	-9.02
1087.073	-3.12
1087.493	-9.22
1087.913	-6.42
1088.333	-6.42
1088.753	-2.72
1089.173	4.58
1089.593	-3.12
1090.013	-0.92
1090.433	-2.82
1090.852	-1.62
1091.272	0.38
1091.692	3.08
1092.112	-3.72
1092.531	-9.62
1092.951	-9.52
1093.371	-3.52
1093.79	-1.02
1094.21	0.88
1094.63	-5.32
1095.049	-4.52
1095.469	-3.22
1095.888	-4.42
1096.308	-2.02
1096.727	-2.62
1097.146	-7.02
1097.566	3.68
1097.985	-6.52
1098.405	1.88
1098.824	-7.32
1099.243	-8.02
1099.662	-10.12
1100.082	-6.62
1100.501	0.48
1100.92	-5.42
1101.339	-2.42
1101.758	-3.92
