Data from 20171114-ORNL-Ar_H_NY_Subt18_08-08-35-038.txt Node
Date: Tue Nov 14 08:08:35 EST 2017
User: Ender
Spectrometer: HR+D1039
Trigger mode: 0
Integration Time (sec): 2.730000E-2
Scans to average: 10
Electric dark correction enabled: true
Nonlinearity correction enabled: false
Boxcar width: 0
XAxis mode: Wavelengths
Number of Pixels in Spectrum: 2048
>>>>>Begin Spectral Data<<<<<
187.836	-6.39
188.309	-6.39
188.782	-6.39
189.255	-0.69
189.728	-3.29
190.201	3.91
190.674	1.31
191.147	5.71
191.619	-7.09
192.092	4.71
192.565	1.71
193.038	-0.79
193.511	-2.49
193.984	5.31
194.456	-3.49
194.929	2.21
195.402	-2.59
195.874	2.01
196.347	-3.59
196.82	-10.29
197.292	8.41
197.765	-2.29
198.237	-8.09
198.71	-1.29
199.182	-2.49
199.655	0.71
200.127	3.41
200.6	-2.19
201.072	-0.89
201.544	-3.39
202.017	-2.19
202.489	1.31
202.961	1.61
203.433	-1.09
203.906	-3.29
204.378	-9.39
204.85	-3.79
205.322	-8.39
205.794	1.11
206.266	-3.69
206.739	-3.59
207.211	2.71
207.683	-10.29
208.155	-5.69
208.627	-4.69
209.099	3.01
209.57	-4.89
210.042	-6.49
210.514	-5.89
210.986	-2.99
211.458	-6.59
211.93	-0.79
212.402	2.01
212.873	-6.59
213.345	-7.39
213.817	-10.09
214.288	-0.29
214.76	-13.59
215.232	-1.29
215.703	-0.69
216.175	-0.49
216.646	-12.39
217.118	-6.39
217.589	-5.39
218.061	0.31
218.532	-5.69
219.004	-4.99
219.475	-5.79
219.946	-4.89
220.418	-6.29
220.889	3.31
221.36	1.41
221.832	-1.09
222.303	-1.69
222.774	2.11
223.245	-9.49
223.717	-3.19
224.188	-4.49
224.659	-4.89
225.13	-7.49
225.601	-0.79
226.072	-5.69
226.543	-2.79
227.014	-3.19
227.485	-6.19
227.956	-3.19
228.427	2.31
228.898	3.91
229.369	-0.79
229.839	-8.09
230.31	-8.89
230.781	-0.59
231.252	-6.59
231.722	-4.39
232.193	1.91
232.664	-6.69
233.135	3.01
233.605	-1.09
234.076	-6.59
234.546	1.51
235.017	5.51
235.487	2.81
235.958	-2.09
236.428	-1.09
236.899	1.81
237.369	1.91
237.84	-6.39
238.31	7.51
238.78	-1.19
239.251	-3.09
239.721	7.11
240.191	-2.69
240.662	1.61
241.132	1.61
241.602	-2.99
242.072	-0.79
242.542	6.71
243.013	0.81
243.483	3.51
243.953	4.21
244.423	1.31
244.893	1.21
245.363	3.01
245.833	5.01
246.303	-1.49
246.773	10.21
247.243	1.51
247.712	3.31
248.182	5.01
248.652	6.01
249.122	-6.69
249.592	8.61
250.061	20.51
250.531	24.51
251.001	12.21
251.471	13.01
251.94	10.61
252.41	10.31
252.879	-4.39
253.349	12.81
253.818	5.91
254.288	8.31
254.757	3.11
255.227	-2.09
255.696	-5.39
256.166	4.21
256.635	9.01
257.105	4.71
257.574	4.41
258.043	4.51
258.513	6.81
258.982	6.91
259.451	2.31
259.92	14.21
260.389	6.11
260.859	12.31
261.328	6.51
261.797	16.91
262.266	2.31
262.735	11.31
263.204	6.21
263.673	1.91
264.142	4.71
264.611	-2.69
265.08	-4.69
265.549	6.61
266.018	0.31
266.487	-3.79
266.955	-2.79
267.424	-0.09
267.893	8.31
268.362	3.51
268.83	1.91
269.299	12.71
269.768	7.51
270.236	2.21
270.705	2.31
271.174	0.81
271.642	5.01
272.111	8.31
272.579	12.51
273.048	16.51
273.516	16.91
273.985	18.91
274.453	14.71
274.922	14.11
275.39	3.51
275.858	1.01
276.327	5.31
276.795	13.31
277.263	6.31
277.731	24.11
278.2	41.71
278.668	43.91
279.136	35.31
279.604	19.21
280.072	13.41
280.54	10.91
281.008	9.71
281.477	16.71
281.945	13.91
282.413	18.71
282.881	8.31
283.348	-1.89
283.816	15.61
284.284	12.71
284.752	16.11
285.22	11.91
285.688	16.91
286.156	11.21
286.623	30.51
287.091	35.31
287.559	20.61
288.026	15.51
288.494	11.91
288.962	1.51
289.429	12.11
289.897	18.51
290.364	11.51
290.832	22.01
291.3	14.01
291.767	10.81
292.234	10.31
292.702	12.41
293.169	11.81
293.637	14.81
294.104	18.71
294.571	3.01
295.039	12.71
295.506	15.61
295.973	16.51
296.44	9.81
296.908	12.21
297.375	12.31
297.842	19.41
298.309	20.01
298.776	13.21
299.243	16.51
299.71	13.11
300.177	18.31
300.644	24.31
301.111	16.21
301.578	22.11
302.045	16.71
302.512	20.91
302.979	17.91
303.446	16.91
303.913	20.71
304.379	15.41
304.846	25.81
305.313	13.71
305.78	18.71
306.246	23.81
306.713	23.11
307.18	25.61
307.646	23.11
308.113	19.51
308.579	22.21
309.046	18.51
309.512	19.21
309.979	17.71
310.445	23.81
310.912	27.41
311.378	28.31
311.845	24.61
312.311	19.31
312.777	24.51
313.244	31.81
313.71	35.21
314.176	29.51
314.642	28.91
315.109	30.01
315.575	37.41
316.041	27.41
316.507	30.21
316.973	37.61
317.439	30.41
317.905	24.91
318.371	32.71
318.837	33.31
319.303	28.91
319.769	22.81
320.235	25.61
320.701	33.11
321.167	36.41
321.633	26.81
322.099	35.71
322.564	35.11
323.03	30.01
323.496	33.91
323.962	32.81
324.427	32.71
324.893	39.01
325.359	36.21
325.824	38.31
326.29	27.41
326.755	39.21
327.221	36.71
327.686	38.61
328.152	45.31
328.617	44.91
329.083	39.71
329.548	45.31
330.014	46.11
330.479	37.31
330.944	41.81
331.41	40.81
331.875	40.21
332.34	41.81
332.805	44.11
333.271	37.41
333.736	40.61
334.201	44.01
334.666	45.11
335.131	52.71
335.596	49.81
336.061	47.21
336.526	38.61
336.991	50.51
337.456	53.61
337.921	43.31
338.386	40.41
338.851	40.31
339.316	42.11
339.781	39.81
340.246	50.41
340.711	36.21
341.175	46.91
341.64	33.61
342.105	48.81
342.569	54.51
343.034	53.41
343.499	58.11
343.963	49.21
344.428	56.61
344.893	55.91
345.357	56.71
345.822	51.61
346.286	60.91
346.751	66.91
347.215	64.31
347.679	72.11
348.144	87.21
348.608	77.11
349.073	65.81
349.537	72.31
350.001	71.71
350.465	84.51
350.93	72.61
351.394	79.51
351.858	70.41
352.322	82.71
352.786	77.31
353.25	94.71
353.715	102.31
354.179	102.51
354.643	109.91
355.107	112.91
355.571	95.71
356.035	95.81
356.498	108.51
356.962	123.71
357.426	122.01
357.89	102.41
358.354	79.51
358.818	80.71
359.281	82.11
359.745	70.71
360.209	79.21
360.673	75.61
361.136	75.91
361.6	77.71
362.064	75.31
362.527	78.61
362.991	85.61
363.454	73.51
363.918	74.71
364.381	71.01
364.845	79.31
365.308	83.41
365.772	87.31
366.235	85.71
366.698	84.61
367.162	81.31
367.625	86.11
368.088	86.81
368.552	81.61
369.015	83.11
369.478	94.01
369.941	97.71
370.404	91.01
370.867	96.01
371.331	106.21
371.794	102.31
372.257	103.71
372.72	114.21
373.183	104.61
373.646	102.31
374.109	101.71
374.572	105.81
375.035	102.31
375.497	113.91
375.96	104.51
376.423	102.11
376.886	103.51
377.349	105.11
377.811	103.11
378.274	101.41
378.737	104.01
379.199	103.71
379.662	112.71
380.125	116.31
380.587	109.41
381.05	120.21
381.512	117.51
381.975	133.61
382.437	121.61
382.9	117.51
383.362	127.61
383.825	138.01
384.287	142.81
384.75	144.41
385.212	137.11
385.674	132.81
386.136	134.91
386.599	125.21
387.061	124.41
387.523	125.11
387.985	134.31
388.447	142.61
388.91	140.91
389.372	152.61
389.834	145.41
390.296	147.01
390.758	148.31
391.22	159.71
391.682	180.11
392.144	275.71
392.606	218.41
393.068	169.01
393.529	159.61
393.991	151.91
394.453	147.81
394.915	149.41
395.377	190.01
395.838	202.31
396.3	146.11
396.762	137.81
397.224	132.41
397.685	129.31
398.147	133.01
398.608	137.41
399.07	121.51
399.531	134.81
399.993	146.21
400.454	152.21
400.916	142.81
401.377	138.31
401.839	154.21
402.3	149.91
402.762	159.81
403.223	169.51
403.684	170.11
404.145	161.61
404.607	158.61
405.068	163.01
405.529	166.61
405.99	184.01
406.451	178.61
406.913	174.01
407.374	161.71
407.835	158.41
408.296	163.51
408.757	178.01
409.218	187.41
409.679	180.81
410.14	171.51
410.601	172.41
411.062	185.41
411.522	186.31
411.983	192.91
412.444	182.71
412.905	189.11
413.366	182.51
413.826	194.71
414.287	213.91
414.748	262.21
415.208	250.51
415.669	210.21
416.13	213.31
416.59	205.91
417.051	212.01
417.511	219.21
417.972	235.61
418.432	249.51
418.893	287.01
419.353	246.11
419.814	201.81
420.274	186.51
420.734	182.71
421.195	205.11
421.655	207.41
422.115	202.31
422.576	196.91
423.036	202.11
423.496	211.31
423.956	217.61
424.416	230.31
424.876	267.11
425.336	262.51
425.797	256.41
426.257	256.71
426.717	245.71
427.177	235.31
427.637	225.31
428.097	238.61
428.556	244.91
429.016	274.51
429.476	267.71
429.936	279.51
430.396	280.31
430.856	285.91
431.315	311.31
431.775	347.01
432.235	385.11
432.694	354.51
433.154	368.51
433.614	391.81
434.073	334.51
434.533	285.21
434.993	271.91
435.452	286.41
435.912	294.21
436.371	288.21
436.83	279.71
437.29	265.41
437.749	249.01
438.209	249.51
438.668	278.61
439.127	292.61
439.587	262.01
440.046	251.01
440.505	268.21
440.964	280.21
441.424	315.21
441.883	312.81
442.342	263.01
442.801	233.01
443.26	224.81
443.719	228.41
444.178	227.61
444.637	218.61
445.096	230.51
445.555	224.11
446.014	225.71
446.473	227.01
446.932	237.91
447.391	226.91
447.849	231.81
448.308	218.51
448.767	222.11
449.226	240.51
449.685	235.11
450.143	254.11
450.602	241.21
451.061	224.11
451.519	234.71
451.978	231.91
452.436	241.11
452.895	236.81
453.353	253.61
453.812	244.41
454.27	240.21
454.729	243.51
455.187	248.01
455.646	255.01
456.104	249.11
456.562	266.61
457.021	276.31
457.479	258.31
457.937	268.91
458.395	259.11
458.854	248.41
459.312	256.21
459.77	270.21
460.228	257.21
460.686	244.31
461.144	255.21
461.602	248.51
462.06	248.81
462.518	257.91
462.976	256.51
463.434	265.91
463.892	262.91
464.35	277.51
464.808	284.51
465.266	269.91
465.724	280.71
466.181	273.71
466.639	272.21
467.097	292.51
467.555	295.71
468.012	307.11
468.47	313.61
468.928	330.61
469.385	348.31
469.843	355.01
470.3	346.81
470.758	368.11
471.215	390.71
471.673	408.91
472.13	409.11
472.588	422.61
473.045	385.41
473.503	386.71
473.96	393.41
474.417	408.01
474.875	444.31
475.332	480.71
475.789	461.81
476.246	479.61
476.704	496.51
477.161	511.41
477.618	524.61
478.075	567.71
478.532	625.71
478.989	698.01
479.446	807.61
479.903	768.01
480.36	797.61
480.817	856.01
481.274	954.11
481.731	1048.81
482.188	1144.81
482.645	1274.31
483.102	1371.41
483.558	1502.91
484.015	1558.11
484.472	1539.01
484.929	1486.01
485.385	1433.81
485.842	1387.31
486.299	1330.01
486.755	1282.41
487.212	1078.21
487.668	917.11
488.125	857.11
488.582	764.91
489.038	740.31
489.494	710.11
489.951	682.01
490.407	669.21
490.864	649.11
491.32	640.91
491.776	641.21
492.233	650.21
492.689	612.51
493.145	602.21
493.602	606.11
494.058	611.71
494.514	614.11
494.97	637.51
495.426	648.51
495.882	618.71
496.338	621.51
496.794	618.21
497.251	606.91
497.707	625.91
498.163	629.41
498.618	639.01
499.074	640.01
499.53	675.51
499.986	671.21
500.442	653.01
500.898	634.61
501.354	623.21
501.809	643.81
502.265	648.21
502.721	661.31
503.177	664.91
503.632	667.11
504.088	671.91
504.543	707.31
504.999	702.61
505.455	667.01
505.91	630.91
506.366	632.41
506.821	631.01
507.277	628.51
507.732	634.51
508.187	626.51
508.643	635.61
509.098	636.91
509.553	661.61
510.009	658.61
510.464	676.91
510.919	691.91
511.375	695.01
511.83	712.01
512.285	721.21
512.74	764.01
513.195	788.21
513.65	773.61
514.105	760.71
514.56	768.81
515.015	796.31
515.47	809.11
515.925	787.81
516.38	791.11
516.835	795.91
517.29	784.81
517.745	773.41
518.2	769.91
518.655	749.51
519.109	746.11
519.564	725.21
520.019	735.31
520.474	721.51
520.928	731.11
521.383	721.91
521.838	714.01
522.292	717.11
522.747	715.21
523.201	707.71
523.656	686.41
524.11	698.51
524.565	689.11
525.019	696.21
525.474	706.91
525.928	705.21
526.382	698.21
526.837	700.71
527.291	703.41
527.745	698.81
528.2	700.81
528.654	695.51
529.108	692.31
529.562	698.51
530.016	691.91
530.47	696.61
530.925	698.81
531.379	696.11
531.833	711.81
532.287	700.41
532.741	706.51
533.195	706.01
533.649	704.21
534.103	723.31
534.556	705.41
535.01	708.61
535.464	710.01
535.918	722.21
536.372	712.61
536.826	721.31
537.279	708.31
537.733	708.01
538.187	709.91
538.64	709.21
539.094	726.71
539.548	729.81
540.001	722.91
540.455	730.91
540.908	731.51
541.362	747.91
541.815	751.01
542.269	762.71
542.722	765.71
543.175	766.11
543.629	771.91
544.082	783.91
544.536	791.11
544.989	786.91
545.442	793.31
545.895	791.71
546.349	794.71
546.802	794.41
547.255	799.01
547.708	804.11
548.161	811.41
548.614	816.41
549.067	831.61
549.52	818.11
549.973	804.41
550.426	805.91
550.879	801.71
551.332	804.01
551.785	804.91
552.238	821.11
552.691	824.61
553.144	839.61
553.596	854.51
554.049	870.21
554.502	892.61
554.955	907.71
555.407	921.51
555.86	898.61
556.313	891.31
556.765	882.51
557.218	882.91
557.67	880.31
558.123	877.41
558.576	876.11
559.028	881.71
559.48	889.71
559.933	876.51
560.385	829.51
560.838	810.01
561.29	790.71
561.742	798.91
562.195	768.81
562.647	774.21
563.099	778.71
563.551	777.81
564.004	789.01
564.456	778.81
564.908	769.71
565.36	757.51
565.812	737.41
566.264	719.71
566.716	727.91
567.168	710.31
567.62	730.61
568.072	717.51
568.524	703.21
568.976	699.01
569.428	680.61
569.88	688.11
570.332	690.31
570.784	687.61
571.235	688.11
571.687	700.91
572.139	704.31
572.59	718.41
573.042	709.01
573.494	719.01
573.945	716.71
574.397	688.71
574.849	693.41
575.3	694.51
575.752	682.71
576.203	682.21
576.655	695.41
577.106	679.61
577.557	668.11
578.009	680.91
578.46	671.61
578.912	658.11
579.363	672.11
579.814	667.91
580.265	664.61
580.717	673.21
581.168	683.41
581.619	680.91
582.07	685.41
582.521	682.71
582.972	684.71
583.423	686.71
583.875	691.41
584.326	692.91
584.777	743.41
585.227	816.21
585.678	886.91
586.129	963.11
586.58	1022.21
587.031	1101.51
587.482	1216.91
587.933	1380.01
588.384	1227.71
588.834	946.51
589.285	804.91
589.736	793.51
590.186	781.71
590.637	779.71
591.088	744.91
591.538	744.71
591.989	727.21
592.439	730.81
592.89	723.81
593.34	710.21
593.791	716.41
594.241	718.01
594.692	717.01
595.142	713.41
595.593	702.31
596.043	709.11
596.493	723.91
596.943	715.81
597.394	720.91
597.844	719.31
598.294	737.81
598.744	765.21
599.195	788.91
599.645	835.51
600.095	873.41
600.545	920.91
600.995	976.21
601.445	1039.51
601.895	1101.51
602.345	1141.01
602.795	1122.91
603.245	1065.91
603.695	1019.61
604.145	969.61
604.594	916.51
605.044	870.81
605.494	811.41
605.944	757.71
606.393	744.81
606.843	734.91
607.293	739.01
607.743	737.61
608.192	753.31
608.642	767.11
609.091	776.51
609.541	780.11
609.99	789.31
610.44	770.71
610.889	725.01
611.339	711.21
611.788	705.01
612.238	707.01
612.687	722.41
613.136	718.71
613.586	740.01
614.035	731.61
614.484	745.31
614.933	754.41
615.383	746.81
615.832	739.71
616.281	724.31
616.73	687.81
617.179	673.61
617.628	658.31
618.077	639.81
618.526	635.41
618.975	624.11
619.424	636.01
619.873	625.81
620.322	613.91
620.771	610.11
621.22	618.21
621.669	598.91
622.118	594.81
622.567	579.81
623.015	581.11
623.464	578.31
623.913	569.41
624.361	563.41
624.81	567.41
625.259	560.21
625.707	570.01
626.156	562.71
626.604	577.11
627.053	570.31
627.501	571.01
627.95	576.91
628.398	593.61
628.847	579.81
629.295	570.11
629.744	577.81
630.192	578.31
630.64	572.91
631.089	562.91
631.537	574.01
631.985	583.81
632.433	604.21
632.881	611.41
633.33	653.61
633.778	635.71
634.226	575.51
634.674	573.11
635.122	575.61
635.57	605.51
636.018	634.01
636.466	587.61
636.914	571.61
637.362	585.31
637.81	580.71
638.258	583.11
638.705	586.91
639.153	625.71
639.601	633.61
640.049	653.51
640.497	674.71
640.944	696.11
641.392	649.31
641.84	622.11
642.287	595.21
642.735	572.51
643.182	589.11
643.63	571.81
644.078	579.71
644.525	590.31
644.973	606.61
645.42	613.61
645.867	622.61
646.315	644.71
646.762	673.61
647.21	706.01
647.657	721.21
648.104	770.61
648.551	779.21
648.999	845.71
649.446	928.01
649.893	1004.21
650.34	1176.31
650.787	1406.41
651.234	1748.01
651.682	2273.41
652.129	3134.51
652.576	4500.21
653.023	6589.01
653.47	8988.71
653.917	11094.81
654.363	12711.11
654.81	13929.41
655.257	13261.41
655.704	8704.41
656.151	5177.71
656.598	3368.61
657.044	2395.61
657.491	1842.41
657.938	1482.61
658.385	1242.81
658.831	1087.81
659.278	973.31
659.724	850.61
660.171	796.51
660.618	732.41
661.064	696.31
661.511	675.71
661.957	656.31
662.404	654.81
662.85	654.71
663.296	628.01
663.743	574.11
664.189	543.21
664.635	543.01
665.082	526.31
665.528	535.51
665.974	522.11
666.42	515.71
666.867	513.11
667.313	492.81
667.759	485.11
668.205	482.71
668.651	486.31
669.097	481.51
669.543	499.31
669.989	472.41
670.435	461.01
670.881	450.91
671.327	453.81
671.773	474.61
672.219	505.61
672.665	565.71
673.11	602.71
673.556	638.31
674.002	685.31
674.448	675.41
674.893	549.01
675.339	480.31
675.785	448.01
676.23	421.71
676.676	397.31
677.122	385.71
677.567	380.61
678.013	378.51
678.458	371.21
678.904	365.31
679.349	352.61
679.794	362.61
680.24	362.81
680.685	352.51
681.131	346.11
681.576	353.31
682.021	363.21
682.466	356.81
682.912	365.31
683.357	370.91
683.802	388.71
684.247	419.81
684.692	465.41
685.137	505.71
685.583	540.01
686.028	579.81
686.473	528.61
686.918	457.71
687.363	419.61
687.807	397.61
688.252	366.01
688.697	360.71
689.142	346.01
689.587	348.31
690.032	323.61
690.477	351.61
690.921	350.91
691.366	392.81
691.811	402.41
692.255	440.41
692.7	467.81
693.145	518.51
693.589	731.11
694.034	1189.61
694.478	1584.81
694.923	1766.11
695.367	2272.21
695.812	1220.71
696.256	507.61
696.701	378.81
697.145	343.91
697.59	338.31
698.034	329.51
698.478	332.81
698.922	328.01
699.367	328.71
699.811	343.31
700.255	359.21
700.699	392.21
701.143	435.81
701.588	484.01
702.032	520.21
702.476	519.41
702.92	499.51
703.364	500.71
703.808	674.41
704.252	1088.81
704.696	1509.21
705.14	1689.41
705.584	2144.51
706.027	1083.71
706.471	522.11
706.915	402.71
707.359	367.51
707.803	325.61
708.246	322.01
708.69	331.61
709.134	318.61
709.577	320.71
710.021	325.11
710.465	315.41
710.908	301.31
711.352	301.81
711.795	313.51
712.239	362.71
712.682	394.51
713.126	420.61
713.569	472.01
714.012	375.01
714.456	324.71
714.899	303.11
715.342	281.41
715.786	263.91
716.229	267.51
716.672	264.51
717.115	259.41
717.558	253.41
718.002	253.11
718.445	274.71
718.888	293.91
719.331	305.81
719.774	306.01
720.217	314.51
720.66	286.21
721.103	270.41
721.546	261.01
721.989	248.81
722.432	232.11
722.874	240.61
723.317	234.31
723.76	243.21
724.203	261.31
724.645	335.21
725.088	459.01
725.531	587.21
725.974	648.11
726.416	562.91
726.859	315.11
727.301	251.41
727.744	243.91
728.187	240.91
728.629	251.11
729.071	249.21
729.514	260.61
729.956	272.81
730.399	291.41
730.841	293.01
731.283	287.61
731.726	276.11
732.168	266.91
732.61	272.61
733.053	297.81
733.495	323.81
733.937	362.31
734.379	405.31
734.821	442.21
735.263	572.91
735.705	887.51
736.148	1672.01
736.59	2664.81
737.032	3069.31
737.474	2501.21
737.916	807.31
738.357	449.81
738.799	332.21
739.241	305.71
739.683	286.41
740.125	297.71
740.567	303.81
741.008	319.61
741.45	321.11
741.892	324.41
742.334	350.81
742.775	360.71
743.217	353.01
743.658	279.41
744.1	262.81
744.542	277.31
744.983	323.41
745.425	342.71
745.866	351.81
746.307	290.71
746.749	279.11
747.19	338.31
747.632	482.51
748.073	936.61
748.514	1954.11
748.956	2905.21
749.397	3633.21
749.838	3055.21
750.279	2984.31
750.72	1523.91
751.162	557.01
751.603	330.21
752.044	258.31
752.485	221.01
752.926	207.81
753.367	208.81
753.808	193.01
754.249	195.81
754.69	188.11
755.131	184.91
755.572	185.81
756.013	186.21
756.453	186.71
756.894	190.81
757.335	196.41
757.776	202.11
758.216	200.51
758.657	198.01
759.098	207.31
759.538	231.61
759.979	277.71
760.42	391.21
760.86	762.31
761.301	1953.61
761.741	4619.71
762.182	6411.81
762.622	4529.21
763.063	1332.51
763.503	549.81
763.943	352.21
764.384	340.71
764.824	385.31
765.264	404.71
765.705	287.31
766.145	209.51
766.585	186.41
767.025	181.41
767.465	187.91
767.906	235.31
768.346	292.61
768.786	316.31
769.226	256.21
769.666	331.31
770.106	664.51
770.546	1646.91
770.986	2675.61
771.426	2371.91
771.866	805.11
772.306	332.41
772.745	215.41
773.185	176.41
773.625	168.51
774.065	160.51
774.505	192.21
774.944	297.21
775.384	637.61
775.824	1084.01
776.263	1043.81
776.703	459.51
777.142	213.11
777.582	155.41
778.021	140.91
778.461	138.01
778.9	142.41
779.34	135.51
779.779	115.81
780.219	107.11
780.658	108.71
781.097	116.01
781.537	114.11
781.976	115.61
782.415	105.11
782.855	105.61
783.294	104.91
783.733	110.91
784.172	109.11
784.611	102.71
785.05	114.71
785.489	113.61
785.928	121.31
786.367	122.01
786.806	117.71
787.245	137.51
787.684	145.81
788.123	152.11
788.562	140.61
789.001	130.61
789.44	125.31
789.879	121.91
790.317	124.61
790.756	137.01
791.195	131.81
791.634	146.91
792.072	214.81
792.511	394.11
792.95	1070.61
793.388	2175.31
793.827	1921.41
794.265	683.81
794.704	292.91
795.142	183.81
795.581	161.11
796.019	137.41
796.458	130.91
796.896	126.81
797.334	136.21
797.773	164.81
798.211	231.71
798.649	469.71
799.087	1058.91
799.526	1650.81
799.964	2065.81
800.402	2015.71
800.84	772.41
801.278	306.11
801.716	191.71
802.154	159.71
802.592	155.01
803.03	140.91
803.468	136.01
803.906	143.91
804.344	154.81
804.782	146.71
805.22	140.61
805.658	127.31
806.096	146.71
806.533	159.51
806.971	179.01
807.409	225.01
807.847	333.31
808.284	706.61
808.722	1964.21
809.16	3348.31
809.597	3268.41
810.035	5578.61
810.472	5720.01
810.91	2112.11
811.347	813.61
811.785	416.31
812.222	260.21
812.66	202.61
813.097	179.21
813.535	146.01
813.972	130.01
814.409	120.31
814.846	109.91
815.284	115.91
815.721	104.21
816.158	108.61
816.595	122.71
817.032	172.71
817.47	193.91
817.907	154.81
818.344	142.91
818.781	116.41
819.218	101.11
819.655	126.61
820.092	194.51
820.529	212.41
820.966	176.11
821.403	141.81
821.839	104.61
822.276	104.71
822.713	132.31
823.15	140.21
823.587	125.11
824.023	153.61
824.46	328.41
824.897	937.61
825.333	1359.41
825.77	590.81
826.206	235.31
826.643	142.61
827.08	103.01
827.516	81.81
827.953	77.31
828.389	80.91
828.825	76.71
829.262	70.01
829.698	73.71
830.135	70.01
830.571	59.81
831.007	72.11
831.443	65.51
831.88	67.01
832.316	68.01
832.752	63.71
833.188	69.41
833.624	65.71
834.06	75.31
834.497	65.61
834.933	75.11
835.369	80.21
835.805	68.71
836.241	73.11
836.677	82.51
837.112	94.11
837.548	106.21
837.984	136.91
838.42	209.01
838.856	536.41
839.292	1594.81
839.727	2299.01
840.163	1081.01
840.599	978.11
841.034	2093.41
841.47	2113.41
841.906	777.01
842.341	347.51
842.777	234.81
843.212	292.41
843.648	280.61
844.083	144.31
844.519	91.91
844.954	80.01
845.39	59.41
845.825	58.41
846.261	60.51
846.696	56.41
847.131	47.71
847.566	60.31
848.002	54.61
848.437	55.31
848.872	68.51
849.307	64.81
849.742	90.71
850.177	191.51
850.613	579.71
851.048	873.21
851.483	380.11
851.918	155.11
852.353	84.61
852.788	59.91
853.223	58.51
853.657	59.01
854.092	45.31
854.527	44.11
854.962	44.91
855.397	49.61
855.832	56.61
856.266	50.91
856.701	44.51
857.136	43.21
857.57	42.81
858.005	54.81
858.44	60.21
858.874	44.11
859.309	55.41
859.743	45.41
860.178	46.81
860.612	46.61
861.047	54.21
861.481	77.31
861.915	74.41
862.35	55.91
862.784	34.91
863.218	45.41
863.653	33.61
864.087	49.01
864.521	55.11
864.955	70.11
865.39	159.91
865.824	175.21
866.258	120.01
866.692	166.21
867.126	174.71
867.56	101.61
867.994	53.81
868.428	38.01
868.862	47.81
869.296	60.21
869.73	52.61
870.164	57.51
870.598	54.51
871.031	34.71
871.465	31.41
871.899	29.91
872.333	21.11
872.766	27.61
873.2	26.81
873.634	34.21
874.067	20.91
874.501	28.31
874.935	32.71
875.368	35.91
875.802	31.51
876.235	26.31
876.669	27.01
877.102	25.81
877.535	28.11
877.969	19.51
878.402	25.31
878.836	19.91
879.269	20.31
879.702	33.81
880.135	30.31
880.569	27.01
881.002	27.81
881.435	25.11
881.868	18.51
882.301	21.51
882.734	16.31
883.167	23.61
883.601	20.01
884.034	26.91
884.467	15.11
884.899	18.31
885.332	15.11
885.765	18.31
886.198	15.41
886.631	14.61
887.064	19.01
887.497	25.91
887.929	25.31
888.362	16.91
888.795	10.91
889.228	22.41
889.66	19.31
890.093	22.11
890.526	15.01
890.958	16.91
891.391	20.51
891.823	21.21
892.256	16.11
892.688	11.71
893.121	12.51
893.553	19.51
893.985	27.91
894.418	21.81
894.85	14.11
895.282	18.01
895.715	19.51
896.147	20.71
896.579	15.91
897.011	13.11
897.444	17.41
897.876	12.11
898.308	21.61
898.74	20.71
899.172	16.11
899.604	23.71
900.036	23.11
900.468	16.31
900.9	17.81
901.332	21.01
901.764	14.11
902.196	20.41
902.628	17.41
903.06	15.81
903.491	26.91
903.923	26.01
904.355	20.51
904.787	23.91
905.218	21.91
905.65	20.11
906.082	19.71
906.513	12.61
906.945	14.31
907.376	9.11
907.808	26.21
908.239	21.11
908.671	18.91
909.102	23.91
909.534	28.11
909.965	53.81
910.397	95.81
910.828	325.51
911.259	472.11
911.691	221.71
912.122	105.81
912.553	50.31
912.984	35.71
913.415	28.61
913.847	24.31
914.278	9.61
914.709	18.71
915.14	16.31
915.571	20.81
916.002	8.71
916.433	15.31
916.864	19.91
917.295	11.61
917.726	25.31
918.157	20.21
918.587	26.61
919.018	20.71
919.449	15.41
919.88	23.91
920.311	37.51
920.741	52.01
921.172	174.11
921.603	150.01
922.033	77.71
922.464	43.61
922.895	20.51
923.325	20.91
923.756	13.41
924.186	15.11
924.617	27.11
925.047	36.91
925.478	48.91
925.908	32.81
926.338	24.91
926.769	15.71
927.199	16.91
927.629	10.01
928.06	14.71
928.49	10.41
928.92	13.81
929.35	17.21
929.78	10.01
930.21	10.21
930.641	12.91
931.071	8.41
931.501	9.41
931.931	9.01
932.361	8.01
932.791	2.71
933.221	13.21
933.651	5.61
934.08	18.11
934.51	32.51
934.94	14.81
935.37	8.51
935.8	12.41
936.229	3.41
936.659	8.11
937.089	9.61
937.519	13.41
937.948	24.41
938.378	18.81
938.807	10.31
939.237	3.21
939.666	9.11
940.096	-11.29
940.525	8.71
940.955	3.61
941.384	-0.89
941.814	-2.39
942.243	0.21
942.672	4.71
943.102	1.91
943.531	0.41
943.96	5.91
944.39	1.71
944.819	2.11
945.248	-0.29
945.677	7.31
946.106	4.21
946.535	3.41
946.964	0.11
947.393	4.51
947.822	2.71
948.251	-4.29
948.68	7.41
949.109	2.81
949.538	4.51
949.967	1.61
950.396	4.81
950.825	1.41
951.254	0.61
951.682	-6.09
952.111	5.41
952.54	9.51
952.969	-5.89
953.397	-7.19
953.826	-3.29
954.254	3.21
954.683	0.61
955.112	-1.49
955.54	-0.69
955.969	1.81
956.397	-4.19
956.826	-4.39
957.254	4.81
957.682	-3.09
958.111	2.31
958.539	-3.19
958.967	2.31
959.396	-1.39
959.824	-0.69
960.252	5.51
960.68	-4.99
961.109	4.01
961.537	-5.39
961.965	2.51
962.393	3.11
962.821	-2.69
963.249	-0.39
963.677	5.71
964.105	3.31
964.533	46.11
964.961	47.21
965.389	18.81
965.817	7.91
966.245	0.91
966.672	-2.09
967.1	-4.09
967.528	-2.09
967.956	-2.79
968.383	2.41
968.811	-0.39
969.239	-4.79
969.666	-4.69
970.094	2.11
970.522	9.61
970.949	-0.89
971.377	2.81
971.804	-1.19
972.232	-1.59
972.659	-1.19
973.087	-2.49
973.514	-10.79
973.941	-3.99
974.369	9.71
974.796	0.91
975.223	1.91
975.651	-2.09
976.078	2.41
976.505	2.01
976.932	0.81
977.359	20.51
977.786	19.81
978.214	3.01
978.641	-4.29
979.068	-0.29
979.495	0.51
979.922	-4.09
980.349	0.81
980.776	4.91
981.202	0.71
981.629	3.81
982.056	5.01
982.483	-0.49
982.91	4.31
983.337	-5.99
983.763	-0.69
984.19	-2.59
984.617	-2.89
985.043	-4.79
985.47	-2.29
985.897	-1.89
986.323	-7.59
986.75	-0.29
987.176	-2.19
987.603	-0.29
988.029	2.31
988.456	-7.29
988.882	-0.39
989.308	-8.99
989.735	0.71
990.161	-0.69
990.587	-2.39
991.014	-1.39
991.44	3.41
991.866	-0.29
992.292	-3.79
992.719	-0.99
993.145	4.11
993.571	-8.69
993.997	-5.79
994.423	-4.49
994.849	-3.59
995.275	3.41
995.701	-0.09
996.127	-5.99
996.553	-1.49
996.979	-8.09
997.405	-2.29
997.83	-2.39
998.256	-8.29
998.682	-5.29
999.108	-2.79
999.534	0.11
999.959	-2.09
1000.385	-5.79
1000.811	1.81
1001.236	-5.99
1001.662	-11.69
1002.087	-11.69
1002.513	1.61
1002.938	2.01
1003.364	-2.99
1003.789	-0.09
1004.215	8.81
1004.64	-1.19
1005.066	1.11
1005.491	-3.29
1005.916	-2.09
1006.342	-4.89
1006.767	-8.89
1007.192	1.41
1007.617	-0.89
1008.042	-3.99
1008.468	-7.49
1008.893	-5.39
1009.318	0.61
1009.743	-1.19
1010.168	0.21
1010.593	-2.09
1011.018	-6.99
1011.443	-1.39
1011.868	2.21
1012.293	-6.79
1012.718	-4.39
1013.143	6.21
1013.567	-0.59
1013.992	-4.59
1014.417	-9.59
1014.842	1.61
1015.267	-3.99
1015.691	-3.99
1016.116	3.41
1016.541	3.31
1016.965	-1.79
1017.39	-0.29
1017.814	-5.89
1018.239	0.11
1018.663	-3.69
1019.088	-7.59
1019.512	-7.99
1019.937	-1.79
1020.361	0.01
1020.785	-11.39
1021.21	2.31
1021.634	1.51
1022.058	2.01
1022.483	3.51
1022.907	-3.29
1023.331	-4.49
1023.755	-9.99
1024.179	-7.09
1024.604	-9.19
1025.028	-3.69
1025.452	-9.79
1025.876	-4.99
1026.3	1.51
1026.724	-6.59
1027.148	-2.69
1027.572	-12.39
1027.996	-6.99
1028.42	-1.19
1028.843	-4.09
1029.267	-7.09
1029.691	-3.79
1030.115	-5.99
1030.539	-10.59
1030.962	-7.19
1031.386	-10.89
1031.81	-1.59
1032.233	-0.29
1032.657	0.61
1033.08	-1.69
1033.504	-2.19
1033.927	-2.29
1034.351	-2.49
1034.774	-5.49
1035.198	0.11
1035.621	-7.69
1036.045	-8.29
1036.468	-2.29
1036.891	-1.39
1037.315	-6.09
1037.738	-10.99
1038.161	-2.59
1038.584	-6.49
1039.008	-9.59
1039.431	-1.99
1039.854	1.41
1040.277	-7.19
1040.7	-14.49
1041.123	-1.29
1041.546	-8.49
1041.969	-7.19
1042.392	-5.89
1042.815	-3.39
1043.238	2.31
1043.661	1.31
1044.084	-4.39
1044.507	-3.69
1044.93	-4.29
1045.352	-0.39
1045.775	3.21
1046.198	-3.29
1046.621	-2.29
1047.043	1.91
1047.466	4.61
1047.889	-0.29
1048.311	-0.39
1048.734	-0.99
1049.156	-2.29
1049.579	-1.99
1050.001	-4.09
1050.424	-4.39
1050.846	-3.29
1051.269	-2.69
1051.691	-7.69
1052.113	-5.39
1052.536	0.91
1052.958	-2.29
1053.38	-0.39
1053.802	-8.19
1054.225	-3.79
1054.647	-9.29
1055.069	-4.19
1055.491	7.01
1055.913	-10.49
1056.335	3.01
1056.757	0.11
1057.179	-6.99
1057.601	-2.79
1058.023	-3.59
1058.445	-0.29
1058.867	-4.39
1059.289	-6.89
1059.711	-9.39
1060.133	-4.29
1060.555	-9.39
1060.976	-7.49
1061.398	-0.19
1061.82	-4.59
1062.241	-0.29
1062.663	-6.19
1063.085	-8.39
1063.506	-0.89
1063.928	-4.09
1064.35	0.61
1064.771	-8.49
1065.193	-7.19
1065.614	-7.79
1066.035	1.61
1066.457	-1.59
1066.878	3.71
1067.3	-3.39
1067.721	-3.79
1068.142	-8.09
1068.564	-3.29
1068.985	-5.99
1069.406	-0.49
1069.827	-9.69
1070.248	-0.39
1070.67	-10.49
1071.091	-3.49
1071.512	-0.99
1071.933	-7.59
1072.354	-12.49
1072.775	-4.29
1073.196	-9.69
1073.617	-5.69
1074.038	-2.89
1074.459	-1.69
1074.88	-6.69
1075.3	0.01
1075.721	-7.89
1076.142	-0.79
1076.563	-2.49
1076.983	-16.49
1077.404	-6.89
1077.825	-9.19
1078.246	-5.29
1078.666	-9.39
1079.087	-6.59
1079.507	-5.69
1079.928	1.21
1080.348	-7.99
1080.769	-5.19
1081.189	-1.29
1081.61	-4.69
1082.03	-3.29
1082.451	-5.99
1082.871	-3.79
1083.291	-3.49
1083.711	-8.29
1084.132	-5.79
1084.552	-1.89
1084.972	2.01
1085.392	-12.99
1085.813	-10.69
1086.233	-6.89
1086.653	-6.59
1087.073	-4.79
1087.493	-2.79
1087.913	-7.59
1088.333	-5.59
1088.753	1.81
1089.173	3.01
1089.593	-4.79
1090.013	-1.69
1090.433	0.61
1090.852	-8.39
1091.272	0.21
1091.692	0.61
1092.112	-1.69
1092.531	-9.39
1092.951	-11.69
1093.371	-2.69
1093.79	1.11
1094.21	-3.29
1094.63	-11.49
1095.049	-7.99
1095.469	-4.39
1095.888	-3.09
1096.308	-0.49
1096.727	5.31
1097.146	-6.19
1097.566	0.91
1097.985	-4.99
1098.405	-1.39
1098.824	-1.39
1099.243	-10.59
1099.662	-7.99
1100.082	-6.39
1100.501	-3.69
1100.92	-5.89
1101.339	-5.59
1101.758	-4.99
