Data from 20171114-ORNL-Ar_H_NY_Subt18_08-06-52-126.txt Node
Date: Tue Nov 14 08:06:52 EST 2017
User: Ender
Spectrometer: HR+D1039
Trigger mode: 0
Integration Time (sec): 2.730000E-2
Scans to average: 10
Electric dark correction enabled: true
Nonlinearity correction enabled: false
Boxcar width: 0
XAxis mode: Wavelengths
Number of Pixels in Spectrum: 2048
>>>>>Begin Spectral Data<<<<<
187.836	-3.19
188.309	-3.19
188.782	-3.19
189.255	3.81
189.728	-1.79
190.201	7.31
190.674	-1.19
191.147	4.41
191.619	-9.29
192.092	-5.49
192.565	7.01
193.038	0.61
193.511	1.81
193.984	-2.99
194.456	-3.19
194.929	-0.59
195.402	0.61
195.874	2.11
196.347	-3.49
196.82	-6.89
197.292	4.61
197.765	-1.49
198.237	0.81
198.71	5.91
199.182	-1.49
199.655	1.51
200.127	0.11
200.6	-1.09
201.072	-1.59
201.544	0.01
202.017	-3.49
202.489	2.01
202.961	-0.09
203.433	-5.89
203.906	-9.29
204.378	-5.49
204.85	-6.39
205.322	-10.79
205.794	-6.89
206.266	0.21
206.739	-10.39
207.211	2.91
207.683	-4.99
208.155	-7.09
208.627	-8.99
209.099	1.01
209.57	-4.79
210.042	-2.89
210.514	2.71
210.986	-2.99
211.458	-9.29
211.93	-4.09
212.402	1.01
212.873	-1.69
213.345	-4.89
213.817	-8.29
214.288	-5.19
214.76	-12.39
215.232	0.71
215.703	-5.69
216.175	-2.99
216.646	-5.59
217.118	-6.69
217.589	-8.89
218.061	-3.99
218.532	-6.19
219.004	-1.09
219.475	-5.89
219.946	-0.29
220.418	-4.89
220.889	3.71
221.36	2.71
221.832	-6.69
222.303	-9.49
222.774	-2.69
223.245	-3.79
223.717	-8.89
224.188	-4.19
224.659	-6.99
225.13	-6.09
225.601	3.21
226.072	-1.19
226.543	-2.29
227.014	0.91
227.485	-0.69
227.956	-9.99
228.427	-2.69
228.898	0.71
229.369	2.21
229.839	-6.09
230.31	-7.29
230.781	3.71
231.252	-0.09
231.722	-5.69
232.193	-4.09
232.664	-2.49
233.135	-6.29
233.605	-0.59
234.076	-8.49
234.546	0.81
235.017	2.31
235.487	-2.29
235.958	-6.79
236.428	-6.59
236.899	4.01
237.369	-1.99
237.84	0.41
238.31	2.51
238.78	-2.49
239.251	-3.59
239.721	-1.59
240.191	-0.59
240.662	1.61
241.132	1.21
241.602	1.91
242.072	0.31
242.542	1.91
243.013	-2.69
243.483	-4.69
243.953	2.81
244.423	1.81
244.893	-1.79
245.363	6.11
245.833	7.81
246.303	-2.79
246.773	3.81
247.243	3.71
247.712	-1.59
248.182	-0.59
248.652	9.21
249.122	-5.29
249.592	0.71
250.061	4.61
250.531	3.91
251.001	-3.19
251.471	6.31
251.94	4.41
252.41	-0.09
252.879	-1.69
253.349	5.61
253.818	8.21
254.288	7.61
254.757	6.41
255.227	-1.29
255.696	3.41
256.166	5.21
256.635	1.91
257.105	1.41
257.574	2.81
258.043	1.51
258.513	-9.99
258.982	3.51
259.451	-4.29
259.92	-1.29
260.389	3.21
260.859	9.51
261.328	-2.09
261.797	4.01
262.266	3.41
262.735	8.21
263.204	5.21
263.673	-0.79
264.142	4.61
264.611	-2.29
265.08	-6.09
265.549	-2.49
266.018	3.41
266.487	-4.19
266.955	-0.29
267.424	-0.39
267.893	4.21
268.362	2.91
268.83	0.71
269.299	11.21
269.768	7.21
270.236	2.91
270.705	1.51
271.174	1.71
271.642	5.81
272.111	9.81
272.579	7.41
273.048	7.01
273.516	-0.69
273.985	2.81
274.453	12.81
274.922	11.41
275.39	5.71
275.858	-2.59
276.327	7.61
276.795	12.31
277.263	7.51
277.731	3.21
278.2	8.71
278.668	12.11
279.136	12.21
279.604	5.11
280.072	8.11
280.54	4.51
281.008	1.51
281.477	10.51
281.945	12.81
282.413	9.11
282.881	10.41
283.348	2.31
283.816	10.21
284.284	11.81
284.752	12.21
285.22	12.11
285.688	9.51
286.156	7.61
286.623	13.31
287.091	4.61
287.559	9.31
288.026	12.81
288.494	10.81
288.962	-6.89
289.429	7.31
289.897	20.11
290.364	16.21
290.832	19.31
291.3	5.61
291.767	9.31
292.234	17.61
292.702	5.51
293.169	14.71
293.637	19.51
294.104	13.61
294.571	7.21
295.039	7.41
295.506	14.31
295.973	10.31
296.44	4.91
296.908	12.11
297.375	12.81
297.842	10.61
298.309	14.71
298.776	6.51
299.243	17.91
299.71	12.31
300.177	17.51
300.644	13.91
301.111	14.91
301.578	19.31
302.045	20.11
302.512	22.41
302.979	22.91
303.446	15.61
303.913	16.51
304.379	18.31
304.846	18.31
305.313	25.21
305.78	23.81
306.246	20.91
306.713	20.81
307.18	28.01
307.646	21.91
308.113	18.91
308.579	24.11
309.046	26.91
309.512	27.51
309.979	16.11
310.445	21.71
310.912	29.01
311.378	30.91
311.845	28.21
312.311	27.21
312.777	26.11
313.244	26.91
313.71	33.01
314.176	23.21
314.642	25.61
315.109	22.91
315.575	32.01
316.041	35.61
316.507	27.41
316.973	33.51
317.439	27.61
317.905	27.61
318.371	27.61
318.837	27.41
319.303	27.71
319.769	24.91
320.235	27.71
320.701	25.51
321.167	32.41
321.633	34.21
322.099	35.71
322.564	34.71
323.03	36.51
323.496	40.01
323.962	41.31
324.427	32.31
324.893	40.81
325.359	30.81
325.824	34.21
326.29	33.41
326.755	35.71
327.221	40.01
327.686	34.11
328.152	46.61
328.617	34.81
329.083	41.91
329.548	43.41
330.014	52.41
330.479	39.71
330.944	35.11
331.41	40.71
331.875	47.21
332.34	47.41
332.805	46.41
333.271	40.31
333.736	33.71
334.201	42.71
334.666	45.91
335.131	46.21
335.596	40.81
336.061	44.71
336.526	41.71
336.991	44.51
337.456	50.21
337.921	45.61
338.386	38.31
338.851	43.41
339.316	45.01
339.781	42.61
340.246	50.01
340.711	46.51
341.175	48.11
341.64	36.61
342.105	50.61
342.569	51.11
343.034	58.41
343.499	49.91
343.963	51.71
344.428	63.91
344.893	56.21
345.357	57.51
345.822	60.51
346.286	61.41
346.751	70.11
347.215	66.61
347.679	69.11
348.144	97.11
348.608	65.61
349.073	65.31
349.537	64.11
350.001	74.61
350.465	80.81
350.93	77.11
351.394	73.41
351.858	68.21
352.322	88.01
352.786	84.51
353.25	88.51
353.715	98.91
354.179	90.11
354.643	106.51
355.107	105.71
355.571	93.51
356.035	93.91
356.498	104.31
356.962	108.31
357.426	115.21
357.89	106.91
358.354	84.81
358.818	83.31
359.281	76.51
359.745	71.11
360.209	69.31
360.673	66.51
361.136	69.21
361.6	82.31
362.064	83.61
362.527	84.61
362.991	91.91
363.454	81.51
363.918	78.71
364.381	82.21
364.845	76.01
365.308	81.01
365.772	84.01
366.235	84.41
366.698	81.21
367.162	82.61
367.625	88.21
368.088	84.01
368.552	89.01
369.015	78.41
369.478	89.91
369.941	94.11
370.404	91.31
370.867	93.21
371.331	96.11
371.794	96.11
372.257	97.01
372.72	102.71
373.183	100.61
373.646	89.51
374.109	90.21
374.572	98.81
375.035	96.41
375.497	102.01
375.96	108.81
376.423	98.81
376.886	106.71
377.349	109.91
377.811	97.81
378.274	99.61
378.737	93.31
379.199	104.41
379.662	108.01
380.125	110.41
380.587	107.11
381.05	108.21
381.512	114.21
381.975	127.31
382.437	118.81
382.9	109.91
383.362	123.91
383.825	121.91
384.287	125.51
384.75	116.61
385.212	123.91
385.674	126.71
386.136	132.71
386.599	117.61
387.061	119.41
387.523	117.51
387.985	112.41
388.447	133.21
388.91	121.51
389.372	133.71
389.834	121.91
390.296	120.91
390.758	134.11
391.22	138.51
391.682	147.01
392.144	149.31
392.606	141.61
393.068	136.21
393.529	155.31
393.991	141.51
394.453	134.31
394.915	134.71
395.377	125.61
395.838	132.31
396.3	136.91
396.762	138.01
397.224	129.81
397.685	134.31
398.147	136.91
398.608	132.21
399.07	131.51
399.531	130.71
399.993	147.41
400.454	158.11
400.916	146.81
401.377	147.21
401.839	157.51
402.3	142.41
402.762	162.41
403.223	181.71
403.684	165.21
404.145	166.91
404.607	163.11
405.068	168.61
405.529	166.71
405.99	188.61
406.451	171.21
406.913	173.81
407.374	166.51
407.835	161.01
408.296	170.41
408.757	172.21
409.218	181.91
409.679	175.81
410.14	179.61
410.601	179.91
411.062	182.11
411.522	183.01
411.983	182.31
412.444	173.81
412.905	182.01
413.366	184.71
413.826	193.91
414.287	223.51
414.748	270.21
415.208	258.11
415.669	221.51
416.13	216.61
416.59	210.11
417.051	223.31
417.511	224.71
417.972	244.61
418.432	264.11
418.893	298.41
419.353	256.81
419.814	204.21
420.274	191.51
420.734	191.81
421.195	200.11
421.655	199.71
422.115	196.81
422.576	197.31
423.036	203.01
423.496	214.21
423.956	226.41
424.416	234.01
424.876	278.31
425.336	272.91
425.797	266.41
426.257	260.01
426.717	247.11
427.177	234.31
427.637	229.41
428.097	242.51
428.556	247.01
429.016	281.61
429.476	262.61
429.936	266.31
430.396	272.11
430.856	296.01
431.315	306.01
431.775	351.81
432.235	378.71
432.694	348.21
433.154	356.21
433.614	387.61
434.073	333.21
434.533	291.71
434.993	272.81
435.452	287.11
435.912	294.71
436.371	294.11
436.83	286.21
437.29	275.51
437.749	252.51
438.209	253.11
438.668	283.21
439.127	295.11
439.587	272.61
440.046	254.81
440.505	269.31
440.964	289.41
441.424	331.61
441.883	312.31
442.342	277.31
442.801	238.61
443.26	227.11
443.719	233.11
444.178	235.21
444.637	225.31
445.096	230.31
445.555	230.11
446.014	236.41
446.473	240.61
446.932	243.21
447.391	240.21
447.849	246.71
448.308	232.61
448.767	235.01
449.226	252.31
449.685	247.21
450.143	265.51
450.602	250.51
451.061	241.81
451.519	243.51
451.978	245.71
452.436	247.51
452.895	245.81
453.353	266.81
453.812	253.61
454.27	254.41
454.729	248.51
455.187	254.91
455.646	256.41
456.104	256.51
456.562	269.41
457.021	276.61
457.479	275.71
457.937	292.81
458.395	277.21
458.854	266.31
459.312	270.81
459.77	283.71
460.228	269.21
460.686	254.21
461.144	263.91
461.602	255.81
462.06	261.81
462.518	266.21
462.976	271.31
463.434	273.91
463.892	281.31
464.35	284.51
464.808	303.21
465.266	281.01
465.724	289.01
466.181	294.71
466.639	290.41
467.097	312.11
467.555	321.71
468.012	329.51
468.47	328.41
468.928	354.31
469.385	357.61
469.843	370.01
470.3	371.61
470.758	379.21
471.215	394.81
471.673	425.01
472.13	421.81
472.588	444.91
473.045	392.01
473.503	396.21
473.96	427.61
474.417	429.01
474.875	460.81
475.332	494.01
475.789	489.51
476.246	493.31
476.704	510.21
477.161	535.31
477.618	548.51
478.075	583.11
478.532	637.41
478.989	709.21
479.446	822.71
479.903	774.61
480.36	813.11
480.817	866.11
481.274	957.31
481.731	1041.91
482.188	1130.21
482.645	1248.01
483.102	1335.41
483.558	1455.91
484.015	1509.91
484.472	1468.81
484.929	1425.41
485.385	1394.31
485.842	1356.91
486.299	1325.61
486.755	1273.21
487.212	1094.21
487.668	922.21
488.125	864.61
488.582	793.81
489.038	768.01
489.494	731.61
489.951	710.51
490.407	689.01
490.864	673.31
491.32	668.51
491.776	672.71
492.233	683.51
492.689	646.71
493.145	628.51
493.602	633.61
494.058	647.21
494.514	648.11
494.97	668.11
495.426	682.01
495.882	665.01
496.338	641.31
496.794	650.01
497.251	641.71
497.707	661.11
498.163	665.31
498.618	682.31
499.074	679.41
499.53	698.71
499.986	699.61
500.442	666.61
500.898	659.81
501.354	656.41
501.809	661.11
502.265	654.71
502.721	671.11
503.177	665.11
503.632	673.71
504.088	678.51
504.543	703.81
504.999	719.31
505.455	690.41
505.91	678.11
506.366	676.31
506.821	667.51
507.277	670.21
507.732	665.71
508.187	676.31
508.643	676.61
509.098	678.71
509.553	699.81
510.009	705.81
510.464	704.31
510.919	735.71
511.375	729.71
511.83	749.91
512.285	751.61
512.74	807.11
513.195	827.71
513.65	810.61
514.105	805.41
514.56	806.61
515.015	839.61
515.47	840.51
515.925	834.41
516.38	831.31
516.835	842.31
517.29	822.41
517.745	825.51
518.2	814.71
518.655	786.61
519.109	784.01
519.564	784.91
520.019	773.51
520.474	761.01
520.928	766.31
521.383	767.91
521.838	753.81
522.292	756.21
522.747	752.51
523.201	743.81
523.656	741.91
524.11	741.31
524.565	740.01
525.019	741.81
525.474	742.31
525.928	735.21
526.382	737.21
526.837	737.31
527.291	748.01
527.745	742.11
528.2	737.51
528.654	723.21
529.108	733.91
529.562	726.81
530.016	731.71
530.47	728.91
530.925	729.61
531.379	733.51
531.833	740.91
532.287	741.61
532.741	750.31
533.195	745.41
533.649	750.61
534.103	750.41
534.556	746.71
535.01	752.81
535.464	747.11
535.918	759.11
536.372	757.31
536.826	760.71
537.279	744.61
537.733	755.61
538.187	749.31
538.64	759.51
539.094	763.91
539.548	776.11
540.001	768.91
540.455	768.21
540.908	770.21
541.362	785.51
541.815	786.21
542.269	799.41
542.722	806.61
543.175	807.21
543.629	817.61
544.082	833.21
544.536	838.01
544.989	829.11
545.442	835.41
545.895	831.71
546.349	835.21
546.802	837.71
547.255	838.11
547.708	852.81
548.161	878.91
548.614	879.61
549.067	872.01
549.52	880.21
549.973	863.41
550.426	857.61
550.879	856.91
551.332	856.31
551.785	856.71
552.238	852.31
552.691	875.11
553.144	890.51
553.596	906.81
554.049	904.61
554.502	948.21
554.955	959.41
555.407	946.41
555.86	952.11
556.313	946.81
556.765	936.41
557.218	940.11
557.67	931.71
558.123	929.91
558.576	925.71
559.028	937.41
559.48	930.51
559.933	930.51
560.385	906.21
560.838	862.21
561.29	840.41
561.742	835.61
562.195	815.41
562.647	818.41
563.099	832.91
563.551	818.51
564.004	830.91
564.456	811.51
564.908	812.21
565.36	790.61
565.812	774.71
566.264	765.91
566.716	763.31
567.168	744.81
567.62	749.51
568.072	732.91
568.524	729.91
568.976	730.11
569.428	716.31
569.88	720.91
570.332	722.41
570.784	721.41
571.235	722.51
571.687	742.91
572.139	735.31
572.59	758.81
573.042	759.01
573.494	755.81
573.945	747.51
574.397	736.21
574.849	738.01
575.3	737.01
575.752	739.31
576.203	718.81
576.655	731.91
577.106	706.41
577.557	691.91
578.009	707.01
578.46	711.41
578.912	700.31
579.363	702.71
579.814	712.31
580.265	705.21
580.717	705.81
581.168	707.51
581.619	718.81
582.07	717.41
582.521	713.71
582.972	707.11
583.423	711.41
583.875	709.91
584.326	726.61
584.777	737.51
585.227	749.81
585.678	779.81
586.129	794.21
586.58	801.51
587.031	831.81
587.482	867.71
587.933	906.21
588.384	865.21
588.834	830.71
589.285	821.31
589.736	820.71
590.186	811.41
590.637	815.61
591.088	785.31
591.538	772.11
591.989	769.91
592.439	769.91
592.89	753.91
593.34	745.81
593.791	743.01
594.241	736.01
594.692	734.61
595.142	735.11
595.593	725.31
596.043	742.61
596.493	755.21
596.943	737.01
597.394	766.91
597.844	753.21
598.294	774.61
598.744	805.11
599.195	818.81
599.645	863.61
600.095	921.01
600.545	970.51
600.995	1015.51
601.445	1078.31
601.895	1138.71
602.345	1189.91
602.795	1164.01
603.245	1123.91
603.695	1069.31
604.145	1012.51
604.594	963.41
605.044	906.11
605.494	855.21
605.944	804.41
606.393	784.81
606.843	766.31
607.293	771.21
607.743	769.51
608.192	779.11
608.642	797.61
609.091	800.71
609.541	809.21
609.99	792.71
610.44	804.21
610.889	743.31
611.339	726.71
611.788	718.61
612.238	727.91
612.687	732.31
613.136	733.81
613.586	742.31
614.035	736.41
614.484	754.31
614.933	743.01
615.383	739.21
615.832	736.31
616.281	731.01
616.73	705.31
617.179	689.81
617.628	678.61
618.077	656.21
618.526	650.51
618.975	650.11
619.424	640.31
619.873	645.21
620.322	644.31
620.771	626.71
621.22	627.11
621.669	621.21
622.118	614.21
622.567	609.71
623.015	597.91
623.464	598.31
623.913	588.91
624.361	572.81
624.81	578.91
625.259	592.71
625.707	582.21
626.156	586.51
626.604	592.71
627.053	584.21
627.501	584.51
627.95	592.81
628.398	620.51
628.847	594.21
629.295	597.01
629.744	602.11
630.192	593.21
630.64	593.61
631.089	566.51
631.537	571.11
631.985	554.61
632.433	566.31
632.881	550.11
633.33	552.21
633.778	550.01
634.226	541.21
634.674	560.51
635.122	567.71
635.57	574.61
636.018	578.11
636.466	582.51
636.914	578.91
637.362	597.61
637.81	607.31
638.258	615.11
638.705	615.01
639.153	641.01
639.601	646.01
640.049	661.91
640.497	691.51
640.944	725.31
641.392	669.31
641.84	639.71
642.287	607.41
642.735	584.11
643.182	587.11
643.63	584.81
644.078	588.41
644.525	599.81
644.973	607.91
645.42	616.71
645.867	641.11
646.315	655.81
646.762	684.51
647.21	711.21
647.657	718.01
648.104	757.31
648.551	771.31
648.999	838.01
649.446	912.71
649.893	1008.31
650.34	1148.31
650.787	1365.81
651.234	1667.51
651.682	2137.11
652.129	2901.21
652.576	4130.21
653.023	5989.21
653.47	8109.61
653.917	10091.01
654.363	11651.61
654.81	12814.11
655.257	12184.01
655.704	8099.11
656.151	4888.21
656.598	3195.21
657.044	2295.91
657.491	1789.41
657.938	1438.31
658.385	1215.11
658.831	1058.11
659.278	954.61
659.724	855.61
660.171	784.51
660.618	733.01
661.064	702.31
661.511	680.01
661.957	666.31
662.404	657.11
662.85	660.31
663.296	633.51
663.743	581.61
664.189	564.71
664.635	547.21
665.082	543.31
665.528	546.11
665.974	538.31
666.42	532.21
666.867	522.41
667.313	505.51
667.759	479.81
668.205	468.61
668.651	463.91
669.097	468.51
669.543	465.21
669.989	465.91
670.435	461.71
670.881	462.61
671.327	465.51
671.773	493.21
672.219	510.31
672.665	564.21
673.11	605.91
673.556	661.31
674.002	698.81
674.448	693.01
674.893	575.01
675.339	497.81
675.785	459.11
676.23	430.91
676.676	414.51
677.122	403.81
677.567	394.91
678.013	383.01
678.458	375.21
678.904	381.41
679.349	363.11
679.794	370.41
680.24	373.31
680.685	360.41
681.131	362.41
681.576	368.71
682.021	374.71
682.466	368.31
682.912	367.71
683.357	369.01
683.802	401.91
684.247	431.21
684.692	476.61
685.137	509.91
685.583	566.91
686.028	595.51
686.473	540.41
686.918	474.61
687.363	438.01
687.807	414.61
688.252	380.91
688.697	370.01
689.142	363.11
689.587	346.71
690.032	344.71
690.477	354.61
690.921	373.31
691.366	398.51
691.811	416.51
692.255	463.81
692.7	484.61
693.145	537.21
693.589	742.61
694.034	1188.61
694.478	1619.11
694.923	1846.71
695.367	2378.51
695.812	1257.61
696.256	523.61
696.701	393.61
697.145	363.21
697.59	335.01
698.034	338.11
698.478	337.41
698.922	331.71
699.367	333.61
699.811	353.91
700.255	370.91
700.699	405.61
701.143	440.51
701.588	492.71
702.032	531.31
702.476	537.71
702.92	510.51
703.364	524.81
703.808	672.71
704.252	1092.21
704.696	1540.81
705.14	1766.21
705.584	2253.61
706.027	1128.71
706.471	552.21
706.915	408.71
707.359	372.71
707.803	341.31
708.246	323.71
708.69	324.11
709.134	330.51
709.577	318.41
710.021	328.31
710.465	320.11
710.908	309.61
711.352	319.81
711.795	323.51
712.239	371.81
712.682	403.31
713.126	433.81
713.569	475.51
714.012	375.61
714.456	326.41
714.899	309.51
715.342	284.21
715.786	269.61
716.229	269.31
716.672	264.01
717.115	260.51
717.558	266.61
718.002	264.81
718.445	272.11
718.888	293.21
719.331	308.21
719.774	322.01
720.217	316.31
720.66	292.71
721.103	276.61
721.546	268.51
721.989	256.91
722.432	241.91
722.874	256.01
723.317	244.01
723.76	247.21
724.203	273.81
724.645	328.21
725.088	460.91
725.531	595.21
725.974	674.51
726.416	573.01
726.859	323.61
727.301	256.71
727.744	246.01
728.187	239.61
728.629	249.71
729.071	264.51
729.514	274.51
729.956	290.01
730.399	295.91
730.841	301.01
731.283	289.21
731.726	279.31
732.168	278.81
732.61	287.61
733.053	294.41
733.495	331.41
733.937	374.21
734.379	412.01
734.821	463.01
735.263	569.01
735.705	888.71
736.148	1680.41
736.59	2725.91
737.032	3229.11
737.474	2644.41
737.916	865.91
738.357	457.91
738.799	347.71
739.241	310.11
739.683	298.21
740.125	302.71
740.567	315.91
741.008	330.61
741.45	327.41
741.892	332.11
742.334	367.11
742.775	379.81
743.217	367.01
743.658	281.41
744.1	271.11
744.542	275.81
744.983	338.41
745.425	363.61
745.866	365.11
746.307	298.51
746.749	298.11
747.19	337.91
747.632	479.91
748.073	930.91
748.514	1981.61
748.956	3010.71
749.397	3779.11
749.838	3153.31
750.279	3119.01
750.72	1579.41
751.162	583.81
751.603	340.61
752.044	258.71
752.485	225.71
752.926	224.91
753.367	217.51
753.808	208.81
754.249	199.71
754.69	197.41
755.131	185.61
755.572	189.71
756.013	190.11
756.453	196.91
756.894	194.01
757.335	198.31
757.776	204.81
758.216	210.31
758.657	212.11
759.098	213.71
759.538	236.81
759.979	280.51
760.42	392.81
760.86	738.91
761.301	1943.11
761.741	4708.11
762.182	6799.21
762.622	4779.71
763.063	1375.51
763.503	573.11
763.943	350.51
764.384	285.91
764.824	262.51
765.264	248.21
765.705	222.01
766.145	193.81
766.585	190.91
767.025	178.81
767.465	180.41
767.906	191.61
768.346	206.41
768.786	217.61
769.226	227.41
769.666	320.11
770.106	658.81
770.546	1633.91
770.986	2780.21
771.426	2480.91
771.866	836.01
772.306	346.11
772.745	219.61
773.185	179.51
773.625	168.91
774.065	164.51
774.505	166.91
774.944	221.21
775.384	374.81
775.824	617.11
776.263	604.11
776.703	293.71
777.142	162.41
777.582	139.91
778.021	132.01
778.461	127.21
778.9	130.21
779.34	127.11
779.779	118.11
780.219	111.11
780.658	114.91
781.097	114.71
781.537	121.81
781.976	111.41
782.415	110.41
782.855	113.31
783.294	106.01
783.733	104.61
784.172	115.51
784.611	108.31
785.05	113.41
785.489	115.91
785.928	123.41
786.367	122.71
786.806	127.41
787.245	141.21
787.684	141.91
788.123	151.21
788.562	142.41
789.001	131.41
789.44	125.81
789.879	118.61
790.317	124.71
790.756	135.51
791.195	131.71
791.634	158.51
792.072	209.81
792.511	387.91
792.95	1049.51
793.388	2249.11
793.827	2006.31
794.265	712.51
794.704	291.41
795.142	193.91
795.581	159.11
796.019	143.41
796.458	136.41
796.896	127.31
797.334	143.11
797.773	159.51
798.211	229.71
798.649	473.11
799.087	1080.81
799.526	1681.91
799.964	2130.51
800.402	2123.61
800.84	801.61
801.278	317.61
801.716	201.51
802.154	165.51
802.592	150.71
803.03	144.31
803.468	149.91
803.906	148.31
804.344	156.41
804.782	150.71
805.22	138.31
805.658	135.51
806.096	156.61
806.533	174.51
806.971	186.61
807.409	231.31
807.847	333.21
808.284	705.51
808.722	1975.51
809.16	3468.91
809.597	3325.21
810.035	5737.41
810.472	6091.21
810.91	2223.91
811.347	843.51
811.785	431.11
812.222	270.91
812.66	206.71
813.097	184.31
813.535	153.31
813.972	142.61
814.409	123.71
814.846	114.71
815.284	121.81
815.721	105.81
816.158	107.91
816.595	110.91
817.032	157.71
817.47	182.71
817.907	149.41
818.344	102.71
818.781	108.51
819.218	101.41
819.655	135.31
820.092	200.91
820.529	225.61
820.966	181.71
821.403	134.91
821.839	104.01
822.276	104.51
822.713	131.61
823.15	147.51
823.587	124.91
824.023	156.11
824.46	321.71
824.897	944.91
825.333	1422.81
825.77	622.71
826.206	245.21
826.643	142.71
827.08	110.31
827.516	90.61
827.953	81.91
828.389	80.11
828.825	73.31
829.262	72.31
829.698	68.11
830.135	70.51
830.571	67.21
831.007	66.91
831.443	72.81
831.88	62.71
832.316	65.41
832.752	72.91
833.188	63.61
833.624	64.51
834.06	67.21
834.497	71.91
834.933	72.51
835.369	79.61
835.805	74.91
836.241	81.51
836.677	84.71
837.112	91.11
837.548	106.81
837.984	145.31
838.42	213.31
838.856	527.11
839.292	1594.81
839.727	2435.01
840.163	1139.21
840.599	976.61
841.034	2133.91
841.47	2229.61
841.906	822.31
842.341	348.51
842.777	205.11
843.212	210.81
843.648	198.01
844.083	119.01
844.519	86.91
844.954	76.11
845.39	62.41
845.825	58.21
846.261	63.61
846.696	55.81
847.131	60.61
847.566	57.21
848.002	59.41
848.437	58.11
848.872	67.91
849.307	68.11
849.742	95.81
850.177	193.01
850.613	583.81
851.048	924.41
851.483	398.31
851.918	164.11
852.353	91.11
852.788	55.71
853.223	56.11
853.657	55.31
854.092	51.41
854.527	44.01
854.962	42.01
855.397	48.61
855.832	58.81
856.266	39.41
856.701	44.11
857.136	37.61
857.57	42.11
858.005	56.11
858.44	64.91
858.874	50.71
859.309	54.31
859.743	43.91
860.178	46.61
860.612	48.81
861.047	53.81
861.481	73.41
861.915	75.01
862.35	55.51
862.784	37.11
863.218	41.41
863.653	37.01
864.087	47.71
864.521	53.71
864.955	74.11
865.39	159.91
865.824	187.51
866.258	121.41
866.692	179.41
867.126	195.51
867.56	107.61
867.994	57.31
868.428	39.11
868.862	48.11
869.296	61.51
869.73	63.61
870.164	59.01
870.598	52.31
871.031	41.01
871.465	35.21
871.899	35.31
872.333	31.81
872.766	30.71
873.2	17.11
873.634	32.01
874.067	22.51
874.501	32.81
874.935	39.31
875.368	34.21
875.802	29.81
876.235	31.81
876.669	24.61
877.102	24.01
877.535	23.91
877.969	24.51
878.402	26.31
878.836	15.41
879.269	25.21
879.702	21.91
880.135	13.01
880.569	24.91
881.002	30.71
881.435	17.71
881.868	19.71
882.301	23.01
882.734	16.91
883.167	22.81
883.601	23.11
884.034	23.11
884.467	15.31
884.899	16.11
885.332	16.21
885.765	21.31
886.198	20.61
886.631	20.61
887.064	16.11
887.497	25.51
887.929	26.91
888.362	12.21
888.795	11.51
889.228	19.31
889.66	25.41
890.093	18.01
890.526	13.61
890.958	22.51
891.391	20.11
891.823	23.41
892.256	13.61
892.688	15.11
893.121	16.41
893.553	22.01
893.985	23.11
894.418	18.01
894.85	15.51
895.282	15.91
895.715	23.31
896.147	17.21
896.579	21.41
897.011	20.51
897.444	15.61
897.876	15.01
898.308	22.31
898.74	16.41
899.172	12.31
899.604	27.41
900.036	20.41
900.468	15.41
900.9	22.01
901.332	19.91
901.764	13.01
902.196	13.51
902.628	20.21
903.06	20.81
903.491	29.81
903.923	23.41
904.355	20.91
904.787	27.81
905.218	21.11
905.65	19.11
906.082	12.21
906.513	12.01
906.945	15.21
907.376	15.51
907.808	20.61
908.239	23.21
908.671	23.11
909.102	27.91
909.534	26.61
909.965	48.41
910.397	96.91
910.828	334.11
911.259	498.91
911.691	234.51
912.122	125.11
912.553	50.41
912.984	35.71
913.415	30.81
913.847	27.61
914.278	10.31
914.709	7.31
915.14	16.41
915.571	24.21
916.002	15.11
916.433	18.51
916.864	18.11
917.295	15.51
917.726	23.31
918.157	18.71
918.587	31.51
919.018	22.31
919.449	24.61
919.88	21.91
920.311	37.31
920.741	51.41
921.172	178.11
921.603	164.11
922.033	75.11
922.464	51.71
922.895	29.11
923.325	21.01
923.756	16.01
924.186	15.41
924.617	21.41
925.047	23.21
925.478	24.11
925.908	21.91
926.338	8.71
926.769	12.11
927.199	21.71
927.629	9.61
928.06	19.81
928.49	17.61
928.92	14.41
929.35	10.31
929.78	10.11
930.21	9.91
930.641	6.41
931.071	13.61
931.501	6.31
931.931	8.71
932.361	13.51
932.791	2.31
933.221	4.71
933.651	6.61
934.08	24.81
934.51	28.41
934.94	15.81
935.37	8.11
935.8	8.81
936.229	9.81
936.659	7.21
937.089	0.41
937.519	18.31
937.948	21.61
938.378	21.01
938.807	10.21
939.237	13.91
939.666	4.21
940.096	-6.59
940.525	2.61
940.955	4.41
941.384	7.91
941.814	-2.39
942.243	-3.39
942.672	0.41
943.102	4.21
943.531	2.71
943.96	4.61
944.39	5.61
944.819	1.11
945.248	1.01
945.677	3.81
946.106	6.11
946.535	3.41
946.964	5.21
947.393	4.11
947.822	-0.99
948.251	-4.79
948.68	3.61
949.109	6.11
949.538	4.71
949.967	0.11
950.396	0.11
950.825	0.81
951.254	2.21
951.682	-8.29
952.111	6.31
952.54	10.31
952.969	-3.89
953.397	-4.69
953.826	4.31
954.254	-8.99
954.683	-3.19
955.112	-3.29
955.54	-0.69
955.969	5.81
956.397	0.21
956.826	-2.99
957.254	7.01
957.682	1.81
958.111	1.21
958.539	1.61
958.967	1.71
959.396	0.81
959.824	3.91
960.252	3.21
960.68	-5.59
961.109	-3.89
961.537	-1.79
961.965	2.41
962.393	2.51
962.821	-3.49
963.249	-1.09
963.677	8.61
964.105	5.41
964.533	46.61
964.961	49.21
965.389	21.41
965.817	9.31
966.245	-2.59
966.672	2.01
967.1	-6.39
967.528	5.51
967.956	-0.29
968.383	5.31
968.811	-2.99
969.239	1.01
969.666	-1.69
970.094	1.51
970.522	-4.29
970.949	4.21
971.377	-2.79
971.804	-0.99
972.232	4.91
972.659	-0.49
973.087	-0.59
973.514	3.71
973.941	-8.69
974.369	-0.59
974.796	3.71
975.223	0.91
975.651	0.71
976.078	5.61
976.505	-2.09
976.932	8.41
977.359	17.41
977.786	19.91
978.214	-0.29
978.641	-3.79
979.068	-2.49
979.495	-4.39
979.922	0.51
980.349	-0.59
980.776	6.11
981.202	1.81
981.629	5.31
982.056	4.61
982.483	-2.19
982.91	3.01
983.337	-3.09
983.763	3.61
984.19	-1.19
984.617	-2.19
985.043	1.71
985.47	-2.89
985.897	-7.89
986.323	-4.79
986.75	4.91
987.176	-1.79
987.603	3.31
988.029	-5.69
988.456	-0.29
988.882	6.71
989.308	-6.19
989.735	-2.89
990.161	-3.79
990.587	-5.79
991.014	5.41
991.44	3.61
991.866	-1.89
992.292	-2.19
992.719	-2.59
993.145	-1.39
993.571	-10.59
993.997	-0.99
994.423	-5.99
994.849	-7.69
995.275	1.21
995.701	3.61
996.127	-4.89
996.553	4.41
996.979	0.51
997.405	-2.79
997.83	-4.29
998.256	-2.89
998.682	-7.89
999.108	-11.39
999.534	2.51
999.959	4.21
1000.385	-2.69
1000.811	2.51
1001.236	-7.59
1001.662	-2.39
1002.087	-8.99
1002.513	-3.89
1002.938	-2.79
1003.364	0.51
1003.789	-6.49
1004.215	3.21
1004.64	0.01
1005.066	-1.29
1005.491	-6.79
1005.916	1.01
1006.342	0.41
1006.767	-8.49
1007.192	6.91
1007.617	-2.39
1008.042	-5.19
1008.468	-9.49
1008.893	-0.09
1009.318	-2.29
1009.743	0.11
1010.168	-0.49
1010.593	0.51
1011.018	-5.39
1011.443	-5.89
1011.868	-4.39
1012.293	-6.99
1012.718	-8.39
1013.143	-2.29
1013.567	-2.69
1013.992	-5.69
1014.417	-8.59
1014.842	4.81
1015.267	0.71
1015.691	-2.89
1016.116	6.81
1016.541	-6.09
1016.965	3.11
1017.39	-1.29
1017.814	-1.39
1018.239	5.01
1018.663	-5.29
1019.088	-7.29
1019.512	3.51
1019.937	5.11
1020.361	-5.69
1020.785	-5.29
1021.21	0.91
1021.634	0.21
1022.058	4.11
1022.483	3.81
1022.907	-1.59
1023.331	-0.39
1023.755	0.01
1024.179	-1.29
1024.604	-5.69
1025.028	-5.29
1025.452	-6.99
1025.876	-0.89
1026.3	0.01
1026.724	-12.39
1027.148	-0.39
1027.572	-9.99
1027.996	-6.99
1028.42	-0.39
1028.843	-4.19
1029.267	-3.39
1029.691	-1.39
1030.115	-4.89
1030.539	-10.39
1030.962	-5.59
1031.386	-4.59
1031.81	0.01
1032.233	-4.49
1032.657	-9.39
1033.08	3.01
1033.504	-4.39
1033.927	-5.69
1034.351	-5.89
1034.774	-6.99
1035.198	-4.79
1035.621	-4.09
1036.045	-8.79
1036.468	1.31
1036.891	-12.19
1037.315	-8.79
1037.738	-9.99
1038.161	-4.19
1038.584	0.01
1039.008	-1.89
1039.431	-2.49
1039.854	-1.39
1040.277	-8.29
1040.7	-7.19
1041.123	0.41
1041.546	-4.39
1041.969	-9.69
1042.392	-8.19
1042.815	-4.89
1043.238	2.11
1043.661	2.61
1044.084	-2.09
1044.507	-7.29
1044.93	-5.49
1045.352	-5.39
1045.775	2.31
1046.198	4.51
1046.621	-1.39
1047.043	1.71
1047.466	7.01
1047.889	-2.89
1048.311	-4.49
1048.734	-8.09
1049.156	-1.09
1049.579	5.21
1050.001	-2.29
1050.424	0.51
1050.846	-1.99
1051.269	3.01
1051.691	-8.29
1052.113	-7.99
1052.536	-2.79
1052.958	4.51
1053.38	-5.29
1053.802	-10.29
1054.225	-2.89
1054.647	-5.39
1055.069	0.71
1055.491	-5.99
1055.913	-11.49
1056.335	3.11
1056.757	0.81
1057.179	-12.79
1057.601	-4.49
1058.023	-1.99
1058.445	2.41
1058.867	-4.39
1059.289	-2.19
1059.711	-7.09
1060.133	1.81
1060.555	-4.29
1060.976	-12.19
1061.398	-6.79
1061.82	-5.69
1062.241	-7.49
1062.663	-10.09
1063.085	-5.69
1063.506	-2.59
1063.928	-1.09
1064.35	-0.39
1064.771	-8.99
1065.193	-0.89
1065.614	-3.39
1066.035	-5.09
1066.457	0.81
1066.878	3.51
1067.3	-2.09
1067.721	-5.89
1068.142	-3.49
1068.564	-7.79
1068.985	-5.79
1069.406	-10.79
1069.827	-6.09
1070.248	0.41
1070.67	-3.49
1071.091	-2.49
1071.512	-10.49
1071.933	-8.99
1072.354	-6.59
1072.775	-5.99
1073.196	-10.29
1073.617	-0.69
1074.038	-2.89
1074.459	-2.79
1074.88	-10.69
1075.3	-3.69
1075.721	-5.39
1076.142	2.11
1076.563	-4.39
1076.983	-11.59
1077.404	-10.69
1077.825	-8.99
1078.246	-3.49
1078.666	-5.69
1079.087	-3.89
1079.507	-6.19
1079.928	2.81
1080.348	-4.49
1080.769	-8.29
1081.189	-5.89
1081.61	-3.49
1082.03	-8.39
1082.451	-9.29
1082.871	-10.49
1083.291	-1.99
1083.711	-7.89
1084.132	-8.39
1084.552	-7.99
1084.972	0.61
1085.392	-14.19
1085.813	-10.39
1086.233	-9.59
1086.653	-6.79
1087.073	-3.79
1087.493	-5.89
1087.913	-5.49
1088.333	-3.09
1088.753	2.61
1089.173	1.61
1089.593	-2.09
1090.013	1.41
1090.433	1.51
1090.852	-4.29
1091.272	-0.49
1091.692	-3.39
1092.112	-5.89
1092.531	-10.59
1092.951	-11.89
1093.371	-8.99
1093.79	-3.09
1094.21	-4.99
1094.63	-7.19
1095.049	-3.39
1095.469	-6.19
1095.888	-5.89
1096.308	2.21
1096.727	1.01
1097.146	-7.59
1097.566	-7.49
1097.985	-7.09
1098.405	-3.19
1098.824	-9.29
1099.243	-2.19
1099.662	-10.99
1100.082	-5.79
1100.501	0.61
1100.92	-6.49
1101.339	-6.49
1101.758	-5.79
