Data from 20171114-ORNL-Ar_H_NY_Subt18_08-06-50-215.txt Node
Date: Tue Nov 14 08:06:50 EST 2017
User: Ender
Spectrometer: HR+D1039
Trigger mode: 0
Integration Time (sec): 2.730000E-2
Scans to average: 10
Electric dark correction enabled: true
Nonlinearity correction enabled: false
Boxcar width: 0
XAxis mode: Wavelengths
Number of Pixels in Spectrum: 2048
>>>>>Begin Spectral Data<<<<<
187.836	-7.08
188.309	-7.08
188.782	-7.08
189.255	4.62
189.728	-2.38
190.201	-3.58
190.674	-0.48
191.147	1.82
191.619	-7.58
192.092	3.92
192.565	7.92
193.038	3.62
193.511	1.82
193.984	0.42
194.456	-4.08
194.929	4.22
195.402	0.82
195.874	-3.98
196.347	-0.78
196.82	-12.88
197.292	7.32
197.765	-4.48
198.237	-6.88
198.71	3.62
199.182	0.22
199.655	5.82
200.127	2.92
200.6	0.32
201.072	-0.68
201.544	-4.98
202.017	0.72
202.489	0.62
202.961	-3.18
203.433	2.12
203.906	-3.48
204.378	-13.18
204.85	1.52
205.322	-5.28
205.794	0.22
206.266	-9.28
206.739	-8.78
207.211	-1.98
207.683	-8.38
208.155	-6.98
208.627	0.52
209.099	-3.48
209.57	-7.78
210.042	-6.28
210.514	-7.38
210.986	-1.38
211.458	-13.08
211.93	-3.28
212.402	-2.28
212.873	-6.18
213.345	-7.68
213.817	-7.28
214.288	-1.08
214.76	-12.28
215.232	-4.48
215.703	-2.48
216.175	0.42
216.646	-8.48
217.118	-6.98
217.589	-3.18
218.061	-1.78
218.532	-5.68
219.004	1.92
219.475	-1.78
219.946	-6.08
220.418	-5.98
220.889	2.62
221.36	-2.08
221.832	-2.58
222.303	-6.68
222.774	-1.98
223.245	-10.88
223.717	-6.18
224.188	-2.88
224.659	-6.18
225.13	-2.98
225.601	1.52
226.072	3.32
226.543	-3.68
227.014	-2.88
227.485	-2.18
227.956	-5.18
228.427	-5.28
228.898	-0.78
229.369	-3.48
229.839	-1.38
230.31	-6.68
230.781	1.62
231.252	-0.48
231.722	-4.08
232.193	-8.28
232.664	-3.58
233.135	-1.18
233.605	0.82
234.076	-9.48
234.546	-2.58
235.017	1.82
235.487	-2.78
235.958	2.92
236.428	-6.78
236.899	0.42
237.369	-2.38
237.84	-6.28
238.31	0.42
238.78	-0.98
239.251	-8.68
239.721	-2.28
240.191	-0.98
240.662	4.02
241.132	-2.38
241.602	-6.28
242.072	-2.08
242.542	3.12
243.013	-4.68
243.483	-1.68
243.953	1.42
244.423	-5.18
244.893	-10.98
245.363	1.12
245.833	0.32
246.303	-4.08
246.773	3.32
247.243	-0.88
247.712	-6.08
248.182	0.42
248.652	1.62
249.122	-12.58
249.592	0.62
250.061	4.22
250.531	10.92
251.001	-2.88
251.471	6.82
251.94	6.42
252.41	-4.48
252.879	-5.68
253.349	12.12
253.818	6.02
254.288	-0.58
254.757	-3.68
255.227	-7.68
255.696	-4.98
256.166	1.62
256.635	4.52
257.105	3.12
257.574	-0.98
258.043	6.92
258.513	-2.08
258.982	-0.18
259.451	-8.28
259.92	0.42
260.389	3.82
260.859	10.02
261.328	2.32
261.797	2.62
262.266	0.02
262.735	4.22
263.204	-0.58
263.673	-1.68
264.142	9.02
264.611	-1.28
265.08	3.42
265.549	-3.58
266.018	0.32
266.487	-0.18
266.955	-3.38
267.424	2.22
267.893	4.22
268.362	-2.48
268.83	-0.88
269.299	11.12
269.768	5.42
270.236	3.32
270.705	-0.58
271.174	3.62
271.642	4.52
272.111	5.52
272.579	8.02
273.048	1.42
273.516	4.82
273.985	6.72
274.453	9.72
274.922	7.72
275.39	7.92
275.858	-0.28
276.327	5.82
276.795	19.52
277.263	-1.48
277.731	8.62
278.2	6.72
278.668	10.32
279.136	7.92
279.604	-0.18
280.072	11.22
280.54	5.82
281.008	4.22
281.477	17.02
281.945	9.62
282.413	8.82
282.881	15.62
283.348	4.92
283.816	12.92
284.284	15.02
284.752	21.32
285.22	12.42
285.688	10.62
286.156	15.32
286.623	19.12
287.091	9.12
287.559	8.02
288.026	12.52
288.494	19.32
288.962	3.82
289.429	4.72
289.897	15.22
290.364	10.32
290.832	13.32
291.3	12.52
291.767	16.42
292.234	21.72
292.702	11.02
293.169	12.32
293.637	16.52
294.104	21.52
294.571	8.22
295.039	11.12
295.506	9.92
295.973	19.62
296.44	12.12
296.908	17.12
297.375	13.92
297.842	16.32
298.309	9.12
298.776	15.72
299.243	21.62
299.71	14.32
300.177	20.12
300.644	21.02
301.111	19.32
301.578	17.22
302.045	20.52
302.512	21.32
302.979	23.72
303.446	18.82
303.913	17.32
304.379	17.42
304.846	17.92
305.313	23.02
305.78	25.52
306.246	26.22
306.713	18.92
307.18	27.72
307.646	23.12
308.113	19.72
308.579	20.22
309.046	22.32
309.512	24.02
309.979	13.72
310.445	31.02
310.912	28.42
311.378	34.62
311.845	20.52
312.311	29.62
312.777	34.52
313.244	24.32
313.71	35.22
314.176	24.92
314.642	27.82
315.109	24.82
315.575	31.72
316.041	30.12
316.507	25.22
316.973	34.22
317.439	31.72
317.905	30.12
318.371	28.42
318.837	29.62
319.303	27.82
319.769	32.12
320.235	28.52
320.701	28.72
321.167	35.32
321.633	31.72
322.099	35.12
322.564	41.02
323.03	36.32
323.496	34.52
323.962	45.02
324.427	32.12
324.893	40.32
325.359	32.22
325.824	35.92
326.29	32.42
326.755	34.72
327.221	37.12
327.686	42.32
328.152	45.82
328.617	41.42
329.083	42.02
329.548	48.02
330.014	43.52
330.479	38.82
330.944	42.42
331.41	44.12
331.875	45.72
332.34	41.02
332.805	37.22
333.271	34.82
333.736	42.92
334.201	52.62
334.666	45.72
335.131	50.12
335.596	46.02
336.061	49.42
336.526	34.42
336.991	40.42
337.456	54.82
337.921	48.12
338.386	41.62
338.851	42.62
339.316	42.02
339.781	49.02
340.246	50.52
340.711	47.72
341.175	52.12
341.64	43.02
342.105	45.02
342.569	52.82
343.034	53.32
343.499	50.52
343.963	49.92
344.428	57.72
344.893	59.52
345.357	57.12
345.822	57.12
346.286	63.32
346.751	69.22
347.215	68.82
347.679	72.12
348.144	86.22
348.608	79.22
349.073	76.12
349.537	71.22
350.001	78.52
350.465	81.82
350.93	78.12
351.394	82.22
351.858	74.42
352.322	84.32
352.786	77.32
353.25	94.12
353.715	101.42
354.179	89.72
354.643	111.12
355.107	115.62
355.571	96.32
356.035	98.62
356.498	106.32
356.962	109.22
357.426	114.92
357.89	105.82
358.354	86.62
358.818	76.02
359.281	77.22
359.745	72.32
360.209	69.52
360.673	74.32
361.136	78.42
361.6	84.72
362.064	82.62
362.527	81.12
362.991	86.62
363.454	84.92
363.918	75.12
364.381	73.52
364.845	87.02
365.308	80.92
365.772	87.12
366.235	83.52
366.698	91.62
367.162	83.22
367.625	88.52
368.088	84.82
368.552	84.32
369.015	86.92
369.478	93.42
369.941	95.72
370.404	92.42
370.867	97.42
371.331	102.02
371.794	111.32
372.257	91.32
372.72	100.52
373.183	100.52
373.646	88.92
374.109	97.02
374.572	95.22
375.035	97.32
375.497	105.02
375.96	100.22
376.423	107.42
376.886	113.82
377.349	107.22
377.811	104.82
378.274	100.32
378.737	101.82
379.199	107.52
379.662	104.62
380.125	109.22
380.587	103.02
381.05	108.42
381.512	115.92
381.975	123.62
382.437	114.72
382.9	120.02
383.362	119.12
383.825	129.82
384.287	123.02
384.75	119.72
385.212	131.12
385.674	123.62
386.136	130.42
386.599	124.72
387.061	122.92
387.523	119.82
387.985	126.62
388.447	131.82
388.91	126.32
389.372	125.72
389.834	131.02
390.296	127.52
390.758	132.22
391.22	137.72
391.682	143.32
392.144	147.92
392.606	146.62
393.068	138.72
393.529	149.22
393.991	140.92
394.453	135.82
394.915	138.32
395.377	139.42
395.838	133.82
396.3	129.92
396.762	143.02
397.224	131.12
397.685	137.52
398.147	137.02
398.608	132.12
399.07	135.62
399.531	140.92
399.993	147.92
400.454	154.42
400.916	154.92
401.377	151.92
401.839	155.72
402.3	153.32
402.762	171.22
403.223	181.22
403.684	169.42
404.145	165.02
404.607	162.62
405.068	160.82
405.529	170.22
405.99	184.02
406.451	174.72
406.913	177.32
407.374	165.82
407.835	164.22
408.296	170.12
408.757	170.72
409.218	185.32
409.679	180.42
410.14	179.52
410.601	178.12
411.062	184.72
411.522	182.92
411.983	183.32
412.444	168.82
412.905	186.52
413.366	193.92
413.826	202.32
414.287	230.62
414.748	279.32
415.208	262.22
415.669	224.32
416.13	213.12
416.59	219.02
417.051	225.32
417.511	230.32
417.972	246.92
418.432	260.22
418.893	306.62
419.353	267.52
419.814	200.92
420.274	190.32
420.734	197.72
421.195	199.32
421.655	196.52
422.115	205.72
422.576	205.02
423.036	213.52
423.496	212.62
423.956	226.72
424.416	240.02
424.876	280.32
425.336	271.92
425.797	276.52
426.257	267.12
426.717	242.52
427.177	240.02
427.637	229.32
428.097	244.02
428.556	255.62
429.016	277.02
429.476	258.52
429.936	280.22
430.396	276.82
430.856	292.02
431.315	318.02
431.775	347.12
432.235	381.32
432.694	349.92
433.154	359.02
433.614	389.92
434.073	339.02
434.533	292.52
434.993	278.02
435.452	287.22
435.912	299.42
436.371	299.02
436.83	280.92
437.29	270.92
437.749	255.32
438.209	255.52
438.668	281.02
439.127	298.52
439.587	274.32
440.046	263.12
440.505	274.12
440.964	288.82
441.424	335.02
441.883	322.92
442.342	273.52
442.801	235.92
443.26	232.92
443.719	227.42
444.178	234.82
444.637	220.32
445.096	233.72
445.555	243.22
446.014	234.72
446.473	241.22
446.932	246.32
447.391	239.52
447.849	238.72
448.308	234.02
448.767	235.42
449.226	254.72
449.685	243.42
450.143	269.02
450.602	256.22
451.061	250.82
451.519	250.22
451.978	246.62
452.436	252.32
452.895	262.42
453.353	266.22
453.812	256.02
454.27	254.22
454.729	250.72
455.187	254.42
455.646	263.12
456.104	260.62
456.562	278.32
457.021	280.82
457.479	278.02
457.937	288.22
458.395	281.92
458.854	259.82
459.312	270.12
459.77	290.52
460.228	274.82
460.686	258.52
461.144	270.52
461.602	264.42
462.06	263.82
462.518	273.62
462.976	273.02
463.434	282.42
463.892	288.02
464.35	296.32
464.808	304.82
465.266	284.42
465.724	288.52
466.181	293.22
466.639	293.82
467.097	310.02
467.555	323.12
468.012	326.42
468.47	327.82
468.928	346.72
469.385	364.52
469.843	376.62
470.3	368.42
470.758	391.12
471.215	411.82
471.673	426.42
472.13	424.92
472.588	444.12
473.045	400.02
473.503	401.22
473.96	424.52
474.417	427.72
474.875	453.32
475.332	498.22
475.789	489.22
476.246	492.72
476.704	520.02
477.161	541.72
477.618	550.72
478.075	590.42
478.532	638.62
478.989	714.22
479.446	829.12
479.903	795.62
480.36	812.22
480.817	869.52
481.274	963.62
481.731	1054.62
482.188	1138.32
482.645	1255.02
483.102	1351.82
483.558	1472.52
484.015	1519.82
484.472	1504.62
484.929	1455.52
485.385	1404.12
485.842	1386.52
486.299	1328.72
486.755	1276.12
487.212	1087.02
487.668	934.82
488.125	870.12
488.582	803.52
489.038	772.42
489.494	746.02
489.951	716.12
490.407	703.92
490.864	674.22
491.32	671.32
491.776	671.72
492.233	680.02
492.689	646.62
493.145	642.32
493.602	639.92
494.058	658.62
494.514	653.42
494.97	672.52
495.426	687.42
495.882	665.62
496.338	644.32
496.794	651.72
497.251	664.52
497.707	673.22
498.163	669.42
498.618	685.52
499.074	683.02
499.53	711.72
499.986	715.42
500.442	685.72
500.898	657.82
501.354	644.82
501.809	656.32
502.265	664.62
502.721	671.82
503.177	672.72
503.632	685.82
504.088	687.22
504.543	713.32
504.999	725.62
505.455	705.12
505.91	681.22
506.366	673.72
506.821	681.72
507.277	673.22
507.732	672.62
508.187	684.92
508.643	683.22
509.098	688.12
509.553	704.92
510.009	711.42
510.464	719.02
510.919	745.02
511.375	750.52
511.83	763.22
512.285	770.12
512.74	814.82
513.195	842.32
513.65	823.62
514.105	808.42
514.56	825.72
515.015	842.62
515.47	850.32
515.925	832.22
516.38	837.52
516.835	847.42
517.29	840.02
517.745	834.02
518.2	813.42
518.655	796.72
519.109	793.32
519.564	782.22
520.019	776.02
520.474	771.22
520.928	778.22
521.383	763.92
521.838	756.72
522.292	759.32
522.747	776.42
523.201	753.02
523.656	746.02
524.11	742.72
524.565	733.92
525.019	738.02
525.474	748.82
525.928	738.02
526.382	748.22
526.837	747.52
527.291	758.52
527.745	756.02
528.2	748.52
528.654	736.22
529.108	733.12
529.562	734.92
530.016	736.92
530.47	735.82
530.925	737.72
531.379	737.62
531.833	751.72
532.287	744.22
532.741	753.12
533.195	759.52
533.649	761.22
534.103	764.12
534.556	763.82
535.01	755.02
535.464	756.82
535.918	760.42
536.372	765.02
536.826	756.92
537.279	756.12
537.733	760.22
538.187	766.82
538.64	766.02
539.094	776.62
539.548	774.12
540.001	762.02
540.455	766.92
540.908	790.52
541.362	791.02
541.815	797.82
542.269	819.22
542.722	821.22
543.175	826.22
543.629	824.42
544.082	833.12
544.536	847.62
544.989	844.92
545.442	844.52
545.895	850.42
546.349	848.02
546.802	847.12
547.255	861.62
547.708	863.82
548.161	876.52
548.614	878.82
549.067	885.12
549.52	883.62
549.973	873.32
550.426	867.02
550.879	860.92
551.332	863.82
551.785	863.52
552.238	871.82
552.691	880.22
553.144	897.22
553.596	922.82
554.049	928.72
554.502	963.02
554.955	975.42
555.407	972.32
555.86	959.92
556.313	958.72
556.765	942.12
557.218	943.62
557.67	940.02
558.123	934.32
558.576	925.92
559.028	948.82
559.48	950.02
559.933	933.92
560.385	894.82
560.838	870.92
561.29	855.02
561.742	841.02
562.195	828.92
562.647	823.22
563.099	827.42
563.551	826.42
564.004	844.42
564.456	831.52
564.908	813.92
565.36	796.72
565.812	779.62
566.264	781.22
566.716	769.12
567.168	757.02
567.62	758.02
568.072	743.72
568.524	753.62
568.976	732.52
569.428	731.42
569.88	714.02
570.332	732.12
570.784	738.62
571.235	729.92
571.687	742.62
572.139	751.82
572.59	760.42
573.042	762.82
573.494	755.92
573.945	757.72
574.397	726.02
574.849	739.32
575.3	735.82
575.752	735.12
576.203	730.82
576.655	737.22
577.106	715.22
577.557	716.42
578.009	712.82
578.46	712.82
578.912	712.72
579.363	719.82
579.814	722.72
580.265	710.72
580.717	720.62
581.168	722.22
581.619	730.72
582.07	734.92
582.521	717.52
582.972	713.52
583.423	723.92
583.875	729.62
584.326	732.62
584.777	750.42
585.227	767.02
585.678	779.22
586.129	792.62
586.58	815.62
587.031	835.72
587.482	866.72
587.933	890.42
588.384	861.92
588.834	839.22
589.285	822.92
589.736	820.92
590.186	818.02
590.637	806.42
591.088	794.62
591.538	783.72
591.989	776.42
592.439	772.62
592.89	767.32
593.34	753.62
593.791	753.82
594.241	736.12
594.692	751.82
595.142	737.12
595.593	733.52
596.043	740.42
596.493	759.22
596.943	745.92
597.394	769.32
597.844	762.32
598.294	778.92
598.744	809.92
599.195	823.82
599.645	869.82
600.095	917.02
600.545	972.62
600.995	1017.42
601.445	1089.52
601.895	1162.12
602.345	1191.82
602.795	1189.32
603.245	1138.12
603.695	1076.92
604.145	1023.12
604.594	976.02
605.044	921.62
605.494	841.92
605.944	809.72
606.393	797.02
606.843	768.52
607.293	774.02
607.743	763.82
608.192	782.92
608.642	795.22
609.091	803.62
609.541	800.72
609.99	805.02
610.44	799.82
610.889	765.42
611.339	743.42
611.788	726.12
612.238	732.42
612.687	747.32
613.136	735.72
613.586	752.72
614.035	737.62
614.484	751.52
614.933	744.62
615.383	751.42
615.832	738.52
616.281	739.22
616.73	707.42
617.179	690.32
617.628	682.52
618.077	671.22
618.526	661.12
618.975	654.32
619.424	647.92
619.873	649.02
620.322	643.72
620.771	639.02
621.22	634.32
621.669	624.42
622.118	619.62
622.567	622.32
623.015	606.32
623.464	600.82
623.913	595.92
624.361	593.52
624.81	582.62
625.259	581.32
625.707	589.52
626.156	594.22
626.604	599.62
627.053	601.92
627.501	600.42
627.95	603.32
628.398	616.32
628.847	604.02
629.295	599.72
629.744	604.52
630.192	600.62
630.64	588.22
631.089	581.52
631.537	570.92
631.985	562.02
632.433	563.02
632.881	553.12
633.33	555.22
633.778	542.12
634.226	554.52
634.674	571.62
635.122	561.42
635.57	583.12
636.018	598.32
636.466	590.92
636.914	588.02
637.362	598.12
637.81	605.12
638.258	612.82
638.705	614.82
639.153	644.22
639.601	658.52
640.049	677.62
640.497	718.62
640.944	730.02
641.392	685.12
641.84	643.82
642.287	616.72
642.735	596.82
643.182	589.42
643.63	584.62
644.078	580.32
644.525	604.82
644.973	617.12
645.42	627.02
645.867	649.72
646.315	653.42
646.762	681.52
647.21	709.82
647.657	736.42
648.104	767.52
648.551	787.22
648.999	853.72
649.446	925.42
649.893	1013.72
650.34	1150.22
650.787	1360.72
651.234	1685.12
651.682	2163.32
652.129	2922.22
652.576	4162.32
653.023	6059.52
653.47	8184.32
653.917	10158.12
654.363	11680.92
654.81	12939.52
655.257	12296.62
655.704	8103.92
656.151	4924.52
656.598	3232.52
657.044	2325.02
657.491	1814.72
657.938	1450.32
658.385	1228.12
658.831	1073.52
659.278	967.82
659.724	865.32
660.171	802.42
660.618	733.72
661.064	701.72
661.511	680.62
661.957	670.32
662.404	666.82
662.85	666.52
663.296	633.72
663.743	584.92
664.189	559.12
664.635	552.62
665.082	549.62
665.528	545.72
665.974	539.12
666.42	536.02
666.867	531.72
667.313	510.12
667.759	491.52
668.205	472.92
668.651	475.32
669.097	469.92
669.543	468.62
669.989	467.62
670.435	474.22
670.881	458.92
671.327	467.22
671.773	499.02
672.219	527.92
672.665	566.62
673.11	618.42
673.556	668.02
674.002	703.92
674.448	692.32
674.893	584.12
675.339	505.72
675.785	469.92
676.23	444.82
676.676	419.12
677.122	408.02
677.567	400.92
678.013	385.52
678.458	374.82
678.904	376.52
679.349	378.32
679.794	377.02
680.24	370.12
680.685	374.72
681.131	372.42
681.576	372.42
682.021	369.82
682.466	362.92
682.912	370.52
683.357	373.32
683.802	405.22
684.247	435.02
684.692	477.62
685.137	527.42
685.583	568.42
686.028	589.52
686.473	542.42
686.918	478.32
687.363	434.32
687.807	415.02
688.252	384.92
688.697	375.72
689.142	352.02
689.587	355.42
690.032	337.42
690.477	359.92
690.921	372.32
691.366	408.02
691.811	420.52
692.255	458.12
692.7	483.42
693.145	539.52
693.589	743.82
694.034	1212.92
694.478	1645.82
694.923	1843.62
695.367	2418.82
695.812	1283.12
696.256	534.92
696.701	392.12
697.145	358.42
697.59	356.82
698.034	344.12
698.478	345.32
698.922	345.32
699.367	346.72
699.811	354.62
700.255	375.12
700.699	397.52
701.143	445.82
701.588	495.82
702.032	544.62
702.476	544.32
702.92	521.42
703.364	524.52
703.808	682.02
704.252	1110.02
704.696	1552.12
705.14	1782.72
705.584	2263.72
706.027	1124.42
706.471	553.12
706.915	428.32
707.359	374.42
707.803	337.92
708.246	327.02
708.69	325.52
709.134	329.12
709.577	334.52
710.021	344.62
710.465	330.22
710.908	317.32
711.352	316.12
711.795	330.52
712.239	383.22
712.682	408.92
713.126	435.72
713.569	482.12
714.012	378.82
714.456	318.82
714.899	310.02
715.342	281.12
715.786	270.52
716.229	278.92
716.672	268.62
717.115	266.72
717.558	262.42
718.002	265.02
718.445	275.62
718.888	295.72
719.331	305.22
719.774	316.52
720.217	321.12
720.66	296.12
721.103	278.72
721.546	265.82
721.989	265.82
722.432	241.22
722.874	248.82
723.317	241.02
723.76	250.52
724.203	272.52
724.645	332.62
725.088	472.72
725.531	605.22
725.974	675.72
726.416	580.42
726.859	325.52
727.301	262.32
727.744	246.72
728.187	242.22
728.629	250.22
729.071	257.92
729.514	275.32
729.956	282.02
730.399	299.02
730.841	299.02
731.283	286.02
731.726	280.92
732.168	279.12
732.61	282.72
733.053	299.02
733.495	332.52
733.937	381.72
734.379	428.22
734.821	470.32
735.263	577.52
735.705	896.82
736.148	1683.42
736.59	2766.32
737.032	3258.52
737.474	2646.22
737.916	867.22
738.357	457.02
738.799	346.12
739.241	321.22
739.683	293.32
740.125	305.92
740.567	313.32
741.008	329.82
741.45	328.92
741.892	332.42
742.334	374.32
742.775	388.72
743.217	373.32
743.658	295.52
744.1	269.22
744.542	274.72
744.983	338.02
745.425	370.82
745.866	372.62
746.307	292.22
746.749	288.12
747.19	337.22
747.632	493.62
748.073	941.42
748.514	1989.52
748.956	3050.42
749.397	3823.42
749.838	3160.62
750.279	3142.32
750.72	1594.52
751.162	591.02
751.603	344.02
752.044	263.42
752.485	235.82
752.926	220.12
753.367	209.82
753.808	204.42
754.249	201.42
754.69	196.52
755.131	195.82
755.572	192.22
756.013	190.32
756.453	192.22
756.894	199.62
757.335	195.02
757.776	204.72
758.216	203.02
758.657	203.62
759.098	212.02
759.538	244.92
759.979	284.62
760.42	398.92
760.86	754.02
761.301	1965.22
761.741	4753.02
762.182	6850.42
762.622	4813.82
763.063	1394.42
763.503	571.72
763.943	339.52
764.384	285.12
764.824	272.92
765.264	258.82
765.705	232.92
766.145	193.92
766.585	195.12
767.025	182.82
767.465	175.42
767.906	186.62
768.346	205.62
768.786	212.72
769.226	222.62
769.666	327.82
770.106	653.02
770.546	1649.72
770.986	2802.52
771.426	2508.42
771.866	842.62
772.306	349.32
772.745	215.82
773.185	179.12
773.625	170.42
774.065	158.52
774.505	169.02
774.944	214.22
775.384	369.82
775.824	611.42
776.263	594.72
776.703	293.52
777.142	162.42
777.582	144.82
778.021	124.92
778.461	132.52
778.9	130.92
779.34	132.62
779.779	120.52
780.219	115.32
780.658	119.52
781.097	111.62
781.537	117.02
781.976	106.72
782.415	108.22
782.855	100.12
783.294	114.32
783.733	115.12
784.172	114.02
784.611	106.72
785.05	111.92
785.489	116.42
785.928	125.92
786.367	130.52
786.806	132.22
787.245	138.42
787.684	143.22
788.123	154.02
788.562	140.92
789.001	135.22
789.44	127.32
789.879	128.82
790.317	123.92
790.756	130.72
791.195	139.42
791.634	151.32
792.072	212.42
792.511	385.32
792.95	1054.82
793.388	2247.32
793.827	2015.92
794.265	706.72
794.704	292.72
795.142	198.02
795.581	162.02
796.019	146.22
796.458	140.52
796.896	135.02
797.334	135.12
797.773	163.82
798.211	240.02
798.649	462.52
799.087	1080.72
799.526	1703.32
799.964	2153.02
800.402	2127.92
800.84	810.32
801.278	318.62
801.716	197.72
802.154	165.52
802.592	159.72
803.03	144.62
803.468	144.52
803.906	153.62
804.344	157.32
804.782	148.42
805.22	147.42
805.658	142.82
806.096	157.02
806.533	166.82
806.971	188.92
807.409	236.02
807.847	337.82
808.284	704.42
808.722	1988.52
809.16	3514.22
809.597	3355.82
810.035	5778.52
810.472	6154.52
810.91	2233.32
811.347	852.82
811.785	427.32
812.222	275.72
812.66	210.22
813.097	174.22
813.535	147.02
813.972	136.92
814.409	125.72
814.846	115.02
815.284	111.42
815.721	106.42
816.158	104.62
816.595	114.62
817.032	166.62
817.47	186.02
817.907	144.52
818.344	105.62
818.781	103.62
819.218	100.92
819.655	134.42
820.092	206.42
820.529	232.02
820.966	187.62
821.403	133.72
821.839	107.02
822.276	99.92
822.713	130.02
823.15	151.52
823.587	123.32
824.023	155.82
824.46	318.62
824.897	950.62
825.333	1434.52
825.77	620.02
826.206	251.32
826.643	147.92
827.08	111.42
827.516	91.12
827.953	79.12
828.389	85.92
828.825	74.72
829.262	69.42
829.698	67.92
830.135	68.42
830.571	67.52
831.007	66.62
831.443	68.32
831.88	64.82
832.316	62.72
832.752	68.32
833.188	72.92
833.624	69.62
834.06	75.52
834.497	75.72
834.933	79.02
835.369	81.82
835.805	74.02
836.241	84.52
836.677	86.02
837.112	96.72
837.548	116.02
837.984	141.72
838.42	216.22
838.856	530.92
839.292	1608.92
839.727	2455.62
840.163	1149.12
840.599	989.82
841.034	2161.72
841.47	2244.42
841.906	833.12
842.341	345.92
842.777	208.82
843.212	211.92
843.648	191.02
844.083	117.42
844.519	89.22
844.954	76.22
845.39	60.42
845.825	60.52
846.261	63.32
846.696	56.32
847.131	54.22
847.566	62.72
848.002	56.02
848.437	60.42
848.872	67.42
849.307	64.72
849.742	88.12
850.177	192.52
850.613	594.42
851.048	920.42
851.483	408.22
851.918	168.22
852.353	94.32
852.788	57.42
853.223	50.52
853.657	53.32
854.092	49.02
854.527	49.42
854.962	47.92
855.397	46.62
855.832	54.82
856.266	42.52
856.701	46.32
857.136	42.22
857.57	42.32
858.005	51.42
858.44	55.32
858.874	51.32
859.309	56.82
859.743	45.52
860.178	50.52
860.612	43.52
861.047	51.22
861.481	80.62
861.915	76.72
862.35	52.62
862.784	33.42
863.218	44.92
863.653	39.92
864.087	45.02
864.521	54.52
864.955	72.02
865.39	164.52
865.824	184.62
866.258	119.62
866.692	180.42
867.126	195.42
867.56	121.52
867.994	58.82
868.428	45.42
868.862	55.42
869.296	56.72
869.73	61.52
870.164	58.82
870.598	53.72
871.031	43.12
871.465	32.72
871.899	34.72
872.333	27.22
872.766	29.32
873.2	26.52
873.634	32.52
874.067	30.52
874.501	27.02
874.935	41.22
875.368	35.62
875.802	34.52
876.235	31.52
876.669	25.12
877.102	20.72
877.535	27.42
877.969	22.22
878.402	25.02
878.836	21.02
879.269	26.02
879.702	30.62
880.135	21.62
880.569	22.72
881.002	27.22
881.435	28.02
881.868	16.12
882.301	28.72
882.734	18.12
883.167	25.32
883.601	21.22
884.034	22.82
884.467	16.02
884.899	23.82
885.332	15.22
885.765	18.52
886.198	14.52
886.631	16.02
887.064	18.32
887.497	23.12
887.929	23.92
888.362	17.32
888.795	13.02
889.228	16.62
889.66	21.42
890.093	21.42
890.526	18.82
890.958	15.52
891.391	22.22
891.823	25.42
892.256	14.02
892.688	18.02
893.121	22.82
893.553	14.52
893.985	25.12
894.418	18.42
894.85	16.72
895.282	20.72
895.715	18.42
896.147	16.52
896.579	23.82
897.011	20.42
897.444	25.32
897.876	18.32
898.308	19.32
898.74	13.62
899.172	11.72
899.604	24.12
900.036	20.12
900.468	19.62
900.9	13.92
901.332	19.52
901.764	16.32
902.196	14.62
902.628	26.62
903.06	21.22
903.491	31.32
903.923	22.62
904.355	24.92
904.787	23.82
905.218	28.42
905.65	22.22
906.082	16.82
906.513	17.02
906.945	22.02
907.376	10.42
907.808	17.92
908.239	19.32
908.671	21.92
909.102	17.62
909.534	25.82
909.965	48.72
910.397	96.22
910.828	336.82
911.259	501.72
911.691	230.72
912.122	118.82
912.553	55.92
912.984	35.62
913.415	25.72
913.847	24.62
914.278	14.02
914.709	14.32
915.14	15.92
915.571	21.32
916.002	16.32
916.433	24.32
916.864	23.42
917.295	11.82
917.726	24.52
918.157	18.62
918.587	27.32
919.018	24.22
919.449	24.72
919.88	23.92
920.311	33.92
920.741	49.22
921.172	173.92
921.603	162.82
922.033	80.92
922.464	51.42
922.895	22.12
923.325	19.82
923.756	11.72
924.186	9.12
924.617	21.12
925.047	29.52
925.478	25.72
925.908	20.92
926.338	17.62
926.769	15.02
927.199	20.32
927.629	8.32
928.06	17.22
928.49	16.82
928.92	17.02
929.35	13.42
929.78	14.62
930.21	8.72
930.641	3.92
931.071	9.02
931.501	9.72
931.931	12.52
932.361	7.42
932.791	0.02
933.221	5.82
933.651	10.92
934.08	23.52
934.51	35.62
934.94	8.42
935.37	7.62
935.8	14.32
936.229	12.52
936.659	14.92
937.089	2.72
937.519	14.32
937.948	25.02
938.378	18.42
938.807	7.62
939.237	6.92
939.666	4.92
940.096	-0.58
940.525	3.32
940.955	5.92
941.384	6.62
941.814	-6.48
942.243	-0.58
942.672	2.92
943.102	-5.78
943.531	-1.98
943.96	9.12
944.39	-0.58
944.819	2.72
945.248	5.22
945.677	6.02
946.106	7.62
946.535	2.32
946.964	3.62
947.393	4.42
947.822	3.72
948.251	-4.48
948.68	4.22
949.109	3.22
949.538	4.52
949.967	1.22
950.396	0.22
950.825	-0.88
951.254	-3.88
951.682	-1.68
952.111	-0.88
952.54	5.12
952.969	1.12
953.397	-3.18
953.826	3.32
954.254	-4.88
954.683	2.42
955.112	-1.28
955.54	1.62
955.969	1.22
956.397	1.02
956.826	0.72
957.254	6.32
957.682	4.12
958.111	5.62
958.539	0.42
958.967	0.82
959.396	3.52
959.824	-0.08
960.252	4.62
960.68	-1.58
961.109	-0.08
961.537	-1.28
961.965	3.62
962.393	2.72
962.821	-1.68
963.249	-4.78
963.677	4.32
964.105	7.52
964.533	48.52
964.961	41.32
965.389	23.82
965.817	9.72
966.245	6.02
966.672	-2.68
967.1	-9.88
967.528	-1.08
967.956	0.72
968.383	1.32
968.811	-1.98
969.239	-0.38
969.666	-9.88
970.094	4.12
970.522	4.72
970.949	4.02
971.377	-5.48
971.804	-3.08
972.232	-5.68
972.659	-0.18
973.087	1.62
973.514	-2.38
973.941	-2.58
974.369	2.52
974.796	7.42
975.223	4.12
975.651	-2.58
976.078	0.92
976.505	2.92
976.932	3.52
977.359	14.62
977.786	19.02
978.214	2.22
978.641	-3.68
979.068	-3.08
979.495	-5.88
979.922	-1.48
980.349	-2.28
980.776	3.72
981.202	-3.78
981.629	2.52
982.056	2.12
982.483	-7.18
982.91	0.02
983.337	-3.58
983.763	2.22
984.19	-7.58
984.617	-2.38
985.043	-4.48
985.47	-2.68
985.897	-1.68
986.323	-9.78
986.75	7.82
987.176	-1.08
987.603	-2.08
988.029	0.82
988.456	-0.08
988.882	2.52
989.308	-8.88
989.735	-5.28
990.161	5.52
990.587	-4.68
991.014	-2.28
991.44	10.12
991.866	-2.68
992.292	-3.98
992.719	0.32
993.145	3.02
993.571	-4.18
993.997	-1.38
994.423	-0.38
994.849	-2.68
995.275	5.72
995.701	-1.28
996.127	-4.88
996.553	0.52
996.979	-5.88
997.405	3.32
997.83	-3.28
998.256	-6.08
998.682	-4.28
999.108	-10.88
999.534	-1.68
999.959	-2.58
1000.385	-6.88
1000.811	0.02
1001.236	-10.48
1001.662	-10.98
1002.087	-13.78
1002.513	-4.08
1002.938	-0.88
1003.364	1.72
1003.789	5.62
1004.215	4.02
1004.64	0.52
1005.066	-2.08
1005.491	-1.68
1005.916	-4.08
1006.342	0.12
1006.767	-3.58
1007.192	-0.38
1007.617	-8.28
1008.042	-6.28
1008.468	-10.58
1008.893	-1.58
1009.318	2.52
1009.743	-5.48
1010.168	2.32
1010.593	-1.58
1011.018	-1.68
1011.443	0.02
1011.868	5.12
1012.293	-4.58
1012.718	-3.38
1013.143	-2.88
1013.567	0.22
1013.992	-4.48
1014.417	-18.28
1014.842	6.82
1015.267	-1.98
1015.691	0.42
1016.116	4.32
1016.541	-0.88
1016.965	-1.48
1017.39	4.12
1017.814	-0.28
1018.239	-3.08
1018.663	-7.88
1019.088	-15.08
1019.512	-6.98
1019.937	-5.28
1020.361	-3.08
1020.785	-8.28
1021.21	-3.98
1021.634	3.12
1022.058	3.22
1022.483	4.62
1022.907	-5.68
1023.331	-3.68
1023.755	-2.88
1024.179	-1.38
1024.604	-4.58
1025.028	-2.78
1025.452	-4.08
1025.876	-0.68
1026.3	-0.48
1026.724	-10.08
1027.148	-5.98
1027.572	-8.68
1027.996	-8.28
1028.42	0.02
1028.843	-5.28
1029.267	-7.38
1029.691	-4.88
1030.115	-3.98
1030.539	-8.38
1030.962	-5.38
1031.386	-7.48
1031.81	-4.28
1032.233	-2.28
1032.657	-4.18
1033.08	1.62
1033.504	-3.08
1033.927	-3.28
1034.351	1.92
1034.774	-0.98
1035.198	-6.88
1035.621	-2.48
1036.045	-6.88
1036.468	-1.78
1036.891	-9.08
1037.315	-8.88
1037.738	-11.48
1038.161	-0.88
1038.584	-5.18
1039.008	-1.58
1039.431	-2.18
1039.854	-2.88
1040.277	-8.78
1040.7	-6.68
1041.123	-1.38
1041.546	-8.68
1041.969	1.32
1042.392	-6.58
1042.815	-7.68
1043.238	1.72
1043.661	5.42
1044.084	-6.38
1044.507	-0.48
1044.93	-5.88
1045.352	-3.88
1045.775	-2.88
1046.198	-4.98
1046.621	-7.28
1047.043	1.32
1047.466	5.42
1047.889	-3.48
1048.311	-3.68
1048.734	-4.28
1049.156	4.82
1049.579	-1.68
1050.001	-3.08
1050.424	-1.28
1050.846	-4.08
1051.269	-0.48
1051.691	-2.58
1052.113	-7.18
1052.536	0.02
1052.958	-4.38
1053.38	-4.98
1053.802	-12.38
1054.225	1.52
1054.647	-12.98
1055.069	-7.88
1055.491	-1.08
1055.913	-7.68
1056.335	6.32
1056.757	-8.48
1057.179	-0.58
1057.601	-2.28
1058.023	-7.48
1058.445	0.32
1058.867	1.32
1059.289	-3.98
1059.711	-8.58
1060.133	-0.48
1060.555	-4.88
1060.976	-7.68
1061.398	0.02
1061.82	-5.58
1062.241	-5.98
1062.663	-9.88
1063.085	-6.68
1063.506	5.42
1063.928	-7.58
1064.35	-4.78
1064.771	-15.88
1065.193	-4.18
1065.614	-8.68
1066.035	2.82
1066.457	-2.28
1066.878	0.02
1067.3	-3.18
1067.721	-2.38
1068.142	-3.48
1068.564	0.22
1068.985	-5.08
1069.406	-3.38
1069.827	-0.68
1070.248	1.02
1070.67	-8.48
1071.091	-6.08
1071.512	-0.38
1071.933	-3.18
1072.354	-4.58
1072.775	-4.78
1073.196	-9.28
1073.617	-4.18
1074.038	-11.58
1074.459	-2.08
1074.88	-11.38
1075.3	2.92
1075.721	-2.48
1076.142	-1.98
1076.563	1.72
1076.983	-11.28
1077.404	-6.38
1077.825	-8.88
1078.246	-1.28
1078.666	-11.58
1079.087	-0.08
1079.507	-0.28
1079.928	-2.58
1080.348	-5.08
1080.769	-6.38
1081.189	2.32
1081.61	-5.68
1082.03	-9.08
1082.451	-3.48
1082.871	-4.58
1083.291	-2.58
1083.711	-4.68
1084.132	-3.48
1084.552	-5.48
1084.972	2.32
1085.392	-8.68
1085.813	-14.18
1086.233	-7.58
1086.653	-6.98
1087.073	-3.98
1087.493	-5.08
1087.913	-6.18
1088.333	-8.48
1088.753	-11.08
1089.173	-1.38
1089.593	-3.38
1090.013	-1.68
1090.433	1.12
1090.852	-4.68
1091.272	-4.18
1091.692	-2.78
1092.112	-4.08
1092.531	-9.28
1092.951	-9.08
1093.371	-1.98
1093.79	-0.78
1094.21	-3.18
1094.63	-4.78
1095.049	-4.18
1095.469	-4.58
1095.888	-3.48
1096.308	2.82
1096.727	1.62
1097.146	-3.78
1097.566	-0.18
1097.985	-3.28
1098.405	-5.88
1098.824	-13.88
1099.243	-4.28
1099.662	-13.88
1100.082	-3.88
1100.501	-8.18
1100.92	-9.78
1101.339	-1.68
1101.758	-11.68
