Data from 20171114-ORNL-Ar_H_NY_Subt18_08-05-07-849.txt Node
Date: Tue Nov 14 08:05:07 EST 2017
User: Ender
Spectrometer: HR+D1039
Trigger mode: 0
Integration Time (sec): 2.730000E-2
Scans to average: 10
Electric dark correction enabled: true
Nonlinearity correction enabled: false
Boxcar width: 0
XAxis mode: Wavelengths
Number of Pixels in Spectrum: 2048
>>>>>Begin Spectral Data<<<<<
187.836	-5.14
188.309	-5.14
188.782	-5.14
189.255	-1.04
189.728	0.06
190.201	6.76
190.674	-0.14
191.147	4.16
191.619	-7.44
192.092	-0.14
192.565	-0.14
193.038	-2.54
193.511	3.56
193.984	-1.84
194.456	-3.84
194.929	-1.64
195.402	5.36
195.874	4.06
196.347	-0.54
196.82	-7.04
197.292	3.66
197.765	-1.54
198.237	-8.44
198.71	-0.24
199.182	-0.24
199.655	2.36
200.127	1.86
200.6	1.16
201.072	0.26
201.544	-4.54
202.017	-4.04
202.489	1.06
202.961	4.96
203.433	-1.44
203.906	-4.74
204.378	-7.64
204.85	-1.44
205.322	-10.54
205.794	4.76
206.266	-3.04
206.739	-9.54
207.211	2.26
207.683	-7.04
208.155	-4.74
208.627	-5.34
209.099	-4.54
209.57	-7.84
210.042	-1.94
210.514	-6.94
210.986	-1.34
211.458	-7.84
211.93	-2.54
212.402	0.86
212.873	-0.74
213.345	-11.04
213.817	-17.64
214.288	3.76
214.76	-11.84
215.232	-9.64
215.703	-1.04
216.175	-9.34
216.646	-6.74
217.118	-8.74
217.589	-4.24
218.061	-0.84
218.532	-5.44
219.004	-8.34
219.475	-6.44
219.946	-4.04
220.418	-4.24
220.889	4.56
221.36	-3.64
221.832	-5.04
222.303	-5.04
222.774	-1.34
223.245	-7.94
223.717	-5.14
224.188	-5.44
224.659	-11.34
225.13	-4.34
225.601	-7.44
226.072	-2.54
226.543	-1.14
227.014	-0.64
227.485	-4.44
227.956	-3.64
228.427	-4.94
228.898	2.46
229.369	4.06
229.839	-6.14
230.31	-6.94
230.781	2.36
231.252	-3.04
231.722	-3.34
232.193	-4.14
232.664	-8.24
233.135	1.26
233.605	3.76
234.076	-5.64
234.546	6.36
235.017	5.06
235.487	1.86
235.958	-1.64
236.428	-4.84
236.899	8.06
237.369	5.16
237.84	-5.64
238.31	1.16
238.78	5.76
239.251	2.96
239.721	8.26
240.191	5.26
240.662	-0.04
241.132	2.56
241.602	-0.64
242.072	-3.64
242.542	5.86
243.013	3.76
243.483	7.46
243.953	0.46
244.423	3.96
244.893	-5.24
245.363	5.56
245.833	8.26
246.303	2.76
246.773	4.06
247.243	5.26
247.712	3.46
248.182	3.26
248.652	8.06
249.122	-3.84
249.592	11.76
250.061	24.66
250.531	32.36
251.001	17.46
251.471	19.26
251.94	20.56
252.41	8.46
252.879	6.26
253.349	13.36
253.818	8.76
254.288	4.16
254.757	5.76
255.227	-4.84
255.696	3.36
256.166	11.46
256.635	5.76
257.105	8.76
257.574	2.86
258.043	8.66
258.513	14.36
258.982	18.36
259.451	10.56
259.92	17.36
260.389	9.86
260.859	15.96
261.328	12.76
261.797	18.36
262.266	11.96
262.735	9.56
263.204	5.46
263.673	3.96
264.142	2.26
264.611	-3.54
265.08	2.76
265.549	0.86
266.018	4.36
266.487	-3.74
266.955	1.86
267.424	1.56
267.893	6.16
268.362	2.66
268.83	3.06
269.299	12.66
269.768	10.66
270.236	4.66
270.705	4.26
271.174	8.66
271.642	13.56
272.111	11.96
272.579	22.16
273.048	23.06
273.516	24.56
273.985	29.96
274.453	25.96
274.922	20.36
275.39	15.66
275.858	4.76
276.327	16.86
276.795	17.06
277.263	12.36
277.731	33.06
278.2	60.26
278.668	63.46
279.136	55.46
279.604	21.56
280.072	20.86
280.54	15.46
281.008	9.26
281.477	13.76
281.945	12.76
282.413	12.76
282.881	15.26
283.348	9.66
283.816	17.26
284.284	12.96
284.752	20.46
285.22	12.76
285.688	23.06
286.156	21.66
286.623	45.06
287.091	55.76
287.559	31.36
288.026	16.26
288.494	18.76
288.962	10.26
289.429	9.96
289.897	20.16
290.364	8.86
290.832	17.66
291.3	17.46
291.767	22.96
292.234	15.86
292.702	24.16
293.169	23.16
293.637	25.76
294.104	20.46
294.571	11.36
295.039	15.86
295.506	17.06
295.973	18.46
296.44	18.06
296.908	23.86
297.375	20.46
297.842	19.86
298.309	16.86
298.776	14.96
299.243	28.76
299.71	9.66
300.177	26.76
300.644	26.26
301.111	21.16
301.578	25.86
302.045	20.26
302.512	26.16
302.979	24.26
303.446	27.06
303.913	11.26
304.379	22.36
304.846	35.86
305.313	24.66
305.78	20.46
306.246	32.46
306.713	30.66
307.18	29.06
307.646	28.16
308.113	33.26
308.579	24.36
309.046	22.06
309.512	32.76
309.979	18.96
310.445	28.06
310.912	26.26
311.378	34.66
311.845	38.06
312.311	30.86
312.777	32.36
313.244	34.06
313.71	40.96
314.176	30.86
314.642	33.46
315.109	35.06
315.575	42.06
316.041	39.46
316.507	39.76
316.973	41.06
317.439	35.46
317.905	37.06
318.371	40.86
318.837	29.36
319.303	36.06
319.769	32.56
320.235	35.16
320.701	38.26
321.167	34.46
321.633	34.76
322.099	40.76
322.564	43.16
323.03	39.46
323.496	42.66
323.962	43.76
324.427	39.76
324.893	47.76
325.359	39.16
325.824	42.06
326.29	38.26
326.755	38.16
327.221	39.06
327.686	32.56
328.152	49.36
328.617	51.56
329.083	44.56
329.548	52.26
330.014	44.96
330.479	40.26
330.944	42.06
331.41	45.36
331.875	46.86
332.34	44.96
332.805	44.86
333.271	48.56
333.736	40.16
334.201	53.76
334.666	47.86
335.131	57.96
335.596	49.46
336.061	46.16
336.526	48.66
336.991	51.86
337.456	59.96
337.921	48.26
338.386	47.66
338.851	50.26
339.316	52.16
339.781	50.36
340.246	52.96
340.711	48.46
341.175	52.06
341.64	40.66
342.105	50.06
342.569	60.66
343.034	60.16
343.499	52.56
343.963	55.76
344.428	72.76
344.893	63.26
345.357	61.86
345.822	63.36
346.286	66.66
346.751	76.16
347.215	71.76
347.679	76.96
348.144	109.96
348.608	90.96
349.073	75.96
349.537	74.86
350.001	80.86
350.465	92.76
350.93	82.16
351.394	78.76
351.858	73.76
352.322	90.46
352.786	90.96
353.25	103.66
353.715	118.06
354.179	111.06
354.643	119.06
355.107	123.86
355.571	106.66
356.035	101.16
356.498	118.76
356.962	123.96
357.426	127.86
357.89	114.76
358.354	91.06
358.818	88.36
359.281	81.06
359.745	77.26
360.209	76.06
360.673	79.06
361.136	80.86
361.6	88.66
362.064	82.76
362.527	89.46
362.991	91.06
363.454	79.06
363.918	84.06
364.381	85.06
364.845	78.36
365.308	90.56
365.772	86.26
366.235	87.26
366.698	88.46
367.162	92.16
367.625	88.86
368.088	93.06
368.552	88.56
369.015	88.06
369.478	102.16
369.941	109.26
370.404	94.96
370.867	107.26
371.331	105.56
371.794	119.56
372.257	109.66
372.72	118.66
373.183	108.66
373.646	104.16
374.109	102.96
374.572	106.96
375.035	108.96
375.497	107.26
375.96	104.36
376.423	106.76
376.886	111.66
377.349	108.36
377.811	106.16
378.274	101.76
378.737	107.56
379.199	110.46
379.662	109.36
380.125	120.66
380.587	114.36
381.05	120.96
381.512	122.46
381.975	137.36
382.437	126.86
382.9	123.76
383.362	130.96
383.825	137.46
384.287	147.06
384.75	134.56
385.212	144.26
385.674	145.96
386.136	140.06
386.599	125.26
387.061	131.56
387.523	133.76
387.985	135.86
388.447	145.46
388.91	141.96
389.372	153.66
389.834	149.06
390.296	154.26
390.758	155.36
391.22	163.86
391.682	204.16
392.144	288.66
392.606	225.06
393.068	162.86
393.529	172.96
393.991	149.06
394.453	146.16
394.915	152.56
395.377	182.36
395.838	212.26
396.3	156.66
396.762	147.46
397.224	129.66
397.685	122.16
398.147	129.26
398.608	127.16
399.07	122.06
399.531	131.86
399.993	138.56
400.454	155.26
400.916	143.16
401.377	138.86
401.839	146.46
402.3	150.56
402.762	165.66
403.223	175.96
403.684	172.66
404.145	158.06
404.607	159.16
405.068	160.26
405.529	165.56
405.99	189.46
406.451	180.76
406.913	169.06
407.374	165.56
407.835	159.66
408.296	168.26
408.757	171.76
409.218	183.26
409.679	179.16
410.14	174.26
410.601	177.96
411.062	180.66
411.522	181.76
411.983	189.36
412.444	172.76
412.905	172.46
413.366	183.76
413.826	190.96
414.287	211.86
414.748	258.36
415.208	242.96
415.669	207.86
416.13	208.16
416.59	202.36
417.051	206.96
417.511	212.76
417.972	229.16
418.432	244.26
418.893	282.96
419.353	248.16
419.814	195.16
420.274	182.36
420.734	177.56
421.195	193.86
421.655	193.86
422.115	194.26
422.576	193.16
423.036	186.66
423.496	201.76
423.956	207.86
424.416	233.06
424.876	265.56
425.336	255.46
425.797	255.66
426.257	252.76
426.717	236.36
427.177	228.26
427.637	218.96
428.097	230.56
428.556	240.86
429.016	267.46
429.476	258.06
429.936	266.56
430.396	276.06
430.856	293.96
431.315	312.06
431.775	342.86
432.235	366.76
432.694	349.86
433.154	357.76
433.614	392.06
434.073	330.36
434.533	287.56
434.993	271.56
435.452	275.76
435.912	294.06
436.371	274.76
436.83	277.26
437.29	264.26
437.749	245.66
438.209	244.76
438.668	265.36
439.127	284.36
439.587	255.26
440.046	244.96
440.505	257.16
440.964	272.56
441.424	315.96
441.883	305.86
442.342	255.76
442.801	228.06
443.26	213.66
443.719	215.36
444.178	211.76
444.637	199.56
445.096	215.66
445.555	218.16
446.014	217.06
446.473	217.26
446.932	226.76
447.391	222.06
447.849	220.36
448.308	209.36
448.767	216.86
449.226	234.56
449.685	232.86
450.143	247.46
450.602	235.86
451.061	224.46
451.519	225.66
451.978	226.26
452.436	230.26
452.895	236.96
453.353	246.16
453.812	234.96
454.27	237.66
454.729	235.66
455.187	241.36
455.646	242.06
456.104	245.06
456.562	254.96
457.021	266.86
457.479	254.06
457.937	270.46
458.395	266.76
458.854	242.06
459.312	237.06
459.77	265.26
460.228	254.56
460.686	240.06
461.144	238.26
461.602	233.06
462.06	241.86
462.518	250.36
462.976	248.46
463.434	255.66
463.892	264.16
464.35	263.76
464.808	286.06
465.266	256.86
465.724	263.46
466.181	268.36
466.639	267.26
467.097	283.86
467.555	300.76
468.012	301.26
468.47	304.96
468.928	321.36
469.385	336.66
469.843	340.36
470.3	339.96
470.758	352.16
471.215	386.96
471.673	401.96
472.13	397.76
472.588	405.26
473.045	368.46
473.503	365.96
473.96	386.76
474.417	399.16
474.875	425.66
475.332	466.96
475.789	451.86
476.246	464.96
476.704	480.46
477.161	505.06
477.618	508.96
478.075	549.66
478.532	608.46
478.989	685.46
479.446	787.76
479.903	766.66
480.36	801.66
480.817	852.36
481.274	961.46
481.731	1055.96
482.188	1153.06
482.645	1291.96
483.102	1406.66
483.558	1534.46
484.015	1586.06
484.472	1566.56
484.929	1504.26
485.385	1446.76
485.842	1423.06
486.299	1352.26
486.755	1280.06
487.212	1083.06
487.668	916.56
488.125	842.16
488.582	769.66
489.038	739.56
489.494	710.26
489.951	680.16
490.407	658.06
490.864	639.26
491.32	634.46
491.776	635.56
492.233	634.06
492.689	605.86
493.145	594.76
493.602	588.06
494.058	610.06
494.514	603.86
494.97	621.66
495.426	640.66
495.882	618.46
496.338	611.66
496.794	625.26
497.251	617.36
497.707	627.46
498.163	641.16
498.618	636.56
499.074	643.26
499.53	663.96
499.986	670.86
500.442	646.36
500.898	621.36
501.354	619.26
501.809	625.06
502.265	644.66
502.721	648.76
503.177	669.56
503.632	644.96
504.088	660.86
504.543	697.06
504.999	698.36
505.455	658.76
505.91	623.86
506.366	625.46
506.821	622.86
507.277	619.56
507.732	623.56
508.187	612.96
508.643	627.86
509.098	622.96
509.553	651.36
510.009	657.76
510.464	658.56
510.919	675.56
511.375	682.16
511.83	693.76
512.285	714.66
512.74	757.26
513.195	779.46
513.65	764.26
514.105	754.26
514.56	765.26
515.015	780.46
515.47	797.96
515.925	786.66
516.38	775.56
516.835	781.26
517.29	769.86
517.745	771.76
518.2	751.56
518.655	738.56
519.109	736.06
519.564	731.76
520.019	728.96
520.474	719.76
520.928	717.86
521.383	709.56
521.838	697.36
522.292	701.76
522.747	699.86
523.201	695.56
523.656	680.86
524.11	680.76
524.565	671.26
525.019	683.86
525.474	692.56
525.928	687.36
526.382	688.16
526.837	691.86
527.291	687.76
527.745	686.86
528.2	686.06
528.654	681.66
529.108	676.76
529.562	685.66
530.016	677.46
530.47	678.46
530.925	673.36
531.379	690.76
531.833	694.96
532.287	695.16
532.741	695.16
533.195	704.76
533.649	711.16
534.103	709.86
534.556	710.76
535.01	698.66
535.464	695.56
535.918	709.56
536.372	716.66
536.826	711.76
537.279	697.26
537.733	700.66
538.187	701.86
538.64	701.86
539.094	712.06
539.548	719.56
540.001	712.06
540.455	704.96
540.908	719.96
541.362	740.86
541.815	740.46
542.269	739.06
542.722	740.56
543.175	756.76
543.629	750.66
544.082	774.26
544.536	761.16
544.989	775.96
545.442	777.66
545.895	769.06
546.349	766.96
546.802	773.86
547.255	769.76
547.708	788.46
548.161	802.96
548.614	796.36
549.067	815.06
549.52	804.76
549.973	803.96
550.426	788.16
550.879	778.86
551.332	785.46
551.785	790.36
552.238	795.86
552.691	805.06
553.144	812.16
553.596	825.96
554.049	846.56
554.502	879.86
554.955	899.06
555.407	890.06
555.86	884.06
556.313	875.36
556.765	856.96
557.218	865.36
557.67	862.66
558.123	850.86
558.576	857.66
559.028	857.46
559.48	862.86
559.933	851.46
560.385	827.26
560.838	785.56
561.29	755.86
561.742	756.56
562.195	745.66
562.647	738.06
563.099	757.26
563.551	750.76
564.004	747.46
564.456	729.36
564.908	748.46
565.36	738.16
565.812	704.16
566.264	711.96
566.716	706.96
567.168	689.36
567.62	708.66
568.072	668.96
568.524	677.26
568.976	661.06
569.428	654.16
569.88	651.96
570.332	661.36
570.784	669.76
571.235	663.26
571.687	672.76
572.139	672.86
572.59	692.96
573.042	689.36
573.494	690.46
573.945	682.36
574.397	661.96
574.849	675.86
575.3	668.16
575.752	659.46
576.203	656.46
576.655	666.66
577.106	644.46
577.557	642.86
578.009	643.56
578.46	641.26
578.912	636.96
579.363	640.26
579.814	642.56
580.265	642.26
580.717	647.06
581.168	643.46
581.619	647.36
582.07	662.66
582.521	653.16
582.972	647.56
583.423	645.46
583.875	654.36
584.326	674.46
584.777	728.56
585.227	782.76
585.678	869.96
586.129	958.86
586.58	1024.36
587.031	1100.06
587.482	1252.46
587.933	1449.76
588.384	1245.06
588.834	937.26
589.285	779.76
589.736	759.36
590.186	745.76
590.637	738.16
591.088	717.46
591.538	702.16
591.989	696.06
592.439	710.66
592.89	691.16
593.34	673.96
593.791	680.36
594.241	670.16
594.692	672.46
595.142	673.06
595.593	668.36
596.043	675.66
596.493	683.16
596.943	685.66
597.394	683.46
597.844	683.16
598.294	699.46
598.744	717.56
599.195	738.16
599.645	775.66
600.095	812.16
600.545	875.56
600.995	910.16
601.445	972.06
601.895	1035.66
602.345	1064.76
602.795	1056.86
603.245	1005.16
603.695	964.76
604.145	910.96
604.594	869.46
605.044	824.66
605.494	765.66
605.944	723.16
606.393	698.76
606.843	690.66
607.293	700.36
607.743	689.06
608.192	705.16
608.642	716.16
609.091	727.36
609.541	725.56
609.99	730.46
610.44	719.96
610.889	673.96
611.339	665.76
611.788	651.76
612.238	664.16
612.687	684.26
613.136	677.66
613.586	698.26
614.035	704.36
614.484	715.46
614.933	716.26
615.383	704.76
615.832	700.06
616.281	680.86
616.73	651.66
617.179	636.76
617.628	612.16
618.077	607.66
618.526	582.26
618.975	585.66
619.424	584.46
619.873	579.76
620.322	585.86
620.771	573.66
621.22	571.16
621.669	564.06
622.118	552.16
622.567	557.06
623.015	535.86
623.464	536.16
623.913	527.26
624.361	520.96
624.81	521.56
625.259	523.06
625.707	521.16
626.156	520.46
626.604	529.86
627.053	528.36
627.501	529.46
627.95	532.36
628.398	532.56
628.847	535.66
629.295	538.06
629.744	538.56
630.192	538.56
630.64	538.86
631.089	541.06
631.537	532.96
631.985	543.96
632.433	563.86
632.881	569.46
633.33	618.56
633.778	599.76
634.226	524.06
634.674	536.56
635.122	541.96
635.57	562.66
636.018	588.06
636.466	546.66
636.914	528.96
637.362	535.76
637.81	538.56
638.258	546.26
638.705	544.56
639.153	563.06
639.601	579.36
640.049	592.86
640.497	638.06
640.944	658.26
641.392	602.06
641.84	570.96
642.287	541.56
642.735	531.36
643.182	536.86
643.63	540.26
644.078	536.96
644.525	551.56
644.973	560.76
645.42	562.36
645.867	581.76
646.315	593.46
646.762	615.56
647.21	646.36
647.657	664.26
648.104	711.26
648.551	722.96
648.999	783.36
649.446	846.66
649.893	942.26
650.34	1078.06
650.787	1296.46
651.234	1597.46
651.682	2075.36
652.129	2842.06
652.576	4084.06
653.023	6050.56
653.47	8344.96
653.917	10488.06
654.363	12242.96
654.81	13658.76
655.257	12964.76
655.704	8463.56
656.151	4966.06
656.598	3218.06
657.044	2280.36
657.491	1744.26
657.938	1398.96
658.385	1174.66
658.831	1006.56
659.278	903.76
659.724	799.66
660.171	738.46
660.618	676.46
661.064	648.96
661.511	616.56
661.957	606.36
662.404	605.46
662.85	607.06
663.296	578.36
663.743	520.26
664.189	493.96
664.635	497.36
665.082	486.26
665.528	487.36
665.974	476.96
666.42	472.36
666.867	470.86
667.313	443.26
667.759	444.86
668.205	442.76
668.651	446.76
669.097	453.76
669.543	461.76
669.989	439.66
670.435	412.66
670.881	418.46
671.327	419.96
671.773	437.16
672.219	453.26
672.665	504.06
673.11	545.06
673.556	580.86
674.002	617.06
674.448	613.86
674.893	505.26
675.339	441.66
675.785	412.46
676.23	381.96
676.676	366.36
677.122	352.46
677.567	332.56
678.013	346.36
678.458	338.06
678.904	328.56
679.349	319.76
679.794	325.06
680.24	324.06
680.685	316.56
681.131	315.26
681.576	312.26
682.021	329.96
682.466	320.76
682.912	318.56
683.357	320.66
683.802	350.36
684.247	375.76
684.692	413.86
685.137	448.36
685.583	494.56
686.028	508.76
686.473	480.46
686.918	409.96
687.363	384.16
687.807	367.26
688.252	333.26
688.697	320.06
689.142	310.06
689.587	302.76
690.032	300.06
690.477	315.26
690.921	317.56
691.366	347.46
691.811	373.36
692.255	398.66
692.7	420.66
693.145	457.76
693.589	621.76
694.034	1024.66
694.478	1402.56
694.923	1598.46
695.367	2107.86
695.812	1101.26
696.256	457.26
696.701	338.26
697.145	310.56
697.59	306.26
698.034	295.56
698.478	298.96
698.922	296.56
699.367	293.86
699.811	303.66
700.255	321.06
700.699	359.96
701.143	392.16
701.588	443.16
702.032	467.06
702.476	467.66
702.92	448.66
703.364	445.06
703.808	558.86
704.252	913.26
704.696	1313.46
705.14	1548.26
705.584	1988.96
706.027	986.06
706.471	484.06
706.915	361.96
707.359	309.16
707.803	286.46
708.246	286.26
708.69	277.36
709.134	292.66
709.577	285.56
710.021	293.16
710.465	286.16
710.908	272.86
711.352	270.16
711.795	286.96
712.239	319.66
712.682	343.86
713.126	373.86
713.569	431.46
714.012	343.36
714.456	298.56
714.899	272.16
715.342	249.06
715.786	240.66
716.229	232.76
716.672	229.96
717.115	228.76
717.558	235.26
718.002	233.66
718.445	239.36
718.888	256.56
719.331	267.86
719.774	281.26
720.217	279.56
720.66	255.86
721.103	249.96
721.546	236.16
721.989	232.66
722.432	207.16
722.874	216.56
723.317	206.46
723.76	220.16
724.203	239.46
724.645	290.66
725.088	395.66
725.531	518.26
725.974	591.06
726.416	502.06
726.859	284.86
727.301	229.26
727.744	217.56
728.187	214.66
728.629	222.66
729.071	223.96
729.514	228.16
729.956	244.86
730.399	260.26
730.841	260.06
731.283	247.56
731.726	235.96
732.168	232.76
732.61	242.46
733.053	256.06
733.495	289.16
733.937	318.76
734.379	348.16
734.821	395.26
735.263	486.46
735.705	746.76
736.148	1410.16
736.59	2332.76
737.032	2840.66
737.474	2303.46
737.916	741.26
738.357	393.16
738.799	297.56
739.241	269.36
739.683	261.56
740.125	264.96
740.567	273.86
741.008	283.86
741.45	288.16
741.892	287.26
742.334	310.16
742.775	331.66
743.217	309.96
743.658	244.06
744.1	231.46
744.542	236.16
744.983	275.36
745.425	313.26
745.866	317.56
746.307	253.26
746.749	254.36
747.19	290.96
747.632	405.36
748.073	772.46
748.514	1648.16
748.956	2588.36
749.397	3239.46
749.838	2694.86
750.279	2742.96
750.72	1382.26
751.162	498.76
751.603	290.66
752.044	229.56
752.485	195.76
752.926	195.16
753.367	180.96
753.808	180.06
754.249	175.46
754.69	166.26
755.131	159.86
755.572	162.06
756.013	160.86
756.453	164.06
756.894	172.46
757.335	170.66
757.776	179.66
758.216	177.96
758.657	181.56
759.098	180.76
759.538	201.76
759.979	233.56
760.42	335.16
760.86	621.06
761.301	1590.26
761.741	3945.26
762.182	5971.86
762.622	4219.76
763.063	1198.36
763.503	491.76
763.943	309.26
764.384	301.06
764.824	358.86
765.264	401.66
765.705	277.26
766.145	190.06
766.585	161.36
767.025	161.96
767.465	166.06
767.906	215.66
768.346	291.86
768.786	303.56
769.226	229.46
769.666	281.86
770.106	540.36
770.546	1377.26
770.986	2418.26
771.426	2208.76
771.866	728.66
772.306	291.26
772.745	192.16
773.185	159.06
773.625	158.46
774.065	152.46
774.505	181.66
774.944	271.86
775.384	593.06
775.824	1108.56
776.263	1117.36
776.703	465.26
777.142	197.06
777.582	141.76
778.021	134.56
778.461	130.96
778.9	128.96
779.34	121.76
779.779	107.56
780.219	103.36
780.658	96.86
781.097	101.96
781.537	108.06
781.976	98.06
782.415	92.46
782.855	96.76
783.294	92.06
783.733	93.86
784.172	98.66
784.611	96.36
785.05	97.86
785.489	99.86
785.928	108.56
786.367	102.96
786.806	112.66
787.245	114.66
787.684	118.16
788.123	129.36
788.562	125.86
789.001	116.96
789.44	104.46
789.879	103.76
790.317	106.96
790.756	121.06
791.195	119.76
791.634	131.36
792.072	179.46
792.511	322.56
792.95	885.36
793.388	1948.36
793.827	1792.36
794.265	620.96
794.704	256.86
795.142	163.36
795.581	131.76
796.019	121.16
796.458	110.06
796.896	109.36
797.334	117.76
797.773	146.86
798.211	196.36
798.649	388.16
799.087	901.56
799.526	1427.36
799.964	1832.76
800.402	1867.46
800.84	710.16
801.278	272.56
801.716	168.76
802.154	129.46
802.592	135.46
803.03	126.76
803.468	121.06
803.906	126.56
804.344	135.16
804.782	123.56
805.22	121.16
805.658	113.36
806.096	132.76
806.533	143.96
806.971	155.26
807.409	193.86
807.847	284.46
808.284	577.56
808.722	1649.16
809.16	3004.96
809.597	2794.36
810.035	4913.06
810.472	5407.46
810.91	1932.06
811.347	717.36
811.785	364.26
812.222	231.56
812.66	181.36
813.097	151.06
813.535	129.36
813.972	118.86
814.409	109.86
814.846	98.26
815.284	98.56
815.721	94.36
816.158	94.26
816.595	102.96
817.032	159.16
817.47	184.86
817.907	146.16
818.344	135.06
818.781	104.06
819.218	97.86
819.655	107.06
820.092	171.86
820.529	203.66
820.966	161.66
821.403	123.96
821.839	99.26
822.276	95.96
822.713	112.16
823.15	118.76
823.587	105.86
824.023	131.36
824.46	259.86
824.897	792.96
825.333	1255.76
825.77	534.86
826.206	213.66
826.643	118.46
827.08	93.06
827.516	79.76
827.953	70.26
828.389	71.86
828.825	59.86
829.262	58.86
829.698	53.86
830.135	51.26
830.571	54.06
831.007	60.16
831.443	53.66
831.88	54.16
832.316	57.66
832.752	53.36
833.188	56.16
833.624	60.06
834.06	66.46
834.497	67.46
834.933	63.46
835.369	69.16
835.805	61.16
836.241	68.06
836.677	74.56
837.112	85.26
837.548	89.66
837.984	126.66
838.42	187.76
838.856	437.36
839.292	1358.56
839.727	2132.86
840.163	991.56
840.599	812.16
841.034	1846.66
841.47	1982.06
841.906	721.26
842.341	306.76
842.777	202.86
843.212	286.26
843.648	284.06
844.083	138.26
844.519	86.96
844.954	70.16
845.39	52.76
845.825	51.56
846.261	52.86
846.696	50.46
847.131	45.76
847.566	53.36
848.002	49.06
848.437	49.16
848.872	54.76
849.307	56.26
849.742	74.66
850.177	156.56
850.613	487.46
851.048	814.76
851.483	356.36
851.918	141.76
852.353	82.06
852.788	60.06
853.223	51.96
853.657	56.36
854.092	37.36
854.527	35.76
854.962	38.16
855.397	39.16
855.832	46.76
856.266	38.56
856.701	37.66
857.136	33.76
857.57	37.26
858.005	50.66
858.44	54.46
858.874	38.56
859.309	46.76
859.743	31.76
860.178	40.86
860.612	34.76
861.047	46.96
861.481	64.66
861.915	66.36
862.35	48.86
862.784	32.06
863.218	37.66
863.653	27.76
864.087	40.36
864.521	49.76
864.955	63.26
865.39	140.76
865.824	150.86
866.258	110.26
866.692	153.06
867.126	159.46
867.56	95.56
867.994	46.56
868.428	28.36
868.862	40.86
869.296	49.26
869.73	54.36
870.164	49.26
870.598	42.06
871.031	35.76
871.465	29.06
871.899	29.96
872.333	23.46
872.766	22.96
873.2	19.46
873.634	30.26
874.067	24.76
874.501	21.16
874.935	32.96
875.368	31.46
875.802	28.26
876.235	23.56
876.669	21.06
877.102	22.86
877.535	27.16
877.969	21.86
878.402	23.96
878.836	16.66
879.269	20.26
879.702	23.76
880.135	18.46
880.569	15.76
881.002	33.76
881.435	23.46
881.868	19.76
882.301	22.36
882.734	15.06
883.167	19.66
883.601	23.16
884.034	18.36
884.467	17.96
884.899	16.46
885.332	9.36
885.765	17.16
886.198	19.36
886.631	15.96
887.064	15.36
887.497	14.46
887.929	21.76
888.362	16.16
888.795	9.86
889.228	15.26
889.66	10.86
890.093	13.36
890.526	11.76
890.958	12.46
891.391	17.56
891.823	22.16
892.256	12.36
892.688	11.26
893.121	14.06
893.553	18.76
893.985	17.86
894.418	14.46
894.85	8.26
895.282	12.76
895.715	14.26
896.147	14.76
896.579	17.16
897.011	8.46
897.444	15.86
897.876	15.96
898.308	13.96
898.74	8.56
899.172	13.56
899.604	17.56
900.036	14.06
900.468	14.26
900.9	18.56
901.332	15.26
901.764	11.86
902.196	12.26
902.628	13.56
903.06	15.56
903.491	26.26
903.923	16.56
904.355	19.16
904.787	21.26
905.218	20.26
905.65	26.56
906.082	11.86
906.513	11.96
906.945	10.36
907.376	13.36
907.808	19.06
908.239	18.96
908.671	12.46
909.102	23.26
909.534	27.06
909.965	43.56
910.397	86.36
910.828	288.86
911.259	441.26
911.691	199.76
912.122	100.26
912.553	39.46
912.984	30.76
913.415	20.46
913.847	25.16
914.278	11.26
914.709	13.26
915.14	20.06
915.571	12.36
916.002	10.46
916.433	13.66
916.864	14.66
917.295	8.26
917.726	21.06
918.157	13.46
918.587	28.36
919.018	15.16
919.449	15.56
919.88	24.86
920.311	28.06
920.741	42.56
921.172	148.76
921.603	138.76
922.033	64.06
922.464	40.26
922.895	24.06
923.325	18.56
923.756	12.46
924.186	11.16
924.617	28.56
925.047	33.06
925.478	46.06
925.908	41.56
926.338	20.36
926.769	20.16
927.199	20.16
927.629	11.56
928.06	19.26
928.49	17.86
928.92	11.46
929.35	6.16
929.78	9.76
930.21	5.66
930.641	5.16
931.071	6.86
931.501	1.86
931.931	6.16
932.361	5.96
932.791	1.26
933.221	2.36
933.651	2.66
934.08	12.56
934.51	30.46
934.94	12.06
935.37	6.56
935.8	9.26
936.229	1.06
936.659	8.26
937.089	2.56
937.519	11.86
937.948	19.76
938.378	15.16
938.807	4.56
939.237	5.36
939.666	9.76
940.096	-6.94
940.525	0.06
940.955	2.46
941.384	7.26
941.814	-7.44
942.243	-3.24
942.672	0.46
943.102	-2.94
943.531	0.66
943.96	4.56
944.39	7.46
944.819	0.66
945.248	6.06
945.677	2.06
946.106	5.76
946.535	5.66
946.964	-0.94
947.393	2.06
947.822	0.56
948.251	-1.04
948.68	5.76
949.109	6.46
949.538	8.96
949.967	1.36
950.396	3.56
950.825	-3.44
951.254	-0.44
951.682	-7.44
952.111	0.96
952.54	5.06
952.969	3.36
953.397	-7.04
953.826	-0.04
954.254	-8.74
954.683	0.56
955.112	2.06
955.54	-5.44
955.969	-2.34
956.397	-0.14
956.826	-4.54
957.254	6.56
957.682	1.06
958.111	6.26
958.539	-2.24
958.967	6.36
959.396	-3.84
959.824	3.06
960.252	1.66
960.68	-6.94
961.109	-0.54
961.537	-4.54
961.965	-4.24
962.393	-2.84
962.821	-5.94
963.249	0.06
963.677	5.36
964.105	2.56
964.533	43.66
964.961	38.66
965.389	21.56
965.817	9.96
966.245	-4.64
966.672	5.56
967.1	-3.64
967.528	1.26
967.956	-6.14
968.383	0.46
968.811	-5.94
969.239	-2.84
969.666	-5.94
970.094	2.26
970.522	1.66
970.949	-4.04
971.377	-3.84
971.804	-5.64
972.232	-3.74
972.659	-1.44
973.087	-8.44
973.514	1.46
973.941	-6.84
974.369	4.76
974.796	0.56
975.223	-1.74
975.651	-4.24
976.078	5.26
976.505	-3.44
976.932	4.86
977.359	20.56
977.786	12.86
978.214	-1.04
978.641	-0.04
979.068	-1.24
979.495	-7.94
979.922	1.26
980.349	1.96
980.776	1.76
981.202	-0.14
981.629	-1.94
982.056	7.26
982.483	-5.44
982.91	0.26
983.337	-5.84
983.763	5.76
984.19	-5.44
984.617	-1.84
985.043	-5.74
985.47	-4.54
985.897	-4.24
986.323	-9.14
986.75	1.56
987.176	-0.64
987.603	-4.44
988.029	-6.04
988.456	-5.24
988.882	-1.54
989.308	-7.84
989.735	-5.64
990.161	5.16
990.587	-0.94
991.014	-4.84
991.44	8.56
991.866	-1.54
992.292	-5.54
992.719	-0.24
993.145	2.46
993.571	-8.34
993.997	-5.84
994.423	-4.24
994.849	-8.04
995.275	2.66
995.701	-1.24
996.127	-5.54
996.553	0.46
996.979	-9.04
997.405	2.06
997.83	-0.34
998.256	-3.24
998.682	-1.24
999.108	-10.84
999.534	-3.34
999.959	-6.94
1000.385	-4.14
1000.811	-3.54
1001.236	-5.24
1001.662	-9.44
1002.087	-6.44
1002.513	1.06
1002.938	0.76
1003.364	-2.34
1003.789	-4.24
1004.215	3.16
1004.64	-4.44
1005.066	-2.24
1005.491	0.36
1005.916	-2.64
1006.342	-2.94
1006.767	-6.34
1007.192	1.96
1007.617	-8.04
1008.042	-1.44
1008.468	-9.34
1008.893	-2.74
1009.318	-3.94
1009.743	-1.14
1010.168	3.86
1010.593	6.96
1011.018	-9.94
1011.443	1.16
1011.868	-1.74
1012.293	-5.24
1012.718	-7.24
1013.143	2.66
1013.567	6.26
1013.992	-4.54
1014.417	-11.94
1014.842	-0.84
1015.267	-5.24
1015.691	-7.84
1016.116	0.16
1016.541	-3.34
1016.965	3.76
1017.39	2.16
1017.814	-4.94
1018.239	-2.34
1018.663	-8.24
1019.088	-13.14
1019.512	-9.44
1019.937	0.96
1020.361	-9.24
1020.785	-4.04
1021.21	-4.54
1021.634	-2.34
1022.058	-0.74
1022.483	-1.24
1022.907	-6.84
1023.331	-4.34
1023.755	-7.14
1024.179	0.46
1024.604	-4.24
1025.028	-6.34
1025.452	-3.04
1025.876	0.16
1026.3	0.66
1026.724	-8.44
1027.148	-2.04
1027.572	-7.14
1027.996	-9.54
1028.42	-8.14
1028.843	-3.24
1029.267	-4.34
1029.691	-0.34
1030.115	-9.84
1030.539	-11.34
1030.962	-8.94
1031.386	-11.44
1031.81	-1.94
1032.233	-1.64
1032.657	0.16
1033.08	-0.94
1033.504	-1.44
1033.927	-2.94
1034.351	-0.84
1034.774	-7.84
1035.198	-5.54
1035.621	-7.14
1036.045	-7.84
1036.468	-3.64
1036.891	-13.24
1037.315	-14.24
1037.738	-8.74
1038.161	-3.84
1038.584	-8.44
1039.008	-4.24
1039.431	0.46
1039.854	-1.44
1040.277	-8.64
1040.7	-13.64
1041.123	-2.24
1041.546	-7.44
1041.969	-5.04
1042.392	-5.34
1042.815	-7.34
1043.238	-0.64
1043.661	-0.14
1044.084	-7.34
1044.507	-5.74
1044.93	-7.54
1045.352	-5.04
1045.775	-7.84
1046.198	-3.94
1046.621	2.96
1047.043	-4.94
1047.466	1.96
1047.889	-12.84
1048.311	-8.24
1048.734	-5.64
1049.156	-4.14
1049.579	-6.34
1050.001	-6.14
1050.424	0.26
1050.846	-3.54
1051.269	-8.54
1051.691	-5.44
1052.113	-6.44
1052.536	-1.34
1052.958	-9.54
1053.38	-9.14
1053.802	-10.54
1054.225	2.56
1054.647	-8.84
1055.069	-6.84
1055.491	3.06
1055.913	-7.04
1056.335	-3.34
1056.757	-8.34
1057.179	-6.04
1057.601	-6.04
1058.023	-8.94
1058.445	-1.44
1058.867	-5.84
1059.289	-0.74
1059.711	-1.94
1060.133	-6.74
1060.555	-8.84
1060.976	-12.64
1061.398	-6.04
1061.82	-7.44
1062.241	-8.34
1062.663	-7.34
1063.085	-2.34
1063.506	-0.54
1063.928	-4.04
1064.35	-2.04
1064.771	-13.74
1065.193	-0.64
1065.614	-9.74
1066.035	-1.14
1066.457	-4.84
1066.878	0.66
1067.3	-7.54
1067.721	-7.54
1068.142	-2.94
1068.564	-6.24
1068.985	-10.74
1069.406	-9.94
1069.827	-7.34
1070.248	1.66
1070.67	-9.74
1071.091	-6.74
1071.512	-6.94
1071.933	-6.74
1072.354	-10.84
1072.775	-11.14
1073.196	-8.24
1073.617	-2.94
1074.038	-14.54
1074.459	-6.34
1074.88	-7.64
1075.3	-0.24
1075.721	-6.94
1076.142	-0.94
1076.563	-6.84
1076.983	-11.74
1077.404	-10.64
1077.825	-7.64
1078.246	-9.84
1078.666	-10.54
1079.087	-2.04
1079.507	-6.14
1079.928	-2.14
1080.348	-0.54
1080.769	-7.14
1081.189	-3.14
1081.61	-6.74
1082.03	-3.34
1082.451	-11.24
1082.871	-4.74
1083.291	-3.84
1083.711	-1.74
1084.132	-1.34
1084.552	-10.04
1084.972	-1.14
1085.392	-14.54
1085.813	-15.14
1086.233	-8.24
1086.653	-4.64
1087.073	-4.44
1087.493	-6.34
1087.913	-4.94
1088.333	-5.14
1088.753	-2.04
1089.173	-1.74
1089.593	-7.94
1090.013	-3.44
1090.433	0.46
1090.852	-4.54
1091.272	-9.64
1091.692	-0.84
1092.112	-2.74
1092.531	-13.84
1092.951	-9.04
1093.371	-2.14
1093.79	1.06
1094.21	-3.04
1094.63	-6.54
1095.049	-3.54
1095.469	-7.64
1095.888	-6.44
1096.308	-3.14
1096.727	2.86
1097.146	-9.64
1097.566	-8.44
1097.985	-6.24
1098.405	-6.54
1098.824	-13.64
1099.243	-10.04
1099.662	-9.94
1100.082	-8.84
1100.501	-2.54
1100.92	-4.04
1101.339	-6.64
1101.758	-11.14
