Data from 20171114-ORNL-Ar_H_NY_Subt18_08-04-18-441.txt Node
Date: Tue Nov 14 08:04:18 EST 2017
User: Ender
Spectrometer: HR+D1039
Trigger mode: 0
Integration Time (sec): 2.730000E-2
Scans to average: 10
Electric dark correction enabled: true
Nonlinearity correction enabled: false
Boxcar width: 0
XAxis mode: Wavelengths
Number of Pixels in Spectrum: 2048
>>>>>Begin Spectral Data<<<<<
187.836	1.71
188.309	1.71
188.782	1.71
189.255	-1.09
189.728	-3.89
190.201	4.71
190.674	1.71
191.147	3.41
191.619	-9.09
192.092	2.31
192.565	5.71
193.038	-4.69
193.511	5.01
193.984	-1.79
194.456	0.71
194.929	1.91
195.402	-5.19
195.874	-1.39
196.347	-4.09
196.82	-8.39
197.292	4.31
197.765	-3.59
198.237	-4.99
198.71	1.71
199.182	-6.39
199.655	0.11
200.127	3.11
200.6	-1.39
201.072	-0.09
201.544	-5.79
202.017	-1.49
202.489	0.21
202.961	-3.59
203.433	-5.19
203.906	-7.89
204.378	-9.19
204.85	-4.49
205.322	-10.59
205.794	-6.09
206.266	-4.69
206.739	-7.89
207.211	-0.79
207.683	-4.59
208.155	-8.79
208.627	-9.59
209.099	-4.29
209.57	-6.09
210.042	-3.99
210.514	0.01
210.986	1.81
211.458	-5.29
211.93	-2.09
212.402	2.61
212.873	-7.19
213.345	-11.99
213.817	-17.09
214.288	-8.99
214.76	-8.59
215.232	-1.59
215.703	-3.89
216.175	-1.59
216.646	-4.69
217.118	-10.19
217.589	-7.99
218.061	0.81
218.532	1.81
219.004	-0.69
219.475	-5.29
219.946	-1.29
220.418	-10.79
220.889	6.91
221.36	-1.69
221.832	-8.29
222.303	-4.79
222.774	1.81
223.245	-11.29
223.717	-5.99
224.188	-3.29
224.659	-11.69
225.13	-5.69
225.601	4.01
226.072	-0.19
226.543	-0.89
227.014	-3.29
227.485	1.91
227.956	-5.79
228.427	-3.69
228.898	2.71
229.369	6.41
229.839	-1.49
230.31	-11.29
230.781	0.11
231.252	-0.69
231.722	-8.19
232.193	-1.79
232.664	-1.19
233.135	-0.09
233.605	-3.59
234.076	-4.19
234.546	-0.39
235.017	2.81
235.487	1.11
235.958	3.31
236.428	-2.49
236.899	6.71
237.369	6.71
237.84	0.41
238.31	3.21
238.78	4.71
239.251	5.71
239.721	5.41
240.191	4.41
240.662	0.11
241.132	1.91
241.602	0.01
242.072	11.61
242.542	5.91
243.013	2.11
243.483	2.31
243.953	0.31
244.423	0.11
244.893	-1.19
245.363	5.31
245.833	5.51
246.303	-3.49
246.773	5.01
247.243	9.61
247.712	4.61
248.182	6.81
248.652	7.31
249.122	-2.59
249.592	14.11
250.061	22.31
250.531	36.11
251.001	14.41
251.471	20.11
251.94	21.71
252.41	11.01
252.879	5.51
253.349	12.81
253.818	6.51
254.288	2.21
254.757	6.21
255.227	1.21
255.696	4.71
256.166	12.51
256.635	6.31
257.105	7.71
257.574	5.11
258.043	5.31
258.513	12.01
258.982	16.81
259.451	10.61
259.92	11.31
260.389	10.81
260.859	20.81
261.328	10.11
261.797	19.41
262.266	10.71
262.735	5.61
263.204	7.31
263.673	3.01
264.142	6.51
264.611	1.01
265.08	-0.39
265.549	-1.29
266.018	4.31
266.487	3.31
266.955	-0.09
267.424	4.41
267.893	1.81
268.362	3.11
268.83	-1.39
269.299	7.11
269.768	4.71
270.236	7.41
270.705	8.51
271.174	9.11
271.642	8.61
272.111	12.31
272.579	13.91
273.048	16.61
273.516	23.31
273.985	25.91
274.453	26.41
274.922	21.11
275.39	10.81
275.858	3.11
276.327	8.61
276.795	20.01
277.263	11.81
277.731	25.41
278.2	50.91
278.668	56.61
279.136	39.91
279.604	18.61
280.072	17.91
280.54	13.31
281.008	7.81
281.477	13.11
281.945	19.11
282.413	15.41
282.881	14.11
283.348	9.81
283.816	16.61
284.284	14.41
284.752	21.31
285.22	15.81
285.688	9.51
286.156	12.81
286.623	37.91
287.091	47.11
287.559	31.21
288.026	10.31
288.494	21.51
288.962	4.41
289.429	10.41
289.897	22.41
290.364	16.31
290.832	18.41
291.3	14.51
291.767	12.91
292.234	13.81
292.702	15.61
293.169	21.71
293.637	27.51
294.104	22.21
294.571	7.61
295.039	10.51
295.506	15.11
295.973	20.71
296.44	19.71
296.908	21.71
297.375	18.11
297.842	15.01
298.309	15.81
298.776	16.41
299.243	19.61
299.71	8.81
300.177	22.41
300.644	27.11
301.111	18.11
301.578	21.51
302.045	16.01
302.512	22.91
302.979	21.41
303.446	24.21
303.913	22.21
304.379	18.51
304.846	25.11
305.313	19.61
305.78	26.31
306.246	24.41
306.713	25.11
307.18	30.21
307.646	28.21
308.113	26.81
308.579	21.31
309.046	26.41
309.512	23.51
309.979	21.51
310.445	24.71
310.912	23.11
311.378	32.41
311.845	27.11
312.311	20.71
312.777	25.41
313.244	26.91
313.71	35.11
314.176	20.31
314.642	27.01
315.109	26.71
315.575	37.01
316.041	32.11
316.507	33.71
316.973	33.61
317.439	32.11
317.905	34.61
318.371	36.21
318.837	30.91
319.303	30.31
319.769	31.61
320.235	27.31
320.701	33.81
321.167	40.51
321.633	32.21
322.099	38.31
322.564	42.51
323.03	39.61
323.496	33.71
323.962	33.81
324.427	34.51
324.893	40.21
325.359	35.41
325.824	32.41
326.29	35.31
326.755	38.41
327.221	40.41
327.686	41.21
328.152	45.31
328.617	40.91
329.083	39.71
329.548	47.41
330.014	46.31
330.479	36.01
330.944	41.81
331.41	35.91
331.875	38.01
332.34	43.41
332.805	37.91
333.271	47.61
333.736	38.31
334.201	48.21
334.666	49.81
335.131	54.41
335.596	44.01
336.061	48.51
336.526	34.11
336.991	44.31
337.456	53.51
337.921	47.71
338.386	40.51
338.851	41.11
339.316	49.21
339.781	45.61
340.246	40.61
340.711	41.61
341.175	45.91
341.64	45.51
342.105	53.21
342.569	57.11
343.034	55.71
343.499	55.01
343.963	50.61
344.428	54.71
344.893	57.31
345.357	59.61
345.822	54.61
346.286	61.11
346.751	71.11
347.215	56.21
347.679	66.51
348.144	81.91
348.608	73.71
349.073	65.21
349.537	70.01
350.001	66.71
350.465	86.31
350.93	73.01
351.394	76.51
351.858	62.41
352.322	78.41
352.786	77.11
353.25	87.31
353.715	100.81
354.179	88.81
354.643	104.41
355.107	109.11
355.571	92.51
356.035	94.61
356.498	101.61
356.962	114.11
357.426	108.31
357.89	98.71
358.354	79.41
358.818	74.21
359.281	75.11
359.745	68.81
360.209	71.41
360.673	68.31
361.136	72.11
361.6	73.21
362.064	76.61
362.527	72.41
362.991	80.91
363.454	69.51
363.918	68.81
364.381	71.61
364.845	67.11
365.308	77.41
365.772	75.01
366.235	83.41
366.698	77.71
367.162	70.21
367.625	82.01
368.088	73.41
368.552	79.61
369.015	76.91
369.478	88.01
369.941	82.71
370.404	86.91
370.867	100.21
371.331	99.81
371.794	102.31
372.257	94.81
372.72	105.31
373.183	104.21
373.646	93.31
374.109	93.51
374.572	103.61
375.035	90.71
375.497	94.41
375.96	90.11
376.423	92.41
376.886	106.71
377.349	100.01
377.811	92.91
378.274	92.11
378.737	100.41
379.199	99.61
379.662	100.11
380.125	106.11
380.587	107.11
381.05	108.31
381.512	112.01
381.975	116.51
382.437	115.51
382.9	112.81
383.362	121.01
383.825	125.11
384.287	130.21
384.75	121.91
385.212	127.91
385.674	120.41
386.136	120.41
386.599	110.71
387.061	115.11
387.523	117.31
387.985	119.01
388.447	130.81
388.91	121.31
389.372	139.01
389.834	143.61
390.296	132.91
390.758	135.61
391.22	147.41
391.682	179.01
392.144	252.81
392.606	209.01
393.068	146.01
393.529	146.31
393.991	138.01
394.453	131.61
394.915	136.41
395.377	172.71
395.838	192.81
396.3	138.51
396.762	126.11
397.224	120.01
397.685	117.51
398.147	116.21
398.608	123.31
399.07	117.41
399.531	117.81
399.993	127.61
400.454	140.81
400.916	130.71
401.377	131.71
401.839	136.11
402.3	135.71
402.762	152.41
403.223	161.31
403.684	151.71
404.145	145.91
404.607	139.41
405.068	149.61
405.529	150.51
405.99	167.81
406.451	150.81
406.913	154.01
407.374	140.71
407.835	144.51
408.296	144.31
408.757	154.71
409.218	169.61
409.679	156.21
410.14	156.51
410.601	159.41
411.062	157.41
411.522	171.71
411.983	168.51
412.444	154.91
412.905	164.41
413.366	162.51
413.826	174.41
414.287	196.51
414.748	231.51
415.208	226.21
415.669	196.01
416.13	187.01
416.59	185.01
417.051	192.31
417.511	199.41
417.972	212.51
418.432	226.11
418.893	262.61
419.353	225.11
419.814	177.21
420.274	163.11
420.734	160.31
421.195	179.71
421.655	178.11
422.115	181.11
422.576	178.31
423.036	178.01
423.496	187.41
423.956	198.41
424.416	205.71
424.876	240.01
425.336	232.51
425.797	241.71
426.257	236.01
426.717	217.91
427.177	214.91
427.637	202.91
428.097	203.31
428.556	219.41
429.016	240.01
429.476	239.41
429.936	242.01
430.396	244.51
430.856	263.81
431.315	279.91
431.775	308.91
432.235	335.41
432.694	313.21
433.154	320.41
433.614	340.51
434.073	296.51
434.533	259.21
434.993	239.01
435.452	255.51
435.912	256.41
436.371	251.91
436.83	247.11
437.29	236.51
437.749	221.21
438.209	212.31
438.668	238.81
439.127	244.11
439.587	235.01
440.046	223.31
440.505	231.11
440.964	245.01
441.424	271.31
441.883	266.31
442.342	230.41
442.801	201.21
443.26	196.91
443.719	196.71
444.178	192.61
444.637	190.51
445.096	195.01
445.555	196.51
446.014	202.31
446.473	204.41
446.932	206.51
447.391	198.71
447.849	202.31
448.308	197.71
448.767	198.41
449.226	216.91
449.685	215.91
450.143	228.21
450.602	206.91
451.061	204.21
451.519	217.41
451.978	209.11
452.436	210.11
452.895	215.31
453.353	226.31
453.812	213.61
454.27	211.41
454.729	209.71
455.187	210.01
455.646	214.91
456.104	223.91
456.562	227.31
457.021	229.01
457.479	228.01
457.937	245.81
458.395	235.61
458.854	222.21
459.312	225.61
459.77	236.81
460.228	236.11
460.686	220.21
461.144	222.51
461.602	219.41
462.06	219.81
462.518	228.11
462.976	227.61
463.434	235.31
463.892	239.71
464.35	251.01
464.808	253.51
465.266	238.51
465.724	241.81
466.181	249.91
466.639	244.81
467.097	259.61
467.555	275.91
468.012	275.51
468.47	275.41
468.928	291.51
469.385	307.51
469.843	307.71
470.3	313.41
470.758	319.01
471.215	335.01
471.673	356.31
472.13	354.41
472.588	365.31
473.045	326.71
473.503	333.51
473.96	350.31
474.417	357.31
474.875	385.81
475.332	420.51
475.789	408.31
476.246	414.51
476.704	437.61
477.161	443.91
477.618	455.71
478.075	493.71
478.532	553.81
478.989	613.41
479.446	705.61
479.903	689.91
480.36	722.31
480.817	778.81
481.274	880.21
481.731	973.61
482.188	1048.41
482.645	1174.51
483.102	1256.71
483.558	1378.51
484.015	1447.41
484.472	1428.61
484.929	1382.41
485.385	1323.31
485.842	1293.51
486.299	1234.71
486.755	1156.51
487.212	981.71
487.668	824.31
488.125	763.01
488.582	702.31
489.038	683.91
489.494	641.21
489.951	614.21
490.407	605.01
490.864	589.61
491.32	574.41
491.776	578.11
492.233	575.61
492.689	545.31
493.145	542.01
493.602	544.21
494.058	547.31
494.514	556.31
494.97	582.31
495.426	578.71
495.882	555.71
496.338	558.01
496.794	569.31
497.251	558.81
497.707	574.61
498.163	578.21
498.618	581.01
499.074	572.81
499.53	595.11
499.986	604.01
500.442	583.31
500.898	561.61
501.354	561.31
501.809	573.81
502.265	577.71
502.721	590.01
503.177	603.11
503.632	589.71
504.088	607.91
504.543	639.61
504.999	625.81
505.455	596.11
505.91	568.81
506.366	565.41
506.821	560.01
507.277	564.31
507.732	567.21
508.187	555.81
508.643	561.21
509.098	569.01
509.553	580.61
510.009	589.71
510.464	596.21
510.919	613.11
511.375	622.51
511.83	624.91
512.285	645.91
512.74	684.01
513.195	708.21
513.65	697.61
514.105	693.21
514.56	692.21
515.015	706.61
515.47	736.11
515.925	719.41
516.38	706.31
516.835	717.81
517.29	700.41
517.745	697.61
518.2	686.81
518.655	683.51
519.109	664.71
519.564	665.31
520.019	663.81
520.474	656.41
520.928	651.51
521.383	654.41
521.838	634.31
522.292	651.31
522.747	637.01
523.201	635.81
523.656	618.01
524.11	613.51
524.565	627.11
525.019	611.61
525.474	626.11
525.928	631.21
526.382	625.41
526.837	622.41
527.291	629.21
527.745	621.81
528.2	628.21
528.654	621.31
529.108	614.01
529.562	611.21
530.016	620.01
530.47	619.81
530.925	624.21
531.379	615.71
531.833	621.61
532.287	615.01
532.741	635.61
533.195	620.21
533.649	636.01
534.103	644.01
534.556	635.91
535.01	631.71
535.464	630.31
535.918	637.01
536.372	647.21
536.826	646.01
537.279	624.61
537.733	625.91
538.187	625.01
538.64	633.51
539.094	653.31
539.548	647.01
540.001	640.51
540.455	644.71
540.908	653.31
541.362	648.61
541.815	661.51
542.269	671.11
542.722	671.81
543.175	678.51
543.629	675.21
544.082	696.11
544.536	704.31
544.989	699.11
545.442	700.71
545.895	692.21
546.349	695.61
546.802	692.21
547.255	702.21
547.708	708.61
548.161	724.11
548.614	720.91
549.067	737.61
549.52	729.91
549.973	713.11
550.426	715.71
550.879	692.51
551.332	703.71
551.785	711.11
552.238	712.51
552.691	721.11
553.144	732.11
553.596	731.21
554.049	754.41
554.502	783.31
554.955	805.61
555.407	800.71
555.86	787.51
556.313	774.31
556.765	780.41
557.218	777.81
557.67	779.71
558.123	770.81
558.576	765.21
559.028	767.61
559.48	783.11
559.933	773.11
560.385	736.11
560.838	715.21
561.29	696.51
561.742	685.91
562.195	666.61
562.647	660.81
563.099	677.31
563.551	679.91
564.004	692.91
564.456	679.71
564.908	660.51
565.36	647.31
565.812	634.51
566.264	633.71
566.716	621.71
567.168	625.91
567.62	631.91
568.072	617.81
568.524	604.41
568.976	593.21
569.428	596.61
569.88	586.41
570.332	586.81
570.784	586.31
571.235	589.11
571.687	606.31
572.139	617.31
572.59	607.21
573.042	614.71
573.494	612.11
573.945	608.41
574.397	589.91
574.849	603.61
575.3	596.01
575.752	593.21
576.203	587.21
576.655	585.01
577.106	582.91
577.557	566.91
578.009	568.91
578.46	565.41
578.912	571.21
579.363	574.41
579.814	570.11
580.265	572.31
580.717	570.01
581.168	577.81
581.619	585.11
582.07	576.01
582.521	579.81
582.972	571.61
583.423	571.01
583.875	585.31
584.326	598.81
584.777	637.21
585.227	699.51
585.678	762.61
586.129	841.11
586.58	912.51
587.031	983.31
587.482	1141.61
587.933	1273.11
588.384	1112.31
588.834	832.71
589.285	681.51
589.736	672.51
590.186	658.41
590.637	658.21
591.088	638.21
591.538	623.91
591.989	617.71
592.439	613.31
592.89	613.91
593.34	610.61
593.791	613.61
594.241	598.81
594.692	605.01
595.142	594.41
595.593	594.81
596.043	607.41
596.493	609.01
596.943	607.41
597.394	610.71
597.844	604.91
598.294	613.01
598.744	636.11
599.195	656.21
599.645	680.91
600.095	713.01
600.545	774.71
600.995	813.01
601.445	863.51
601.895	912.81
602.345	968.81
602.795	940.71
603.245	904.61
603.695	852.41
604.145	821.11
604.594	762.71
605.044	729.11
605.494	675.91
605.944	633.31
606.393	629.61
606.843	604.81
607.293	619.11
607.743	602.01
608.192	624.31
608.642	638.21
609.091	633.71
609.541	642.91
609.99	647.51
610.44	633.01
610.889	605.01
611.339	578.71
611.788	570.81
612.238	590.11
612.687	604.11
613.136	595.31
613.586	617.91
614.035	610.51
614.484	625.81
614.933	626.31
615.383	627.21
615.832	618.11
616.281	601.11
616.73	576.61
617.179	549.91
617.628	540.71
618.077	526.81
618.526	519.61
618.975	514.61
619.424	519.81
619.873	511.21
620.322	517.11
620.771	502.21
621.22	502.81
621.669	491.01
622.118	484.81
622.567	478.61
623.015	475.41
623.464	464.61
623.913	461.91
624.361	453.31
624.81	453.61
625.259	462.21
625.707	469.81
626.156	464.71
626.604	469.61
627.053	465.11
627.501	458.21
627.95	471.71
628.398	479.01
628.847	470.61
629.295	478.91
629.744	474.01
630.192	474.61
630.64	468.61
631.089	468.21
631.537	472.81
631.985	476.61
632.433	489.61
632.881	491.31
633.33	538.51
633.778	514.21
634.226	462.31
634.674	467.51
635.122	471.81
635.57	492.01
636.018	505.71
636.466	465.71
636.914	458.11
637.362	465.61
637.81	473.71
638.258	468.71
638.705	477.41
639.153	489.61
639.601	504.61
640.049	529.71
640.497	552.01
640.944	571.21
641.392	535.01
641.84	497.91
642.287	479.11
642.735	456.31
643.182	464.31
643.63	472.21
644.078	470.71
644.525	481.01
644.973	486.21
645.42	493.51
645.867	504.81
646.315	513.41
646.762	540.21
647.21	550.81
647.657	581.11
648.104	623.41
648.551	627.51
648.999	672.51
649.446	735.71
649.893	806.81
650.34	931.21
650.787	1116.41
651.234	1375.51
651.682	1800.01
652.129	2452.01
652.576	3525.81
653.023	5210.81
653.47	7226.51
653.917	9117.71
654.363	10711.31
654.81	12095.91
655.257	11479.91
655.704	7445.61
656.151	4378.31
656.598	2830.61
657.044	1990.61
657.491	1542.41
657.938	1224.51
658.385	1015.61
658.831	880.41
659.278	780.81
659.724	696.81
660.171	643.31
660.618	586.81
661.064	555.61
661.511	534.81
661.957	519.61
662.404	511.81
662.85	523.51
663.296	495.41
663.743	445.51
664.189	430.61
664.635	437.61
665.082	425.01
665.528	424.01
665.974	424.81
666.42	417.91
666.867	412.21
667.313	394.61
667.759	393.51
668.205	384.11
668.651	398.51
669.097	390.41
669.543	404.31
669.989	378.51
670.435	364.51
670.881	354.61
671.327	358.71
671.773	374.61
672.219	393.41
672.665	447.41
673.11	469.41
673.556	503.11
674.002	546.51
674.448	532.81
674.893	440.71
675.339	385.31
675.785	365.31
676.23	338.01
676.676	320.01
677.122	308.01
677.567	299.21
678.013	294.51
678.458	293.41
678.904	290.21
679.349	279.71
679.794	287.81
680.24	283.51
680.685	285.51
681.131	276.51
681.576	283.11
682.021	286.01
682.466	279.81
682.912	279.71
683.357	281.41
683.802	305.31
684.247	336.91
684.692	369.81
685.137	396.51
685.583	435.11
686.028	459.11
686.473	423.81
686.918	350.71
687.363	341.81
687.807	315.01
688.252	292.61
688.697	283.51
689.142	267.31
689.587	272.41
690.032	258.01
690.477	269.21
690.921	275.21
691.366	300.81
691.811	322.91
692.255	341.91
692.7	367.11
693.145	403.91
693.589	539.61
694.034	883.71
694.478	1215.41
694.923	1415.51
695.367	1876.01
695.812	973.91
696.256	406.11
696.701	296.01
697.145	274.81
697.59	265.51
698.034	259.71
698.478	261.21
698.922	263.41
699.367	252.81
699.811	264.71
700.255	282.01
700.699	299.71
701.143	336.61
701.588	385.41
702.032	419.21
702.476	414.21
702.92	382.11
703.364	391.41
703.808	494.91
704.252	798.61
704.696	1149.31
705.14	1371.21
705.584	1773.91
706.027	875.51
706.471	422.41
706.915	304.41
707.359	273.71
707.803	255.21
708.246	237.71
708.69	251.71
709.134	252.11
709.577	246.81
710.021	253.21
710.465	246.41
710.908	236.31
711.352	237.41
711.795	245.81
712.239	280.71
712.682	303.61
713.126	322.61
713.569	380.91
714.012	298.81
714.456	256.21
714.899	235.71
715.342	217.51
715.786	207.41
716.229	200.11
716.672	210.71
717.115	204.61
717.558	201.31
718.002	199.91
718.445	204.91
718.888	219.41
719.331	224.51
719.774	243.81
720.217	247.01
720.66	231.91
721.103	212.71
721.546	200.41
721.989	197.41
722.432	184.11
722.874	186.51
723.317	171.71
723.76	183.31
724.203	203.41
724.645	244.91
725.088	350.31
725.531	458.31
725.974	517.31
726.416	441.81
726.859	240.11
727.301	193.01
727.744	190.71
728.187	187.31
728.629	193.11
729.071	189.01
729.514	209.11
729.956	215.71
730.399	231.41
730.841	234.21
731.283	228.81
731.726	212.11
732.168	207.61
732.61	206.71
733.053	224.61
733.495	253.21
733.937	276.71
734.379	313.81
734.821	338.41
735.263	425.11
735.705	644.71
736.148	1217.71
736.59	2052.11
737.032	2530.61
737.474	2071.91
737.916	654.91
738.357	347.41
738.799	260.71
739.241	237.01
739.683	223.91
740.125	226.81
740.567	233.01
741.008	243.31
741.45	240.21
741.892	247.81
742.334	287.61
742.775	296.51
743.217	280.21
743.658	217.61
744.1	201.01
744.542	204.01
744.983	246.71
745.425	277.31
745.866	273.01
746.307	223.61
746.749	218.31
747.19	250.61
747.632	347.21
748.073	670.61
748.514	1443.91
748.956	2293.81
749.397	2872.61
749.838	2392.01
750.279	2457.51
750.72	1232.41
751.162	440.91
751.603	258.31
752.044	197.21
752.485	165.61
752.926	168.51
753.367	160.11
753.808	153.91
754.249	150.01
754.69	141.91
755.131	147.51
755.572	145.81
756.013	142.41
756.453	143.81
756.894	155.11
757.335	157.71
757.776	148.01
758.216	151.51
758.657	156.91
759.098	149.81
759.538	174.51
759.979	213.41
760.42	288.51
760.86	538.81
761.301	1386.01
761.741	3477.81
762.182	5430.81
762.622	3813.91
763.063	1070.91
763.503	428.61
763.943	283.81
764.384	266.81
764.824	316.51
765.264	346.51
765.705	234.71
766.145	162.11
766.585	148.71
767.025	141.71
767.465	142.01
767.906	186.51
768.346	249.01
768.786	276.31
769.226	204.71
769.666	242.71
770.106	469.41
770.546	1185.41
770.986	2159.51
771.426	1975.51
771.866	648.61
772.306	260.91
772.745	170.11
773.185	134.91
773.625	136.61
774.065	130.21
774.505	150.21
774.944	236.51
775.384	513.91
775.824	978.31
776.263	970.41
776.703	394.91
777.142	177.41
777.582	127.81
778.021	107.71
778.461	113.01
778.9	116.01
779.34	102.11
779.779	90.91
780.219	85.51
780.658	79.11
781.097	81.11
781.537	91.31
781.976	80.21
782.415	77.31
782.855	74.41
783.294	80.41
783.733	81.21
784.172	86.31
784.611	77.61
785.05	87.01
785.489	83.21
785.928	91.11
786.367	95.71
786.806	92.41
787.245	102.81
787.684	110.71
788.123	116.21
788.562	107.31
789.001	96.61
789.44	98.01
789.879	94.21
790.317	95.71
790.756	98.31
791.195	96.71
791.634	120.01
792.072	156.31
792.511	280.21
792.95	769.41
793.388	1747.41
793.827	1627.61
794.265	557.81
794.704	228.11
795.142	142.31
795.581	119.01
796.019	104.41
796.458	97.01
796.896	94.91
797.334	99.41
797.773	126.41
798.211	170.91
798.649	333.61
799.087	804.71
799.526	1274.31
799.964	1599.41
800.402	1697.11
800.84	621.91
801.278	235.81
801.716	148.01
802.154	118.31
802.592	113.11
803.03	109.61
803.468	102.51
803.906	112.21
804.344	118.91
804.782	110.31
805.22	102.51
805.658	106.51
806.096	120.01
806.533	118.51
806.971	133.71
807.409	172.91
807.847	243.01
808.284	507.51
808.722	1456.01
809.16	2702.51
809.597	2486.01
810.035	4425.31
810.472	4957.41
810.91	1753.51
811.347	650.61
811.785	328.91
812.222	212.71
812.66	157.01
813.097	127.41
813.535	112.01
813.972	98.51
814.409	96.91
814.846	83.31
815.284	89.01
815.721	76.21
816.158	86.11
816.595	82.71
817.032	142.61
817.47	165.41
817.907	139.11
818.344	116.81
818.781	95.31
819.218	83.71
819.655	90.71
820.092	145.61
820.529	186.61
820.966	142.01
821.403	101.41
821.839	82.91
822.276	78.41
822.713	103.11
823.15	109.71
823.587	87.11
824.023	114.31
824.46	224.71
824.897	698.61
825.333	1129.01
825.77	488.91
826.206	182.11
826.643	108.41
827.08	79.71
827.516	66.61
827.953	58.01
828.389	67.81
828.825	52.81
829.262	51.81
829.698	48.31
830.135	50.91
830.571	41.31
831.007	48.71
831.443	49.01
831.88	49.41
832.316	55.41
832.752	49.91
833.188	50.21
833.624	46.91
834.06	47.31
834.497	53.31
834.933	54.81
835.369	60.11
835.805	48.81
836.241	57.61
836.677	60.81
837.112	67.91
837.548	83.71
837.984	104.11
838.42	152.51
838.856	380.51
839.292	1203.21
839.727	1940.11
840.163	889.61
840.599	721.11
841.034	1651.91
841.47	1815.41
841.906	645.31
842.341	268.21
842.777	183.81
843.212	252.91
843.648	252.01
844.083	122.71
844.519	78.91
844.954	55.71
845.39	51.61
845.825	46.01
846.261	46.71
846.696	42.11
847.131	44.11
847.566	44.91
848.002	41.51
848.437	46.61
848.872	48.01
849.307	44.01
849.742	65.21
850.177	137.61
850.613	434.41
851.048	731.21
851.483	304.71
851.918	128.01
852.353	71.21
852.788	45.31
853.223	44.21
853.657	38.51
854.092	36.41
854.527	35.41
854.962	32.71
855.397	34.31
855.832	38.31
856.266	28.81
856.701	29.21
857.136	38.41
857.57	35.01
858.005	37.71
858.44	52.81
858.874	32.81
859.309	44.91
859.743	28.51
860.178	35.21
860.612	31.31
861.047	39.51
861.481	52.61
861.915	58.21
862.35	35.11
862.784	23.71
863.218	29.51
863.653	24.41
864.087	40.31
864.521	41.21
864.955	54.81
865.39	120.81
865.824	146.91
866.258	93.71
866.692	133.31
867.126	152.51
867.56	84.91
867.994	36.81
868.428	22.41
868.862	38.91
869.296	40.01
869.73	49.11
870.164	43.41
870.598	39.71
871.031	27.41
871.465	25.61
871.899	31.41
872.333	20.11
872.766	16.91
873.2	17.21
873.634	22.81
874.067	10.71
874.501	17.11
874.935	17.61
875.368	21.21
875.802	18.61
876.235	13.71
876.669	19.01
877.102	18.31
877.535	21.31
877.969	11.51
878.402	21.91
878.836	11.81
879.269	14.81
879.702	22.71
880.135	14.51
880.569	16.91
881.002	17.51
881.435	14.51
881.868	11.11
882.301	13.91
882.734	13.61
883.167	16.71
883.601	15.71
884.034	16.51
884.467	9.21
884.899	11.71
885.332	15.91
885.765	7.21
886.198	16.11
886.631	10.21
887.064	17.91
887.497	17.71
887.929	18.01
888.362	10.61
888.795	5.51
889.228	8.51
889.66	16.51
890.093	16.21
890.526	14.91
890.958	15.01
891.391	10.81
891.823	14.31
892.256	17.91
892.688	12.81
893.121	13.71
893.553	8.11
893.985	15.01
894.418	16.41
894.85	8.51
895.282	13.31
895.715	16.41
896.147	13.81
896.579	12.01
897.011	8.11
897.444	10.41
897.876	12.01
898.308	10.01
898.74	7.81
899.172	10.51
899.604	18.41
900.036	16.01
900.468	11.71
900.9	12.11
901.332	8.01
901.764	13.01
902.196	13.61
902.628	12.41
903.06	12.11
903.491	21.91
903.923	17.81
904.355	14.21
904.787	18.31
905.218	19.81
905.65	21.91
906.082	13.41
906.513	13.21
906.945	13.11
907.376	7.91
907.808	11.51
908.239	10.21
908.671	13.81
909.102	12.81
909.534	16.61
909.965	34.81
910.397	72.61
910.828	259.41
911.259	393.81
911.691	175.41
912.122	85.41
912.553	45.81
912.984	25.21
913.415	20.51
913.847	17.91
914.278	5.41
914.709	9.01
915.14	16.01
915.571	15.01
916.002	15.21
916.433	15.31
916.864	10.71
917.295	6.51
917.726	15.41
918.157	13.51
918.587	24.41
919.018	18.61
919.449	13.91
919.88	20.81
920.311	20.41
920.741	35.31
921.172	129.91
921.603	128.51
922.033	58.01
922.464	36.41
922.895	23.21
923.325	17.31
923.756	16.61
924.186	16.21
924.617	23.71
925.047	27.91
925.478	35.11
925.908	36.81
926.338	15.41
926.769	17.21
927.199	17.01
927.629	7.31
928.06	15.51
928.49	9.21
928.92	11.71
929.35	6.31
929.78	9.71
930.21	4.41
930.641	9.11
931.071	6.31
931.501	0.01
931.931	5.71
932.361	4.01
932.791	6.91
933.221	5.61
933.651	-0.09
934.08	11.31
934.51	19.11
934.94	0.91
935.37	10.11
935.8	4.61
936.229	9.41
936.659	6.91
937.089	1.61
937.519	13.01
937.948	16.51
938.378	9.81
938.807	0.41
939.237	-0.99
939.666	8.31
940.096	-1.29
940.525	4.61
940.955	3.71
941.384	2.11
941.814	-8.79
942.243	-2.99
942.672	4.21
943.102	-0.59
943.531	-1.39
943.96	2.91
944.39	2.71
944.819	-3.39
945.248	9.31
945.677	2.71
946.106	1.01
946.535	-0.89
946.964	-1.19
947.393	2.71
947.822	3.21
948.251	-7.99
948.68	2.71
949.109	2.61
949.538	8.91
949.967	-3.79
950.396	-1.19
950.825	-0.49
951.254	0.81
951.682	-3.79
952.111	-1.89
952.54	1.51
952.969	-2.69
953.397	0.91
953.826	2.81
954.254	-3.99
954.683	2.01
955.112	-3.09
955.54	1.21
955.969	5.41
956.397	2.71
956.826	-2.69
957.254	-5.59
957.682	4.11
958.111	11.71
958.539	2.81
958.967	-2.19
959.396	-5.29
959.824	-4.19
960.252	-0.19
960.68	-7.09
961.109	-6.29
961.537	-0.69
961.965	-3.39
962.393	5.01
962.821	-6.89
963.249	-0.59
963.677	-0.99
964.105	3.41
964.533	41.31
964.961	32.61
965.389	18.51
965.817	4.91
966.245	0.41
966.672	2.11
967.1	-0.09
967.528	-2.49
967.956	-7.19
968.383	-2.39
968.811	-3.79
969.239	-3.99
969.666	-5.59
970.094	2.11
970.522	0.61
970.949	0.31
971.377	0.61
971.804	-1.39
972.232	-0.89
972.659	-2.89
973.087	-2.99
973.514	-1.19
973.941	-1.89
974.369	2.41
974.796	-0.59
975.223	-0.59
975.651	-1.09
976.078	0.11
976.505	-4.49
976.932	2.21
977.359	11.01
977.786	13.01
978.214	-0.29
978.641	-0.59
979.068	-6.09
979.495	-4.29
979.922	-4.09
980.349	-6.49
980.776	5.01
981.202	-3.79
981.629	-0.79
982.056	-0.79
982.483	-2.09
982.91	1.81
983.337	-1.29
983.763	3.11
984.19	-0.49
984.617	-6.49
985.043	-4.99
985.47	-1.59
985.897	-5.89
986.323	-3.09
986.75	4.81
987.176	0.71
987.603	-2.29
988.029	1.81
988.456	-4.39
988.882	-2.19
989.308	-7.89
989.735	-8.39
990.161	-3.59
990.587	-8.79
991.014	-3.09
991.44	8.61
991.866	-3.59
992.292	-3.69
992.719	-2.79
993.145	-0.29
993.571	-11.59
993.997	-4.59
994.423	-3.39
994.849	-5.19
995.275	-2.29
995.701	-6.49
996.127	1.71
996.553	0.01
996.979	-4.59
997.405	-7.69
997.83	-9.29
998.256	-4.79
998.682	-5.39
999.108	-6.59
999.534	0.11
999.959	-2.19
1000.385	-3.79
1000.811	-0.89
1001.236	-11.09
1001.662	-5.79
1002.087	-8.09
1002.513	4.91
1002.938	-0.09
1003.364	-0.89
1003.789	-3.79
1004.215	0.81
1004.64	-8.79
1005.066	4.41
1005.491	3.71
1005.916	-4.89
1006.342	-0.49
1006.767	-8.69
1007.192	6.11
1007.617	-7.29
1008.042	-3.89
1008.468	-5.89
1008.893	1.41
1009.318	-4.19
1009.743	-4.09
1010.168	5.81
1010.593	-5.09
1011.018	-9.29
1011.443	0.31
1011.868	2.51
1012.293	-6.99
1012.718	-4.29
1013.143	4.41
1013.567	2.21
1013.992	-2.99
1014.417	-19.39
1014.842	4.51
1015.267	-9.99
1015.691	-3.59
1016.116	8.11
1016.541	-1.69
1016.965	6.51
1017.39	0.61
1017.814	1.31
1018.239	-1.09
1018.663	-4.29
1019.088	-10.59
1019.512	-3.69
1019.937	-6.69
1020.361	-8.39
1020.785	-12.59
1021.21	-5.79
1021.634	1.31
1022.058	-2.59
1022.483	7.41
1022.907	-8.49
1023.331	-6.59
1023.755	-2.29
1024.179	0.61
1024.604	-7.59
1025.028	-12.59
1025.452	-1.49
1025.876	-7.29
1026.3	-2.39
1026.724	-9.99
1027.148	-4.19
1027.572	-15.49
1027.996	-1.39
1028.42	-3.79
1028.843	-3.89
1029.267	-1.59
1029.691	0.11
1030.115	-5.99
1030.539	-6.39
1030.962	-2.89
1031.386	-8.09
1031.81	3.71
1032.233	-4.59
1032.657	2.21
1033.08	-3.89
1033.504	-3.69
1033.927	-4.69
1034.351	1.01
1034.774	-7.79
1035.198	-4.59
1035.621	-3.69
1036.045	-8.49
1036.468	-2.59
1036.891	-6.09
1037.315	-12.69
1037.738	-7.09
1038.161	-1.49
1038.584	-8.59
1039.008	-6.49
1039.431	-9.29
1039.854	-2.99
1040.277	-7.59
1040.7	-13.99
1041.123	1.21
1041.546	-11.19
1041.969	-9.39
1042.392	-7.19
1042.815	-2.89
1043.238	-0.59
1043.661	-2.99
1044.084	-10.09
1044.507	-3.89
1044.93	-7.39
1045.352	1.11
1045.775	-1.59
1046.198	-4.39
1046.621	-9.49
1047.043	-2.29
1047.466	8.21
1047.889	-7.99
1048.311	-1.39
1048.734	-5.39
1049.156	-1.69
1049.579	-1.19
1050.001	-7.99
1050.424	0.61
1050.846	-5.29
1051.269	-7.39
1051.691	-6.69
1052.113	-9.49
1052.536	-3.29
1052.958	-1.09
1053.38	-6.29
1053.802	-10.29
1054.225	0.81
1054.647	-11.89
1055.069	-3.39
1055.491	3.11
1055.913	-11.49
1056.335	-2.29
1056.757	-0.59
1057.179	-4.99
1057.601	-6.99
1058.023	-7.89
1058.445	-2.79
1058.867	-1.89
1059.289	-7.89
1059.711	-4.99
1060.133	-9.49
1060.555	-3.59
1060.976	-5.89
1061.398	-10.39
1061.82	-5.49
1062.241	-3.99
1062.663	-9.59
1063.085	-7.29
1063.506	0.61
1063.928	-8.09
1064.35	-3.29
1064.771	-4.69
1065.193	-1.79
1065.614	-8.39
1066.035	0.51
1066.457	-5.79
1066.878	-1.99
1067.3	-6.89
1067.721	0.81
1068.142	-0.89
1068.564	-6.39
1068.985	-7.19
1069.406	-1.49
1069.827	-3.99
1070.248	-2.39
1070.67	-6.89
1071.091	-7.29
1071.512	-0.49
1071.933	-3.39
1072.354	-7.49
1072.775	-6.59
1073.196	-7.79
1073.617	-0.19
1074.038	-7.79
1074.459	0.71
1074.88	-11.49
1075.3	-1.59
1075.721	-10.49
1076.142	-1.79
1076.563	-0.99
1076.983	-14.99
1077.404	-4.69
1077.825	-10.99
1078.246	-4.59
1078.666	-13.09
1079.087	-6.39
1079.507	-10.69
1079.928	-1.09
1080.348	-4.39
1080.769	-7.89
1081.189	1.81
1081.61	-6.29
1082.03	-7.69
1082.451	-11.49
1082.871	-2.19
1083.291	-4.29
1083.711	-11.69
1084.132	-10.29
1084.552	-2.79
1084.972	-0.99
1085.392	-11.19
1085.813	1.61
1086.233	-9.09
1086.653	-6.79
1087.073	-2.49
1087.493	-14.49
1087.913	-4.29
1088.333	-6.79
1088.753	-2.39
1089.173	-3.09
1089.593	-5.59
1090.013	2.71
1090.433	-1.69
1090.852	-3.49
1091.272	-4.09
1091.692	-2.69
1092.112	-3.49
1092.531	-10.19
1092.951	-13.19
1093.371	-0.19
1093.79	2.61
1094.21	-7.09
1094.63	-8.99
1095.049	-0.89
1095.469	0.61
1095.888	-3.19
1096.308	-0.39
1096.727	7.11
1097.146	-5.09
1097.566	-0.09
1097.985	-3.99
1098.405	-3.89
1098.824	-5.99
1099.243	-6.19
1099.662	-7.39
1100.082	-3.29
1100.501	-3.09
1100.92	-4.89
1101.339	-6.59
1101.758	-4.49
