Data from 20171114-ORNL-Ar_H_NY_Subt18_08-09-24-506.txt Node
Date: Tue Nov 14 08:09:24 EST 2017
User: Ender
Spectrometer: HR+D1039
Trigger mode: 0
Integration Time (sec): 2.730000E-2
Scans to average: 10
Electric dark correction enabled: true
Nonlinearity correction enabled: false
Boxcar width: 0
XAxis mode: Wavelengths
Number of Pixels in Spectrum: 2048
>>>>>Begin Spectral Data<<<<<
187.836	-5.11
188.309	-5.11
188.782	-5.11
189.255	4.59
189.728	-4.01
190.201	5.69
190.674	4.39
191.147	3.09
191.619	-7.71
192.092	-0.01
192.565	8.39
193.038	-1.61
193.511	2.99
193.984	1.39
194.456	-1.71
194.929	-1.61
195.402	-7.11
195.874	-1.61
196.347	0.69
196.82	-5.71
197.292	10.49
197.765	-0.01
198.237	-4.11
198.71	4.79
199.182	-0.51
199.655	2.19
200.127	1.89
200.6	-1.71
201.072	-3.01
201.544	-7.41
202.017	-0.21
202.489	1.59
202.961	-0.91
203.433	-3.51
203.906	-8.41
204.378	-3.41
204.85	-5.11
205.322	-5.01
205.794	-0.91
206.266	-2.91
206.739	-9.51
207.211	3.89
207.683	-10.01
208.155	-9.21
208.627	-8.61
209.099	-2.91
209.57	-6.81
210.042	-2.11
210.514	0.19
210.986	0.09
211.458	-10.91
211.93	-1.51
212.402	2.79
212.873	-6.91
213.345	-10.01
213.817	-14.61
214.288	-6.11
214.76	-12.41
215.232	-6.31
215.703	-2.01
216.175	-4.21
216.646	-3.51
217.118	-9.61
217.589	-6.71
218.061	-4.41
218.532	-7.51
219.004	-4.71
219.475	-8.11
219.946	-4.81
220.418	-8.41
220.889	1.79
221.36	3.39
221.832	-4.51
222.303	-2.91
222.774	-0.21
223.245	-5.51
223.717	-5.81
224.188	-6.11
224.659	-12.71
225.13	-6.11
225.601	1.69
226.072	2.09
226.543	-2.21
227.014	0.09
227.485	-3.01
227.956	-9.01
228.427	-3.71
228.898	-4.21
229.369	5.19
229.839	-4.51
230.31	-4.31
230.781	7.69
231.252	-5.21
231.722	-1.31
232.193	-6.41
232.664	-3.81
233.135	-8.31
233.605	-2.61
234.076	-3.91
234.546	-1.11
235.017	1.69
235.487	-7.91
235.958	-3.61
236.428	-6.61
236.899	-3.11
237.369	-0.61
237.84	-1.61
238.31	-2.91
238.78	-2.11
239.251	-6.01
239.721	-6.41
240.191	-2.11
240.662	-7.71
241.132	1.69
241.602	-7.61
242.072	-3.81
242.542	-0.11
243.013	-5.61
243.483	-0.61
243.953	-3.11
244.423	2.39
244.893	-5.51
245.363	3.79
245.833	-5.91
246.303	-3.11
246.773	1.79
247.243	-3.61
247.712	-2.81
248.182	4.99
248.652	-0.71
249.122	-9.41
249.592	-1.21
250.061	3.89
250.531	4.19
251.001	-7.51
251.471	2.69
251.94	5.09
252.41	-6.21
252.879	3.09
253.349	10.49
253.818	5.99
254.288	-2.01
254.757	3.99
255.227	-2.31
255.696	-2.71
256.166	-0.01
256.635	7.29
257.105	-3.41
257.574	0.59
258.043	2.89
258.513	-5.51
258.982	3.79
259.451	-6.71
259.92	-7.51
260.389	-1.91
260.859	6.89
261.328	3.49
261.797	3.19
262.266	1.39
262.735	-2.21
263.204	3.49
263.673	-4.41
264.142	-1.81
264.611	-10.71
265.08	-3.71
265.549	-2.01
266.018	3.69
266.487	-7.21
266.955	-7.51
267.424	-5.11
267.893	0.39
268.362	-1.61
268.83	6.09
269.299	9.89
269.768	1.39
270.236	0.19
270.705	1.39
271.174	2.39
271.642	0.99
272.111	-1.11
272.579	1.79
273.048	0.89
273.516	-2.51
273.985	-0.81
274.453	0.79
274.922	12.19
275.39	0.99
275.858	-1.51
276.327	1.79
276.795	5.19
277.263	-0.21
277.731	2.39
278.2	6.29
278.668	4.09
279.136	8.49
279.604	-5.11
280.072	2.39
280.54	4.09
281.008	0.39
281.477	6.99
281.945	8.79
282.413	6.49
282.881	7.69
283.348	3.19
283.816	5.49
284.284	7.59
284.752	12.19
285.22	12.79
285.688	6.49
286.156	7.49
286.623	11.39
287.091	11.89
287.559	7.99
288.026	-0.71
288.494	9.89
288.962	1.69
289.429	2.79
289.897	12.59
290.364	5.59
290.832	7.79
291.3	1.49
291.767	8.89
292.234	9.39
292.702	6.49
293.169	3.39
293.637	16.89
294.104	7.99
294.571	3.79
295.039	9.39
295.506	10.39
295.973	7.09
296.44	5.59
296.908	11.09
297.375	13.69
297.842	11.99
298.309	2.39
298.776	6.09
299.243	18.99
299.71	4.49
300.177	11.29
300.644	10.59
301.111	7.49
301.578	9.29
302.045	7.29
302.512	12.19
302.979	15.59
303.446	14.89
303.913	6.69
304.379	9.99
304.846	15.29
305.313	19.39
305.78	10.09
306.246	15.89
306.713	11.99
307.18	14.49
307.646	19.59
308.113	15.29
308.579	12.79
309.046	11.39
309.512	17.39
309.979	7.99
310.445	16.09
310.912	22.89
311.378	20.99
311.845	24.49
312.311	22.09
312.777	22.89
313.244	14.39
313.71	26.59
314.176	12.09
314.642	18.19
315.109	13.89
315.575	22.79
316.041	31.19
316.507	17.59
316.973	28.39
317.439	26.99
317.905	30.09
318.371	24.99
318.837	25.99
319.303	23.29
319.769	25.29
320.235	24.89
320.701	17.39
321.167	22.69
321.633	18.59
322.099	19.29
322.564	30.69
323.03	28.59
323.496	26.19
323.962	28.19
324.427	26.39
324.893	34.69
325.359	28.59
325.824	22.39
326.29	27.99
326.755	22.29
327.221	30.79
327.686	24.39
328.152	30.49
328.617	23.69
329.083	33.29
329.548	41.69
330.014	27.89
330.479	30.09
330.944	31.99
331.41	32.59
331.875	32.39
332.34	27.69
332.805	25.39
333.271	30.69
333.736	31.49
334.201	38.59
334.666	40.99
335.131	34.19
335.596	42.89
336.061	38.69
336.526	22.19
336.991	38.79
337.456	44.09
337.921	35.29
338.386	27.99
338.851	35.39
339.316	35.99
339.781	30.39
340.246	40.89
340.711	36.29
341.175	35.39
341.64	26.09
342.105	43.09
342.569	38.89
343.034	39.29
343.499	40.39
343.963	43.19
344.428	50.29
344.893	52.39
345.357	43.49
345.822	42.09
346.286	50.59
346.751	55.19
347.215	56.39
347.679	49.89
348.144	67.09
348.608	63.59
349.073	51.89
349.537	56.79
350.001	62.69
350.465	68.09
350.93	60.29
351.394	66.39
351.858	54.59
352.322	67.89
352.786	57.39
353.25	67.89
353.715	76.09
354.179	70.49
354.643	88.29
355.107	87.79
355.571	78.39
356.035	75.79
356.498	86.69
356.962	84.49
357.426	96.29
357.89	91.09
358.354	67.89
358.818	68.99
359.281	65.49
359.745	63.19
360.209	60.79
360.673	58.29
361.136	60.79
361.6	70.59
362.064	68.49
362.527	65.19
362.991	79.59
363.454	63.59
363.918	54.49
364.381	58.79
364.845	69.99
365.308	68.39
365.772	77.19
366.235	65.19
366.698	66.29
367.162	70.79
367.625	62.39
368.088	78.39
368.552	75.59
369.015	79.59
369.478	74.19
369.941	83.99
370.404	76.99
370.867	75.89
371.331	77.79
371.794	82.79
372.257	85.29
372.72	77.89
373.183	80.79
373.646	76.39
374.109	76.29
374.572	87.49
375.035	86.39
375.497	79.39
375.96	88.89
376.423	88.19
376.886	92.39
377.349	89.79
377.811	83.69
378.274	92.19
378.737	88.19
379.199	97.79
379.662	92.89
380.125	90.09
380.587	91.99
381.05	95.19
381.512	99.59
381.975	112.09
382.437	97.49
382.9	100.39
383.362	109.79
383.825	116.49
384.287	105.99
384.75	108.59
385.212	107.59
385.674	122.59
386.136	113.39
386.599	107.99
387.061	103.79
387.523	105.09
387.985	108.39
388.447	118.59
388.91	112.79
389.372	105.59
389.834	118.39
390.296	103.69
390.758	119.89
391.22	118.19
391.682	132.79
392.144	135.59
392.606	129.49
393.068	128.69
393.529	133.29
393.991	123.19
394.453	115.69
394.915	119.69
395.377	118.99
395.838	118.69
396.3	126.19
396.762	124.09
397.224	123.09
397.685	114.69
398.147	120.29
398.608	117.59
399.07	118.89
399.531	127.29
399.993	132.29
400.454	142.69
400.916	131.69
401.377	134.09
401.839	139.79
402.3	136.89
402.762	150.19
403.223	157.69
403.684	154.49
404.145	144.49
404.607	150.49
405.068	154.19
405.529	161.39
405.99	167.39
406.451	154.09
406.913	153.19
407.374	155.79
407.835	138.99
408.296	144.99
408.757	149.89
409.218	169.39
409.679	159.49
410.14	154.29
410.601	163.59
411.062	165.49
411.522	169.19
411.983	164.69
412.444	164.49
412.905	167.59
413.366	165.69
413.826	179.69
414.287	211.89
414.748	250.69
415.208	232.79
415.669	204.39
416.13	196.49
416.59	197.39
417.051	206.09
417.511	206.59
417.972	227.49
418.432	232.89
418.893	281.49
419.353	244.09
419.814	191.29
420.274	172.49
420.734	170.09
421.195	181.99
421.655	183.99
422.115	179.89
422.576	181.09
423.036	192.19
423.496	190.29
423.956	204.29
424.416	219.49
424.876	254.79
425.336	238.99
425.797	250.89
426.257	242.69
426.717	223.29
427.177	217.19
427.637	210.49
428.097	228.59
428.556	229.69
429.016	249.99
429.476	247.09
429.936	250.29
430.396	259.59
430.856	266.79
431.315	298.59
431.775	314.39
432.235	355.59
432.694	322.19
433.154	330.69
433.614	351.19
434.073	317.99
434.533	274.19
434.993	245.29
435.452	266.99
435.912	277.79
436.371	263.69
436.83	263.29
437.29	249.49
437.749	233.99
438.209	233.79
438.668	262.39
439.127	259.39
439.587	249.59
440.046	232.89
440.505	245.39
440.964	261.09
441.424	300.69
441.883	295.49
442.342	245.69
442.801	227.09
443.26	211.79
443.719	221.79
444.178	211.09
444.637	205.99
445.096	214.49
445.555	223.59
446.014	216.99
446.473	223.69
446.932	229.49
447.391	226.39
447.849	229.29
448.308	209.39
448.767	216.99
449.226	227.49
449.685	237.29
450.143	239.89
450.602	236.29
451.061	230.59
451.519	227.69
451.978	230.59
452.436	218.49
452.895	239.19
453.353	252.39
453.812	242.09
454.27	233.59
454.729	232.49
455.187	238.79
455.646	233.79
456.104	232.09
456.562	247.49
457.021	257.69
457.479	247.19
457.937	266.99
458.395	256.19
458.854	240.59
459.312	256.39
459.77	268.89
460.228	257.69
460.686	244.69
461.144	253.19
461.602	242.19
462.06	250.29
462.518	248.19
462.976	252.69
463.434	253.89
463.892	266.09
464.35	274.69
464.808	277.79
465.266	265.49
465.724	266.69
466.181	275.89
466.639	264.59
467.097	290.89
467.555	297.69
468.012	293.39
468.47	307.09
468.928	319.59
469.385	336.89
469.843	336.09
470.3	337.19
470.758	349.89
471.215	372.59
471.673	396.39
472.13	395.89
472.588	410.69
473.045	369.59
473.503	377.39
473.96	392.69
474.417	396.39
474.875	423.79
475.332	459.09
475.789	451.69
476.246	451.09
476.704	476.79
477.161	492.59
477.618	510.49
478.075	546.19
478.532	593.09
478.989	650.19
479.446	753.29
479.903	729.79
480.36	759.09
480.817	801.89
481.274	890.49
481.731	974.99
482.188	1050.09
482.645	1157.39
483.102	1232.19
483.558	1369.29
484.015	1407.49
484.472	1379.19
484.929	1335.89
485.385	1305.29
485.842	1254.69
486.299	1228.39
486.755	1181.39
487.212	1015.19
487.668	860.99
488.125	810.19
488.582	742.09
489.038	711.49
489.494	688.19
489.951	651.89
490.407	643.39
490.864	627.29
491.32	611.29
491.776	620.19
492.233	629.19
492.689	595.39
493.145	592.99
493.602	583.19
494.058	603.79
494.514	606.99
494.97	616.39
495.426	625.69
495.882	617.69
496.338	599.59
496.794	605.89
497.251	599.29
497.707	611.39
498.163	615.49
498.618	621.29
499.074	621.79
499.53	649.99
499.986	654.29
500.442	628.39
500.898	608.79
501.354	605.79
501.809	610.29
502.265	615.99
502.721	628.19
503.177	627.59
503.632	628.79
504.088	634.49
504.543	650.09
504.999	682.79
505.455	646.49
505.91	628.19
506.366	636.89
506.821	616.89
507.277	614.69
507.732	621.49
508.187	622.79
508.643	640.79
509.098	640.79
509.553	651.59
510.009	665.99
510.464	669.19
510.919	679.29
511.375	692.49
511.83	707.89
512.285	716.29
512.74	749.19
513.195	778.79
513.65	760.79
514.105	751.99
514.56	760.49
515.015	777.39
515.47	786.39
515.925	765.69
516.38	780.79
516.835	788.89
517.29	775.69
517.745	770.19
518.2	755.79
518.655	743.39
519.109	742.39
519.564	733.49
520.019	723.09
520.474	715.69
520.928	716.19
521.383	720.49
521.838	704.59
522.292	706.89
522.747	704.79
523.201	709.49
523.656	697.09
524.11	687.29
524.565	696.19
525.019	677.69
525.474	688.69
525.928	690.79
526.382	691.69
526.837	694.99
527.291	695.79
527.745	687.59
528.2	693.39
528.654	686.19
529.108	678.59
529.562	686.79
530.016	688.39
530.47	684.89
530.925	689.39
531.379	684.29
531.833	696.69
532.287	687.69
532.741	691.29
533.195	692.59
533.649	704.09
534.103	717.49
534.556	704.99
535.01	702.49
535.464	696.89
535.918	714.79
536.372	709.39
536.826	711.99
537.279	701.39
537.733	708.29
538.187	717.79
538.64	712.89
539.094	722.29
539.548	716.29
540.001	720.39
540.455	725.09
540.908	737.29
541.362	738.09
541.815	757.09
542.269	766.59
542.722	760.29
543.175	768.59
543.629	774.19
544.082	785.79
544.536	788.19
544.989	793.09
545.442	789.79
545.895	794.09
546.349	805.69
546.802	800.69
547.255	805.29
547.708	805.59
548.161	815.99
548.614	822.89
549.067	833.59
549.52	820.89
549.973	815.89
550.426	812.99
550.879	807.99
551.332	804.59
551.785	802.19
552.238	813.39
552.691	822.29
553.144	846.69
553.596	845.59
554.049	875.79
554.502	890.09
554.955	906.99
555.407	905.59
555.86	889.59
556.313	893.89
556.765	874.59
557.218	895.09
557.67	888.69
558.123	877.59
558.576	881.29
559.028	879.09
559.48	890.89
559.933	868.79
560.385	849.19
560.838	809.59
561.29	794.69
561.742	791.79
562.195	784.19
562.647	773.49
563.099	785.49
563.551	778.99
564.004	790.09
564.456	774.89
564.908	766.39
565.36	749.69
565.812	739.39
566.264	731.79
566.716	719.79
567.168	708.99
567.62	714.39
568.072	714.09
568.524	707.29
568.976	696.29
569.428	690.19
569.88	672.99
570.332	693.29
570.784	698.79
571.235	697.79
571.687	702.39
572.139	699.79
572.59	713.79
573.042	726.79
573.494	728.59
573.945	707.59
574.397	698.89
574.849	698.19
575.3	695.69
575.752	691.29
576.203	672.99
576.655	694.19
577.106	683.29
577.557	677.29
578.009	668.09
578.46	671.89
578.912	669.09
579.363	667.09
579.814	675.49
580.265	659.59
580.717	682.39
581.168	678.29
581.619	681.99
582.07	692.39
582.521	681.69
582.972	676.09
583.423	688.69
583.875	676.89
584.326	687.69
584.777	702.79
585.227	726.29
585.678	738.19
586.129	757.49
586.58	777.09
587.031	789.29
587.482	821.59
587.933	852.49
588.384	830.79
588.834	801.59
589.285	779.09
589.736	785.49
590.186	775.59
590.637	770.79
591.088	764.69
591.538	753.69
591.989	737.59
592.439	731.79
592.89	737.19
593.34	710.09
593.791	715.49
594.241	709.19
594.692	703.99
595.142	701.69
595.593	700.29
596.043	704.89
596.493	709.39
596.943	715.49
597.394	722.89
597.844	721.09
598.294	741.09
598.744	762.29
599.195	777.19
599.645	844.99
600.095	878.39
600.545	932.99
600.995	990.89
601.445	1054.09
601.895	1104.39
602.345	1147.99
602.795	1132.49
603.245	1088.69
603.695	1021.29
604.145	968.99
604.594	923.29
605.044	870.89
605.494	803.99
605.944	769.39
606.393	763.29
606.843	733.29
607.293	733.49
607.743	741.79
608.192	742.19
608.642	756.09
609.091	769.29
609.541	768.39
609.99	775.39
610.44	765.99
610.889	723.09
611.339	707.59
611.788	703.09
612.238	694.19
612.687	720.79
613.136	704.59
613.586	715.69
614.035	701.39
614.484	716.59
614.933	708.09
615.383	706.39
615.832	711.19
616.281	706.39
616.73	684.89
617.179	672.49
617.628	651.29
618.077	639.59
618.526	627.39
618.975	626.09
619.424	629.89
619.873	616.39
620.322	622.39
620.771	618.99
621.22	611.99
621.669	597.59
622.118	593.99
622.567	586.29
623.015	577.59
623.464	572.59
623.913	566.69
624.361	567.49
624.81	552.49
625.259	565.29
625.707	573.19
626.156	565.19
626.604	573.69
627.053	570.89
627.501	576.49
627.95	581.59
628.398	589.09
628.847	584.99
629.295	577.49
629.744	576.99
630.192	568.09
630.64	568.69
631.089	559.99
631.537	541.59
631.985	531.49
632.433	533.59
632.881	530.09
633.33	536.79
633.778	534.39
634.226	530.39
634.674	538.99
635.122	549.69
635.57	552.19
636.018	570.49
636.466	571.89
636.914	568.29
637.362	589.19
637.81	590.79
638.258	597.69
638.705	589.09
639.153	629.39
639.601	633.49
640.049	662.99
640.497	690.39
640.944	699.89
641.392	650.79
641.84	628.69
642.287	597.49
642.735	574.59
643.182	573.79
643.63	567.39
644.078	573.69
644.525	585.59
644.973	582.39
645.42	602.49
645.867	626.29
646.315	643.29
646.762	660.59
647.21	684.69
647.657	712.69
648.104	746.89
648.551	757.59
648.999	820.29
649.446	895.39
649.893	970.09
650.34	1117.09
650.787	1335.59
651.234	1643.09
651.682	2132.29
652.129	2900.19
652.576	4104.79
653.023	5996.19
653.47	8078.49
653.917	9945.59
654.363	11352.89
654.81	12455.59
655.257	11829.89
655.704	7836.89
656.151	4696.89
656.598	3091.19
657.044	2220.69
657.491	1743.09
657.938	1395.49
658.385	1186.89
658.831	1037.49
659.278	930.69
659.724	827.79
660.171	779.29
660.618	720.19
661.064	681.89
661.511	653.19
661.957	650.19
662.404	643.49
662.85	655.59
663.296	622.89
663.743	567.49
664.189	555.39
664.635	539.59
665.082	524.79
665.528	532.59
665.974	526.49
666.42	516.09
666.867	507.19
667.313	496.69
667.759	477.89
668.205	454.89
668.651	456.49
669.097	452.29
669.543	453.19
669.989	451.09
670.435	463.59
670.881	448.29
671.327	457.99
671.773	485.89
672.219	508.19
672.665	569.19
673.11	607.89
673.556	648.19
674.002	692.19
674.448	677.99
674.893	562.59
675.339	494.99
675.785	460.89
676.23	438.29
676.676	402.39
677.122	393.69
677.567	376.69
678.013	378.19
678.458	370.39
678.904	378.09
679.349	361.49
679.794	361.09
680.24	362.49
680.685	358.49
681.131	350.99
681.576	360.19
682.021	361.39
682.466	370.99
682.912	353.59
683.357	366.69
683.802	396.59
684.247	431.89
684.692	469.39
685.137	519.29
685.583	553.69
686.028	578.79
686.473	531.49
686.918	461.79
687.363	432.19
687.807	398.19
688.252	375.29
688.697	364.49
689.142	344.59
689.587	338.79
690.032	341.19
690.477	354.09
690.921	361.19
691.366	395.19
691.811	421.69
692.255	446.39
692.7	475.59
693.145	533.49
693.589	753.39
694.034	1216.59
694.478	1630.39
694.923	1790.89
695.367	2319.09
695.812	1247.29
696.256	527.29
696.701	384.39
697.145	360.09
697.59	343.49
698.034	332.89
698.478	348.29
698.922	327.09
699.367	335.79
699.811	343.59
700.255	362.99
700.699	398.59
701.143	445.99
701.588	490.29
702.032	525.39
702.476	532.59
702.92	514.09
703.364	524.89
703.808	683.29
704.252	1124.29
704.696	1540.19
705.14	1723.59
705.584	2181.69
706.027	1119.89
706.471	542.19
706.915	411.19
707.359	369.59
707.803	334.09
708.246	330.09
708.69	326.49
709.134	331.19
709.577	324.49
710.021	334.59
710.465	315.39
710.908	305.79
711.352	310.29
711.795	329.69
712.239	366.29
712.682	397.49
713.126	433.59
713.569	474.89
714.012	365.29
714.456	312.59
714.899	305.09
715.342	281.59
715.786	261.49
716.229	264.49
716.672	263.69
717.115	260.09
717.558	260.19
718.002	260.59
718.445	277.79
718.888	292.79
719.331	302.19
719.774	320.89
720.217	314.69
720.66	295.19
721.103	276.69
721.546	264.39
721.989	256.99
722.432	240.09
722.874	246.99
723.317	243.89
723.76	245.59
724.203	266.79
724.645	336.09
725.088	472.29
725.531	588.39
725.974	654.09
726.416	566.79
726.859	310.89
727.301	257.39
727.744	244.59
728.187	240.69
728.629	245.79
729.071	255.79
729.514	276.19
729.956	279.09
730.399	292.19
730.841	297.09
731.283	282.49
731.726	283.59
732.168	270.89
732.61	274.89
733.053	302.49
733.495	336.69
733.937	370.79
734.379	416.29
734.821	471.49
735.263	583.59
735.705	917.39
736.148	1736.99
736.59	2755.89
737.032	3155.89
737.474	2569.89
737.916	853.29
738.357	451.89
738.799	339.09
739.241	311.99
739.683	299.99
740.125	300.19
740.567	308.19
741.008	328.59
741.45	331.59
741.892	332.29
742.334	369.59
742.775	377.69
743.217	351.89
743.658	282.29
744.1	273.79
744.542	286.89
744.983	335.59
745.425	356.49
745.866	356.79
746.307	292.49
746.749	292.99
747.19	352.39
747.632	502.69
748.073	988.69
748.514	2038.69
748.956	3009.69
749.397	3808.39
749.838	3135.09
750.279	3049.89
750.72	1570.89
751.162	585.79
751.603	337.19
752.044	264.19
752.485	228.19
752.926	219.19
753.367	207.69
753.808	208.29
754.249	208.69
754.69	191.89
755.131	191.69
755.572	193.49
756.013	190.99
756.453	185.39
756.894	196.69
757.335	198.69
757.776	201.59
758.216	204.49
758.657	198.39
759.098	214.99
759.538	243.79
759.979	294.79
760.42	408.79
760.86	793.19
761.301	2073.59
761.741	4825.89
762.182	6582.39
762.622	4668.49
763.063	1395.09
763.503	567.89
763.943	342.59
764.384	282.29
764.824	261.99
765.264	240.59
765.705	219.89
766.145	184.49
766.585	179.29
767.025	175.79
767.465	167.69
767.906	178.39
768.346	204.29
768.786	209.09
769.226	233.39
769.666	344.29
770.106	688.29
770.546	1711.59
770.986	2745.19
771.426	2432.39
771.866	841.99
772.306	345.79
772.745	213.09
773.185	174.59
773.625	174.69
774.065	155.99
774.505	169.99
774.944	211.89
775.384	392.99
775.824	603.09
776.263	572.99
776.703	293.09
777.142	165.99
777.582	137.19
778.021	128.19
778.461	125.99
778.9	131.09
779.34	126.09
779.779	109.69
780.219	106.79
780.658	111.69
781.097	112.49
781.537	117.09
781.976	106.59
782.415	107.39
782.855	103.19
783.294	102.29
783.733	106.19
784.172	107.09
784.611	105.09
785.05	115.29
785.489	117.29
785.928	119.99
786.367	120.89
786.806	120.49
787.245	132.69
787.684	142.99
788.123	145.49
788.562	138.79
789.001	131.29
789.44	125.89
789.879	126.59
790.317	124.69
790.756	135.59
791.195	142.09
791.634	156.79
792.072	219.59
792.511	412.89
792.95	1120.49
793.388	2217.69
793.827	1942.19
794.265	713.39
794.704	301.09
795.142	188.49
795.581	158.69
796.019	139.79
796.458	139.19
796.896	133.29
797.334	135.19
797.773	169.29
798.211	236.59
798.649	498.39
799.087	1103.39
799.526	1706.09
799.964	2139.49
800.402	2071.39
800.84	798.89
801.278	325.89
801.716	196.69
802.154	153.39
802.592	150.59
803.03	146.29
803.468	143.79
803.906	154.19
804.344	157.39
804.782	149.49
805.22	139.29
805.658	132.59
806.096	152.99
806.533	165.49
806.971	183.39
807.409	234.59
807.847	345.69
808.284	748.39
808.722	2069.59
809.16	3458.39
809.597	3444.99
810.035	5818.39
810.472	5943.99
810.91	2194.29
811.347	854.39
811.785	428.29
812.222	272.59
812.66	200.99
813.097	174.69
813.535	151.89
813.972	137.89
814.409	128.29
814.846	112.59
815.284	115.89
815.721	106.29
816.158	112.49
816.595	116.99
817.032	162.99
817.47	183.49
817.907	129.99
818.344	106.49
818.781	106.09
819.218	104.19
819.655	130.19
820.092	201.19
820.529	221.89
820.966	178.79
821.403	129.79
821.839	102.99
822.276	103.89
822.713	130.59
823.15	143.49
823.587	127.19
824.023	159.89
824.46	332.69
824.897	981.79
825.333	1394.29
825.77	607.69
826.206	240.89
826.643	138.79
827.08	104.39
827.516	81.69
827.953	84.59
828.389	87.39
828.825	80.59
829.262	72.19
829.698	64.09
830.135	68.89
830.571	63.89
831.007	66.99
831.443	62.39
831.88	67.89
832.316	71.59
832.752	70.99
833.188	71.09
833.624	56.49
834.06	71.79
834.497	73.99
834.933	74.29
835.369	83.19
835.805	75.69
836.241	82.19
836.677	88.39
837.112	99.79
837.548	112.59
837.984	140.99
838.42	214.99
838.856	564.49
839.292	1654.69
839.727	2383.99
840.163	1121.39
840.599	1025.39
841.034	2199.69
841.47	2175.99
841.906	823.09
842.341	345.99
842.777	206.79
843.212	208.09
843.648	189.69
844.083	117.79
844.519	83.39
844.954	65.99
845.39	64.79
845.825	59.09
846.261	57.59
846.696	61.29
847.131	61.39
847.566	63.29
848.002	59.29
848.437	59.09
848.872	59.69
849.307	65.79
849.742	97.39
850.177	204.09
850.613	605.59
851.048	902.89
851.483	403.39
851.918	164.69
852.353	95.89
852.788	54.49
853.223	59.09
853.657	56.69
854.092	49.89
854.527	43.89
854.962	42.99
855.397	45.09
855.832	54.29
856.266	42.29
856.701	41.39
857.136	39.59
857.57	40.99
858.005	53.09
858.44	61.39
858.874	40.59
859.309	56.79
859.743	41.59
860.178	50.49
860.612	38.99
861.047	58.99
861.481	76.49
861.915	73.59
862.35	51.19
862.784	30.59
863.218	38.69
863.653	35.09
864.087	48.29
864.521	56.19
864.955	70.49
865.39	163.89
865.824	183.19
866.258	121.79
866.692	183.49
867.126	188.39
867.56	109.89
867.994	56.89
868.428	34.69
868.862	49.79
869.296	54.79
869.73	64.59
870.164	57.89
870.598	54.09
871.031	40.59
871.465	32.39
871.899	33.09
872.333	22.59
872.766	22.39
873.2	23.39
873.634	34.19
874.067	31.39
874.501	27.99
874.935	36.79
875.368	32.69
875.802	36.19
876.235	25.49
876.669	28.89
877.102	21.99
877.535	27.59
877.969	25.19
878.402	28.49
878.836	22.39
879.269	23.59
879.702	24.99
880.135	23.49
880.569	21.39
881.002	25.59
881.435	24.29
881.868	18.69
882.301	23.59
882.734	18.69
883.167	25.29
883.601	21.89
884.034	20.19
884.467	9.99
884.899	23.19
885.332	19.79
885.765	15.29
886.198	20.19
886.631	14.29
887.064	20.29
887.497	19.49
887.929	23.29
888.362	10.49
888.795	13.29
889.228	14.99
889.66	26.29
890.093	21.49
890.526	15.99
890.958	17.79
891.391	18.99
891.823	22.59
892.256	17.79
892.688	15.79
893.121	19.99
893.553	12.69
893.985	20.79
894.418	20.19
894.85	10.19
895.282	18.59
895.715	15.69
896.147	21.79
896.579	13.89
897.011	16.09
897.444	16.89
897.876	17.39
898.308	19.29
898.74	13.39
899.172	14.49
899.604	23.89
900.036	20.69
900.468	8.89
900.9	9.19
901.332	17.79
901.764	18.29
902.196	18.09
902.628	15.49
903.06	20.89
903.491	25.49
903.923	25.69
904.355	26.49
904.787	32.49
905.218	21.19
905.65	18.99
906.082	13.29
906.513	16.69
906.945	18.29
907.376	17.69
907.808	19.59
908.239	19.79
908.671	18.49
909.102	16.89
909.534	27.29
909.965	47.69
910.397	103.69
910.828	343.29
911.259	488.59
911.691	227.69
912.122	114.99
912.553	53.69
912.984	36.29
913.415	35.09
913.847	28.19
914.278	18.69
914.709	16.09
915.14	16.29
915.571	18.29
916.002	9.39
916.433	18.29
916.864	16.09
917.295	10.59
917.726	21.89
918.157	12.69
918.587	31.09
919.018	24.09
919.449	25.49
919.88	21.89
920.311	31.99
920.741	52.09
921.172	178.49
921.603	154.39
922.033	75.09
922.464	53.59
922.895	28.29
923.325	21.89
923.756	16.19
924.186	14.09
924.617	16.39
925.047	19.99
925.478	22.89
925.908	19.49
926.338	19.79
926.769	19.09
927.199	16.59
927.629	3.49
928.06	14.79
928.49	13.29
928.92	14.29
929.35	14.49
929.78	10.69
930.21	10.09
930.641	12.49
931.071	11.69
931.501	5.19
931.931	12.59
932.361	5.69
932.791	0.19
933.221	7.09
933.651	5.49
934.08	16.99
934.51	28.49
934.94	8.89
935.37	12.09
935.8	14.69
936.229	9.59
936.659	9.59
937.089	4.79
937.519	18.19
937.948	24.49
938.378	16.59
938.807	12.89
939.237	3.09
939.666	12.99
940.096	-4.41
940.525	5.39
940.955	5.39
941.384	2.29
941.814	-6.21
942.243	-0.31
942.672	4.19
943.102	1.29
943.531	2.59
943.96	5.09
944.39	5.49
944.819	-4.21
945.248	0.69
945.677	1.19
946.106	7.89
946.535	5.99
946.964	1.09
947.393	7.19
947.822	2.29
948.251	0.49
948.68	1.89
949.109	-1.71
949.538	4.79
949.967	1.29
950.396	4.49
950.825	-1.21
951.254	1.69
951.682	-6.11
952.111	6.69
952.54	7.49
952.969	-0.11
953.397	-5.31
953.826	0.89
954.254	-1.51
954.683	3.59
955.112	-4.31
955.54	-6.31
955.969	4.99
956.397	2.69
956.826	-2.41
957.254	1.59
957.682	2.79
958.111	4.09
958.539	0.29
958.967	-0.61
959.396	0.19
959.824	-2.81
960.252	2.99
960.68	-5.91
961.109	3.29
961.537	-4.51
961.965	4.89
962.393	-3.71
962.821	-7.01
963.249	-8.11
963.677	6.89
964.105	10.19
964.533	47.19
964.961	43.69
965.389	14.99
965.817	7.39
966.245	1.39
966.672	-0.51
967.1	-6.01
967.528	2.19
967.956	1.19
968.383	1.69
968.811	-0.91
969.239	-4.91
969.666	-5.91
970.094	2.29
970.522	4.79
970.949	-0.31
971.377	-9.11
971.804	-4.81
972.232	0.19
972.659	-2.01
973.087	-5.61
973.514	-2.91
973.941	-8.51
974.369	5.79
974.796	2.39
975.223	1.49
975.651	-6.51
976.078	2.39
976.505	0.19
976.932	3.59
977.359	18.89
977.786	14.69
978.214	3.99
978.641	-4.51
979.068	-3.01
979.495	-2.21
979.922	0.09
980.349	-4.01
980.776	10.19
981.202	4.39
981.629	6.79
982.056	8.29
982.483	-2.31
982.91	0.69
983.337	-2.81
983.763	-0.21
984.19	-6.51
984.617	-2.51
985.043	-2.51
985.47	-0.31
985.897	1.39
986.323	-6.61
986.75	2.69
987.176	1.79
987.603	3.99
988.029	0.89
988.456	-5.51
988.882	5.39
989.308	-3.11
989.735	-2.11
990.161	1.89
990.587	0.79
991.014	0.29
991.44	7.99
991.866	-4.31
992.292	-5.31
992.719	0.59
993.145	-0.41
993.571	-3.71
993.997	-4.31
994.423	0.49
994.849	-7.41
995.275	2.49
995.701	2.99
996.127	1.49
996.553	6.89
996.979	-8.51
997.405	-6.31
997.83	-10.21
998.256	-6.41
998.682	-7.51
999.108	-13.41
999.534	-4.31
999.959	-2.41
1000.385	1.19
1000.811	3.59
1001.236	-11.61
1001.662	-7.01
1002.087	-4.51
1002.513	0.09
1002.938	8.39
1003.364	-0.81
1003.789	2.19
1004.215	6.59
1004.64	0.09
1005.066	-0.41
1005.491	1.69
1005.916	-4.01
1006.342	-3.11
1006.767	-9.41
1007.192	3.19
1007.617	-4.21
1008.042	-2.61
1008.468	-7.31
1008.893	-3.11
1009.318	-8.61
1009.743	-3.01
1010.168	2.89
1010.593	-2.51
1011.018	-7.91
1011.443	1.79
1011.868	5.29
1012.293	-3.21
1012.718	-6.91
1013.143	0.99
1013.567	-4.21
1013.992	-7.11
1014.417	-12.11
1014.842	-1.41
1015.267	-7.91
1015.691	-2.31
1016.116	4.89
1016.541	1.79
1016.965	0.29
1017.39	7.79
1017.814	2.29
1018.239	-0.41
1018.663	-5.81
1019.088	-13.01
1019.512	-5.51
1019.937	-4.91
1020.361	-3.91
1020.785	-8.71
1021.21	-0.61
1021.634	-6.71
1022.058	-2.41
1022.483	1.89
1022.907	-7.51
1023.331	-6.81
1023.755	-7.31
1024.179	-0.11
1024.604	-6.71
1025.028	-6.91
1025.452	-5.51
1025.876	-2.71
1026.3	2.99
1026.724	-6.91
1027.148	-4.21
1027.572	-8.81
1027.996	-2.21
1028.42	0.89
1028.843	-1.11
1029.267	-7.41
1029.691	-0.41
1030.115	-10.81
1030.539	-6.61
1030.962	-1.11
1031.386	-11.61
1031.81	-4.51
1032.233	-5.51
1032.657	1.09
1033.08	-1.81
1033.504	-3.41
1033.927	-3.41
1034.351	-4.01
1034.774	-4.61
1035.198	-5.71
1035.621	-4.21
1036.045	-3.51
1036.468	3.29
1036.891	-9.71
1037.315	-8.51
1037.738	-8.91
1038.161	-1.81
1038.584	-2.71
1039.008	-5.31
1039.431	-2.41
1039.854	-4.31
1040.277	-10.71
1040.7	-10.81
1041.123	0.69
1041.546	-10.61
1041.969	-0.81
1042.392	0.49
1042.815	1.69
1043.238	-0.81
1043.661	-0.61
1044.084	-8.71
1044.507	-3.91
1044.93	-4.01
1045.352	-5.71
1045.775	0.49
1046.198	-2.21
1046.621	0.49
1047.043	-4.61
1047.466	4.39
1047.889	-6.31
1048.311	-8.61
1048.734	0.69
1049.156	-2.21
1049.579	-0.61
1050.001	-5.71
1050.424	1.39
1050.846	-4.11
1051.269	-3.71
1051.691	-4.11
1052.113	-5.91
1052.536	0.79
1052.958	-3.01
1053.38	-2.61
1053.802	-7.91
1054.225	1.59
1054.647	-4.81
1055.069	-9.51
1055.491	2.89
1055.913	-13.11
1056.335	3.19
1056.757	-7.61
1057.179	-0.51
1057.601	-6.81
1058.023	-4.41
1058.445	-1.71
1058.867	-8.91
1059.289	-4.51
1059.711	-4.61
1060.133	-2.31
1060.555	-4.61
1060.976	-7.21
1061.398	-1.61
1061.82	-4.91
1062.241	-6.11
1062.663	-5.61
1063.085	2.49
1063.506	4.09
1063.928	-4.41
1064.35	-4.31
1064.771	-15.21
1065.193	-2.61
1065.614	-8.21
1066.035	3.79
1066.457	-4.51
1066.878	3.89
1067.3	-5.61
1067.721	-1.31
1068.142	-5.81
1068.564	-2.61
1068.985	-7.81
1069.406	-5.91
1069.827	-4.01
1070.248	-7.31
1070.67	-6.81
1071.091	-9.71
1071.512	-4.41
1071.933	-7.81
1072.354	-7.31
1072.775	-2.41
1073.196	-12.01
1073.617	0.29
1074.038	-10.01
1074.459	-1.51
1074.88	-13.01
1075.3	2.69
1075.721	-6.41
1076.142	3.89
1076.563	0.89
1076.983	-6.51
1077.404	-6.41
1077.825	-8.61
1078.246	-3.11
1078.666	-12.51
1079.087	-2.61
1079.507	-8.51
1079.928	-3.61
1080.348	-8.01
1080.769	-8.21
1081.189	-2.51
1081.61	-1.51
1082.03	-10.41
1082.451	-8.41
1082.871	-2.51
1083.291	-10.11
1083.711	-8.21
1084.132	-2.31
1084.552	-4.41
1084.972	0.49
1085.392	-10.31
1085.813	-8.21
1086.233	-11.01
1086.653	-11.81
1087.073	0.19
1087.493	-5.31
1087.913	-6.51
1088.333	-7.71
1088.753	-2.31
1089.173	0.19
1089.593	1.39
1090.013	-0.11
1090.433	6.99
1090.852	-1.41
1091.272	1.39
1091.692	-6.01
1092.112	-0.21
1092.531	-8.11
1092.951	-12.71
1093.371	-3.61
1093.79	4.79
1094.21	-8.21
1094.63	-9.91
1095.049	-4.91
1095.469	-2.11
1095.888	-5.71
1096.308	-0.91
1096.727	1.89
1097.146	-6.41
1097.566	6.19
1097.985	-5.11
1098.405	-2.91
1098.824	-6.31
1099.243	-8.81
1099.662	-4.31
1100.082	-10.71
1100.501	-2.61
1100.92	-2.71
1101.339	-5.91
1101.758	-0.01
