Data from 20171114-ORNL-Ar_H_NY_Subt18_08-04-26-903.txt Node
Date: Tue Nov 14 08:04:26 EST 2017
User: Ender
Spectrometer: HR+D1039
Trigger mode: 0
Integration Time (sec): 2.730000E-2
Scans to average: 10
Electric dark correction enabled: true
Nonlinearity correction enabled: false
Boxcar width: 0
XAxis mode: Wavelengths
Number of Pixels in Spectrum: 2048
>>>>>Begin Spectral Data<<<<<
187.836	-4.63
188.309	-4.63
188.782	-4.63
189.255	-6.83
189.728	-1.73
190.201	0.77
190.674	2.87
191.147	4.77
191.619	-4.53
192.092	-1.83
192.565	4.97
193.038	1.07
193.511	0.47
193.984	-0.63
194.456	-0.53
194.929	1.87
195.402	-0.63
195.874	4.57
196.347	2.47
196.82	-3.73
197.292	1.67
197.765	-4.13
198.237	-8.13
198.71	2.87
199.182	2.57
199.655	6.77
200.127	1.97
200.6	2.57
201.072	0.27
201.544	-6.23
202.017	-0.63
202.489	5.27
202.961	1.67
203.433	-1.43
203.906	-5.33
204.378	-3.03
204.85	-3.03
205.322	-7.03
205.794	-1.53
206.266	-6.33
206.739	-8.23
207.211	-6.13
207.683	-4.73
208.155	-2.13
208.627	-0.93
209.099	-8.23
209.57	-13.53
210.042	-3.63
210.514	-6.73
210.986	-7.63
211.458	-5.63
211.93	-0.23
212.402	3.47
212.873	-7.83
213.345	-10.23
213.817	-10.23
214.288	-4.13
214.76	-11.23
215.232	0.67
215.703	-1.63
216.175	-4.23
216.646	1.57
217.118	-5.73
217.589	-7.13
218.061	-0.43
218.532	-2.43
219.004	1.07
219.475	-5.73
219.946	-5.63
220.418	-2.83
220.889	5.77
221.36	0.47
221.832	-2.33
222.303	-5.83
222.774	9.87
223.245	-10.13
223.717	-6.83
224.188	-7.63
224.659	-9.93
225.13	-3.83
225.601	-3.33
226.072	0.07
226.543	-2.03
227.014	0.57
227.485	4.07
227.956	-3.83
228.427	-3.03
228.898	1.57
229.369	4.07
229.839	-0.33
230.31	-4.43
230.781	6.27
231.252	-3.43
231.722	-8.43
232.193	1.17
232.664	0.87
233.135	-1.93
233.605	-7.43
234.076	-3.23
234.546	1.17
235.017	7.17
235.487	2.27
235.958	1.27
236.428	-1.73
236.899	1.87
237.369	10.17
237.84	-0.73
238.31	6.17
238.78	3.37
239.251	5.47
239.721	-0.53
240.191	7.27
240.662	1.87
241.132	-2.13
241.602	-5.13
242.072	6.57
242.542	11.97
243.013	-3.03
243.483	5.07
243.953	4.87
244.423	2.17
244.893	-1.13
245.363	3.77
245.833	3.97
246.303	0.17
246.773	5.47
247.243	7.97
247.712	2.87
248.182	4.77
248.652	2.87
249.122	-0.73
249.592	16.97
250.061	29.77
250.531	36.77
251.001	23.07
251.471	23.67
251.94	22.27
252.41	7.67
252.879	0.17
253.349	11.97
253.818	10.47
254.288	7.67
254.757	5.27
255.227	5.97
255.696	2.57
256.166	13.67
256.635	4.57
257.105	8.57
257.574	10.97
258.043	7.67
258.513	14.77
258.982	20.07
259.451	7.37
259.92	21.07
260.389	12.87
260.859	13.47
261.328	5.17
261.797	22.37
262.266	12.77
262.735	13.57
263.204	8.27
263.673	1.47
264.142	8.97
264.611	-3.83
265.08	2.17
265.549	4.57
266.018	7.87
266.487	4.77
266.955	0.07
267.424	5.67
267.893	8.67
268.362	10.67
268.83	3.67
269.299	17.97
269.768	7.77
270.236	7.97
270.705	5.27
271.174	6.97
271.642	7.87
272.111	13.07
272.579	17.17
273.048	29.77
273.516	28.07
273.985	25.37
274.453	20.77
274.922	17.17
275.39	17.57
275.858	5.07
276.327	17.27
276.795	20.27
277.263	12.17
277.731	31.57
278.2	54.57
278.668	58.97
279.136	48.47
279.604	25.67
280.072	14.27
280.54	14.47
281.008	17.37
281.477	15.67
281.945	18.27
282.413	24.37
282.881	18.57
283.348	14.87
283.816	15.57
284.284	19.47
284.752	27.67
285.22	21.87
285.688	22.47
286.156	23.07
286.623	45.47
287.091	46.47
287.559	32.77
288.026	15.37
288.494	13.17
288.962	7.47
289.429	13.87
289.897	23.07
290.364	18.27
290.832	21.57
291.3	13.17
291.767	20.47
292.234	19.47
292.702	17.97
293.169	17.97
293.637	24.07
294.104	21.87
294.571	12.17
295.039	20.77
295.506	17.97
295.973	17.67
296.44	20.87
296.908	20.57
297.375	19.17
297.842	21.77
298.309	19.57
298.776	13.77
299.243	21.37
299.71	10.37
300.177	22.67
300.644	17.27
301.111	21.97
301.578	26.77
302.045	20.67
302.512	21.97
302.979	25.87
303.446	26.77
303.913	16.07
304.379	26.87
304.846	25.57
305.313	25.87
305.78	26.67
306.246	26.67
306.713	29.77
307.18	22.17
307.646	24.87
308.113	27.27
308.579	21.07
309.046	29.67
309.512	27.17
309.979	15.37
310.445	31.07
310.912	26.37
311.378	31.07
311.845	31.57
312.311	35.67
312.777	35.17
313.244	38.07
313.71	37.97
314.176	30.67
314.642	36.17
315.109	31.57
315.575	35.77
316.041	41.27
316.507	35.77
316.973	40.97
317.439	32.27
317.905	41.87
318.371	39.67
318.837	40.67
319.303	32.87
319.769	35.57
320.235	35.67
320.701	33.97
321.167	36.57
321.633	34.57
322.099	39.37
322.564	43.97
323.03	38.97
323.496	37.27
323.962	45.37
324.427	33.17
324.893	42.37
325.359	31.67
325.824	39.67
326.29	39.57
326.755	39.07
327.221	45.97
327.686	39.17
328.152	46.67
328.617	46.57
329.083	50.27
329.548	50.17
330.014	48.67
330.479	41.27
330.944	41.27
331.41	43.77
331.875	49.27
332.34	41.27
332.805	43.87
333.271	45.27
333.736	44.27
334.201	54.17
334.666	48.47
335.131	48.57
335.596	57.47
336.061	51.17
336.526	42.57
336.991	48.17
337.456	57.57
337.921	47.67
338.386	43.97
338.851	48.67
339.316	49.77
339.781	51.07
340.246	46.37
340.711	49.07
341.175	46.37
341.64	43.57
342.105	49.37
342.569	54.27
343.034	56.47
343.499	48.17
343.963	51.07
344.428	63.67
344.893	61.47
345.357	56.57
345.822	59.67
346.286	66.97
346.751	72.07
347.215	62.77
347.679	73.67
348.144	98.77
348.608	77.47
349.073	70.17
349.537	73.17
350.001	80.07
350.465	86.77
350.93	80.17
351.394	78.47
351.858	71.97
352.322	86.97
352.786	81.07
353.25	100.97
353.715	106.37
354.179	99.07
354.643	115.67
355.107	115.37
355.571	102.57
356.035	99.67
356.498	114.27
356.962	110.97
357.426	121.87
357.89	112.17
358.354	89.07
358.818	79.07
359.281	73.37
359.745	76.37
360.209	76.27
360.673	75.97
361.136	71.47
361.6	75.87
362.064	77.67
362.527	86.37
362.991	86.77
363.454	80.87
363.918	73.87
364.381	69.97
364.845	80.07
365.308	75.57
365.772	82.97
366.235	79.87
366.698	78.27
367.162	85.07
367.625	84.57
368.088	82.27
368.552	83.47
369.015	85.07
369.478	88.57
369.941	97.97
370.404	93.37
370.867	102.67
371.331	97.17
371.794	111.67
372.257	109.17
372.72	112.27
373.183	110.47
373.646	95.57
374.109	96.17
374.572	99.27
375.035	105.27
375.497	108.47
375.96	105.07
376.423	100.17
376.886	105.47
377.349	111.17
377.811	92.77
378.274	102.57
378.737	99.17
379.199	111.77
379.662	110.77
380.125	111.67
380.587	109.97
381.05	113.67
381.512	119.47
381.975	121.57
382.437	119.97
382.9	113.27
383.362	125.87
383.825	132.87
384.287	138.57
384.75	134.27
385.212	128.37
385.674	129.17
386.136	129.67
386.599	119.57
387.061	117.37
387.523	115.87
387.985	127.07
388.447	138.97
388.91	136.87
389.372	147.37
389.834	140.57
390.296	132.57
390.758	139.77
391.22	156.57
391.682	189.87
392.144	259.37
392.606	208.97
393.068	154.07
393.529	164.67
393.991	148.07
394.453	138.87
394.915	147.27
395.377	177.47
395.838	192.97
396.3	144.27
396.762	130.77
397.224	120.47
397.685	119.07
398.147	125.07
398.608	117.67
399.07	120.77
399.531	120.37
399.993	130.67
400.454	150.97
400.916	135.97
401.377	135.87
401.839	146.07
402.3	140.07
402.762	159.97
403.223	164.37
403.684	155.27
404.145	153.07
404.607	148.67
405.068	158.07
405.529	154.17
405.99	175.47
406.451	156.47
406.913	154.37
407.374	149.87
407.835	153.17
408.296	153.67
408.757	156.37
409.218	165.67
409.679	164.07
410.14	166.77
410.601	166.27
411.062	168.17
411.522	174.17
411.983	180.37
412.444	163.87
412.905	171.27
413.366	169.17
413.826	175.27
414.287	205.67
414.748	244.67
415.208	234.07
415.669	201.57
416.13	193.67
416.59	187.27
417.051	201.07
417.511	210.97
417.972	223.97
418.432	237.97
418.893	270.57
419.353	228.47
419.814	186.67
420.274	166.87
420.734	166.27
421.195	178.67
421.655	180.47
422.115	181.47
422.576	172.27
423.036	178.17
423.496	192.17
423.956	201.47
424.416	219.17
424.876	249.27
425.336	237.77
425.797	242.27
426.257	235.47
426.717	221.87
427.177	216.57
427.637	208.97
428.097	220.27
428.556	229.27
429.016	254.47
429.476	246.87
429.936	252.77
430.396	255.77
430.856	268.77
431.315	285.47
431.775	316.77
432.235	348.37
432.694	316.87
433.154	322.57
433.614	352.97
434.073	306.37
434.533	261.07
434.993	250.87
435.452	257.57
435.912	271.27
436.371	257.47
436.83	256.37
437.29	245.47
437.749	228.17
438.209	232.47
438.668	242.47
439.127	261.37
439.587	246.67
440.046	236.07
440.505	239.07
440.964	252.37
441.424	293.37
441.883	282.57
442.342	236.47
442.801	200.97
443.26	196.77
443.719	202.27
444.178	203.97
444.637	196.27
445.096	202.37
445.555	209.37
446.014	210.07
446.473	207.67
446.932	211.67
447.391	206.57
447.849	208.07
448.308	207.47
448.767	196.87
449.226	226.77
449.685	217.07
450.143	226.37
450.602	227.97
451.061	210.47
451.519	218.17
451.978	215.77
452.436	218.47
452.895	217.47
453.353	236.17
453.812	225.37
454.27	222.67
454.729	217.67
455.187	221.37
455.646	227.57
456.104	231.57
456.562	241.97
457.021	240.37
457.479	239.67
457.937	244.77
458.395	241.07
458.854	229.77
459.312	230.07
459.77	253.07
460.228	233.27
460.686	225.47
461.144	232.57
461.602	222.57
462.06	219.07
462.518	235.57
462.976	236.27
463.434	238.77
463.892	252.17
464.35	256.27
464.808	268.27
465.266	251.87
465.724	249.17
466.181	252.27
466.639	259.27
467.097	266.37
467.555	281.97
468.012	286.17
468.47	290.17
468.928	302.97
469.385	320.17
469.843	313.87
470.3	319.07
470.758	331.77
471.215	351.07
471.673	381.37
472.13	365.97
472.588	372.87
473.045	341.67
473.503	342.97
473.96	370.47
474.417	373.67
474.875	397.17
475.332	433.87
475.789	429.97
476.246	434.47
476.704	445.67
477.161	467.17
477.618	480.07
478.075	524.27
478.532	562.77
478.989	629.47
479.446	735.57
479.903	719.07
480.36	748.57
480.817	800.97
481.274	895.67
481.731	994.47
482.188	1072.07
482.645	1199.27
483.102	1292.67
483.558	1407.37
484.015	1472.07
484.472	1440.87
484.929	1395.87
485.385	1356.37
485.842	1329.67
486.299	1274.37
486.755	1199.47
487.212	1012.37
487.668	858.67
488.125	807.37
488.582	724.47
489.038	699.27
489.494	659.27
489.951	635.97
490.407	620.57
490.864	601.97
491.32	592.27
491.776	594.57
492.233	597.57
492.689	557.97
493.145	557.57
493.602	553.77
494.058	572.47
494.514	575.17
494.97	580.07
495.426	597.97
495.882	572.67
496.338	563.37
496.794	579.77
497.251	570.77
497.707	597.07
498.163	586.17
498.618	589.87
499.074	603.87
499.53	624.07
499.986	624.77
500.442	588.77
500.898	584.87
501.354	587.97
501.809	596.67
502.265	593.87
502.721	601.47
503.177	625.87
503.632	613.17
504.088	624.27
504.543	659.47
504.999	653.97
505.455	611.37
505.91	583.47
506.366	588.87
506.821	577.87
507.277	570.27
507.732	583.27
508.187	578.07
508.643	586.37
509.098	584.27
509.553	608.27
510.009	616.77
510.464	617.57
510.919	637.97
511.375	638.07
511.83	658.27
512.285	657.17
512.74	706.17
513.195	713.87
513.65	713.97
514.105	712.37
514.56	723.37
515.015	734.07
515.47	752.77
515.925	727.97
516.38	729.87
516.835	735.97
517.29	723.27
517.745	717.97
518.2	711.47
518.655	698.37
519.109	691.57
519.564	694.17
520.019	682.47
520.474	676.27
520.928	676.87
521.383	662.87
521.838	660.17
522.292	669.87
522.747	653.37
523.201	658.47
523.656	645.97
524.11	639.77
524.565	635.77
525.019	634.47
525.474	653.57
525.928	653.57
526.382	644.47
526.837	643.37
527.291	644.47
527.745	645.47
528.2	644.37
528.654	632.57
529.108	632.27
529.562	631.57
530.016	638.57
530.47	646.07
530.925	642.77
531.379	641.87
531.833	647.07
532.287	644.37
532.741	649.37
533.195	649.07
533.649	652.77
534.103	662.07
534.556	657.17
535.01	651.17
535.464	647.47
535.918	662.87
536.372	663.57
536.826	663.27
537.279	653.57
537.733	655.87
538.187	663.37
538.64	654.27
539.094	660.87
539.548	666.57
540.001	661.67
540.455	663.77
540.908	670.57
541.362	673.17
541.815	677.57
542.269	685.57
542.722	693.87
543.175	706.57
543.629	702.87
544.082	719.07
544.536	716.77
544.989	708.57
545.442	716.27
545.895	721.37
546.349	720.17
546.802	717.67
547.255	726.37
547.708	734.67
548.161	748.17
548.614	745.97
549.067	750.27
549.52	753.87
549.973	742.57
550.426	747.07
550.879	724.17
551.332	729.97
551.785	740.27
552.238	736.17
552.691	748.37
553.144	764.57
553.596	769.77
554.049	780.47
554.502	820.17
554.955	829.17
555.407	829.37
555.86	818.57
556.313	806.97
556.765	812.47
557.218	811.47
557.67	801.57
558.123	806.17
558.576	801.17
559.028	798.27
559.48	807.97
559.933	788.17
560.385	759.77
560.838	731.87
561.29	702.57
561.742	712.77
562.195	686.97
562.647	691.67
563.099	702.27
563.551	698.07
564.004	699.87
564.456	696.47
564.908	693.27
565.36	671.77
565.812	660.97
566.264	649.47
566.716	652.17
567.168	644.17
567.62	656.57
568.072	630.67
568.524	626.27
568.976	614.77
569.428	605.37
569.88	597.57
570.332	605.57
570.784	616.37
571.235	616.17
571.687	625.77
572.139	626.07
572.59	643.27
573.042	634.97
573.494	642.97
573.945	644.97
574.397	615.67
574.849	618.67
575.3	619.87
575.752	611.87
576.203	607.97
576.655	608.57
577.106	601.37
577.557	593.17
578.009	599.47
578.46	592.97
578.912	583.87
579.363	597.27
579.814	593.67
580.265	590.87
580.717	606.97
581.168	601.67
581.619	601.17
582.07	607.17
582.521	603.57
582.972	591.37
583.423	598.87
583.875	607.17
584.326	621.07
584.777	663.17
585.227	722.67
585.678	794.77
586.129	867.27
586.58	930.37
587.031	1010.97
587.482	1150.57
587.933	1306.97
588.384	1143.27
588.834	864.17
589.285	713.67
589.736	695.77
590.186	680.17
590.637	679.47
591.088	659.37
591.538	655.57
591.989	646.97
592.439	646.87
592.89	635.07
593.34	624.77
593.791	625.07
594.241	620.97
594.692	614.97
595.142	617.67
595.593	613.07
596.043	622.07
596.493	619.57
596.943	627.77
597.394	641.57
597.844	636.47
598.294	639.17
598.744	659.87
599.195	674.97
599.645	711.37
600.095	752.77
600.545	807.37
600.995	853.17
601.445	901.17
601.895	942.97
602.345	991.27
602.795	987.67
603.245	941.77
603.695	892.17
604.145	848.97
604.594	797.37
605.044	749.77
605.494	694.77
605.944	660.47
606.393	635.77
606.843	640.47
607.293	641.67
607.743	636.97
608.192	641.67
608.642	658.97
609.091	672.57
609.541	672.17
609.99	669.17
610.44	666.47
610.889	625.37
611.339	603.17
611.788	595.57
612.238	615.47
612.687	626.97
613.136	617.27
613.586	634.87
614.035	636.97
614.484	644.57
614.933	652.77
615.383	643.77
615.832	638.77
616.281	624.57
616.73	597.47
617.179	586.87
617.628	558.07
618.077	542.67
618.526	538.07
618.975	534.07
619.424	528.57
619.873	525.57
620.322	533.27
620.771	524.67
621.22	529.87
621.669	514.87
622.118	507.67
622.567	504.27
623.015	492.67
623.464	489.17
623.913	486.87
624.361	480.57
624.81	482.87
625.259	470.97
625.707	484.37
626.156	483.77
626.604	488.57
627.053	485.97
627.501	484.87
627.95	489.07
628.398	503.17
628.847	497.87
629.295	501.27
629.744	492.27
630.192	492.97
630.64	488.97
631.089	485.07
631.537	490.17
631.985	494.77
632.433	509.57
632.881	516.87
633.33	558.77
633.778	530.27
634.226	475.27
634.674	488.97
635.122	500.07
635.57	503.97
636.018	529.57
636.466	507.27
636.914	476.27
637.362	488.47
637.81	490.77
638.258	494.07
638.705	493.27
639.153	519.57
639.601	520.47
640.049	543.57
640.497	574.87
640.944	602.07
641.392	554.47
641.84	517.27
642.287	499.17
642.735	485.17
643.182	487.17
643.63	485.37
644.078	488.77
644.525	499.07
644.973	509.37
645.42	504.77
645.867	536.07
646.315	541.47
646.762	552.17
647.21	580.87
647.657	605.97
648.104	640.97
648.551	651.77
648.999	705.17
649.446	773.27
649.893	830.17
650.34	969.07
650.787	1142.17
651.234	1430.97
651.682	1841.77
652.129	2527.47
652.576	3623.17
653.023	5373.47
653.47	7402.67
653.917	9362.57
654.363	10960.97
654.81	12349.77
655.257	11733.67
655.704	7602.87
656.151	4462.07
656.598	2902.17
657.044	2048.57
657.491	1565.47
657.938	1262.07
658.385	1054.57
658.831	912.07
659.278	813.87
659.724	718.47
660.171	669.77
660.618	605.97
661.064	579.77
661.511	561.57
661.957	552.57
662.404	533.87
662.85	538.37
663.296	513.27
663.743	471.17
664.189	453.97
664.635	448.67
665.082	444.47
665.528	441.47
665.974	437.77
666.42	429.97
666.867	425.47
667.313	410.67
667.759	394.87
668.205	400.77
668.651	405.77
669.097	406.37
669.543	418.77
669.989	388.87
670.435	371.47
670.881	375.47
671.327	382.17
671.773	388.57
672.219	409.97
672.665	454.67
673.11	486.57
673.556	529.77
674.002	566.07
674.448	553.57
674.893	464.57
675.339	399.47
675.785	370.37
676.23	354.67
676.676	328.17
677.122	323.97
677.567	311.37
678.013	316.57
678.458	296.77
678.904	307.57
679.349	289.17
679.794	291.77
680.24	291.17
680.685	283.07
681.131	291.07
681.576	293.17
682.021	292.97
682.466	287.67
682.912	290.47
683.357	288.77
683.802	312.87
684.247	339.47
684.692	375.67
685.137	415.67
685.583	448.77
686.028	470.37
686.473	441.37
686.918	377.57
687.363	356.17
687.807	334.17
688.252	306.67
688.697	287.77
689.142	288.87
689.587	275.27
690.032	262.17
690.477	284.07
690.921	288.97
691.366	315.17
691.811	330.77
692.255	355.57
692.7	389.27
693.145	413.67
693.589	558.07
694.034	909.97
694.478	1283.07
694.923	1474.27
695.367	1965.17
695.812	1007.97
696.256	415.87
696.701	308.37
697.145	288.97
697.59	271.67
698.034	261.37
698.478	274.67
698.922	282.17
699.367	271.87
699.811	287.27
700.255	294.17
700.699	317.67
701.143	359.27
701.588	390.07
702.032	425.77
702.476	428.27
702.92	411.07
703.364	401.37
703.808	514.17
704.252	835.27
704.696	1187.77
705.14	1414.07
705.584	1827.67
706.027	896.57
706.471	423.77
706.915	326.97
707.359	288.07
707.803	264.07
708.246	257.07
708.69	254.67
709.134	257.87
709.577	258.97
710.021	266.87
710.465	251.27
710.908	249.07
711.352	247.47
711.795	265.57
712.239	288.57
712.682	314.97
713.126	351.87
713.569	392.67
714.012	312.77
714.456	269.87
714.899	248.97
715.342	222.27
715.786	208.37
716.229	220.17
716.672	213.67
717.115	211.47
717.558	208.87
718.002	209.87
718.445	213.57
718.888	239.07
719.331	241.47
719.774	257.37
720.217	249.27
720.66	229.77
721.103	215.77
721.546	213.27
721.989	215.27
722.432	192.87
722.874	200.77
723.317	196.87
723.76	198.47
724.203	216.47
724.645	265.87
725.088	356.07
725.531	467.37
725.974	546.77
726.416	462.27
726.859	257.77
727.301	199.07
727.744	197.77
728.187	186.77
728.629	204.47
729.071	208.87
729.514	212.17
729.956	223.97
730.399	233.47
730.841	236.37
731.283	220.07
731.726	219.37
732.168	215.57
732.61	222.37
733.053	230.67
733.495	256.47
733.937	291.27
734.379	328.67
734.821	355.97
735.263	439.37
735.705	669.87
736.148	1269.07
736.59	2133.87
737.032	2618.07
737.474	2124.07
737.916	677.07
738.357	357.17
738.799	270.17
739.241	243.17
739.683	233.37
740.125	239.37
740.567	245.67
741.008	263.47
741.45	262.67
741.892	265.97
742.334	286.97
742.775	298.67
743.217	295.27
743.658	229.37
744.1	206.37
744.542	211.87
744.983	259.27
745.425	297.37
745.866	295.37
746.307	236.87
746.749	233.17
747.19	265.37
747.632	371.07
748.073	687.37
748.514	1493.67
748.956	2378.87
749.397	2977.27
749.838	2470.47
750.279	2552.57
750.72	1275.77
751.162	454.77
751.603	261.37
752.044	209.07
752.485	180.17
752.926	172.17
753.367	168.37
753.808	161.87
754.249	152.27
754.69	151.27
755.131	149.07
755.572	151.37
756.013	149.87
756.453	154.17
756.894	151.57
757.335	155.07
757.776	161.57
758.216	159.17
758.657	158.67
759.098	169.57
759.538	190.07
759.979	219.47
760.42	300.27
760.86	550.07
761.301	1451.97
761.741	3592.07
762.182	5562.47
762.622	3920.37
763.063	1108.17
763.503	447.07
763.943	284.27
764.384	277.37
764.824	328.37
765.264	360.57
765.705	247.77
766.145	169.27
766.585	149.97
767.025	149.07
767.465	149.57
767.906	197.67
768.346	249.97
768.786	269.67
769.226	210.27
769.666	261.87
770.106	491.17
770.546	1222.97
770.986	2255.97
771.426	2034.17
771.866	665.67
772.306	271.47
772.745	173.37
773.185	137.37
773.625	132.57
774.065	137.17
774.505	156.27
774.944	228.17
775.384	513.57
775.824	968.67
776.263	969.47
776.703	410.97
777.142	176.27
777.582	120.77
778.021	113.67
778.461	116.67
778.9	111.87
779.34	108.97
779.779	98.37
780.219	90.37
780.658	93.37
781.097	86.97
781.537	92.87
781.976	89.57
782.415	83.67
782.855	89.87
783.294	85.67
783.733	89.17
784.172	91.47
784.611	86.27
785.05	94.77
785.489	94.67
785.928	101.87
786.367	97.97
786.806	97.37
787.245	110.47
787.684	109.37
788.123	125.07
788.562	109.37
789.001	102.27
789.44	102.87
789.879	100.57
790.317	96.67
790.756	106.07
791.195	104.77
791.634	123.07
792.072	162.47
792.511	286.37
792.95	801.67
793.388	1788.47
793.827	1667.67
794.265	570.57
794.704	231.27
795.142	148.57
795.581	127.17
796.019	116.77
796.458	108.27
796.896	97.07
797.334	112.57
797.773	127.37
798.211	180.37
798.649	347.97
799.087	833.57
799.526	1326.77
799.964	1659.77
800.402	1742.87
800.84	636.67
801.278	250.67
801.716	154.37
802.154	130.27
802.592	120.97
803.03	117.17
803.468	110.77
803.906	114.27
804.344	130.47
804.782	115.27
805.22	108.77
805.658	106.47
806.096	120.97
806.533	133.27
806.971	149.27
807.409	174.77
807.847	261.67
808.284	517.77
808.722	1515.57
809.16	2781.27
809.597	2562.67
810.035	4549.67
810.472	5099.57
810.91	1799.97
811.347	668.97
811.785	331.27
812.222	215.67
812.66	166.07
813.097	138.67
813.535	119.77
813.972	105.27
814.409	99.87
814.846	93.07
815.284	89.27
815.721	82.17
816.158	87.57
816.595	99.27
817.032	137.97
817.47	168.37
817.907	139.07
818.344	120.17
818.781	86.77
819.218	77.47
819.655	104.07
820.092	157.17
820.529	182.77
820.966	147.37
821.403	109.67
821.839	91.07
822.276	88.27
822.713	103.17
823.15	116.07
823.587	97.67
824.023	114.57
824.46	241.97
824.897	730.47
825.333	1168.97
825.77	492.87
826.206	192.87
826.643	106.37
827.08	90.47
827.516	70.17
827.953	64.27
828.389	73.97
828.825	55.97
829.262	57.27
829.698	49.87
830.135	53.87
830.571	47.97
831.007	55.67
831.443	49.27
831.88	52.57
832.316	52.27
832.752	54.07
833.188	56.07
833.624	49.17
834.06	55.07
834.497	54.57
834.933	59.67
835.369	64.37
835.805	55.97
836.241	58.57
836.677	68.97
837.112	73.27
837.548	80.97
837.984	107.57
838.42	162.57
838.856	396.77
839.292	1243.07
839.727	1987.77
840.163	914.87
840.599	751.97
841.034	1698.17
841.47	1861.27
841.906	663.77
842.341	281.87
842.777	181.97
843.212	250.77
843.648	256.77
844.083	117.47
844.519	80.47
844.954	63.47
845.39	41.57
845.825	52.97
846.261	49.07
846.696	42.17
847.131	40.97
847.566	58.47
848.002	43.57
848.437	45.07
848.872	48.47
849.307	48.07
849.742	66.97
850.177	143.97
850.613	454.27
851.048	744.07
851.483	321.27
851.918	125.57
852.353	72.97
852.788	51.17
853.223	48.97
853.657	46.47
854.092	39.67
854.527	35.07
854.962	31.77
855.397	34.87
855.832	45.07
856.266	37.77
856.701	34.27
857.136	34.07
857.57	35.17
858.005	40.47
858.44	55.47
858.874	35.77
859.309	50.87
859.743	27.77
860.178	40.27
860.612	33.37
861.047	44.57
861.481	56.07
861.915	57.77
862.35	46.37
862.784	29.37
863.218	33.37
863.653	28.47
864.087	36.37
864.521	49.27
864.955	50.57
865.39	126.97
865.824	153.77
866.258	93.47
866.692	137.47
867.126	153.97
867.56	85.27
867.994	40.77
868.428	28.37
868.862	42.37
869.296	47.57
869.73	48.97
870.164	51.47
870.598	40.57
871.031	31.37
871.465	29.27
871.899	24.47
872.333	21.77
872.766	23.37
873.2	19.77
873.634	26.67
874.067	21.77
874.501	21.47
874.935	30.17
875.368	22.07
875.802	19.67
876.235	23.77
876.669	24.57
877.102	20.27
877.535	23.07
877.969	15.07
878.402	19.27
878.836	17.47
879.269	19.37
879.702	24.47
880.135	21.77
880.569	19.07
881.002	25.87
881.435	15.67
881.868	9.67
882.301	17.37
882.734	15.67
883.167	19.57
883.601	18.37
884.034	22.27
884.467	12.17
884.899	16.27
885.332	13.97
885.765	15.37
886.198	14.97
886.631	12.87
887.064	9.87
887.497	17.37
887.929	21.27
888.362	9.87
888.795	11.87
889.228	13.77
889.66	18.27
890.093	14.17
890.526	19.87
890.958	12.07
891.391	18.77
891.823	18.17
892.256	13.17
892.688	12.57
893.121	11.97
893.553	15.87
893.985	20.77
894.418	19.57
894.85	8.37
895.282	12.67
895.715	7.27
896.147	12.87
896.579	16.37
897.011	9.77
897.444	6.87
897.876	9.47
898.308	16.17
898.74	10.47
899.172	10.07
899.604	17.87
900.036	22.47
900.468	10.47
900.9	11.57
901.332	16.27
901.764	8.47
902.196	11.27
902.628	12.27
903.06	13.67
903.491	26.27
903.923	27.47
904.355	25.17
904.787	24.17
905.218	18.97
905.65	16.27
906.082	8.67
906.513	6.97
906.945	18.87
907.376	12.37
907.808	17.87
908.239	20.27
908.671	17.07
909.102	15.37
909.534	19.77
909.965	35.37
910.397	75.17
910.828	273.07
911.259	411.27
911.691	189.97
912.122	89.27
912.553	47.27
912.984	28.57
913.415	19.07
913.847	20.57
914.278	11.97
914.709	11.87
915.14	17.87
915.571	13.37
916.002	9.17
916.433	14.07
916.864	14.77
917.295	13.87
917.726	14.67
918.157	8.47
918.587	25.27
919.018	21.27
919.449	20.37
919.88	25.27
920.311	22.87
920.741	34.87
921.172	136.57
921.603	134.37
922.033	63.67
922.464	40.67
922.895	18.07
923.325	24.57
923.756	12.47
924.186	15.87
924.617	21.27
925.047	30.47
925.478	39.37
925.908	34.97
926.338	19.47
926.769	15.27
927.199	13.67
927.629	5.17
928.06	9.27
928.49	12.27
928.92	15.97
929.35	6.27
929.78	13.87
930.21	2.37
930.641	5.87
931.071	8.47
931.501	3.47
931.931	8.87
932.361	7.67
932.791	-0.73
933.221	4.47
933.651	-2.73
934.08	16.67
934.51	30.07
934.94	1.57
935.37	8.67
935.8	15.57
936.229	2.87
936.659	9.67
937.089	1.27
937.519	13.47
937.948	21.57
938.378	14.77
938.807	5.77
939.237	5.77
939.666	7.97
940.096	-1.83
940.525	6.27
940.955	3.67
941.384	9.67
941.814	-1.33
942.243	-0.73
942.672	5.27
943.102	-3.43
943.531	2.27
943.96	3.67
944.39	8.47
944.819	2.77
945.248	0.47
945.677	-1.63
946.106	4.37
946.535	3.77
946.964	-1.83
947.393	8.97
947.822	-4.43
948.251	-6.03
948.68	-1.73
949.109	7.27
949.538	4.77
949.967	0.07
950.396	-4.03
950.825	-6.93
951.254	5.77
951.682	-4.73
952.111	4.27
952.54	10.37
952.969	-3.23
953.397	-10.73
953.826	-1.33
954.254	-2.23
954.683	-3.33
955.112	-2.23
955.54	-3.13
955.969	3.77
956.397	-0.43
956.826	-4.73
957.254	1.67
957.682	-0.43
958.111	8.87
958.539	-0.63
958.967	3.37
959.396	-4.33
959.824	0.97
960.252	-1.83
960.68	-4.13
961.109	-3.83
961.537	-1.93
961.965	0.37
962.393	2.97
962.821	-0.53
963.249	-0.13
963.677	2.37
964.105	1.67
964.533	36.37
964.961	28.47
965.389	20.27
965.817	12.67
966.245	-1.03
966.672	-1.73
967.1	-5.23
967.528	4.57
967.956	-6.53
968.383	-1.63
968.811	-4.83
969.239	2.47
969.666	-0.03
970.094	4.77
970.522	0.07
970.949	-4.33
971.377	-1.13
971.804	-7.23
972.232	0.77
972.659	-6.63
973.087	-0.83
973.514	-5.83
973.941	-5.53
974.369	4.07
974.796	1.57
975.223	-3.13
975.651	-3.73
976.078	3.27
976.505	-4.03
976.932	0.77
977.359	15.37
977.786	11.57
978.214	2.17
978.641	-4.93
979.068	-0.43
979.495	-5.43
979.922	2.07
980.349	-2.23
980.776	5.27
981.202	2.17
981.629	7.27
982.056	6.97
982.483	-5.23
982.91	7.47
983.337	-10.03
983.763	3.57
984.19	-3.43
984.617	-1.23
985.043	-9.83
985.47	-0.73
985.897	-4.73
986.323	-10.13
986.75	7.07
987.176	0.67
987.603	-2.43
988.029	-1.43
988.456	-3.83
988.882	-0.83
989.308	-3.23
989.735	-6.63
990.161	6.87
990.587	-0.03
991.014	-1.33
991.44	0.57
991.866	-10.93
992.292	-6.23
992.719	-5.83
993.145	4.27
993.571	-12.13
993.997	-9.73
994.423	-3.53
994.849	-7.23
995.275	4.37
995.701	2.47
996.127	-0.33
996.553	1.27
996.979	-1.53
997.405	-4.13
997.83	-6.23
998.256	-9.33
998.682	-6.73
999.108	-9.03
999.534	-2.73
999.959	-0.03
1000.385	-4.23
1000.811	-3.53
1001.236	-7.53
1001.662	-12.73
1002.087	-5.43
1002.513	-0.23
1002.938	4.97
1003.364	-6.33
1003.789	0.87
1004.215	1.77
1004.64	-3.33
1005.066	4.47
1005.491	-0.13
1005.916	-0.53
1006.342	-4.53
1006.767	-3.43
1007.192	3.67
1007.617	-9.93
1008.042	-4.43
1008.468	-7.43
1008.893	-1.93
1009.318	0.17
1009.743	-2.83
1010.168	2.97
1010.593	0.27
1011.018	-11.33
1011.443	-1.93
1011.868	-7.93
1012.293	-5.13
1012.718	-2.63
1013.143	-0.53
1013.567	-4.33
1013.992	-10.23
1014.417	-5.83
1014.842	-1.23
1015.267	-5.83
1015.691	-2.33
1016.116	1.37
1016.541	-1.83
1016.965	1.57
1017.39	2.17
1017.814	-5.53
1018.239	-4.73
1018.663	-8.63
1019.088	-6.43
1019.512	-5.83
1019.937	5.07
1020.361	-5.33
1020.785	-7.93
1021.21	-4.73
1021.634	-0.83
1022.058	-2.03
1022.483	4.97
1022.907	-1.23
1023.331	-7.73
1023.755	-5.43
1024.179	-4.13
1024.604	-5.23
1025.028	-8.33
1025.452	-4.73
1025.876	-3.33
1026.3	0.87
1026.724	-12.13
1027.148	-3.23
1027.572	-6.83
1027.996	-3.73
1028.42	0.77
1028.843	-5.53
1029.267	-6.93
1029.691	-2.33
1030.115	-6.63
1030.539	-2.03
1030.962	-2.73
1031.386	-7.73
1031.81	5.57
1032.233	-0.73
1032.657	1.27
1033.08	-2.03
1033.504	-9.63
1033.927	-5.93
1034.351	1.27
1034.774	-5.63
1035.198	-3.73
1035.621	-6.43
1036.045	-8.03
1036.468	2.57
1036.891	-4.83
1037.315	-3.53
1037.738	-5.53
1038.161	-0.43
1038.584	-10.53
1039.008	-3.03
1039.431	1.87
1039.854	-2.53
1040.277	-4.53
1040.7	-8.53
1041.123	0.67
1041.546	-6.33
1041.969	-7.13
1042.392	-8.23
1042.815	-2.23
1043.238	-1.23
1043.661	-0.13
1044.084	-8.13
1044.507	-2.53
1044.93	-2.63
1045.352	-4.23
1045.775	2.67
1046.198	2.87
1046.621	-4.23
1047.043	-2.93
1047.466	4.77
1047.889	-1.63
1048.311	-0.43
1048.734	-4.03
1049.156	-2.53
1049.579	-3.53
1050.001	0.07
1050.424	0.37
1050.846	-7.93
1051.269	-0.53
1051.691	-8.23
1052.113	-5.73
1052.536	-2.83
1052.958	-3.43
1053.38	-4.73
1053.802	-9.73
1054.225	2.37
1054.647	-2.43
1055.069	-2.23
1055.491	-1.23
1055.913	0.57
1056.335	2.37
1056.757	-9.13
1057.179	-2.83
1057.601	-4.73
1058.023	-0.73
1058.445	-2.73
1058.867	-4.33
1059.289	-0.13
1059.711	-4.03
1060.133	-4.23
1060.555	-1.93
1060.976	-4.13
1061.398	-10.83
1061.82	-10.03
1062.241	-3.53
1062.663	-8.63
1063.085	-9.23
1063.506	-5.73
1063.928	-9.93
1064.35	2.27
1064.771	-10.53
1065.193	-1.93
1065.614	-14.23
1066.035	-3.13
1066.457	0.77
1066.878	-1.23
1067.3	-7.43
1067.721	-5.43
1068.142	-4.23
1068.564	0.77
1068.985	-0.63
1069.406	1.27
1069.827	-0.93
1070.248	-0.53
1070.67	-7.03
1071.091	-2.43
1071.512	-2.43
1071.933	-1.83
1072.354	-5.03
1072.775	-6.43
1073.196	-1.83
1073.617	-7.33
1074.038	-4.63
1074.459	-0.63
1074.88	-2.93
1075.3	0.97
1075.721	-3.13
1076.142	-1.73
1076.563	-2.83
1076.983	-7.13
1077.404	-6.53
1077.825	-12.13
1078.246	-7.63
1078.666	-8.63
1079.087	-5.63
1079.507	-3.13
1079.928	1.07
1080.348	0.77
1080.769	0.77
1081.189	3.47
1081.61	-0.63
1082.03	-6.83
1082.451	-4.63
1082.871	-7.73
1083.291	-2.53
1083.711	-11.23
1084.132	-3.63
1084.552	-6.33
1084.972	-2.23
1085.392	-5.63
1085.813	-7.13
1086.233	-4.93
1086.653	-5.13
1087.073	-1.93
1087.493	-7.33
1087.913	-9.53
1088.333	-9.03
1088.753	-5.83
1089.173	4.07
1089.593	0.87
1090.013	2.17
1090.433	4.47
1090.852	-0.13
1091.272	-6.03
1091.692	0.77
1092.112	-5.43
1092.531	-11.73
1092.951	-19.93
1093.371	-3.53
1093.79	4.47
1094.21	-6.83
1094.63	0.57
1095.049	-4.03
1095.469	-1.13
1095.888	-1.73
1096.308	0.47
1096.727	2.57
1097.146	-9.73
1097.566	0.37
1097.985	-2.73
1098.405	-1.53
1098.824	-4.63
1099.243	-8.83
1099.662	-8.73
1100.082	-2.63
1100.501	-0.93
1100.92	-6.93
1101.339	-3.83
1101.758	-5.53
