Data from 20171114-ORNL-Ar_H_NY_Subt18_08-05-37-058.txt Node
Date: Tue Nov 14 08:05:37 EST 2017
User: Ender
Spectrometer: HR+D1039
Trigger mode: 0
Integration Time (sec): 2.730000E-2
Scans to average: 10
Electric dark correction enabled: true
Nonlinearity correction enabled: false
Boxcar width: 0
XAxis mode: Wavelengths
Number of Pixels in Spectrum: 2048
>>>>>Begin Spectral Data<<<<<
187.836	-3.38
188.309	-3.38
188.782	-3.38
189.255	1.72
189.728	-2.48
190.201	6.12
190.674	4.72
191.147	3.82
191.619	-5.58
192.092	1.92
192.565	3.92
193.038	-1.68
193.511	1.12
193.984	0.92
194.456	-3.98
194.929	-1.27
195.402	-4.28
195.874	-1.68
196.347	-1.08
196.82	-5.08
197.292	10.02
197.765	-4.48
198.237	-9.08
198.71	-5.08
199.182	-4.48
199.655	3.42
200.127	0.92
200.6	-3.78
201.072	-2.38
201.544	-6.27
202.017	-2.08
202.489	9.82
202.961	-3.27
203.433	3.72
203.906	-13.38
204.378	-5.88
204.85	-2.28
205.322	-10.98
205.794	-3.38
206.266	-3.68
206.739	-8.78
207.211	1.62
207.683	-2.27
208.155	-6.48
208.627	-8.38
209.099	-4.98
209.57	-6.27
210.042	-8.18
210.514	-2.27
210.986	-2.98
211.458	-12.98
211.93	-0.58
212.402	2.12
212.873	-5.88
213.345	-12.48
213.817	-10.08
214.288	-7.48
214.76	-16.08
215.232	-6.77
215.703	-2.38
216.175	-2.18
216.646	-3.38
217.118	-2.28
217.589	-6.08
218.061	-2.98
218.532	-5.77
219.004	-1.68
219.475	-5.08
219.946	-2.58
220.418	-7.08
220.889	2.52
221.36	-1.38
221.832	-7.28
222.303	-3.27
222.774	5.02
223.245	-8.98
223.717	-12.58
224.188	-2.48
224.659	-6.68
225.13	-5.48
225.601	-0.38
226.072	-1.88
226.543	-4.78
227.014	-0.08
227.485	-0.68
227.956	-4.98
228.427	0.42
228.898	-0.18
229.369	0.62
229.839	-4.48
230.31	-6.88
230.781	2.72
231.252	-2.38
231.722	-6.18
232.193	-4.38
232.664	1.52
233.135	6.92
233.605	-0.98
234.076	-8.28
234.546	-2.88
235.017	4.12
235.487	3.12
235.958	-5.77
236.428	-1.28
236.899	4.12
237.369	4.52
237.84	-7.38
238.31	9.22
238.78	7.62
239.251	8.92
239.721	3.52
240.191	-2.17
240.662	-3.98
241.132	7.22
241.602	-5.48
242.072	1.82
242.542	2.82
243.013	-2.18
243.483	0.82
243.953	0.23
244.423	5.12
244.893	1.82
245.363	7.32
245.833	12.72
246.303	2.82
246.773	5.92
247.243	3.62
247.712	4.62
248.182	7.52
248.652	10.92
249.122	-1.68
249.592	12.32
250.061	24.42
250.531	27.42
251.001	15.73
251.471	18.22
251.94	21.72
252.41	9.23
252.879	6.73
253.349	15.32
253.818	8.82
254.288	3.52
254.757	7.33
255.227	6.23
255.696	5.72
256.166	6.42
256.635	2.52
257.105	12.62
257.574	10.02
258.043	12.02
258.513	14.72
258.982	18.02
259.451	2.32
259.92	12.42
260.389	14.42
260.859	15.92
261.328	11.92
261.797	16.52
262.266	10.62
262.735	18.02
263.204	11.72
263.673	7.32
264.142	6.12
264.611	0.12
265.08	2.62
265.549	3.12
266.018	4.02
266.487	3.72
266.955	0.52
267.424	4.23
267.893	12.52
268.362	5.83
268.83	4.82
269.299	11.33
269.768	7.02
270.236	8.02
270.705	4.42
271.174	15.42
271.642	7.12
272.111	14.73
272.579	12.92
273.048	22.82
273.516	22.32
273.985	28.42
274.453	20.02
274.922	27.42
275.39	12.82
275.858	8.72
276.327	17.72
276.795	18.32
277.263	12.22
277.731	31.82
278.2	52.82
278.668	64.02
279.136	58.22
279.604	13.32
280.072	10.23
280.54	12.32
281.008	11.92
281.477	17.32
281.945	7.22
282.413	13.02
282.881	12.92
283.348	10.62
283.816	18.52
284.284	17.22
284.752	23.12
285.22	15.23
285.688	20.62
286.156	16.82
286.623	45.22
287.091	54.92
287.559	35.52
288.026	23.42
288.494	16.52
288.962	8.42
289.429	8.32
289.897	19.62
290.364	13.62
290.832	25.73
291.3	16.32
291.767	16.92
292.234	20.22
292.702	17.52
293.169	15.83
293.637	24.12
294.104	20.82
294.571	10.32
295.039	15.22
295.506	13.02
295.973	23.42
296.44	18.82
296.908	19.52
297.375	18.32
297.842	18.42
298.309	19.12
298.776	9.52
299.243	30.62
299.71	17.62
300.177	32.12
300.644	25.23
301.111	25.02
301.578	24.92
302.045	21.23
302.512	34.42
302.979	27.32
303.446	23.52
303.913	21.33
304.379	19.32
304.846	26.52
305.313	24.92
305.78	27.42
306.246	30.12
306.713	31.82
307.18	27.02
307.646	32.02
308.113	27.52
308.579	30.92
309.046	33.02
309.512	29.23
309.979	17.52
310.445	31.42
310.912	32.72
311.378	33.42
311.845	33.62
312.311	28.22
312.777	35.12
313.244	36.33
313.71	41.92
314.176	38.83
314.642	34.92
315.109	36.02
315.575	40.23
316.041	44.23
316.507	38.72
316.973	42.32
317.439	34.12
317.905	39.33
318.371	41.22
318.837	42.92
319.303	36.02
319.769	34.02
320.235	39.22
320.701	36.62
321.167	42.22
321.633	34.73
322.099	44.52
322.564	45.72
323.03	46.82
323.496	47.02
323.962	41.73
324.427	37.92
324.893	45.02
325.359	39.62
325.824	38.62
326.29	43.72
326.755	42.62
327.221	42.22
327.686	37.52
328.152	49.92
328.617	38.32
329.083	46.72
329.548	52.52
330.014	51.73
330.479	44.62
330.944	47.52
331.41	44.52
331.875	49.42
332.34	41.23
332.805	41.32
333.271	53.22
333.736	47.42
334.201	48.73
334.666	58.22
335.131	49.72
335.596	56.22
336.061	51.52
336.526	43.42
336.991	50.62
337.456	57.42
337.921	52.32
338.386	41.02
338.851	52.22
339.316	49.82
339.781	49.42
340.246	53.42
340.711	48.72
341.175	58.42
341.64	48.02
342.105	60.82
342.569	50.32
343.034	68.02
343.499	53.72
343.963	53.42
344.428	60.92
344.893	63.62
345.357	65.62
345.822	67.02
346.286	67.62
346.751	71.12
347.215	67.22
347.679	78.42
348.144	106.22
348.608	89.42
349.073	73.92
349.537	71.42
350.001	85.92
350.465	87.32
350.93	81.22
351.394	88.92
351.858	81.42
352.322	91.83
352.786	86.42
353.25	103.42
353.715	115.52
354.179	101.72
354.643	126.23
355.107	127.52
355.571	121.62
356.035	107.92
356.498	120.82
356.962	130.82
357.426	128.92
357.89	117.92
358.354	94.12
358.818	86.92
359.281	80.62
359.745	80.62
360.209	85.02
360.673	82.62
361.136	83.33
361.6	90.72
362.064	90.23
362.527	87.32
362.991	86.02
363.454	83.92
363.918	82.62
364.381	81.92
364.845	82.82
365.308	92.12
365.772	85.02
366.235	82.62
366.698	87.62
367.162	94.12
367.625	91.42
368.088	90.42
368.552	87.72
369.015	88.62
369.478	95.82
369.941	101.92
370.404	97.52
370.867	107.52
371.331	108.72
371.794	118.92
372.257	112.23
372.72	115.62
373.183	116.23
373.646	109.92
374.109	104.33
374.572	109.02
375.035	105.52
375.497	113.42
375.96	108.02
376.423	103.82
376.886	116.62
377.349	117.22
377.811	107.42
378.274	109.02
378.737	106.12
379.199	116.02
379.662	111.32
380.125	120.83
380.587	120.02
381.05	119.52
381.512	130.92
381.975	132.92
382.437	133.73
382.9	124.72
383.362	131.62
383.825	142.73
384.287	148.32
384.75	137.42
385.212	142.32
385.674	141.42
386.136	135.52
386.599	132.72
387.061	137.83
387.523	128.42
387.985	142.52
388.447	153.02
388.91	151.42
389.372	164.52
389.834	151.12
390.296	148.62
390.758	158.72
391.22	174.32
391.682	209.82
392.144	295.32
392.606	230.42
393.068	173.83
393.529	162.92
393.991	154.42
394.453	151.02
394.915	162.52
395.377	185.73
395.838	217.73
396.3	163.52
396.762	147.92
397.224	137.62
397.685	128.02
398.147	131.62
398.608	130.12
399.07	132.02
399.531	138.02
399.993	144.73
400.454	155.82
400.916	151.42
401.377	150.33
401.839	156.32
402.3	154.92
402.762	165.52
403.223	179.72
403.684	171.92
404.145	162.52
404.607	158.12
405.068	167.12
405.529	170.32
405.99	192.43
406.451	185.02
406.913	178.82
407.374	166.12
407.835	163.23
408.296	170.73
408.757	171.42
409.218	197.52
409.679	182.62
410.14	176.33
410.601	177.22
411.062	183.92
411.522	200.12
411.983	193.92
412.444	181.82
412.905	183.52
413.366	182.12
413.826	194.33
414.287	217.52
414.748	253.02
415.208	248.12
415.669	209.92
416.13	204.42
416.59	205.02
417.051	210.92
417.511	220.32
417.972	243.33
418.432	247.23
418.893	292.02
419.353	256.42
419.814	201.52
420.274	184.52
420.734	184.62
421.195	196.82
421.655	208.12
422.115	192.32
422.576	192.92
423.036	204.62
423.496	212.22
423.956	221.72
424.416	234.22
424.876	268.72
425.336	262.42
425.797	265.22
426.257	258.12
426.717	244.92
427.177	234.02
427.637	230.02
428.097	242.52
428.556	256.52
429.016	278.23
429.476	273.02
429.936	280.03
430.396	279.23
430.856	297.62
431.315	321.92
431.775	347.82
432.235	383.42
432.694	357.12
433.154	368.43
433.614	386.22
434.073	339.22
434.533	283.92
434.993	266.62
435.452	284.82
435.912	302.52
436.371	297.83
436.83	284.62
437.29	273.32
437.749	247.62
438.209	246.52
438.668	287.23
439.127	296.93
439.587	270.12
440.046	247.23
440.505	264.83
440.964	287.52
441.424	327.83
441.883	315.02
442.342	265.92
442.801	227.73
443.26	227.52
443.719	215.32
444.178	212.12
444.637	209.83
445.096	222.33
445.555	216.32
446.014	221.62
446.473	228.12
446.932	231.83
447.391	227.23
447.849	228.02
448.308	223.12
448.767	224.22
449.226	236.52
449.685	242.02
450.143	250.23
450.602	233.72
451.061	227.32
451.519	228.92
451.978	229.62
452.436	240.73
452.895	241.03
453.353	254.22
453.812	245.72
454.27	240.02
454.729	243.62
455.187	247.73
455.646	241.62
456.104	246.93
456.562	261.62
457.021	269.02
457.479	263.62
457.937	273.12
458.395	261.12
458.854	248.73
459.312	257.02
459.77	272.02
460.228	253.72
460.686	249.32
461.144	251.32
461.602	243.22
462.06	243.02
462.518	256.12
462.976	261.52
463.434	262.62
463.892	276.73
464.35	276.52
464.808	292.32
465.266	275.12
465.724	277.03
466.181	278.12
466.639	274.62
467.097	289.52
467.555	299.82
468.012	305.42
468.47	307.23
468.928	333.92
469.385	346.12
469.843	354.82
470.3	354.53
470.758	365.52
471.215	392.62
471.673	422.52
472.13	415.92
472.588	428.02
473.045	374.62
473.503	375.12
473.96	398.92
474.417	407.42
474.875	434.52
475.332	483.52
475.789	461.33
476.246	476.22
476.704	493.22
477.161	513.62
477.618	528.12
478.075	570.33
478.532	623.52
478.989	709.82
479.446	818.72
479.903	783.72
480.36	815.32
480.817	865.62
481.274	972.32
481.731	1085.02
482.188	1185.32
482.645	1329.62
483.102	1432.82
483.558	1573.92
484.015	1627.62
484.472	1600.92
484.929	1543.73
485.385	1507.12
485.842	1458.53
486.299	1390.42
486.755	1318.22
487.212	1112.83
487.668	949.22
488.125	864.12
488.582	797.33
489.038	749.23
489.494	728.33
489.951	691.62
490.407	663.33
490.864	652.83
491.32	653.52
491.776	653.32
492.233	660.92
492.689	620.52
493.145	615.12
493.602	607.02
494.058	620.32
494.514	622.62
494.97	643.42
495.426	655.12
495.882	631.52
496.338	628.12
496.794	627.52
497.251	628.82
497.707	643.12
498.163	648.02
498.618	658.72
499.074	663.02
499.53	682.83
499.986	688.32
500.442	664.03
500.898	641.52
501.354	626.02
501.809	641.22
502.265	645.02
502.721	663.72
503.177	673.83
503.632	670.02
504.088	674.92
504.543	714.12
504.999	726.52
505.455	661.22
505.91	628.32
506.366	635.02
506.821	639.92
507.277	631.72
507.732	637.02
508.187	629.23
508.643	639.43
509.098	640.52
509.553	651.62
510.009	668.42
510.464	680.52
510.919	694.02
511.375	698.33
511.83	710.12
512.285	733.52
512.74	767.73
513.195	790.82
513.65	783.22
514.105	782.32
514.56	783.02
515.015	803.03
515.47	824.43
515.925	797.83
516.38	798.42
516.835	807.32
517.29	796.92
517.745	784.33
518.2	765.82
518.655	756.12
519.109	758.22
519.564	747.33
520.019	742.52
520.474	736.03
520.928	728.62
521.383	725.22
521.838	723.12
522.292	723.93
522.747	717.82
523.201	713.42
523.656	706.32
524.11	690.33
524.565	699.23
525.019	688.92
525.474	703.82
525.928	708.22
526.382	705.62
526.837	704.62
527.291	715.82
527.745	696.32
528.2	705.62
528.654	690.73
529.108	695.42
529.562	693.12
530.016	705.12
530.47	698.42
530.925	697.52
531.379	705.32
531.833	717.33
532.287	703.92
532.741	706.12
533.195	701.83
533.649	717.42
534.103	727.82
534.556	711.52
535.01	721.02
535.464	718.12
535.918	717.42
536.372	721.33
536.826	735.22
537.279	705.83
537.733	711.02
538.187	724.92
538.64	713.02
539.094	727.02
539.548	738.62
540.001	725.72
540.455	733.52
540.908	737.42
541.362	739.62
541.815	752.52
542.269	769.32
542.722	773.23
543.175	760.82
543.629	778.92
544.082	786.52
544.536	797.43
544.989	785.83
545.442	784.62
545.895	786.72
546.349	788.33
546.802	793.72
547.255	803.62
547.708	805.73
548.161	812.72
548.614	824.72
549.067	824.52
549.52	828.23
549.973	801.82
550.426	814.12
550.879	788.42
551.332	811.42
551.785	806.92
552.238	813.73
552.691	813.22
553.144	837.62
553.596	852.72
554.049	866.92
554.502	897.52
554.955	915.52
555.407	915.02
555.86	908.42
556.313	898.32
556.765	874.02
557.218	884.33
557.67	891.62
558.123	882.62
558.576	871.12
559.028	881.72
559.48	892.62
559.933	875.43
560.385	841.22
560.838	805.92
561.29	776.12
561.742	781.33
562.195	759.93
562.647	771.92
563.099	781.12
563.551	771.73
564.004	794.52
564.456	773.33
564.908	768.52
565.36	747.42
565.812	735.72
566.264	731.12
566.716	727.72
567.168	711.02
567.62	723.02
568.072	705.62
568.524	693.03
568.976	678.22
569.428	671.73
569.88	667.12
570.332	676.03
570.784	684.92
571.235	679.12
571.687	692.73
572.139	704.42
572.59	712.72
573.042	718.82
573.494	712.52
573.945	707.12
574.397	681.62
574.849	689.82
575.3	694.12
575.752	688.62
576.203	671.62
576.655	684.52
577.106	670.12
577.557	654.42
578.009	660.83
578.46	659.52
578.912	658.12
579.363	661.73
579.814	662.42
580.265	660.83
580.717	659.23
581.168	674.82
581.619	670.42
582.07	684.92
582.521	669.32
582.972	666.22
583.423	670.62
583.875	680.02
584.326	699.82
584.777	741.72
585.227	828.23
585.678	899.52
586.129	1000.92
586.58	1064.53
587.031	1142.53
587.482	1301.42
587.933	1483.83
588.384	1290.42
588.834	956.82
589.285	804.52
589.736	774.62
590.186	763.42
590.637	751.12
591.088	734.72
591.538	729.62
591.989	719.12
592.439	719.72
592.89	716.72
593.34	696.32
593.791	702.52
594.241	709.52
594.692	703.82
595.142	696.73
595.593	692.12
596.043	699.33
596.493	703.32
596.943	697.83
597.394	713.02
597.844	700.23
598.294	717.92
598.744	743.62
599.195	761.62
599.645	810.23
600.095	840.83
600.545	903.52
600.995	948.52
601.445	1009.52
601.895	1076.03
602.345	1119.32
602.795	1092.32
603.245	1051.62
603.695	988.62
604.145	941.93
604.594	892.22
605.044	844.62
605.494	789.02
605.944	743.42
606.393	728.22
606.843	715.42
607.293	713.33
607.743	726.43
608.192	733.32
608.642	742.43
609.091	760.12
609.541	764.12
609.99	764.62
610.44	753.22
610.889	707.83
611.339	689.92
611.788	675.33
612.238	682.52
612.687	711.32
613.136	703.82
613.586	726.83
614.035	714.22
614.484	746.23
614.933	747.62
615.383	733.93
615.832	731.92
616.281	710.83
616.73	681.43
617.179	658.83
617.628	644.92
618.077	622.02
618.526	611.32
618.975	599.83
619.424	606.82
619.873	607.22
620.322	621.92
620.771	605.82
621.22	592.22
621.669	580.03
622.118	573.83
622.567	568.62
623.015	567.02
623.464	549.12
623.913	552.62
624.361	545.02
624.81	535.12
625.259	546.22
625.707	549.42
626.156	540.42
626.604	555.52
627.053	543.42
627.501	555.22
627.95	551.72
628.398	569.92
628.847	562.33
629.295	557.82
629.744	563.22
630.192	563.62
630.64	569.92
631.089	542.92
631.537	561.52
631.985	570.02
632.433	588.02
632.881	586.72
633.33	633.72
633.778	621.52
634.226	551.72
634.674	560.42
635.122	565.52
635.57	580.22
636.018	602.52
636.466	564.52
636.914	543.82
637.362	560.83
637.81	563.52
638.258	569.22
638.705	569.02
639.153	582.42
639.601	600.92
640.049	618.32
640.497	660.92
640.944	673.92
641.392	625.32
641.84	599.22
642.287	569.12
642.735	554.02
643.182	553.42
643.63	563.23
644.078	559.92
644.525	572.82
644.973	582.32
645.42	585.62
645.867	602.52
646.315	626.12
646.762	635.03
647.21	670.42
647.657	704.22
648.104	730.82
648.551	745.93
648.999	817.52
649.446	891.82
649.893	971.12
650.34	1131.12
650.787	1350.72
651.234	1678.22
651.682	2182.93
652.129	2995.82
652.576	4308.82
653.023	6374.52
653.47	8778.93
653.917	10994.33
654.363	12774.93
654.81	14178.13
655.257	13473.53
655.704	8827.23
656.151	5207.42
656.598	3380.52
657.044	2393.62
657.491	1831.32
657.938	1465.33
658.385	1233.72
658.831	1060.33
659.278	947.82
659.724	830.72
660.171	777.42
660.618	700.52
661.064	671.92
661.511	651.73
661.957	634.92
662.404	632.62
662.85	642.22
663.296	609.23
663.743	547.62
664.189	524.62
664.635	521.73
665.082	506.42
665.528	497.92
665.974	496.73
666.42	496.12
666.867	489.62
667.313	476.62
667.759	473.02
668.205	467.42
668.651	473.33
669.097	465.02
669.543	479.02
669.989	461.73
670.435	441.42
670.881	424.12
671.327	424.02
671.773	447.42
672.219	472.02
672.665	520.22
673.11	557.82
673.556	606.12
674.002	641.73
674.448	639.92
674.893	530.73
675.339	465.22
675.785	427.32
676.23	407.62
676.676	378.73
677.122	365.92
677.567	353.02
678.013	348.73
678.458	347.02
678.904	346.42
679.349	330.23
679.794	344.12
680.24	345.83
680.685	340.32
681.131	340.62
681.576	339.52
682.021	346.23
682.466	341.62
682.912	333.62
683.357	340.82
683.802	364.72
684.247	394.92
684.692	438.22
685.137	474.82
685.583	512.52
686.028	544.42
686.473	502.92
686.918	431.02
687.363	403.02
687.807	370.52
688.252	352.33
688.697	341.12
689.142	322.92
689.587	320.62
690.032	315.72
690.477	324.92
690.921	336.02
691.366	365.32
691.811	385.22
692.255	414.32
692.7	442.52
693.145	481.03
693.589	658.02
694.034	1062.12
694.478	1452.72
694.923	1663.52
695.367	2190.73
695.812	1155.22
696.256	479.42
696.701	358.22
697.145	331.82
697.59	309.22
698.034	308.22
698.478	318.12
698.922	314.92
699.367	317.62
699.811	322.52
700.255	339.72
700.699	370.93
701.143	406.62
701.588	457.62
702.032	494.32
702.476	490.12
702.92	467.42
703.364	464.32
703.808	604.52
704.252	985.23
704.696	1385.43
705.14	1607.53
705.584	2057.43
706.027	1014.82
706.471	491.82
706.915	381.83
707.359	340.92
707.803	310.22
708.246	295.12
708.69	297.52
709.134	300.62
709.577	294.62
710.021	300.22
710.465	297.33
710.908	288.02
711.352	289.62
711.795	297.62
712.239	340.32
712.682	367.02
713.126	394.82
713.569	447.12
714.012	357.43
714.456	310.03
714.899	284.23
715.342	264.92
715.786	246.62
716.229	249.42
716.672	246.52
717.115	243.43
717.558	236.72
718.002	238.92
718.445	257.23
718.888	270.42
719.331	288.53
719.774	298.02
720.217	294.82
720.66	270.12
721.103	256.02
721.546	240.72
721.989	236.22
722.432	223.43
722.874	230.72
723.317	222.23
723.76	226.82
724.203	249.12
724.645	302.52
725.088	419.32
725.531	542.83
725.974	631.62
726.416	523.42
726.859	290.02
727.301	237.32
727.744	227.53
728.187	221.62
728.629	226.12
729.071	227.62
729.514	248.23
729.956	260.92
730.399	271.42
730.841	277.52
731.283	253.83
731.726	248.92
732.168	248.52
732.61	252.62
733.053	268.53
733.495	302.22
733.937	337.42
734.379	376.02
734.821	411.82
735.263	506.83
735.705	788.62
736.148	1468.62
736.59	2441.22
737.032	2930.62
737.474	2385.32
737.916	771.12
738.357	410.82
738.799	317.32
739.241	288.52
739.683	273.22
740.125	280.52
740.567	276.02
741.008	302.52
741.45	294.52
741.892	302.52
742.334	336.53
742.775	338.62
743.217	331.32
743.658	255.52
744.1	235.62
744.542	246.43
744.983	299.12
745.425	331.72
745.866	340.82
746.307	272.12
746.749	267.82
747.19	313.12
747.632	421.03
748.073	816.42
748.514	1753.62
748.956	2715.53
749.397	3402.53
749.838	2804.93
750.279	2843.72
750.72	1438.62
751.162	523.32
751.603	298.52
752.044	242.22
752.485	206.23
752.926	197.92
753.367	190.42
753.808	182.92
754.249	186.72
754.69	176.92
755.131	169.42
755.572	169.52
756.013	180.22
756.453	174.92
756.894	187.42
757.335	187.92
757.776	184.12
758.216	188.22
758.657	189.02
759.098	194.62
759.538	218.93
759.979	255.52
760.42	354.23
760.86	651.12
761.301	1679.12
761.741	4138.52
762.182	6179.82
762.622	4361.12
763.063	1244.12
763.503	525.83
763.943	328.62
764.384	330.33
764.824	389.22
765.264	427.42
765.705	294.22
766.145	202.02
766.585	172.52
767.025	166.82
767.465	178.72
767.906	232.62
768.346	300.33
768.786	328.83
769.226	248.52
769.666	302.42
770.106	572.52
770.546	1441.42
770.986	2532.32
771.426	2288.53
771.866	745.62
772.306	311.82
772.745	198.62
773.185	166.22
773.625	167.52
774.065	165.02
774.505	189.72
774.944	298.83
775.384	637.92
775.824	1179.53
776.263	1170.03
776.703	495.83
777.142	205.43
777.582	158.72
778.021	128.73
778.461	139.12
778.9	135.22
779.34	127.42
779.779	107.32
780.219	106.83
780.658	100.73
781.097	103.82
781.537	107.02
781.976	104.02
782.415	104.32
782.855	100.32
783.294	94.83
783.733	101.32
784.172	103.12
784.611	99.02
785.05	106.72
785.489	113.23
785.928	112.12
786.367	117.02
786.806	109.22
787.245	123.72
787.684	133.02
788.123	133.42
788.562	127.22
789.001	123.52
789.44	115.73
789.879	105.32
790.317	109.12
790.756	120.42
791.195	123.33
791.634	144.33
792.072	187.12
792.511	338.42
792.95	923.92
793.388	2033.62
793.827	1867.62
794.265	644.42
794.704	266.52
795.142	178.62
795.581	147.52
796.019	120.32
796.458	126.32
796.896	116.52
797.334	123.82
797.773	139.82
798.211	200.82
798.649	402.52
799.087	954.92
799.526	1498.82
799.964	1897.42
800.402	1942.22
800.84	720.72
801.278	283.62
801.716	181.12
802.154	142.42
802.592	137.23
803.03	135.42
803.468	133.33
803.906	128.82
804.344	141.23
804.782	137.92
805.22	128.02
805.658	120.52
806.096	137.02
806.533	149.02
806.971	167.52
807.409	203.22
807.847	289.92
808.284	608.42
808.722	1731.92
809.16	3125.52
809.597	2942.53
810.035	5125.12
810.472	5578.22
810.91	1999.02
811.347	747.33
811.785	381.03
812.222	245.72
812.66	182.73
813.097	160.12
813.535	131.52
813.972	121.92
814.409	108.92
814.846	105.52
815.284	102.02
815.721	96.72
816.158	96.02
816.595	118.33
817.032	171.72
817.47	181.22
817.907	164.62
818.344	141.52
818.781	107.92
819.218	89.62
819.655	110.92
820.092	185.32
820.529	204.42
820.966	170.92
821.403	128.92
821.839	102.32
822.276	97.32
822.713	119.22
823.15	126.52
823.587	111.42
824.023	137.62
824.46	277.42
824.897	835.93
825.333	1297.82
825.77	558.22
826.206	223.52
826.643	129.22
827.08	98.73
827.516	80.62
827.953	72.82
828.389	76.52
828.825	70.32
829.262	63.52
829.698	61.52
830.135	56.73
830.571	63.42
831.007	59.32
831.443	59.02
831.88	60.12
832.316	57.22
832.752	58.82
833.188	61.52
833.624	58.83
834.06	65.52
834.497	65.42
834.933	69.42
835.369	66.92
835.805	61.02
836.241	68.82
836.677	76.33
837.112	82.52
837.548	100.62
837.984	124.02
838.42	187.92
838.856	458.82
839.292	1414.92
839.727	2195.12
840.163	1020.62
840.599	851.32
841.034	1907.92
841.47	2041.62
841.906	741.53
842.341	314.32
842.777	217.62
843.212	305.62
843.648	294.92
844.083	152.52
844.519	91.62
844.954	69.73
845.39	61.12
845.825	55.22
846.261	49.23
846.696	51.62
847.131	57.42
847.566	57.62
848.002	44.73
848.437	45.52
848.872	57.52
849.307	68.52
849.742	76.73
850.177	170.33
850.613	510.72
851.048	848.83
851.483	366.72
851.918	145.42
852.353	79.32
852.788	63.22
853.223	51.82
853.657	47.82
854.092	43.62
854.527	35.42
854.962	41.32
855.397	38.62
855.832	43.72
856.266	45.33
856.701	38.92
857.136	35.23
857.57	33.33
858.005	42.62
858.44	58.22
858.874	45.83
859.309	50.73
859.743	40.12
860.178	44.42
860.612	35.42
861.047	43.82
861.481	65.42
861.915	67.12
862.35	50.92
862.784	36.02
863.218	30.12
863.653	28.12
864.087	47.72
864.521	53.02
864.955	71.02
865.39	146.32
865.824	171.33
866.258	110.02
866.692	156.82
867.126	169.22
867.56	97.92
867.994	53.02
868.428	29.82
868.862	40.62
869.296	53.73
869.73	55.82
870.164	48.02
870.598	47.02
871.031	35.72
871.465	29.52
871.899	28.12
872.333	26.42
872.766	27.62
873.2	27.12
873.634	32.62
874.067	19.92
874.501	25.32
874.935	32.72
875.368	33.02
875.802	18.72
876.235	21.52
876.669	23.02
877.102	21.23
877.535	29.83
877.969	24.42
878.402	24.52
878.836	17.92
879.269	25.23
879.702	19.92
880.135	16.82
880.569	18.02
881.002	22.23
881.435	20.72
881.868	11.72
882.301	22.73
882.734	14.92
883.167	24.73
883.601	22.82
884.034	21.22
884.467	12.62
884.899	20.42
885.332	15.92
885.765	12.33
886.198	23.62
886.631	17.92
887.064	24.02
887.497	17.02
887.929	22.32
888.362	5.92
888.795	7.72
889.228	16.92
889.66	20.72
890.093	19.12
890.526	13.62
890.958	17.02
891.391	19.23
891.823	26.92
892.256	13.72
892.688	12.62
893.121	21.23
893.553	15.12
893.985	23.42
894.418	15.02
894.85	10.73
895.282	17.02
895.715	15.02
896.147	10.02
896.579	16.92
897.011	7.33
897.444	13.82
897.876	10.52
898.308	19.92
898.74	17.73
899.172	12.23
899.604	21.02
900.036	19.82
900.468	13.52
900.9	17.12
901.332	16.72
901.764	12.72
902.196	21.02
902.628	20.32
903.06	23.12
903.491	31.42
903.923	24.92
904.355	16.42
904.787	23.22
905.218	21.92
905.65	16.12
906.082	11.62
906.513	14.62
906.945	11.62
907.376	11.22
907.808	21.72
908.239	25.92
908.671	17.73
909.102	20.52
909.534	32.12
909.965	47.02
910.397	85.32
910.828	287.92
911.259	463.22
911.691	205.12
912.122	98.12
912.553	44.92
912.984	36.12
913.415	26.73
913.847	23.22
914.278	19.92
914.709	15.02
915.14	19.92
915.571	13.32
916.002	12.72
916.433	22.83
916.864	22.42
917.295	12.62
917.726	20.32
918.157	21.02
918.587	26.12
919.018	21.92
919.449	15.52
919.88	24.22
920.311	25.82
920.741	45.82
921.172	155.62
921.603	147.72
922.033	75.32
922.464	43.23
922.895	29.62
923.325	21.02
923.756	21.52
924.186	18.73
924.617	22.02
925.047	34.32
925.478	49.23
925.908	42.12
926.338	27.62
926.769	24.23
927.199	23.33
927.629	8.73
928.06	13.62
928.49	10.73
928.92	17.32
929.35	10.62
929.78	16.72
930.21	6.22
930.641	14.82
931.071	7.62
931.501	0.62
931.931	5.52
932.361	9.32
932.791	1.02
933.221	2.42
933.651	10.12
934.08	9.72
934.51	32.22
934.94	10.82
935.37	9.12
935.8	11.92
936.229	5.92
936.659	8.22
937.089	-0.77
937.519	12.62
937.948	26.02
938.378	14.52
938.807	7.92
939.237	2.23
939.666	7.73
940.096	-6.48
940.525	5.72
940.955	4.12
941.384	2.92
941.814	-3.08
942.243	-4.98
942.672	2.72
943.102	1.92
943.531	-4.68
943.96	7.72
944.39	3.52
944.819	3.32
945.248	2.02
945.677	1.32
946.106	4.23
946.535	4.92
946.964	11.62
947.393	5.12
947.822	-1.08
948.251	-5.08
948.68	3.83
949.109	2.02
949.538	3.83
949.967	-3.28
950.396	-1.68
950.825	-0.78
951.254	2.02
951.682	-1.68
952.111	2.52
952.54	5.92
952.969	-1.68
953.397	-3.58
953.826	3.82
954.254	-6.68
954.683	3.02
955.112	-2.68
955.54	4.62
955.969	3.62
956.397	-2.68
956.826	-1.58
957.254	7.62
957.682	-0.38
958.111	2.12
958.539	0.62
958.967	-1.38
959.396	-0.48
959.824	-0.17
960.252	3.22
960.68	-7.08
961.109	0.22
961.537	-3.58
961.965	-4.48
962.393	1.32
962.821	-2.67
963.249	-1.18
963.677	2.23
964.105	8.52
964.533	40.42
964.961	35.62
965.389	19.62
965.817	6.32
966.245	1.22
966.672	-3.48
967.1	-3.27
967.528	2.12
967.956	-5.88
968.383	-5.18
968.811	-3.88
969.239	1.52
969.666	-4.58
970.094	1.42
970.522	1.02
970.949	6.42
971.377	-5.88
971.804	-2.68
972.232	-2.38
972.659	2.02
973.087	-4.38
973.514	-6.78
973.941	-2.08
974.369	5.22
974.796	3.62
975.223	-1.38
975.651	-3.27
976.078	1.02
976.505	-1.98
976.932	3.22
977.359	18.42
977.786	14.82
978.214	2.02
978.641	-2.28
979.068	-3.48
979.495	-4.98
979.922	-4.48
980.349	2.82
980.776	1.02
981.202	-2.98
981.629	2.92
982.056	-1.58
982.483	2.82
982.91	2.32
983.337	-4.28
983.763	7.72
984.19	-10.68
984.617	-2.38
985.043	-8.38
985.47	3.73
985.897	-7.68
986.323	-7.68
986.75	2.62
987.176	2.92
987.603	0.52
988.029	0.82
988.456	-1.68
988.882	3.42
989.308	-5.68
989.735	-4.88
990.161	1.42
990.587	-5.08
991.014	7.62
991.44	8.42
991.866	-4.67
992.292	-8.77
992.719	-3.18
993.145	4.62
993.571	-12.08
993.997	2.02
994.423	-1.78
994.849	-6.68
995.275	0.33
995.701	0.72
996.127	0.12
996.553	-1.38
996.979	-7.68
997.405	-0.98
997.83	-4.48
998.256	-5.58
998.682	-5.98
999.108	-9.88
999.534	-3.68
999.959	-0.18
1000.385	-0.48
1000.811	0.22
1001.236	-8.38
1001.662	-12.18
1002.087	-9.17
1002.513	4.22
1002.938	-0.88
1003.364	-0.98
1003.789	0.32
1004.215	2.12
1004.64	-3.68
1005.066	-2.68
1005.491	4.62
1005.916	-0.18
1006.342	-7.48
1006.767	-11.98
1007.192	3.02
1007.617	-3.58
1008.042	-4.48
1008.468	-13.48
1008.893	-2.17
1009.318	-3.68
1009.743	-3.38
1010.168	5.52
1010.593	-2.98
1011.018	-6.18
1011.443	-3.48
1011.868	1.92
1012.293	-2.48
1012.718	-7.77
1013.143	1.02
1013.567	-2.78
1013.992	4.12
1014.417	-16.08
1014.842	0.42
1015.267	-11.58
1015.691	-4.88
1016.116	0.92
1016.541	1.42
1016.965	-3.28
1017.39	2.82
1017.814	2.33
1018.239	0.32
1018.663	-2.28
1019.088	-10.88
1019.512	-2.58
1019.937	-3.78
1020.361	-6.08
1020.785	-5.08
1021.21	-2.38
1021.634	-5.58
1022.058	-7.58
1022.483	2.92
1022.907	-1.48
1023.331	-1.88
1023.755	-0.88
1024.179	-2.28
1024.604	-8.48
1025.028	-7.38
1025.452	-2.08
1025.876	-2.88
1026.3	3.02
1026.724	-14.68
1027.148	-2.98
1027.572	-7.27
1027.996	0.52
1028.42	-2.58
1028.843	-10.28
1029.267	-6.48
1029.691	-7.58
1030.115	-1.98
1030.539	-1.38
1030.962	-6.18
1031.386	-7.98
1031.81	6.12
1032.233	0.42
1032.657	1.02
1033.08	-3.58
1033.504	-3.08
1033.927	-6.67
1034.351	-2.08
1034.774	0.52
1035.198	-4.28
1035.621	-11.98
1036.045	-5.98
1036.468	-4.48
1036.891	-14.38
1037.315	-12.08
1037.738	-9.98
1038.161	0.02
1038.584	1.32
1039.008	-2.98
1039.431	-3.58
1039.854	-3.28
1040.277	-7.27
1040.7	-8.48
1041.123	-5.28
1041.546	-6.38
1041.969	-5.18
1042.392	1.82
1042.815	-5.08
1043.238	2.22
1043.661	4.62
1044.084	-9.58
1044.507	-0.78
1044.93	-6.48
1045.352	-11.58
1045.775	-5.08
1046.198	3.42
1046.621	-4.48
1047.043	1.92
1047.466	5.32
1047.889	-0.38
1048.311	-1.08
1048.734	-2.68
1049.156	0.92
1049.579	-7.98
1050.001	0.62
1050.424	-1.08
1050.846	-2.28
1051.269	-4.77
1051.691	-5.67
1052.113	-5.48
1052.536	-3.98
1052.958	3.72
1053.38	-1.38
1053.802	-11.48
1054.225	3.12
1054.647	-12.48
1055.069	-5.38
1055.491	2.42
1055.913	-6.48
1056.335	0.82
1056.757	-8.27
1057.179	-3.88
1057.601	-6.18
1058.023	-4.67
1058.445	-2.08
1058.867	-3.68
1059.289	-1.98
1059.711	-5.17
1060.133	-3.08
1060.555	-0.68
1060.976	-15.78
1061.398	-8.18
1061.82	-8.28
1062.241	-4.38
1062.663	-6.18
1063.085	-0.98
1063.506	-4.67
1063.928	-6.58
1064.35	-1.77
1064.771	-13.68
1065.193	-0.88
1065.614	-4.58
1066.035	-3.27
1066.457	-3.88
1066.878	-5.98
1067.3	-6.88
1067.721	-4.98
1068.142	-4.28
1068.564	-5.38
1068.985	-5.08
1069.406	-8.88
1069.827	-3.98
1070.248	1.92
1070.67	-4.18
1071.091	-2.67
1071.512	-1.88
1071.933	-4.98
1072.354	-2.08
1072.775	-4.38
1073.196	-12.98
1073.617	5.42
1074.038	-9.58
1074.459	1.92
1074.88	-10.08
1075.3	-2.38
1075.721	-3.98
1076.142	0.42
1076.563	-3.38
1076.983	-7.78
1077.404	-5.67
1077.825	-7.88
1078.246	-3.38
1078.666	-11.68
1079.087	-9.58
1079.507	-5.28
1079.928	-2.18
1080.348	0.62
1080.769	-6.58
1081.189	-0.17
1081.61	-4.77
1082.03	-1.58
1082.451	-9.38
1082.871	-6.98
1083.291	-7.68
1083.711	-8.88
1084.132	-1.98
1084.552	-4.88
1084.972	-4.98
1085.392	-12.38
1085.813	-9.88
1086.233	-7.38
1086.653	-2.08
1087.073	-0.77
1087.493	-9.98
1087.913	-6.38
1088.333	-12.08
1088.753	-7.38
1089.173	-5.48
1089.593	-3.67
1090.013	-4.28
1090.433	0.92
1090.852	-10.68
1091.272	-5.18
1091.692	-4.28
1092.112	-3.68
1092.531	-9.98
1092.951	-12.08
1093.371	-4.88
1093.79	-1.67
1094.21	-10.68
1094.63	-4.77
1095.049	-3.88
1095.469	-2.68
1095.888	-0.08
1096.308	-0.78
1096.727	4.23
1097.146	-4.77
1097.566	-0.58
1097.985	-2.68
1098.405	-1.38
1098.824	-9.28
1099.243	-4.88
1099.662	-9.18
1100.082	-0.17
1100.501	0.72
1100.92	-5.68
1101.339	-7.58
1101.758	-5.67
