Data from 20171114-ORNL-Ar_H_NY_Subt18_08-04-49-833.txt Node
Date: Tue Nov 14 08:04:49 EST 2017
User: Ender
Spectrometer: HR+D1039
Trigger mode: 0
Integration Time (sec): 2.730000E-2
Scans to average: 10
Electric dark correction enabled: true
Nonlinearity correction enabled: false
Boxcar width: 0
XAxis mode: Wavelengths
Number of Pixels in Spectrum: 2048
>>>>>Begin Spectral Data<<<<<
187.836	-5.42
188.309	-5.42
188.782	-5.42
189.255	0.18
189.728	-2.22
190.201	11.18
190.674	-1.22
191.147	-0.62
191.619	-2.82
192.092	-1.62
192.565	3.68
193.038	0.68
193.511	0.88
193.984	2.28
194.456	-0.12
194.929	1.48
195.402	-4.82
195.874	-1.42
196.347	-1.82
196.82	-7.82
197.292	4.78
197.765	-5.22
198.237	-10.72
198.71	4.68
199.182	-2.32
199.655	-0.12
200.127	5.38
200.6	-1.12
201.072	-2.22
201.544	-0.22
202.017	-5.52
202.489	0.98
202.961	0.48
203.433	-6.02
203.906	-6.62
204.378	-1.62
204.85	1.28
205.322	-4.42
205.794	-1.72
206.266	-5.52
206.739	-7.02
207.211	-2.02
207.683	-11.82
208.155	-6.82
208.627	-6.22
209.099	-9.42
209.57	-6.02
210.042	-6.02
210.514	-6.72
210.986	-4.62
211.458	-10.32
211.93	-3.82
212.402	4.78
212.873	-6.62
213.345	-7.62
213.817	-15.52
214.288	-5.42
214.76	-8.92
215.232	-6.22
215.703	-4.92
216.175	-8.22
216.646	-7.22
217.118	-1.42
217.589	-1.22
218.061	-8.32
218.532	-0.22
219.004	-1.62
219.475	-6.42
219.946	-4.42
220.418	-5.42
220.889	5.68
221.36	-1.82
221.832	0.18
222.303	-8.02
222.774	4.48
223.245	-1.62
223.717	-4.12
224.188	-2.22
224.659	-8.92
225.13	-6.82
225.601	-6.42
226.072	5.18
226.543	-1.62
227.014	-6.12
227.485	-3.62
227.956	-7.42
228.427	-6.02
228.898	2.38
229.369	4.38
229.839	-5.52
230.31	-9.12
230.781	-0.32
231.252	-2.22
231.722	-1.02
232.193	-0.72
232.664	3.18
233.135	-4.92
233.605	-3.32
234.076	-4.22
234.546	-7.62
235.017	7.08
235.487	4.48
235.958	-6.12
236.428	1.88
236.899	10.18
237.369	4.58
237.84	4.68
238.31	7.08
238.78	1.68
239.251	5.48
239.721	5.98
240.191	-0.12
240.662	-4.42
241.132	-0.72
241.602	-0.22
242.072	1.48
242.542	2.68
243.013	-0.02
243.483	4.68
243.953	0.48
244.423	-0.12
244.893	-5.72
245.363	2.08
245.833	1.08
246.303	-2.12
246.773	9.28
247.243	2.78
247.712	2.08
248.182	6.68
248.652	7.38
249.122	-0.52
249.592	15.18
250.061	24.08
250.531	41.48
251.001	15.98
251.471	26.68
251.94	19.88
252.41	11.88
252.879	1.28
253.349	12.98
253.818	10.28
254.288	4.08
254.757	2.48
255.227	-0.92
255.696	1.68
256.166	5.18
256.635	7.38
257.105	3.68
257.574	13.78
258.043	9.28
258.513	14.98
258.982	18.78
259.451	10.18
259.92	13.88
260.389	13.78
260.859	15.28
261.328	9.68
261.797	19.88
262.266	7.48
262.735	7.68
263.204	5.28
263.673	-1.62
264.142	13.68
264.611	-3.62
265.08	4.28
265.549	3.88
266.018	2.38
266.487	-2.02
266.955	-0.92
267.424	3.48
267.893	7.68
268.362	5.18
268.83	3.88
269.299	3.88
269.768	6.58
270.236	11.78
270.705	5.78
271.174	5.28
271.642	6.58
272.111	7.78
272.579	19.18
273.048	23.78
273.516	31.88
273.985	23.08
274.453	25.88
274.922	18.28
275.39	6.78
275.858	2.28
276.327	14.48
276.795	25.08
277.263	11.68
277.731	21.88
278.2	53.98
278.668	60.58
279.136	47.48
279.604	26.88
280.072	19.58
280.54	10.48
281.008	12.48
281.477	14.18
281.945	16.48
282.413	12.78
282.881	16.68
283.348	7.98
283.816	17.58
284.284	15.28
284.752	19.68
285.22	12.28
285.688	13.28
286.156	25.58
286.623	42.58
287.091	52.38
287.559	34.18
288.026	17.68
288.494	17.68
288.962	5.38
289.429	7.58
289.897	19.88
290.364	11.68
290.832	12.68
291.3	17.48
291.767	13.18
292.234	22.08
292.702	10.18
293.169	20.98
293.637	26.98
294.104	22.28
294.571	10.68
295.039	11.38
295.506	18.98
295.973	17.88
296.44	20.18
296.908	13.88
297.375	21.08
297.842	19.88
298.309	16.48
298.776	13.08
299.243	19.28
299.71	18.18
300.177	24.68
300.644	24.78
301.111	18.58
301.578	27.88
302.045	19.08
302.512	29.48
302.979	25.38
303.446	23.28
303.913	22.38
304.379	17.08
304.846	24.58
305.313	20.38
305.78	23.48
306.246	27.38
306.713	25.88
307.18	22.78
307.646	30.58
308.113	30.08
308.579	25.48
309.046	26.38
309.512	27.68
309.979	22.08
310.445	31.88
310.912	32.18
311.378	38.08
311.845	30.98
312.311	33.98
312.777	32.68
313.244	27.58
313.71	40.88
314.176	28.18
314.642	28.18
315.109	32.88
315.575	33.68
316.041	35.28
316.507	35.08
316.973	42.08
317.439	38.18
317.905	35.18
318.371	29.98
318.837	29.88
319.303	34.08
319.769	36.48
320.235	32.88
320.701	35.18
321.167	36.18
321.633	27.88
322.099	45.48
322.564	44.38
323.03	37.88
323.496	40.98
323.962	35.88
324.427	38.98
324.893	40.48
325.359	38.38
325.824	43.38
326.29	38.48
326.755	43.28
327.221	46.28
327.686	39.18
328.152	49.38
328.617	46.88
329.083	52.78
329.548	50.48
330.014	53.78
330.479	42.78
330.944	43.18
331.41	45.08
331.875	47.18
332.34	43.98
332.805	43.18
333.271	47.88
333.736	37.48
334.201	48.38
334.666	50.28
335.131	56.98
335.596	48.78
336.061	51.08
336.526	45.08
336.991	48.08
337.456	57.68
337.921	46.48
338.386	41.78
338.851	46.18
339.316	49.28
339.781	45.28
340.246	52.38
340.711	43.68
341.175	52.18
341.64	45.88
342.105	51.68
342.569	60.58
343.034	57.88
343.499	53.78
343.963	58.28
344.428	68.38
344.893	56.18
345.357	62.58
345.822	56.48
346.286	67.98
346.751	73.38
347.215	67.58
347.679	76.88
348.144	94.38
348.608	86.28
349.073	63.38
349.537	71.48
350.001	77.68
350.465	89.78
350.93	87.48
351.394	79.98
351.858	68.58
352.322	83.08
352.786	81.38
353.25	102.98
353.715	115.48
354.179	103.18
354.643	115.98
355.107	128.18
355.571	105.98
356.035	99.38
356.498	113.28
356.962	130.88
357.426	129.08
357.89	116.98
358.354	88.48
358.818	80.08
359.281	80.98
359.745	71.38
360.209	73.78
360.673	78.08
361.136	78.28
361.6	84.78
362.064	87.08
362.527	79.78
362.991	89.98
363.454	78.28
363.918	68.38
364.381	73.98
364.845	79.08
365.308	84.18
365.772	84.88
366.235	79.48
366.698	79.78
367.162	82.68
367.625	77.78
368.088	82.78
368.552	81.48
369.015	81.28
369.478	91.58
369.941	98.18
370.404	95.08
370.867	99.68
371.331	100.58
371.794	114.48
372.257	110.58
372.72	113.18
373.183	107.98
373.646	98.68
374.109	97.28
374.572	103.78
375.035	101.38
375.497	102.78
375.96	99.38
376.423	100.48
376.886	112.68
377.349	107.18
377.811	98.68
378.274	96.88
378.737	105.68
379.199	107.08
379.662	107.48
380.125	111.18
380.587	109.18
381.05	116.68
381.512	115.58
381.975	124.08
382.437	120.08
382.9	114.18
383.362	125.18
383.825	133.18
384.287	137.48
384.75	132.78
385.212	138.18
385.674	132.18
386.136	127.88
386.599	118.48
387.061	122.58
387.523	119.88
387.985	130.08
388.447	142.78
388.91	133.08
389.372	148.38
389.834	144.58
390.296	134.98
390.758	148.68
391.22	160.78
391.682	197.38
392.144	279.38
392.606	218.78
393.068	155.08
393.529	157.58
393.991	150.38
394.453	141.98
394.915	149.08
395.377	179.08
395.838	205.38
396.3	154.38
396.762	137.18
397.224	122.08
397.685	124.68
398.147	124.08
398.608	129.98
399.07	117.78
399.531	128.08
399.993	139.88
400.454	147.48
400.916	139.18
401.377	142.28
401.839	147.38
402.3	145.78
402.762	162.48
403.223	165.28
403.684	163.98
404.145	151.48
404.607	152.08
405.068	154.18
405.529	157.38
405.99	179.78
406.451	171.48
406.913	169.48
407.374	159.38
407.835	154.78
408.296	157.58
408.757	167.78
409.218	177.48
409.679	173.48
410.14	164.98
410.601	163.88
411.062	177.68
411.522	173.88
411.983	178.48
412.444	162.08
412.905	173.98
413.366	168.88
413.826	187.68
414.287	206.58
414.748	246.18
415.208	229.98
415.669	199.38
416.13	202.98
416.59	189.08
417.051	204.08
417.511	204.88
417.972	227.78
418.432	229.58
418.893	267.68
419.353	234.48
419.814	190.48
420.274	177.08
420.734	174.38
421.195	190.78
421.655	180.38
422.115	185.48
422.576	179.38
423.036	189.78
423.496	198.78
423.956	207.68
424.416	220.58
424.876	249.88
425.336	254.58
425.797	250.78
426.257	231.28
426.717	228.28
427.177	217.28
427.637	218.68
428.097	225.18
428.556	230.38
429.016	254.68
429.476	247.38
429.936	248.88
430.396	258.88
430.856	281.78
431.315	298.98
431.775	325.48
432.235	365.28
432.694	331.98
433.154	338.88
433.614	371.18
434.073	319.88
434.533	270.88
434.993	260.48
435.452	271.38
435.912	288.68
436.371	268.48
436.83	269.88
437.29	261.38
437.749	233.58
438.209	228.38
438.668	258.58
439.127	270.28
439.587	239.48
440.046	233.58
440.505	247.08
440.964	258.78
441.424	299.78
441.883	296.78
442.342	246.98
442.801	209.08
443.26	210.28
443.719	203.18
444.178	205.88
444.637	199.88
445.096	210.78
445.555	212.48
446.014	214.48
446.473	214.88
446.932	218.68
447.391	209.58
447.849	213.58
448.308	202.28
448.767	213.88
449.226	220.08
449.685	218.18
450.143	224.98
450.602	217.48
451.061	210.48
451.519	223.48
451.978	223.18
452.436	216.58
452.895	220.98
453.353	234.68
453.812	225.48
454.27	229.28
454.729	228.38
455.187	219.48
455.646	227.58
456.104	234.98
456.562	239.58
457.021	253.68
457.479	246.58
457.937	263.28
458.395	250.18
458.854	233.78
459.312	238.18
459.77	257.98
460.228	240.88
460.686	229.38
461.144	231.88
461.602	232.28
462.06	228.48
462.518	242.38
462.976	237.18
463.434	246.18
463.892	250.38
464.35	257.78
464.808	274.58
465.266	254.38
465.724	251.58
466.181	257.78
466.639	251.68
467.097	269.28
467.555	291.48
468.012	292.58
468.47	288.88
468.928	305.48
469.385	316.38
469.843	325.58
470.3	331.78
470.758	348.58
471.215	371.38
471.673	383.98
472.13	373.58
472.588	396.38
473.045	350.78
473.503	368.48
473.96	368.28
474.417	384.78
474.875	408.48
475.332	447.48
475.789	432.58
476.246	445.98
476.704	463.48
477.161	476.68
477.618	498.98
478.075	535.38
478.532	583.88
478.989	659.78
479.446	768.58
479.903	734.68
480.36	769.88
480.817	829.18
481.274	919.38
481.731	1025.28
482.188	1114.88
482.645	1239.88
483.102	1355.28
483.558	1470.88
484.015	1531.28
484.472	1499.28
484.929	1457.48
485.385	1416.18
485.842	1386.78
486.299	1315.18
486.755	1239.28
487.212	1033.78
487.668	886.88
488.125	810.78
488.582	744.18
489.038	724.58
489.494	679.58
489.951	656.78
490.407	640.78
490.864	624.98
491.32	618.88
491.776	615.88
492.233	608.78
492.689	581.88
493.145	568.98
493.602	571.18
494.058	583.28
494.514	581.28
494.97	601.08
495.426	616.58
495.882	591.28
496.338	588.68
496.794	607.58
497.251	589.68
497.707	608.48
498.163	614.48
498.618	608.18
499.074	622.98
499.53	647.58
499.986	640.48
500.442	624.48
500.898	597.98
501.354	594.58
501.809	604.48
502.265	608.28
502.721	627.08
503.177	629.88
503.632	625.38
504.088	642.38
504.543	678.08
504.999	675.38
505.455	624.08
505.91	601.98
506.366	602.08
506.821	594.98
507.277	591.18
507.732	587.98
508.187	590.48
508.643	594.18
509.098	603.78
509.553	624.28
510.009	628.48
510.464	639.88
510.919	653.38
511.375	654.88
511.83	671.58
512.285	694.78
512.74	719.78
513.195	747.78
513.65	740.98
514.105	734.88
514.56	747.18
515.015	754.48
515.47	774.38
515.925	756.18
516.38	751.88
516.835	763.08
517.29	749.48
517.745	747.38
518.2	726.58
518.655	716.98
519.109	705.88
519.564	714.08
520.019	687.08
520.474	688.18
520.928	693.68
521.383	681.78
521.838	673.08
522.292	674.08
522.747	668.18
523.201	670.08
523.656	657.58
524.11	653.98
524.565	649.28
525.019	661.68
525.474	667.08
525.928	662.48
526.382	655.58
526.837	652.58
527.291	661.28
527.745	667.68
528.2	656.68
528.654	652.98
529.108	659.18
529.562	652.58
530.016	656.18
530.47	649.08
530.925	653.88
531.379	661.18
531.833	672.18
532.287	665.98
532.741	675.48
533.195	668.28
533.649	678.68
534.103	678.18
534.556	678.88
535.01	666.58
535.464	672.88
535.918	681.38
536.372	676.98
536.826	681.58
537.279	671.88
537.733	671.98
538.187	679.58
538.64	675.78
539.094	676.38
539.548	687.68
540.001	686.88
540.455	685.58
540.908	692.08
541.362	697.38
541.815	698.98
542.269	710.98
542.722	715.48
543.175	720.98
543.629	727.18
544.082	742.28
544.536	735.88
544.989	739.88
545.442	739.38
545.895	734.08
546.349	736.08
546.802	736.18
547.255	746.18
547.708	747.78
548.161	770.88
548.614	768.38
549.067	780.68
549.52	770.58
549.973	760.08
550.426	760.28
550.879	761.18
551.332	743.88
551.785	760.18
552.238	760.08
552.691	754.08
553.144	780.68
553.596	795.08
554.049	806.58
554.502	846.28
554.955	848.08
555.407	844.38
555.86	845.28
556.313	845.38
556.765	827.38
557.218	837.48
557.67	828.08
558.123	824.18
558.576	822.38
559.028	808.68
559.48	830.78
559.933	808.58
560.385	782.48
560.838	749.58
561.29	728.28
561.742	729.58
562.195	709.88
562.647	708.78
563.099	725.48
563.551	710.98
564.004	720.38
564.456	717.38
564.908	713.98
565.36	698.28
565.812	688.48
566.264	677.18
566.716	676.58
567.168	665.68
567.62	671.68
568.072	656.58
568.524	651.48
568.976	645.28
569.428	625.88
569.88	627.98
570.332	631.48
570.784	624.38
571.235	633.58
571.687	645.18
572.139	648.58
572.59	664.28
573.042	657.28
573.494	658.68
573.945	652.88
574.397	640.18
574.849	643.28
575.3	644.58
575.752	633.48
576.203	637.68
576.655	641.18
577.106	626.08
577.557	612.28
578.009	622.68
578.46	609.08
578.912	610.28
579.363	617.58
579.814	621.08
580.265	607.38
580.717	615.18
581.168	620.08
581.619	636.78
582.07	629.68
582.521	625.18
582.972	618.68
583.423	632.78
583.875	628.58
584.326	642.48
584.777	687.38
585.227	753.08
585.678	839.38
586.129	923.78
586.58	983.98
587.031	1069.28
587.482	1216.48
587.933	1386.18
588.384	1214.08
588.834	900.98
589.285	735.78
589.736	720.58
590.186	708.38
590.637	697.28
591.088	680.48
591.538	670.88
591.989	670.88
592.439	669.38
592.89	658.18
593.34	652.18
593.791	651.28
594.241	641.18
594.692	654.78
595.142	640.78
595.593	644.28
596.043	648.08
596.493	653.58
596.943	652.98
597.394	668.38
597.844	649.98
598.294	671.28
598.744	687.78
599.195	701.78
599.645	747.78
600.095	781.08
600.545	831.98
600.995	877.88
601.445	937.88
601.895	988.18
602.345	1041.38
602.795	1020.18
603.245	982.78
603.695	934.68
604.145	877.18
604.594	829.48
605.044	784.38
605.494	735.08
605.944	691.38
606.393	677.78
606.843	662.68
607.293	668.28
607.743	666.98
608.192	676.08
608.642	693.28
609.091	702.88
609.541	700.68
609.99	695.08
610.44	693.98
610.889	649.38
611.339	643.58
611.788	624.18
612.238	636.48
612.687	654.48
613.136	654.08
613.586	669.28
614.035	672.08
614.484	684.38
614.933	678.88
615.383	677.98
615.832	664.38
616.281	650.88
616.73	626.88
617.179	597.08
617.628	594.98
618.077	568.08
618.526	563.58
618.975	555.48
619.424	560.08
619.873	547.98
620.322	546.28
620.771	543.48
621.22	535.58
621.669	529.58
622.118	531.18
622.567	528.78
623.015	515.18
623.464	510.18
623.913	509.78
624.361	496.28
624.81	494.48
625.259	494.18
625.707	499.88
626.156	497.48
626.604	508.48
627.053	503.78
627.501	504.48
627.95	509.28
628.398	520.38
628.847	508.58
629.295	512.68
629.744	516.28
630.192	514.68
630.64	511.08
631.089	505.48
631.537	508.08
631.985	522.28
632.433	530.58
632.881	541.38
633.33	586.98
633.778	567.08
634.226	506.68
634.674	509.38
635.122	513.58
635.57	535.98
636.018	550.58
636.466	519.58
636.914	507.28
637.362	514.68
637.81	513.18
638.258	515.68
638.705	511.88
639.153	544.38
639.601	554.68
640.049	568.48
640.497	608.08
640.944	630.08
641.392	574.38
641.84	542.98
642.287	517.98
642.735	513.68
643.182	508.28
643.63	509.98
644.078	509.18
644.525	533.68
644.973	533.08
645.42	535.18
645.867	558.78
646.315	568.38
646.762	580.68
647.21	616.48
647.657	631.28
648.104	668.28
648.551	694.28
648.999	744.28
649.446	804.88
649.893	888.08
650.34	1024.48
650.787	1217.08
651.234	1517.18
651.682	1970.68
652.129	2704.18
652.576	3889.48
653.023	5750.38
653.47	7913.77
653.917	10001.17
654.363	11678.48
654.81	13101.38
655.257	12415.77
655.704	8063.07
656.151	4759.38
656.598	3076.18
657.044	2170.47
657.491	1678.78
657.938	1333.98
658.385	1117.28
658.831	970.78
659.278	863.38
659.724	754.58
660.171	698.68
660.618	645.58
661.064	604.98
661.511	588.88
661.957	575.18
662.404	571.58
662.85	572.98
663.296	548.18
663.743	504.28
664.189	476.28
664.635	478.68
665.082	464.28
665.528	465.08
665.974	459.68
666.42	456.78
666.867	454.58
667.313	438.58
667.759	428.78
668.205	426.38
668.651	427.28
669.097	432.28
669.543	445.18
669.989	414.98
670.435	397.48
670.881	398.18
671.327	401.88
671.773	411.18
672.219	432.38
672.665	469.88
673.11	504.28
673.556	556.58
674.002	593.58
674.448	582.58
674.893	486.78
675.339	413.88
675.785	391.98
676.23	370.48
676.676	345.88
677.122	335.58
677.567	322.68
678.013	324.38
678.458	317.58
678.904	320.08
679.349	308.58
679.794	315.28
680.24	309.38
680.685	304.98
681.131	304.88
681.576	302.38
682.021	304.38
682.466	310.88
682.912	300.48
683.357	302.38
683.802	330.78
684.247	361.58
684.692	408.78
685.137	438.18
685.583	475.38
686.028	494.48
686.473	463.28
686.918	401.78
687.363	366.68
687.807	349.08
688.252	327.18
688.697	312.48
689.142	285.18
689.587	292.98
690.032	279.58
690.477	293.48
690.921	298.88
691.366	333.08
691.811	352.38
692.255	375.18
692.7	405.88
693.145	435.08
693.589	585.18
694.034	967.58
694.478	1343.68
694.923	1531.97
695.367	2034.98
695.812	1060.68
696.256	431.38
696.701	318.08
697.145	303.08
697.59	284.08
698.034	277.28
698.478	286.88
698.922	281.28
699.367	278.78
699.811	293.08
700.255	306.38
700.699	336.38
701.143	364.58
701.588	409.18
702.032	450.78
702.476	451.18
702.92	417.78
703.364	422.48
703.808	546.98
704.252	878.68
704.696	1248.18
705.14	1483.58
705.584	1893.88
706.027	938.08
706.471	460.98
706.915	343.88
707.359	305.68
707.803	276.18
708.246	272.28
708.69	271.08
709.134	271.08
709.577	269.68
710.021	273.28
710.465	264.88
710.908	254.18
711.352	255.78
711.795	266.98
712.239	296.98
712.682	325.28
713.126	364.08
713.569	410.88
714.012	313.68
714.456	283.68
714.899	250.68
715.342	234.98
715.786	223.98
716.229	227.48
716.672	227.48
717.115	215.58
717.558	215.68
718.002	217.38
718.445	230.48
718.888	245.58
719.331	251.78
719.774	275.38
720.217	269.78
720.66	251.18
721.103	234.18
721.546	221.88
721.989	212.78
722.432	203.58
722.874	205.78
723.317	198.58
723.76	208.18
724.203	227.18
724.645	278.08
725.088	378.98
725.531	490.58
725.974	557.78
726.416	475.98
726.859	261.78
727.301	207.98
727.744	204.08
728.187	204.08
728.629	206.68
729.071	211.08
729.514	223.88
729.956	232.18
730.399	245.38
730.841	251.28
731.283	230.98
731.726	227.78
732.168	223.48
732.61	229.68
733.053	242.58
733.495	268.68
733.937	297.68
734.379	341.08
734.821	373.38
735.263	460.28
735.705	698.18
736.148	1322.28
736.59	2220.27
737.032	2711.97
737.474	2196.07
737.916	699.98
738.357	372.58
738.799	286.48
739.241	256.08
739.683	246.08
740.125	261.58
740.567	258.28
741.008	275.28
741.45	273.78
741.892	263.28
742.334	298.68
742.775	311.08
743.217	296.08
743.658	233.08
744.1	220.18
744.542	223.08
744.983	276.68
745.425	299.48
745.866	304.78
746.307	249.78
746.749	238.28
747.19	278.98
747.632	377.08
748.073	739.98
748.514	1562.58
748.956	2477.97
749.397	3082.97
749.838	2567.68
750.279	2613.67
750.72	1307.68
751.162	475.18
751.603	277.68
752.044	220.48
752.485	181.78
752.926	180.98
753.367	176.38
753.808	167.78
754.249	164.18
754.69	165.58
755.131	155.68
755.572	162.48
756.013	153.78
756.453	158.08
756.894	160.78
757.335	167.98
757.776	161.88
758.216	167.98
758.657	173.18
759.098	174.48
759.538	198.48
759.979	232.68
760.42	303.68
760.86	589.48
761.301	1505.28
761.741	3754.07
762.182	5730.08
762.622	4025.68
763.063	1158.88
763.503	467.68
763.943	293.18
764.384	293.48
764.824	356.28
765.264	383.08
765.705	273.58
766.145	181.28
766.585	163.28
767.025	151.28
767.465	158.78
767.906	205.08
768.346	275.88
768.786	298.68
769.226	230.28
769.666	268.08
770.106	504.38
770.546	1283.88
770.986	2309.88
771.426	2113.78
771.866	690.58
772.306	284.78
772.745	185.08
773.185	148.18
773.625	146.08
774.065	140.88
774.505	162.78
774.944	256.18
775.384	570.78
775.824	1073.28
776.263	1066.98
776.703	448.48
777.142	196.88
777.582	136.88
778.021	114.88
778.461	117.18
778.9	119.58
779.34	114.88
779.779	101.28
780.219	95.18
780.658	91.38
781.097	99.68
781.537	101.08
781.976	93.28
782.415	90.98
782.855	87.18
783.294	91.58
783.733	90.98
784.172	88.68
784.611	85.98
785.05	94.38
785.489	93.18
785.928	92.08
786.367	104.88
786.806	104.18
787.245	114.78
787.684	116.18
788.123	130.88
788.562	117.48
789.001	110.88
789.44	104.28
789.879	102.18
790.317	102.38
790.756	116.88
791.195	109.48
791.634	123.68
792.072	173.08
792.511	305.28
792.95	835.58
793.388	1854.98
793.827	1726.28
794.265	587.68
794.704	243.28
795.142	155.18
795.581	132.98
796.019	121.68
796.458	110.98
796.896	103.18
797.334	113.18
797.773	126.38
798.211	187.58
798.649	361.58
799.087	873.28
799.526	1383.97
799.964	1741.48
800.402	1786.57
800.84	665.78
801.278	256.08
801.716	159.08
802.154	131.88
802.592	130.98
803.03	120.38
803.468	116.18
803.906	125.08
804.344	133.68
804.782	119.08
805.22	108.08
805.658	110.98
806.096	123.68
806.533	134.38
806.971	147.08
807.409	182.78
807.847	260.98
808.284	560.78
808.722	1567.88
809.16	2895.98
809.597	2660.08
810.035	4712.18
810.472	5188.07
810.91	1859.38
811.347	695.38
811.785	352.78
812.222	219.28
812.66	165.98
813.097	140.88
813.535	121.58
813.972	109.38
814.409	104.28
814.846	97.28
815.284	95.38
815.721	82.58
816.158	95.88
816.595	105.78
817.032	156.38
817.47	174.18
817.907	140.18
818.344	125.88
818.781	102.18
819.218	84.98
819.655	99.18
820.092	157.18
820.529	186.78
820.966	156.58
821.403	119.18
821.839	93.88
822.276	87.28
822.713	104.18
823.15	122.88
823.587	100.58
824.023	122.68
824.46	242.08
824.897	758.48
825.333	1201.18
825.77	511.48
826.206	195.18
826.643	110.68
827.08	80.68
827.516	67.58
827.953	60.68
828.389	69.58
828.825	66.08
829.262	55.58
829.698	51.88
830.135	61.18
830.571	57.38
831.007	52.98
831.443	52.48
831.88	51.98
832.316	55.08
832.752	53.48
833.188	53.48
833.624	59.78
834.06	52.98
834.497	53.48
834.933	57.38
835.369	70.88
835.805	51.38
836.241	67.18
836.677	66.68
837.112	81.48
837.548	89.48
837.984	116.18
838.42	169.18
838.856	405.98
839.292	1287.38
839.727	2042.08
840.163	938.88
840.599	785.38
841.034	1756.88
841.47	1912.08
841.906	685.18
842.341	291.48
842.777	196.38
843.212	272.18
843.648	270.68
844.083	137.28
844.519	84.68
844.954	60.38
845.39	46.88
845.825	50.98
846.261	48.88
846.696	48.08
847.131	47.58
847.566	51.28
848.002	42.18
848.437	43.88
848.872	47.58
849.307	48.98
849.742	70.08
850.177	144.18
850.613	467.08
851.048	767.58
851.483	334.58
851.918	134.78
852.353	70.58
852.788	55.28
853.223	49.38
853.657	45.38
854.092	44.98
854.527	28.78
854.962	32.18
855.397	40.38
855.832	43.88
856.266	36.28
856.701	39.78
857.136	30.88
857.57	36.18
858.005	39.68
858.44	53.48
858.874	38.78
859.309	42.58
859.743	35.68
860.178	38.28
860.612	37.58
861.047	45.08
861.481	55.98
861.915	64.38
862.35	40.08
862.784	23.58
863.218	32.88
863.653	28.08
864.087	40.68
864.521	47.08
864.955	56.88
865.39	123.58
865.824	158.08
866.258	97.98
866.692	141.78
867.126	155.08
867.56	96.18
867.994	49.18
868.428	34.28
868.862	31.68
869.296	43.78
869.73	50.48
870.164	48.18
870.598	41.48
871.031	35.18
871.465	26.88
871.899	27.08
872.333	18.08
872.766	19.18
873.2	18.78
873.634	24.98
874.067	22.08
874.501	17.58
874.935	29.28
875.368	28.28
875.802	27.98
876.235	20.68
876.669	16.78
877.102	18.88
877.535	21.08
877.969	17.98
878.402	21.58
878.836	13.58
879.269	20.08
879.702	16.08
880.135	14.88
880.569	15.08
881.002	19.68
881.435	20.78
881.868	6.58
882.301	16.48
882.734	12.88
883.167	18.48
883.601	14.78
884.034	15.38
884.467	7.98
884.899	19.78
885.332	15.88
885.765	9.58
886.198	14.18
886.631	19.78
887.064	17.68
887.497	18.98
887.929	20.08
888.362	10.58
888.795	8.08
889.228	13.48
889.66	17.58
890.093	9.98
890.526	8.08
890.958	20.58
891.391	14.18
891.823	18.28
892.256	11.88
892.688	16.08
893.121	8.38
893.553	11.18
893.985	24.08
894.418	13.48
894.85	7.98
895.282	12.08
895.715	12.58
896.147	17.48
896.579	14.18
897.011	13.28
897.444	9.18
897.876	3.98
898.308	14.98
898.74	15.48
899.172	14.08
899.604	20.38
900.036	14.58
900.468	13.38
900.9	10.58
901.332	16.38
901.764	12.78
902.196	11.08
902.628	14.98
903.06	7.08
903.491	23.58
903.923	16.18
904.355	14.88
904.787	17.58
905.218	18.18
905.65	16.68
906.082	10.58
906.513	12.68
906.945	12.18
907.376	12.38
907.808	13.48
908.239	20.68
908.671	18.58
909.102	17.58
909.534	14.78
909.965	42.18
910.397	79.28
910.828	265.98
911.259	426.08
911.691	192.98
912.122	91.08
912.553	47.38
912.984	29.98
913.415	18.68
913.847	19.48
914.278	9.38
914.709	10.98
915.14	15.68
915.571	12.78
916.002	7.78
916.433	13.88
916.864	13.88
917.295	7.98
917.726	19.08
918.157	12.08
918.587	21.88
919.018	15.08
919.449	18.88
919.88	23.18
920.311	26.98
920.741	39.58
921.172	143.58
921.603	135.18
922.033	71.38
922.464	40.18
922.895	18.38
923.325	17.28
923.756	13.48
924.186	19.98
924.617	21.58
925.047	28.38
925.478	45.88
925.908	38.18
926.338	14.68
926.769	20.78
927.199	16.98
927.629	2.98
928.06	14.58
928.49	11.08
928.92	12.78
929.35	2.78
929.78	5.28
930.21	5.98
930.641	8.08
931.071	8.78
931.501	7.58
931.931	7.78
932.361	9.48
932.791	4.18
933.221	2.68
933.651	8.58
934.08	10.08
934.51	21.08
934.94	5.98
935.37	7.28
935.8	9.08
936.229	6.48
936.659	9.58
937.089	2.38
937.519	12.08
937.948	18.48
938.378	11.08
938.807	2.08
939.237	5.88
939.666	4.98
940.096	-5.92
940.525	1.28
940.955	-1.62
941.384	-2.52
941.814	-4.32
942.243	1.38
942.672	0.48
943.102	-3.82
943.531	-1.92
943.96	3.48
944.39	7.88
944.819	-4.22
945.248	3.18
945.677	0.78
946.106	-1.72
946.535	2.68
946.964	6.88
947.393	4.78
947.822	-4.82
948.251	-1.62
948.68	4.58
949.109	3.98
949.538	2.78
949.967	-0.12
950.396	-1.12
950.825	2.08
951.254	-7.52
951.682	-9.72
952.111	1.38
952.54	8.98
952.969	-2.22
953.397	-6.12
953.826	-0.22
954.254	-8.82
954.683	3.68
955.112	-8.02
955.54	-4.82
955.969	-2.82
956.397	0.58
956.826	-1.92
957.254	4.18
957.682	1.58
958.111	2.88
958.539	-9.72
958.967	-0.42
959.396	-3.82
959.824	1.18
960.252	2.68
960.68	-9.92
961.109	-6.62
961.537	-6.62
961.965	-4.52
962.393	-5.32
962.821	-6.32
963.249	-2.02
963.677	1.08
964.105	1.28
964.533	36.48
964.961	36.58
965.389	20.08
965.817	13.58
966.245	2.38
966.672	-3.12
967.1	-11.62
967.528	0.08
967.956	-6.12
968.383	-6.12
968.811	-5.32
969.239	0.48
969.666	-2.32
970.094	2.18
970.522	5.68
970.949	4.58
971.377	-6.42
971.804	-1.42
972.232	-3.62
972.659	-7.12
973.087	-6.72
973.514	-2.62
973.941	-5.92
974.369	2.08
974.796	0.88
975.223	-1.02
975.651	-0.42
976.078	0.88
976.505	-3.92
976.932	1.28
977.359	14.38
977.786	15.28
978.214	-3.62
978.641	-0.72
979.068	-5.12
979.495	-1.62
979.922	-6.12
980.349	-1.22
980.776	3.88
981.202	-1.22
981.629	1.88
982.056	5.08
982.483	0.28
982.91	8.18
983.337	-4.22
983.763	0.18
984.19	-9.62
984.617	-2.02
985.043	-6.32
985.47	-9.02
985.897	0.18
986.323	-6.52
986.75	-4.12
987.176	-5.32
987.603	-2.92
988.029	-2.32
988.456	-9.42
988.882	5.88
989.308	-8.92
989.735	-7.72
990.161	0.68
990.587	-2.52
991.014	-1.82
991.44	2.08
991.866	-4.52
992.292	-4.62
992.719	-5.82
993.145	2.48
993.571	-8.42
993.997	-8.92
994.423	-3.12
994.849	0.78
995.275	-1.32
995.701	-0.02
996.127	-5.82
996.553	3.08
996.979	2.28
997.405	0.48
997.83	-5.12
998.256	-10.32
998.682	-8.02
999.108	-9.62
999.534	-3.42
999.959	-8.42
1000.385	-5.82
1000.811	2.18
1001.236	-2.82
1001.662	-12.82
1002.087	-11.22
1002.513	-1.82
1002.938	0.68
1003.364	-6.52
1003.789	-4.22
1004.215	2.78
1004.64	-5.42
1005.066	-1.32
1005.491	-1.42
1005.916	-4.62
1006.342	-4.62
1006.767	-12.22
1007.192	-1.92
1007.617	-11.02
1008.042	-1.22
1008.468	-10.22
1008.893	-4.42
1009.318	-5.72
1009.743	-4.92
1010.168	0.88
1010.593	-3.82
1011.018	-7.12
1011.443	-4.92
1011.868	-2.02
1012.293	-5.72
1012.718	-8.72
1013.143	-2.22
1013.567	1.78
1013.992	-5.22
1014.417	-10.12
1014.842	-4.12
1015.267	-6.42
1015.691	-4.92
1016.116	-3.02
1016.541	-0.02
1016.965	-0.62
1017.39	-2.72
1017.814	-5.62
1018.239	-9.32
1018.663	-7.42
1019.088	-13.42
1019.512	-3.22
1019.937	1.68
1020.361	-6.32
1020.785	-10.42
1021.21	-1.52
1021.634	-3.22
1022.058	-1.82
1022.483	2.88
1022.907	-7.82
1023.331	-4.52
1023.755	-8.02
1024.179	-10.92
1024.604	-7.32
1025.028	-9.32
1025.452	-8.32
1025.876	-7.82
1026.3	-2.92
1026.724	-14.22
1027.148	-1.72
1027.572	-12.62
1027.996	-3.12
1028.42	-6.72
1028.843	-2.32
1029.267	-8.42
1029.691	-5.82
1030.115	-6.82
1030.539	-11.42
1030.962	-9.62
1031.386	-15.32
1031.81	-3.02
1032.233	-1.42
1032.657	0.58
1033.08	-5.22
1033.504	-6.52
1033.927	-4.32
1034.351	0.58
1034.774	-8.52
1035.198	-2.32
1035.621	-8.02
1036.045	-9.42
1036.468	-1.52
1036.891	-10.22
1037.315	-8.12
1037.738	-5.12
1038.161	0.98
1038.584	-6.02
1039.008	-3.72
1039.431	-9.62
1039.854	-5.42
1040.277	-7.72
1040.7	-11.22
1041.123	-0.92
1041.546	-1.32
1041.969	-12.22
1042.392	-6.32
1042.815	-6.52
1043.238	-0.72
1043.661	-2.32
1044.084	-1.02
1044.507	-7.92
1044.93	-3.92
1045.352	-4.32
1045.775	-2.62
1046.198	0.28
1046.621	-4.12
1047.043	0.08
1047.466	1.58
1047.889	-6.02
1048.311	-8.92
1048.734	-3.52
1049.156	-0.02
1049.579	-0.42
1050.001	-5.12
1050.424	1.88
1050.846	-4.82
1051.269	-3.42
1051.691	-6.02
1052.113	-8.32
1052.536	-1.32
1052.958	-7.32
1053.38	-5.62
1053.802	-8.42
1054.225	-1.82
1054.647	-8.02
1055.069	-8.22
1055.491	0.28
1055.913	-10.22
1056.335	-1.72
1056.757	-7.82
1057.179	-3.22
1057.601	-3.52
1058.023	-4.92
1058.445	-0.72
1058.867	-8.82
1059.289	-5.72
1059.711	-8.62
1060.133	-4.12
1060.555	-9.02
1060.976	-9.32
1061.398	-2.92
1061.82	-8.22
1062.241	-1.12
1062.663	-11.22
1063.085	-8.12
1063.506	3.08
1063.928	-5.02
1064.35	-7.42
1064.771	-16.22
1065.193	-3.72
1065.614	-10.82
1066.035	-2.72
1066.457	-4.82
1066.878	-3.22
1067.3	-5.62
1067.721	-7.02
1068.142	-6.52
1068.564	-1.22
1068.985	-7.92
1069.406	-10.42
1069.827	-6.42
1070.248	-2.82
1070.67	-8.52
1071.091	-9.52
1071.512	-5.22
1071.933	-13.02
1072.354	-13.92
1072.775	-8.62
1073.196	-8.82
1073.617	-9.12
1074.038	-7.62
1074.459	-2.72
1074.88	-14.92
1075.3	2.88
1075.721	-2.22
1076.142	-4.02
1076.563	-3.22
1076.983	-10.02
1077.404	-6.72
1077.825	-9.52
1078.246	-4.52
1078.666	-9.12
1079.087	-8.92
1079.507	-7.52
1079.928	-2.92
1080.348	-1.82
1080.769	-7.02
1081.189	0.38
1081.61	-4.92
1082.03	-8.52
1082.451	-7.22
1082.871	-3.02
1083.291	-9.02
1083.711	-7.32
1084.132	-1.12
1084.552	-4.32
1084.972	-4.92
1085.392	-11.12
1085.813	-7.02
1086.233	-4.72
1086.653	-8.92
1087.073	-2.22
1087.493	-3.02
1087.913	-6.92
1088.333	-10.72
1088.753	-4.02
1089.173	-1.62
1089.593	-2.42
1090.013	-1.22
1090.433	0.48
1090.852	-7.32
1091.272	-2.52
1091.692	-4.02
1092.112	-3.52
1092.531	-8.52
1092.951	-12.02
1093.371	-0.02
1093.79	-0.32
1094.21	-4.42
1094.63	-13.32
1095.049	-5.92
1095.469	-5.62
1095.888	-3.22
1096.308	-2.92
1096.727	-1.22
1097.146	-9.72
1097.566	7.08
1097.985	-1.12
1098.405	-3.02
1098.824	-10.82
1099.243	-7.02
1099.662	-7.52
1100.082	-4.02
1100.501	1.28
1100.92	-6.22
1101.339	-9.62
1101.758	-4.02
