Data from 20171114-ORNL-Ar_H_NY_Subt18_08-05-18-768.txt Node
Date: Tue Nov 14 08:05:18 EST 2017
User: Ender
Spectrometer: HR+D1039
Trigger mode: 0
Integration Time (sec): 2.730000E-2
Scans to average: 10
Electric dark correction enabled: true
Nonlinearity correction enabled: false
Boxcar width: 0
XAxis mode: Wavelengths
Number of Pixels in Spectrum: 2048
>>>>>Begin Spectral Data<<<<<
187.836	-1.77
188.309	-1.77
188.782	-1.77
189.255	-1.07
189.728	-6.07
190.201	13.33
190.674	0.93
191.147	3.23
191.619	-8.37
192.092	3.43
192.565	5.13
193.038	-1.37
193.511	-0.77
193.984	-0.17
194.456	-2.47
194.929	-3.17
195.402	-0.17
195.874	-0.67
196.347	-0.97
196.82	-4.77
197.292	6.43
197.765	-1.67
198.237	-6.47
198.71	0.53
199.182	0.73
199.655	-2.37
200.127	2.63
200.6	-2.27
201.072	-3.67
201.544	-4.07
202.017	-1.07
202.489	1.23
202.961	0.83
203.433	-1.77
203.906	-8.77
204.378	-7.77
204.85	-3.47
205.322	-8.17
205.794	-1.97
206.266	-1.17
206.739	-3.37
207.211	2.23
207.683	-1.97
208.155	-2.57
208.627	-1.57
209.099	-3.87
209.57	-5.67
210.042	-3.87
210.514	-2.77
210.986	0.43
211.458	-2.37
211.93	6.53
212.402	3.43
212.873	-6.27
213.345	-10.47
213.817	-5.57
214.288	-6.07
214.76	-8.87
215.232	-1.07
215.703	-4.97
216.175	-3.47
216.646	-6.27
217.118	-5.27
217.589	-0.77
218.061	2.73
218.532	-2.87
219.004	-7.37
219.475	-0.07
219.946	-1.87
220.418	-2.47
220.889	4.03
221.36	1.43
221.832	-3.37
222.303	-7.17
222.774	0.43
223.245	-13.47
223.717	-5.37
224.188	-2.77
224.659	-5.87
225.13	-4.97
225.601	-3.67
226.072	0.23
226.543	-0.57
227.014	2.93
227.485	-5.67
227.956	-10.77
228.427	-6.37
228.898	3.03
229.369	5.53
229.839	-3.87
230.31	-4.47
230.781	3.23
231.252	-2.17
231.722	-0.97
232.193	-2.67
232.664	1.13
233.135	-1.17
233.605	-0.27
234.076	-4.87
234.546	5.43
235.017	7.53
235.487	3.23
235.958	-0.37
236.428	2.43
236.899	-0.07
237.369	4.53
237.84	-0.67
238.31	4.93
238.78	3.43
239.251	2.13
239.721	7.23
240.191	-1.27
240.662	0.93
241.132	3.43
241.602	-0.37
242.072	2.13
242.542	9.23
243.013	6.13
243.483	9.63
243.953	9.93
244.423	2.63
244.893	-6.17
245.363	1.73
245.833	-0.07
246.303	-0.17
246.773	6.63
247.243	4.63
247.712	3.43
248.182	9.63
248.652	10.33
249.122	1.73
249.592	10.83
250.061	23.63
250.531	35.93
251.001	18.43
251.471	22.73
251.94	26.03
252.41	12.33
252.879	5.43
253.349	10.73
253.818	9.83
254.288	-0.27
254.757	8.43
255.227	-3.47
255.696	-0.97
256.166	10.33
256.635	12.13
257.105	11.53
257.574	9.13
258.043	15.33
258.513	17.63
258.982	23.43
259.451	2.83
259.92	21.13
260.389	15.23
260.859	17.83
261.328	16.93
261.797	20.13
262.266	10.23
262.735	14.63
263.204	8.43
263.673	9.03
264.142	7.63
264.611	-4.47
265.08	-0.67
265.549	5.13
266.018	2.43
266.487	0.33
266.955	4.83
267.424	6.83
267.893	8.43
268.362	6.43
268.83	8.93
269.299	18.23
269.768	7.23
270.236	12.53
270.705	6.93
271.174	9.83
271.642	7.53
272.111	11.43
272.579	19.23
273.048	31.53
273.516	36.53
273.985	35.63
274.453	30.53
274.922	23.23
275.39	17.93
275.858	3.73
276.327	11.03
276.795	21.63
277.263	14.33
277.731	31.13
278.2	62.63
278.668	60.33
279.136	56.33
279.604	18.73
280.072	17.63
280.54	15.13
281.008	15.83
281.477	20.83
281.945	18.83
282.413	13.33
282.881	18.53
283.348	11.63
283.816	16.93
284.284	11.83
284.752	16.83
285.22	17.53
285.688	17.83
286.156	19.63
286.623	47.53
287.091	54.83
287.559	36.13
288.026	23.63
288.494	14.43
288.962	11.43
289.429	14.03
289.897	20.63
290.364	20.83
290.832	17.43
291.3	20.53
291.767	22.23
292.234	20.53
292.702	12.53
293.169	17.13
293.637	28.93
294.104	23.53
294.571	11.43
295.039	16.43
295.506	16.13
295.973	20.63
296.44	24.43
296.908	21.23
297.375	21.63
297.842	21.63
298.309	21.73
298.776	23.23
299.243	23.73
299.71	12.53
300.177	25.03
300.644	25.53
301.111	21.53
301.578	27.13
302.045	24.03
302.512	21.13
302.979	23.63
303.446	23.93
303.913	19.23
304.379	22.13
304.846	27.63
305.313	23.43
305.78	28.23
306.246	31.33
306.713	32.23
307.18	23.63
307.646	28.53
308.113	24.93
308.579	23.13
309.046	25.73
309.512	24.73
309.979	23.83
310.445	34.13
310.912	32.83
311.378	37.43
311.845	31.33
312.311	34.83
312.777	32.53
313.244	39.13
313.71	39.73
314.176	34.73
314.642	27.23
315.109	32.93
315.575	36.63
316.041	42.93
316.507	36.73
316.973	38.73
317.439	38.03
317.905	34.93
318.371	39.63
318.837	36.93
319.303	36.03
319.769	29.23
320.235	38.43
320.701	37.63
321.167	38.53
321.633	39.23
322.099	41.13
322.564	48.73
323.03	43.63
323.496	44.03
323.962	45.23
324.427	39.13
324.893	48.23
325.359	46.53
325.824	38.93
326.29	44.93
326.755	47.73
327.221	36.83
327.686	44.83
328.152	47.93
328.617	48.03
329.083	51.13
329.548	56.93
330.014	53.13
330.479	39.93
330.944	50.43
331.41	45.03
331.875	49.63
332.34	48.43
332.805	49.93
333.271	53.03
333.736	51.43
334.201	56.33
334.666	54.93
335.131	57.43
335.596	50.13
336.061	53.53
336.526	42.43
336.991	49.93
337.456	59.33
337.921	50.23
338.386	51.53
338.851	44.73
339.316	46.33
339.781	51.93
340.246	57.93
340.711	50.13
341.175	52.53
341.64	49.33
342.105	48.53
342.569	63.03
343.034	60.73
343.499	59.13
343.963	49.53
344.428	66.13
344.893	65.63
345.357	62.83
345.822	60.13
346.286	68.33
346.751	77.63
347.215	66.43
347.679	77.03
348.144	100.53
348.608	93.03
349.073	73.73
349.537	78.03
350.001	89.13
350.465	93.33
350.93	84.83
351.394	88.73
351.858	76.03
352.322	92.93
352.786	83.23
353.25	96.43
353.715	107.83
354.179	107.73
354.643	124.73
355.107	128.63
355.571	115.23
356.035	111.43
356.498	121.33
356.962	124.03
357.426	137.33
357.89	120.03
358.354	87.93
358.818	87.03
359.281	86.83
359.745	79.83
360.209	79.23
360.673	79.23
361.136	88.73
361.6	86.83
362.064	85.63
362.527	88.23
362.991	95.23
363.454	79.93
363.918	81.33
364.381	89.33
364.845	86.43
365.308	93.13
365.772	92.43
366.235	91.53
366.698	87.63
367.162	93.13
367.625	90.43
368.088	88.93
368.552	89.13
369.015	91.83
369.478	101.33
369.941	105.43
370.404	93.23
370.867	103.83
371.331	113.33
371.794	113.93
372.257	115.23
372.72	118.63
373.183	111.23
373.646	105.93
374.109	107.33
374.572	109.83
375.035	109.33
375.497	108.93
375.96	108.63
376.423	108.83
376.886	116.63
377.349	116.53
377.811	105.33
378.274	116.43
378.737	113.33
379.199	109.93
379.662	118.43
380.125	121.43
380.587	118.03
381.05	126.23
381.512	132.53
381.975	141.43
382.437	136.73
382.9	130.73
383.362	129.33
383.825	142.93
384.287	156.43
384.75	147.23
385.212	144.63
385.674	140.23
386.136	142.23
386.599	120.53
387.061	128.03
387.523	133.63
387.985	137.73
388.447	152.33
388.91	147.33
389.372	162.93
389.834	160.33
390.296	148.83
390.758	161.73
391.22	168.63
391.682	208.83
392.144	304.13
392.606	232.03
393.068	168.73
393.529	173.33
393.991	154.73
394.453	152.13
394.915	162.43
395.377	197.23
395.838	220.63
396.3	158.73
396.762	142.43
397.224	127.83
397.685	136.83
398.147	130.83
398.608	136.63
399.07	125.73
399.531	135.03
399.993	146.13
400.454	159.43
400.916	148.03
401.377	148.23
401.839	154.53
402.3	152.33
402.762	167.53
403.223	182.23
403.684	170.23
404.145	168.93
404.607	166.83
405.068	175.23
405.529	173.53
405.99	190.33
406.451	178.43
406.913	174.53
407.374	167.33
407.835	159.73
408.296	173.53
408.757	175.83
409.218	184.63
409.679	186.23
410.14	172.83
410.601	184.13
411.062	184.53
411.522	194.73
411.983	190.53
412.444	178.33
412.905	180.43
413.366	177.13
413.826	193.43
414.287	218.13
414.748	263.33
415.208	252.63
415.669	209.03
416.13	215.13
416.59	205.83
417.051	215.53
417.511	222.53
417.972	238.03
418.432	256.83
418.893	280.03
419.353	256.33
419.814	193.23
420.274	184.33
420.734	177.73
421.195	200.93
421.655	201.33
422.115	192.33
422.576	190.33
423.036	198.93
423.496	212.93
423.956	212.73
424.416	235.83
424.876	266.93
425.336	257.53
425.797	273.43
426.257	259.73
426.717	244.13
427.177	229.83
427.637	234.13
428.097	238.83
428.556	250.63
429.016	279.73
429.476	269.13
429.936	275.63
430.396	280.93
430.856	293.63
431.315	323.83
431.775	360.33
432.235	387.83
432.694	362.73
433.154	360.43
433.614	397.93
434.073	344.53
434.533	285.63
434.993	275.33
435.452	293.13
435.912	304.93
436.371	288.93
436.83	289.23
437.29	274.03
437.749	253.13
438.209	246.83
438.668	279.83
439.127	287.23
439.587	268.13
440.046	256.63
440.505	264.23
440.964	285.63
441.424	324.03
441.883	311.53
442.342	262.93
442.801	226.53
443.26	222.53
443.719	226.73
444.178	222.83
444.637	218.53
445.096	222.13
445.555	219.73
446.014	223.33
446.473	224.93
446.932	236.93
447.391	235.13
447.849	226.83
448.308	215.93
448.767	220.83
449.226	234.73
449.685	239.73
450.143	254.23
450.602	243.53
451.061	223.23
451.519	236.33
451.978	240.53
452.436	241.43
452.895	238.93
453.353	254.43
453.812	240.23
454.27	237.43
454.729	234.73
455.187	241.33
455.646	242.33
456.104	253.53
456.562	261.93
457.021	272.03
457.479	266.03
457.937	272.63
458.395	274.43
458.854	255.63
459.312	269.03
459.77	274.23
460.228	262.53
460.686	240.53
461.144	248.03
461.602	249.33
462.06	240.33
462.518	254.33
462.976	252.33
463.434	257.13
463.892	263.53
464.35	275.43
464.808	291.33
465.266	268.23
465.724	260.53
466.181	275.43
466.639	278.73
467.097	296.13
467.555	308.03
468.012	310.23
468.47	315.23
468.928	328.83
469.385	345.23
469.843	347.93
470.3	355.43
470.758	359.33
471.215	383.43
471.673	416.23
472.13	408.03
472.588	425.93
473.045	370.33
473.503	376.23
473.96	388.03
474.417	405.73
474.875	441.83
475.332	482.33
475.789	465.43
476.246	470.63
476.704	485.43
477.161	507.63
477.618	520.13
478.075	567.53
478.532	626.43
478.989	703.53
479.446	815.23
479.903	785.43
480.36	818.23
480.817	882.03
481.274	993.13
481.731	1090.63
482.188	1181.73
482.645	1326.03
483.102	1426.33
483.558	1572.73
484.015	1637.63
484.472	1594.83
484.929	1556.13
485.385	1512.53
485.842	1473.73
486.299	1403.03
486.755	1323.13
487.212	1100.33
487.668	929.33
488.125	864.73
488.582	784.03
489.038	759.53
489.494	727.33
489.951	698.53
490.407	675.23
490.864	655.73
491.32	648.03
491.776	645.33
492.233	653.13
492.689	621.53
493.145	603.43
493.602	598.83
494.058	607.73
494.514	621.53
494.97	650.73
495.426	660.53
495.882	628.63
496.338	625.23
496.794	629.03
497.251	618.53
497.707	632.03
498.163	648.23
498.618	646.53
499.074	654.83
499.53	689.53
499.986	680.43
500.442	655.83
500.898	638.93
501.354	632.73
501.809	644.63
502.265	659.23
502.721	667.13
503.177	681.63
503.632	664.03
504.088	679.73
504.543	716.33
504.999	723.23
505.455	669.23
505.91	637.73
506.366	649.33
506.821	633.03
507.277	626.63
507.732	634.63
508.187	620.83
508.643	639.33
509.098	636.93
509.553	662.23
510.009	664.43
510.464	672.03
510.919	693.73
511.375	699.03
511.83	715.33
512.285	729.03
512.74	766.03
513.195	785.23
513.65	778.33
514.105	779.03
514.56	776.53
515.015	800.13
515.47	809.93
515.925	801.43
516.38	795.23
516.835	800.63
517.29	788.63
517.745	784.73
518.2	760.53
518.655	751.13
519.109	746.83
519.564	745.23
520.019	735.53
520.474	729.43
520.928	733.23
521.383	729.93
521.838	720.83
522.292	718.73
522.747	714.23
523.201	698.03
523.656	694.33
524.11	691.43
524.565	702.33
525.019	696.43
525.474	706.53
525.928	702.03
526.382	695.93
526.837	709.03
527.291	700.63
527.745	708.53
528.2	707.33
528.654	696.63
529.108	701.33
529.562	684.93
530.016	692.93
530.47	689.83
530.925	700.13
531.379	701.63
531.833	710.33
532.287	700.03
532.741	714.53
533.195	701.03
533.649	714.73
534.103	723.23
534.556	712.33
535.01	717.13
535.464	710.83
535.918	726.73
536.372	718.33
536.826	723.93
537.279	709.83
537.733	704.63
538.187	715.33
538.64	714.63
539.094	722.33
539.548	742.63
540.001	728.53
540.455	724.33
540.908	730.63
541.362	736.33
541.815	746.03
542.269	762.43
542.722	764.23
543.175	769.73
543.629	768.63
544.082	788.33
544.536	785.93
544.989	783.03
545.442	796.83
545.895	795.43
546.349	791.23
546.802	797.83
547.255	797.03
547.708	814.33
548.161	814.43
548.614	826.73
549.067	838.03
549.52	816.33
549.973	813.93
550.426	808.93
550.879	793.03
551.332	804.83
551.785	805.43
552.238	803.03
552.691	813.73
553.144	829.63
553.596	854.93
554.049	861.23
554.502	900.73
554.955	911.03
555.407	906.43
555.86	900.63
556.313	894.13
556.765	885.43
557.218	881.33
557.67	876.33
558.123	874.33
558.576	868.83
559.028	864.53
559.48	885.33
559.933	879.43
560.385	830.03
560.838	800.53
561.29	775.83
561.742	774.63
562.195	754.23
562.647	759.43
563.099	765.53
563.551	773.13
564.004	776.43
564.456	769.63
564.908	756.93
565.36	743.63
565.812	739.13
566.264	722.83
566.716	729.03
567.168	709.93
567.62	723.83
568.072	694.73
568.524	700.83
568.976	687.13
569.428	662.93
569.88	662.63
570.332	681.63
570.784	678.43
571.235	672.13
571.687	683.63
572.139	695.93
572.59	697.93
573.042	710.43
573.494	710.33
573.945	707.13
574.397	689.13
574.849	691.03
575.3	680.33
575.752	677.53
576.203	670.23
576.655	681.53
577.106	658.03
577.557	656.23
578.009	649.83
578.46	663.93
578.912	658.83
579.363	651.43
579.814	651.23
580.265	648.63
580.717	659.23
581.168	659.43
581.619	668.63
582.07	677.13
582.521	671.53
582.972	660.43
583.423	669.53
583.875	672.53
584.326	688.13
584.777	739.63
585.227	818.73
585.678	923.33
586.129	1016.03
586.58	1082.23
587.031	1170.83
587.482	1348.63
587.933	1524.63
588.384	1324.03
588.834	982.83
589.285	796.13
589.736	781.03
590.186	772.53
590.637	752.73
591.088	728.43
591.538	722.93
591.989	724.53
592.439	717.83
592.89	708.73
593.34	704.73
593.791	702.13
594.241	693.43
594.692	707.73
595.142	692.13
595.593	684.63
596.043	696.93
596.493	698.13
596.943	702.03
597.394	702.83
597.844	699.93
598.294	713.63
598.744	733.13
599.195	761.03
599.645	800.23
600.095	836.53
600.545	889.63
600.995	945.43
601.445	1003.43
601.895	1063.93
602.345	1109.63
602.795	1095.43
603.245	1040.93
603.695	995.33
604.145	928.03
604.594	887.33
605.044	839.33
605.494	788.63
605.944	729.93
606.393	728.03
606.843	720.93
607.293	718.73
607.743	714.63
608.192	734.13
608.642	738.63
609.091	740.93
609.541	755.13
609.99	754.53
610.44	761.63
610.889	700.23
611.339	679.13
611.788	677.33
612.238	679.53
612.687	702.73
613.136	698.93
613.586	721.03
614.035	718.63
614.484	741.23
614.933	733.03
615.383	732.33
615.832	728.83
616.281	709.93
616.73	668.83
617.179	647.53
617.628	632.93
618.077	617.43
618.526	598.43
618.975	600.53
619.424	600.33
619.873	600.53
620.322	603.63
620.771	588.23
621.22	572.63
621.669	565.53
622.118	570.23
622.567	570.33
623.015	564.63
623.464	562.83
623.913	545.13
624.361	538.53
624.81	536.63
625.259	535.13
625.707	541.43
626.156	538.63
626.604	544.03
627.053	543.73
627.501	535.93
627.95	545.43
628.398	566.63
628.847	542.83
629.295	541.93
629.744	560.23
630.192	547.73
630.64	549.33
631.089	545.73
631.537	561.23
631.985	569.43
632.433	569.93
632.881	583.83
633.33	633.93
633.778	614.03
634.226	539.13
634.674	550.33
635.122	556.33
635.57	578.33
636.018	598.93
636.466	564.23
636.914	538.23
637.362	545.23
637.81	553.63
638.258	554.23
638.705	547.13
639.153	591.53
639.601	580.83
640.049	617.83
640.497	646.33
640.944	672.73
641.392	621.63
641.84	588.03
642.287	561.43
642.735	554.33
643.182	550.83
643.63	552.23
644.078	557.83
644.525	566.33
644.973	576.13
645.42	576.63
645.867	597.23
646.315	618.63
646.762	635.83
647.21	664.73
647.657	689.33
648.104	732.13
648.551	746.53
648.999	803.13
649.446	883.43
649.893	960.53
650.34	1110.93
650.787	1336.33
651.234	1664.83
651.682	2143.03
652.129	2950.63
652.576	4253.73
653.023	6283.43
653.47	8642.93
653.917	10882.63
654.363	12667.73
654.81	14054.13
655.257	13427.63
655.704	8753.83
656.151	5151.03
656.598	3332.93
657.044	2349.73
657.491	1821.03
657.938	1454.83
658.385	1208.43
658.831	1046.73
659.278	926.13
659.724	824.23
660.171	762.33
660.618	697.23
661.064	656.63
661.511	639.93
661.957	625.13
662.404	618.43
662.85	623.03
663.296	597.53
663.743	538.73
664.189	518.03
664.635	511.93
665.082	511.93
665.528	500.53
665.974	497.73
666.42	493.43
666.867	486.83
667.313	478.83
667.759	455.13
668.205	465.33
668.651	470.83
669.097	474.83
669.543	493.03
669.989	456.43
670.435	423.43
670.881	424.93
671.327	433.23
671.773	439.03
672.219	464.03
672.665	519.33
673.11	544.33
673.556	596.53
674.002	643.13
674.448	630.43
674.893	523.73
675.339	452.53
675.785	421.43
676.23	398.73
676.676	377.43
677.122	363.13
677.567	357.13
678.013	351.33
678.458	330.83
678.904	347.93
679.349	329.53
679.794	334.03
680.24	340.33
680.685	334.23
681.131	338.03
681.576	336.03
682.021	337.33
682.466	332.33
682.912	337.63
683.357	332.73
683.802	368.23
684.247	389.43
684.692	422.53
685.137	464.93
685.583	509.73
686.028	538.53
686.473	496.13
686.918	423.53
687.363	391.53
687.807	382.33
688.252	345.73
688.697	335.13
689.142	316.73
689.587	318.23
690.032	308.73
690.477	323.63
690.921	334.93
691.366	357.03
691.811	380.73
692.255	408.23
692.7	433.63
693.145	473.03
693.589	652.13
694.034	1049.83
694.478	1437.43
694.923	1654.13
695.367	2164.13
695.812	1129.83
696.256	472.03
696.701	351.03
697.145	330.13
697.59	321.93
698.034	304.43
698.478	307.13
698.922	312.93
699.367	313.13
699.811	314.93
700.255	335.33
700.699	363.43
701.143	400.43
701.588	444.03
702.032	489.83
702.476	478.93
702.92	463.33
703.364	460.43
703.808	590.33
704.252	948.53
704.696	1354.23
705.14	1573.33
705.584	2031.43
706.027	1008.53
706.471	486.23
706.915	377.83
707.359	332.53
707.803	304.53
708.246	293.73
708.69	294.63
709.134	305.63
709.577	288.43
710.021	291.83
710.465	280.53
710.908	283.13
711.352	279.63
711.795	297.33
712.239	333.33
712.682	365.03
713.126	385.53
713.569	444.73
714.012	347.23
714.456	304.93
714.899	283.13
715.342	255.83
715.786	247.13
716.229	246.63
716.672	244.33
717.115	231.33
717.558	239.33
718.002	235.83
718.445	242.83
718.888	265.53
719.331	268.33
719.774	286.53
720.217	282.53
720.66	263.33
721.103	247.03
721.546	240.03
721.989	241.63
722.432	218.53
722.874	228.13
723.317	214.93
723.76	230.13
724.203	241.13
724.645	299.93
725.088	409.43
725.531	535.23
725.974	618.53
726.416	529.33
726.859	293.83
727.301	229.43
727.744	224.03
728.187	219.73
728.629	226.53
729.071	227.93
729.514	247.43
729.956	256.43
730.399	261.53
730.841	262.23
731.283	257.03
731.726	246.03
732.168	241.83
732.61	250.73
733.053	269.63
733.495	293.03
733.937	318.53
734.379	365.03
734.821	406.93
735.263	498.23
735.705	760.63
736.148	1441.03
736.59	2389.83
737.032	2894.13
737.474	2350.03
737.916	762.03
738.357	398.13
738.799	310.83
739.241	278.73
739.683	263.73
740.125	273.33
740.567	276.23
741.008	293.53
741.45	302.23
741.892	297.63
742.334	329.03
742.775	345.43
743.217	323.53
743.658	249.73
744.1	238.03
744.542	246.13
744.983	289.23
745.425	321.43
745.866	324.23
746.307	266.43
746.749	267.93
747.19	307.23
747.632	423.03
748.073	789.13
748.514	1713.03
748.956	2666.53
749.397	3322.43
749.838	2768.63
750.279	2826.83
750.72	1416.73
751.162	508.23
751.603	301.83
752.044	234.93
752.485	197.03
752.926	200.53
753.367	189.53
753.808	185.43
754.249	185.93
754.69	178.83
755.131	178.13
755.572	167.03
756.013	168.93
756.453	172.43
756.894	171.03
757.335	179.83
757.776	184.33
758.216	178.53
758.657	181.93
759.098	189.23
759.538	206.73
759.979	252.03
760.42	342.63
760.86	637.83
761.301	1639.13
761.741	4056.93
762.182	6141.53
762.622	4326.43
763.063	1240.13
763.503	507.83
763.943	326.53
764.384	341.03
764.824	401.63
765.264	442.93
765.705	297.23
766.145	197.03
766.585	173.13
767.025	165.83
767.465	181.83
767.906	237.03
768.346	317.03
768.786	344.43
769.226	253.13
769.666	290.53
770.106	567.93
770.546	1416.93
770.986	2499.63
771.426	2253.03
771.866	747.43
772.306	305.13
772.745	202.53
773.185	165.63
773.625	158.13
774.065	153.83
774.505	186.33
774.944	283.13
775.384	640.53
775.824	1177.43
776.263	1169.23
776.703	487.73
777.142	204.03
777.582	142.43
778.021	127.63
778.461	130.53
778.9	130.33
779.34	118.33
779.779	114.63
780.219	105.33
780.658	97.33
781.097	104.43
781.537	112.13
781.976	101.13
782.415	100.83
782.855	90.43
783.294	99.73
783.733	94.83
784.172	95.13
784.611	95.53
785.05	97.43
785.489	107.43
785.928	109.13
786.367	109.03
786.806	109.13
787.245	116.13
787.684	126.83
788.123	150.53
788.562	122.03
789.001	117.53
789.44	112.33
789.879	106.33
790.317	111.53
790.756	118.03
791.195	128.63
791.634	132.83
792.072	190.53
792.511	324.93
792.95	915.93
793.388	2008.83
793.827	1846.53
794.265	633.23
794.704	266.43
795.142	172.73
795.581	139.03
796.019	129.53
796.458	119.83
796.896	111.63
797.334	118.03
797.773	147.93
798.211	195.63
798.649	393.53
799.087	934.03
799.526	1486.33
799.964	1864.83
800.402	1923.53
800.84	709.93
801.278	279.13
801.716	169.73
802.154	140.53
802.592	136.53
803.03	125.43
803.468	125.13
803.906	129.13
804.344	135.53
804.782	128.13
805.22	125.33
805.658	120.63
806.096	137.73
806.533	146.43
806.971	166.73
807.409	203.03
807.847	287.33
808.284	598.03
808.722	1698.83
809.16	3088.13
809.597	2883.83
810.035	5037.33
810.472	5521.63
810.91	1969.63
811.347	745.83
811.785	374.03
812.222	234.13
812.66	180.23
813.097	151.83
813.535	133.73
813.972	123.23
814.409	110.93
814.846	102.83
815.284	103.03
815.721	88.33
816.158	98.83
816.595	107.83
817.032	169.93
817.47	197.63
817.907	166.23
818.344	146.63
818.781	111.63
819.218	98.93
819.655	109.13
820.092	171.63
820.529	201.23
820.966	170.63
821.403	128.93
821.839	98.83
822.276	96.13
822.713	110.73
823.15	120.83
823.587	113.73
824.023	137.23
824.46	274.13
824.897	826.13
825.333	1291.23
825.77	541.53
826.206	207.13
826.643	122.53
827.08	95.33
827.516	75.33
827.953	76.53
828.389	70.13
828.825	61.33
829.262	64.53
829.698	63.13
830.135	62.33
830.571	52.73
831.007	61.13
831.443	65.33
831.88	57.83
832.316	53.13
832.752	66.53
833.188	59.93
833.624	57.93
834.06	64.33
834.497	63.63
834.933	73.63
835.369	73.83
835.805	64.23
836.241	70.43
836.677	69.23
837.112	92.53
837.548	93.13
837.984	122.93
838.42	186.43
838.856	449.73
839.292	1396.73
839.727	2181.83
840.163	1009.03
840.599	845.03
841.034	1876.53
841.47	2037.83
841.906	732.53
842.341	316.13
842.777	212.43
843.212	300.83
843.648	303.93
844.083	142.03
844.519	96.03
844.954	73.23
845.39	60.03
845.825	53.43
846.261	54.03
846.696	57.13
847.131	51.33
847.566	54.03
848.002	44.13
848.437	51.03
848.872	60.03
849.307	51.83
849.742	73.93
850.177	154.03
850.613	511.23
851.048	827.53
851.483	358.93
851.918	144.63
852.353	75.73
852.788	57.93
853.223	52.73
853.657	50.63
854.092	46.33
854.527	39.33
854.962	39.13
855.397	43.63
855.832	49.83
856.266	37.53
856.701	38.13
857.136	36.43
857.57	43.53
858.005	44.03
858.44	58.33
858.874	43.73
859.309	50.63
859.743	36.33
860.178	42.23
860.612	40.63
861.047	50.33
861.481	58.23
861.915	65.83
862.35	46.03
862.784	31.83
863.218	34.93
863.653	31.23
864.087	44.23
864.521	49.93
864.955	57.93
865.39	148.43
865.824	169.53
866.258	107.03
866.692	155.23
867.126	165.63
867.56	101.43
867.994	52.53
868.428	35.53
868.862	41.93
869.296	51.93
869.73	50.13
870.164	55.33
870.598	45.63
871.031	33.53
871.465	34.83
871.899	29.23
872.333	25.23
872.766	21.83
873.2	20.43
873.634	29.63
874.067	26.03
874.501	23.43
874.935	25.63
875.368	29.33
875.802	22.73
876.235	26.03
876.669	24.53
877.102	20.73
877.535	25.23
877.969	24.53
878.402	26.43
878.836	16.43
879.269	17.53
879.702	18.13
880.135	16.93
880.569	19.93
881.002	27.93
881.435	21.83
881.868	13.53
882.301	19.03
882.734	16.23
883.167	25.83
883.601	18.23
884.034	19.83
884.467	20.73
884.899	21.63
885.332	14.33
885.765	20.63
886.198	16.33
886.631	13.43
887.064	17.03
887.497	22.73
887.929	18.63
888.362	10.93
888.795	9.63
889.228	14.43
889.66	22.13
890.093	18.03
890.526	12.73
890.958	19.73
891.391	16.13
891.823	18.03
892.256	18.73
892.688	13.23
893.121	9.63
893.553	17.83
893.985	19.33
894.418	16.93
894.85	12.13
895.282	9.73
895.715	18.63
896.147	12.63
896.579	19.63
897.011	10.73
897.444	12.43
897.876	10.23
898.308	14.23
898.74	6.23
899.172	15.23
899.604	24.93
900.036	26.53
900.468	21.63
900.9	17.43
901.332	10.13
901.764	9.13
902.196	15.93
902.628	12.63
903.06	16.33
903.491	33.23
903.923	22.53
904.355	18.73
904.787	21.63
905.218	25.63
905.65	16.23
906.082	10.73
906.513	12.03
906.945	16.13
907.376	11.53
907.808	24.23
908.239	20.83
908.671	15.63
909.102	25.03
909.534	26.03
909.965	42.23
910.397	85.73
910.828	290.63
911.259	449.53
911.691	203.53
912.122	107.63
912.553	47.53
912.984	31.73
913.415	25.03
913.847	20.93
914.278	15.73
914.709	11.03
915.14	13.33
915.571	18.23
916.002	15.43
916.433	21.13
916.864	20.03
917.295	8.83
917.726	22.03
918.157	21.43
918.587	29.03
919.018	14.43
919.449	22.13
919.88	25.03
920.311	28.83
920.741	43.93
921.172	157.33
921.603	140.73
922.033	67.43
922.464	46.33
922.895	22.93
923.325	19.23
923.756	15.43
924.186	16.53
924.617	19.63
925.047	39.83
925.478	58.23
925.908	39.53
926.338	21.53
926.769	15.13
927.199	18.13
927.629	7.93
928.06	11.93
928.49	12.83
928.92	10.03
929.35	12.93
929.78	8.83
930.21	1.63
930.641	6.93
931.071	4.53
931.501	8.23
931.931	11.73
932.361	7.23
932.791	-0.37
933.221	3.33
933.651	3.23
934.08	21.33
934.51	28.33
934.94	9.93
935.37	12.03
935.8	8.83
936.229	8.83
936.659	6.23
937.089	4.33
937.519	8.33
937.948	27.63
938.378	10.43
938.807	13.13
939.237	1.73
939.666	7.73
940.096	-0.07
940.525	1.43
940.955	-1.67
941.384	2.73
941.814	-2.27
942.243	-1.67
942.672	0.43
943.102	-7.77
943.531	1.03
943.96	6.63
944.39	5.43
944.819	3.53
945.248	2.53
945.677	3.93
946.106	1.43
946.535	5.33
946.964	1.83
947.393	4.43
947.822	0.33
948.251	-1.67
948.68	2.03
949.109	3.53
949.538	4.13
949.967	-4.97
950.396	0.43
950.825	-0.77
951.254	1.23
951.682	-0.67
952.111	3.83
952.54	4.33
952.969	-2.07
953.397	-5.67
953.826	5.83
954.254	-1.87
954.683	-1.67
955.112	-2.47
955.54	6.03
955.969	-0.17
956.397	-4.47
956.826	-4.67
957.254	2.33
957.682	-3.97
958.111	7.53
958.539	1.03
958.967	-2.27
959.396	2.33
959.824	-1.07
960.252	5.73
960.68	-7.27
961.109	2.53
961.537	-0.97
961.965	2.93
962.393	0.03
962.821	-8.37
963.249	1.93
963.677	7.43
964.105	0.63
964.533	43.63
964.961	44.43
965.389	17.23
965.817	10.23
966.245	-2.47
966.672	-3.07
967.1	-8.87
967.528	0.23
967.956	-3.07
968.383	-2.67
968.811	-4.57
969.239	-2.07
969.666	-10.77
970.094	-4.47
970.522	-0.87
970.949	-0.77
971.377	-2.87
971.804	1.93
972.232	-4.87
972.659	-2.67
973.087	-9.87
973.514	-5.37
973.941	-6.57
974.369	1.13
974.796	0.83
975.223	8.23
975.651	-2.87
976.078	3.73
976.505	-0.47
976.932	2.83
977.359	16.43
977.786	20.83
978.214	3.53
978.641	-1.87
979.068	-0.27
979.495	-0.37
979.922	2.53
980.349	1.93
980.776	2.03
981.202	-0.17
981.629	7.03
982.056	11.03
982.483	-9.77
982.91	0.33
983.337	-10.47
983.763	2.73
984.19	-3.97
984.617	-0.37
985.043	-2.57
985.47	-2.57
985.897	1.73
986.323	-5.07
986.75	3.93
987.176	-4.07
987.603	-2.97
988.029	-2.87
988.456	-1.97
988.882	1.73
989.308	-1.87
989.735	-0.97
990.161	-3.77
990.587	-3.37
991.014	-0.57
991.44	11.13
991.866	-1.97
992.292	0.63
992.719	-1.37
993.145	0.73
993.571	-1.97
993.997	-0.57
994.423	1.23
994.849	-7.67
995.275	3.53
995.701	5.13
996.127	-6.07
996.553	-3.47
996.979	-9.97
997.405	-5.27
997.83	-1.37
998.256	-2.47
998.682	-1.57
999.108	-1.67
999.534	-6.37
999.959	-0.27
1000.385	0.83
1000.811	1.73
1001.236	-6.37
1001.662	-8.57
1002.087	-9.87
1002.513	-6.77
1002.938	-0.77
1003.364	-5.97
1003.789	2.53
1004.215	1.93
1004.64	-5.17
1005.066	7.73
1005.491	-0.07
1005.916	-5.77
1006.342	-2.27
1006.767	-2.97
1007.192	2.43
1007.617	-7.17
1008.042	-4.27
1008.468	-4.87
1008.893	-0.07
1009.318	-2.97
1009.743	4.03
1010.168	3.73
1010.593	2.23
1011.018	-7.37
1011.443	3.83
1011.868	-0.07
1012.293	-5.77
1012.718	-8.07
1013.143	2.33
1013.567	-0.87
1013.992	-6.57
1014.417	-10.67
1014.842	2.63
1015.267	-3.47
1015.691	-1.67
1016.116	2.83
1016.541	0.63
1016.965	5.03
1017.39	6.93
1017.814	1.03
1018.239	-1.67
1018.663	-8.17
1019.088	-5.97
1019.512	-1.67
1019.937	2.03
1020.361	-5.17
1020.785	-8.87
1021.21	-2.97
1021.634	-8.57
1022.058	0.63
1022.483	1.83
1022.907	-0.37
1023.331	0.43
1023.755	-3.37
1024.179	-3.07
1024.604	-8.07
1025.028	-1.27
1025.452	-7.17
1025.876	-4.77
1026.3	0.43
1026.724	-11.67
1027.148	-10.87
1027.572	-11.67
1027.996	-0.77
1028.42	-5.77
1028.843	-1.17
1029.267	-5.57
1029.691	-3.17
1030.115	-1.87
1030.539	-9.07
1030.962	-4.67
1031.386	-8.37
1031.81	-3.17
1032.233	0.13
1032.657	0.53
1033.08	-0.07
1033.504	2.33
1033.927	0.73
1034.351	0.33
1034.774	-3.97
1035.198	-6.07
1035.621	-5.47
1036.045	-5.17
1036.468	-1.27
1036.891	-10.27
1037.315	-6.67
1037.738	-7.27
1038.161	-2.57
1038.584	-3.27
1039.008	-7.07
1039.431	0.53
1039.854	-5.47
1040.277	-8.77
1040.7	-10.17
1041.123	-1.07
1041.546	-4.67
1041.969	-8.37
1042.392	-6.37
1042.815	-3.57
1043.238	1.43
1043.661	2.33
1044.084	-7.47
1044.507	-10.17
1044.93	-6.67
1045.352	0.03
1045.775	2.33
1046.198	3.23
1046.621	-3.57
1047.043	-3.87
1047.466	4.03
1047.889	-2.77
1048.311	-11.57
1048.734	-2.97
1049.156	-2.47
1049.579	0.83
1050.001	-6.67
1050.424	-0.67
1050.846	2.33
1051.269	-3.57
1051.691	-7.67
1052.113	-7.27
1052.536	2.43
1052.958	-0.47
1053.38	-3.67
1053.802	-8.07
1054.225	-1.07
1054.647	-4.57
1055.069	0.03
1055.491	0.53
1055.913	-9.17
1056.335	0.53
1056.757	-7.37
1057.179	-6.07
1057.601	-5.17
1058.023	0.73
1058.445	-3.17
1058.867	-2.97
1059.289	-2.67
1059.711	-3.67
1060.133	0.03
1060.555	-10.17
1060.976	-7.77
1061.398	-12.17
1061.82	-4.27
1062.241	-2.17
1062.663	-4.77
1063.085	-7.27
1063.506	-1.87
1063.928	-0.27
1064.35	1.93
1064.771	-13.77
1065.193	-5.57
1065.614	-8.37
1066.035	-6.47
1066.457	-4.57
1066.878	1.73
1067.3	-2.97
1067.721	7.13
1068.142	-7.87
1068.564	-8.77
1068.985	-7.37
1069.406	-2.27
1069.827	-2.87
1070.248	0.43
1070.67	-7.17
1071.091	-5.87
1071.512	-6.37
1071.933	-6.97
1072.354	-5.37
1072.775	-7.77
1073.196	-13.47
1073.617	-2.67
1074.038	-6.57
1074.459	-0.07
1074.88	-10.57
1075.3	-0.97
1075.721	-5.57
1076.142	4.13
1076.563	-3.37
1076.983	-8.37
1077.404	-8.27
1077.825	-3.87
1078.246	-1.57
1078.666	-4.27
1079.087	-9.17
1079.507	-5.87
1079.928	7.03
1080.348	4.33
1080.769	-0.87
1081.189	2.43
1081.61	-0.77
1082.03	-4.77
1082.451	-8.87
1082.871	-3.37
1083.291	-7.37
1083.711	-5.67
1084.132	-4.67
1084.552	-3.27
1084.972	-3.17
1085.392	-10.97
1085.813	-9.67
1086.233	-2.87
1086.653	-3.77
1087.073	-1.97
1087.493	-4.17
1087.913	-4.07
1088.333	-5.17
1088.753	-1.47
1089.173	0.93
1089.593	-6.17
1090.013	-3.27
1090.433	-1.37
1090.852	-3.27
1091.272	-0.77
1091.692	2.93
1092.112	-5.17
1092.531	-11.67
1092.951	-7.17
1093.371	0.33
1093.79	-0.57
1094.21	-2.17
1094.63	-3.57
1095.049	-8.07
1095.469	-3.57
1095.888	-1.57
1096.308	-4.87
1096.727	5.43
1097.146	-6.17
1097.566	-0.77
1097.985	-1.57
1098.405	3.13
1098.824	-5.07
1099.243	-0.27
1099.662	-2.07
1100.082	-4.87
1100.501	0.83
1100.92	-1.97
1101.339	-5.47
1101.758	-6.57
