Data from 20171114-ORNL-Ar_H_NY_Subt18_08-04-56-384.txt Node
Date: Tue Nov 14 08:04:56 EST 2017
User: Ender
Spectrometer: HR+D1039
Trigger mode: 0
Integration Time (sec): 2.730000E-2
Scans to average: 10
Electric dark correction enabled: true
Nonlinearity correction enabled: false
Boxcar width: 0
XAxis mode: Wavelengths
Number of Pixels in Spectrum: 2048
>>>>>Begin Spectral Data<<<<<
187.836	-4.41
188.309	-4.41
188.782	-4.41
189.255	-0.71
189.728	-2.81
190.201	0.89
190.674	0.59
191.147	4.49
191.619	-6.41
192.092	-0.71
192.565	4.39
193.038	0.99
193.511	-1.31
193.984	0.99
194.456	0.29
194.929	6.79
195.402	-4.71
195.874	1.69
196.347	-5.01
196.82	-11.31
197.292	4.99
197.765	-3.31
198.237	-8.41
198.71	7.89
199.182	0.69
199.655	6.39
200.127	1.49
200.6	-0.91
201.072	-2.81
201.544	-4.41
202.017	-1.71
202.489	6.69
202.961	3.59
203.433	-8.51
203.906	-5.91
204.378	-3.01
204.85	-7.71
205.322	-12.21
205.794	4.09
206.266	-5.61
206.739	-7.51
207.211	0.19
207.683	-12.41
208.155	-4.51
208.627	-4.41
209.099	-2.61
209.57	-6.61
210.042	-5.61
210.514	-3.41
210.986	1.89
211.458	-8.71
211.93	-2.31
212.402	4.29
212.873	-8.61
213.345	-10.71
213.817	-8.91
214.288	-5.91
214.76	-15.51
215.232	0.89
215.703	3.39
216.175	-4.31
216.646	-7.81
217.118	-6.31
217.589	-4.41
218.061	-5.41
218.532	-1.11
219.004	-3.91
219.475	-3.61
219.946	-4.01
220.418	-8.91
220.889	1.39
221.36	-0.61
221.832	-6.11
222.303	-7.01
222.774	1.99
223.245	-11.71
223.717	-9.81
224.188	-5.11
224.659	-6.01
225.13	-6.21
225.601	5.19
226.072	-3.61
226.543	-4.31
227.014	-0.71
227.485	-2.71
227.956	-6.81
228.427	-3.11
228.898	-1.91
229.369	2.69
229.839	-7.11
230.31	-9.81
230.781	-1.11
231.252	-1.41
231.722	0.29
232.193	-0.31
232.664	3.09
233.135	1.29
233.605	-1.41
234.076	-4.41
234.546	0.89
235.017	6.59
235.487	2.29
235.958	-1.21
236.428	-3.21
236.899	4.59
237.369	5.09
237.84	-0.01
238.31	7.39
238.78	2.49
239.251	0.49
239.721	3.89
240.191	1.89
240.662	-3.41
241.132	-1.01
241.602	1.19
242.072	5.79
242.542	6.89
243.013	-0.01
243.483	6.69
243.953	4.29
244.423	2.89
244.893	-0.01
245.363	8.19
245.833	2.99
246.303	0.39
246.773	9.79
247.243	5.39
247.712	1.29
248.182	9.09
248.652	8.49
249.122	-2.41
249.592	10.79
250.061	22.79
250.531	27.89
251.001	21.99
251.471	27.39
251.94	18.29
252.41	5.59
252.879	2.89
253.349	17.49
253.818	15.49
254.288	5.59
254.757	2.49
255.227	6.39
255.696	5.39
256.166	10.39
256.635	7.19
257.105	16.79
257.574	9.79
258.043	16.09
258.513	19.69
258.982	19.39
259.451	10.89
259.92	22.69
260.389	12.29
260.859	15.39
261.328	12.69
261.797	22.29
262.266	7.49
262.735	12.19
263.204	6.09
263.673	1.29
264.142	4.99
264.611	3.19
265.08	3.29
265.549	6.19
266.018	5.59
266.487	-4.51
266.955	3.29
267.424	1.69
267.893	3.59
268.362	-1.31
268.83	4.29
269.299	7.79
269.768	12.49
270.236	3.49
270.705	4.89
271.174	9.19
271.642	11.79
272.111	14.79
272.579	14.29
273.048	27.29
273.516	26.69
273.985	28.99
274.453	24.49
274.922	17.39
275.39	14.39
275.858	6.19
276.327	13.39
276.795	21.59
277.263	14.79
277.731	32.29
278.2	58.79
278.668	59.69
279.136	53.99
279.604	21.39
280.072	14.19
280.54	8.49
281.008	14.49
281.477	12.89
281.945	15.19
282.413	13.69
282.881	19.49
283.348	15.39
283.816	15.39
284.284	19.89
284.752	23.99
285.22	13.79
285.688	17.29
286.156	23.89
286.623	50.59
287.091	55.09
287.559	26.39
288.026	18.59
288.494	15.99
288.962	5.69
289.429	6.89
289.897	16.29
290.364	13.19
290.832	13.09
291.3	16.19
291.767	20.79
292.234	21.49
292.702	15.79
293.169	25.39
293.637	20.99
294.104	21.29
294.571	8.19
295.039	9.89
295.506	16.39
295.973	20.59
296.44	23.49
296.908	24.29
297.375	20.39
297.842	21.89
298.309	22.69
298.776	12.79
299.243	26.89
299.71	18.79
300.177	22.49
300.644	19.09
301.111	23.39
301.578	27.89
302.045	22.09
302.512	29.69
302.979	29.49
303.446	20.79
303.913	21.19
304.379	21.59
304.846	31.59
305.313	27.39
305.78	21.99
306.246	28.39
306.713	33.39
307.18	28.69
307.646	31.69
308.113	32.49
308.579	28.79
309.046	26.29
309.512	27.69
309.979	21.79
310.445	29.69
310.912	31.29
311.378	29.79
311.845	34.09
312.311	30.79
312.777	41.19
313.244	30.19
313.71	46.79
314.176	33.69
314.642	41.79
315.109	32.99
315.575	32.49
316.041	36.29
316.507	35.59
316.973	40.59
317.439	36.59
317.905	41.89
318.371	36.99
318.837	34.19
319.303	34.99
319.769	32.59
320.235	37.59
320.701	36.69
321.167	36.39
321.633	41.49
322.099	46.19
322.564	51.09
323.03	44.19
323.496	40.39
323.962	45.79
324.427	37.79
324.893	46.79
325.359	42.19
325.824	39.29
326.29	37.89
326.755	39.29
327.221	38.39
327.686	42.19
328.152	55.39
328.617	43.19
329.083	46.29
329.548	52.19
330.014	47.29
330.479	43.99
330.944	44.99
331.41	42.19
331.875	46.69
332.34	43.99
332.805	46.79
333.271	50.39
333.736	48.09
334.201	55.09
334.666	54.39
335.131	61.99
335.596	51.39
336.061	47.49
336.526	42.99
336.991	51.29
337.456	57.29
337.921	54.19
338.386	48.19
338.851	46.29
339.316	57.39
339.781	46.79
340.246	48.19
340.711	42.79
341.175	53.39
341.64	48.69
342.105	51.79
342.569	51.99
343.034	54.39
343.499	56.99
343.963	51.89
344.428	66.39
344.893	60.29
345.357	63.19
345.822	64.49
346.286	74.69
346.751	72.49
347.215	71.59
347.679	74.79
348.144	99.29
348.608	79.69
349.073	67.79
349.537	71.09
350.001	75.79
350.465	88.59
350.93	81.79
351.394	83.59
351.858	70.09
352.322	89.29
352.786	84.99
353.25	101.69
353.715	106.09
354.179	95.89
354.643	122.69
355.107	123.69
355.571	113.29
356.035	99.29
356.498	119.49
356.962	121.69
357.426	134.09
357.89	118.49
358.354	89.19
358.818	87.59
359.281	76.99
359.745	85.79
360.209	78.89
360.673	79.69
361.136	82.99
361.6	88.39
362.064	87.89
362.527	87.09
362.991	90.09
363.454	82.59
363.918	71.69
364.381	79.29
364.845	89.19
365.308	79.49
365.772	85.59
366.235	89.89
366.698	78.89
367.162	85.39
367.625	87.69
368.088	86.69
368.552	94.29
369.015	90.59
369.478	95.79
369.941	100.09
370.404	94.09
370.867	98.39
371.331	108.29
371.794	114.29
372.257	109.89
372.72	114.89
373.183	102.19
373.646	101.89
374.109	98.99
374.572	106.49
375.035	109.39
375.497	109.19
375.96	103.59
376.423	102.69
376.886	107.49
377.349	111.19
377.811	97.19
378.274	101.69
378.737	102.49
379.199	109.99
379.662	105.39
380.125	121.29
380.587	116.19
381.05	117.09
381.512	127.19
381.975	134.49
382.437	120.69
382.9	119.89
383.362	127.69
383.825	138.59
384.287	144.49
384.75	135.79
385.212	135.39
385.674	141.19
386.136	137.69
386.599	123.89
387.061	131.09
387.523	126.49
387.985	131.79
388.447	143.69
388.91	143.69
389.372	153.19
389.834	152.19
390.296	146.49
390.758	154.59
391.22	169.19
391.682	207.29
392.144	285.89
392.606	218.39
393.068	165.49
393.529	157.49
393.991	148.09
394.453	138.79
394.915	157.29
395.377	188.49
395.838	208.09
396.3	151.79
396.762	141.09
397.224	132.89
397.685	128.49
398.147	130.79
398.608	123.09
399.07	127.49
399.531	133.69
399.993	136.49
400.454	152.59
400.916	145.99
401.377	139.19
401.839	151.09
402.3	147.09
402.762	160.59
403.223	181.29
403.684	166.39
404.145	154.59
404.607	157.29
405.068	166.29
405.529	172.69
405.99	182.49
406.451	167.19
406.913	170.99
407.374	162.89
407.835	158.09
408.296	161.59
408.757	175.19
409.218	180.39
409.679	176.19
410.14	174.29
410.601	172.29
411.062	180.09
411.522	177.69
411.983	180.09
412.444	178.59
412.905	177.69
413.366	180.79
413.826	189.39
414.287	216.79
414.748	265.79
415.208	241.19
415.669	195.49
416.13	200.89
416.59	198.99
417.051	198.29
417.511	211.79
417.972	229.99
418.432	240.29
418.893	281.39
419.353	249.09
419.814	198.49
420.274	174.49
420.734	181.49
421.195	197.29
421.655	194.89
422.115	186.69
422.576	185.79
423.036	194.59
423.496	196.59
423.956	205.39
424.416	218.29
424.876	262.79
425.336	253.69
425.797	252.69
426.257	247.99
426.717	233.09
427.177	231.49
427.637	218.49
428.097	226.99
428.556	236.09
429.016	261.39
429.476	256.99
429.936	263.49
430.396	269.19
430.856	275.09
431.315	311.39
431.775	339.49
432.235	371.19
432.694	340.49
433.154	347.69
433.614	370.79
434.073	325.69
434.533	279.69
434.993	265.89
435.452	279.69
435.912	287.19
436.371	284.39
436.83	274.39
437.29	268.99
437.749	242.69
438.209	237.39
438.668	266.19
439.127	283.49
439.587	254.19
440.046	235.49
440.505	260.69
440.964	269.19
441.424	310.09
441.883	297.79
442.342	251.29
442.801	219.39
443.26	218.09
443.719	215.59
444.178	212.79
444.637	196.89
445.096	213.39
445.555	222.59
446.014	212.89
446.473	218.39
446.932	229.79
447.391	213.29
447.849	218.69
448.308	207.79
448.767	219.39
449.226	226.79
449.685	224.39
450.143	241.69
450.602	234.19
451.061	220.19
451.519	223.99
451.978	220.89
452.436	229.19
452.895	231.89
453.353	243.49
453.812	230.09
454.27	237.59
454.729	230.09
455.187	242.09
455.646	242.49
456.104	249.39
456.562	253.79
457.021	255.69
457.479	248.89
457.937	266.89
458.395	252.09
458.854	241.99
459.312	256.09
459.77	263.29
460.228	246.29
460.686	235.79
461.144	236.69
461.602	234.09
462.06	240.79
462.518	250.59
462.976	246.89
463.434	251.49
463.892	264.99
464.35	267.49
464.808	280.19
465.266	263.29
465.724	257.49
466.181	273.79
466.639	266.09
467.097	291.29
467.555	292.49
468.012	298.49
468.47	303.49
468.928	318.59
469.385	329.09
469.843	333.89
470.3	339.29
470.758	353.69
471.215	374.99
471.673	393.29
472.13	396.39
472.588	403.09
473.045	360.19
473.503	364.99
473.96	383.09
474.417	389.79
474.875	423.59
475.332	459.49
475.789	446.29
476.246	455.39
476.704	472.39
477.161	496.39
477.618	510.79
478.075	544.89
478.532	601.09
478.989	662.19
479.446	786.49
479.903	754.59
480.36	782.89
480.817	841.79
481.274	939.69
481.731	1032.59
482.188	1136.69
482.645	1280.89
483.102	1377.29
483.558	1523.09
484.015	1579.29
484.472	1551.29
484.929	1498.09
485.385	1446.19
485.842	1404.89
486.299	1342.59
486.755	1268.19
487.212	1066.99
487.668	904.79
488.125	821.79
488.582	764.29
489.038	730.09
489.494	700.79
489.951	672.09
490.407	650.99
490.864	630.69
491.32	625.39
491.776	613.59
492.233	628.09
492.689	602.39
493.145	591.69
493.602	579.79
494.058	600.29
494.514	599.19
494.97	621.49
495.426	626.19
495.882	610.09
496.338	598.49
496.794	606.39
497.251	606.49
497.707	632.69
498.163	626.19
498.618	631.39
499.074	633.09
499.53	661.99
499.986	654.39
500.442	637.79
500.898	617.99
501.354	609.59
501.809	628.89
502.265	626.49
502.721	642.69
503.177	652.59
503.632	649.09
504.088	654.79
504.543	688.29
504.999	692.99
505.455	643.69
505.91	618.39
506.366	620.79
506.821	607.79
507.277	610.99
507.732	613.99
508.187	604.39
508.643	623.89
509.098	615.29
509.553	637.29
510.009	642.19
510.464	659.19
510.919	667.19
511.375	673.69
511.83	692.69
512.285	708.69
512.74	744.19
513.195	757.59
513.65	755.39
514.105	741.29
514.56	753.69
515.015	771.99
515.47	791.29
515.925	776.79
516.38	765.49
516.835	775.29
517.29	772.49
517.745	758.49
518.2	729.39
518.655	726.59
519.109	725.19
519.564	713.79
520.019	714.39
520.474	715.89
520.928	704.19
521.383	699.39
521.838	697.89
522.292	686.49
522.747	690.29
523.201	691.99
523.656	668.39
524.11	665.39
524.565	667.89
525.019	664.09
525.474	672.59
525.928	689.59
526.382	679.99
526.837	672.09
527.291	686.29
527.745	675.99
528.2	671.89
528.654	668.69
529.108	666.29
529.562	661.99
530.016	673.79
530.47	673.09
530.925	672.99
531.379	670.29
531.833	687.49
532.287	674.59
532.741	673.79
533.195	685.79
533.649	686.29
534.103	700.89
534.556	696.89
535.01	689.49
535.464	694.49
535.918	701.89
536.372	697.79
536.826	703.29
537.279	689.69
537.733	693.89
538.187	693.59
538.64	681.79
539.094	692.39
539.548	700.79
540.001	693.59
540.455	695.69
540.908	706.19
541.362	711.79
541.815	718.59
542.269	733.79
542.722	737.59
543.175	747.19
543.629	746.49
544.082	756.79
544.536	771.19
544.989	750.39
545.442	757.99
545.895	761.29
546.349	762.29
546.802	751.89
547.255	779.99
547.708	778.09
548.161	787.89
548.614	794.19
549.067	800.49
549.52	785.09
549.973	780.49
550.426	781.29
550.879	761.29
551.332	766.59
551.785	774.39
552.238	783.59
552.691	786.19
553.144	803.19
553.596	822.29
554.049	820.59
554.502	858.79
554.955	890.09
555.407	874.39
555.86	866.29
556.313	855.49
556.765	841.29
557.218	849.49
557.67	848.69
558.123	840.09
558.576	847.79
559.028	851.99
559.48	848.09
559.933	838.49
560.385	806.49
560.838	771.99
561.29	744.99
561.742	748.89
562.195	729.69
562.647	727.69
563.099	742.79
563.551	741.49
564.004	747.79
564.456	739.69
564.908	736.59
565.36	709.39
565.812	701.59
566.264	694.39
566.716	675.59
567.168	678.09
567.62	681.59
568.072	678.49
568.524	659.29
568.976	659.59
569.428	639.19
569.88	639.09
570.332	645.79
570.784	655.99
571.235	646.59
571.687	652.99
572.139	673.09
572.59	673.49
573.042	678.99
573.494	684.59
573.945	675.49
574.397	649.79
574.849	658.39
575.3	658.79
575.752	650.19
576.203	641.59
576.655	644.09
577.106	640.99
577.557	626.59
578.009	629.29
578.46	625.19
578.912	627.49
579.363	627.29
579.814	634.89
580.265	629.69
580.717	639.19
581.168	633.59
581.619	643.59
582.07	650.79
582.521	641.79
582.972	630.49
583.423	640.99
583.875	636.99
584.326	662.59
584.777	710.39
585.227	774.69
585.678	862.79
586.129	939.79
586.58	1008.89
587.031	1096.69
587.482	1240.99
587.933	1425.39
588.384	1243.59
588.834	915.19
589.285	754.19
589.736	738.09
590.186	724.89
590.637	719.39
591.088	697.69
591.538	692.29
591.989	678.39
592.439	683.39
592.89	675.29
593.34	671.99
593.791	669.19
594.241	673.99
594.692	665.89
595.142	656.19
595.593	652.79
596.043	664.89
596.493	660.89
596.943	672.09
597.394	675.89
597.844	671.49
598.294	689.89
598.744	697.89
599.195	727.99
599.645	762.09
600.095	797.09
600.545	858.99
600.995	904.29
601.445	960.69
601.895	1024.39
602.345	1066.79
602.795	1038.99
603.245	1003.29
603.695	944.59
604.145	893.99
604.594	854.29
605.044	802.79
605.494	745.39
605.944	701.69
606.393	693.39
606.843	677.79
607.293	680.19
607.743	686.59
608.192	687.69
608.642	697.99
609.091	706.79
609.541	719.79
609.99	726.89
610.44	713.09
610.889	671.89
611.339	646.79
611.788	631.19
612.238	647.29
612.687	664.69
613.136	666.49
613.586	688.09
614.035	687.59
614.484	699.29
614.933	699.59
615.383	703.89
615.832	690.69
616.281	676.99
616.73	635.39
617.179	618.49
617.628	598.99
618.077	586.09
618.526	576.69
618.975	569.79
619.424	568.89
619.873	571.39
620.322	577.89
620.771	560.09
621.22	557.79
621.669	547.89
622.118	544.39
622.567	547.09
623.015	536.39
623.464	530.99
623.913	524.19
624.361	511.79
624.81	507.09
625.259	509.09
625.707	522.39
626.156	514.99
626.604	520.69
627.053	507.89
627.501	518.19
627.95	520.19
628.398	536.29
628.847	522.59
629.295	519.59
629.744	524.79
630.192	515.49
630.64	519.39
631.089	517.99
631.537	527.39
631.985	534.79
632.433	554.49
632.881	552.99
633.33	598.79
633.778	577.99
634.226	519.69
634.674	520.69
635.122	528.89
635.57	550.29
636.018	574.49
636.466	526.19
636.914	500.89
637.362	524.69
637.81	524.69
638.258	529.99
638.705	525.59
639.153	559.99
639.601	564.29
640.049	585.99
640.497	621.99
640.944	642.49
641.392	586.99
641.84	561.99
642.287	532.59
642.735	519.89
643.182	524.59
643.63	522.19
644.078	525.09
644.525	543.89
644.973	548.79
645.42	547.79
645.867	575.09
646.315	591.29
646.762	612.49
647.21	644.39
647.657	655.09
648.104	681.29
648.551	708.49
648.999	760.39
649.446	831.09
649.893	906.49
650.34	1047.29
650.787	1257.19
651.234	1545.69
651.682	2026.39
652.129	2784.79
652.576	3995.59
653.023	5897.89
653.47	8130.89
653.917	10269.49
654.363	12001.49
654.81	13383.19
655.257	12741.69
655.704	8273.09
656.151	4868.49
656.598	3161.39
657.044	2234.69
657.491	1708.19
657.938	1368.89
658.385	1144.69
658.831	994.49
659.278	891.79
659.724	776.59
660.171	729.39
660.618	662.59
661.064	622.99
661.511	604.19
661.957	586.29
662.404	573.49
662.85	594.69
663.296	563.79
663.743	507.59
664.189	497.49
664.635	487.69
665.082	480.39
665.528	487.09
665.974	467.19
666.42	472.49
666.867	461.19
667.313	433.99
667.759	430.99
668.205	429.09
668.651	432.59
669.097	439.39
669.543	449.19
669.989	425.79
670.435	408.89
670.881	408.59
671.327	403.89
671.773	421.69
672.219	430.09
672.665	490.79
673.11	523.49
673.556	554.49
674.002	609.29
674.448	587.99
674.893	484.99
675.339	427.19
675.785	393.19
676.23	378.89
676.676	350.69
677.122	342.19
677.567	336.79
678.013	332.19
678.458	320.59
678.904	322.39
679.349	313.89
679.794	315.79
680.24	316.39
680.685	317.99
681.131	314.99
681.576	314.79
682.021	316.99
682.466	309.99
682.912	310.89
683.357	310.69
683.802	338.89
684.247	371.69
684.692	400.49
685.137	434.59
685.583	481.29
686.028	511.99
686.473	466.09
686.918	403.19
687.363	376.09
687.807	351.49
688.252	319.39
688.697	317.39
689.142	300.19
689.587	297.29
690.032	288.79
690.477	302.99
690.921	312.09
691.366	339.09
691.811	363.39
692.255	385.79
692.7	410.19
693.145	449.69
693.589	601.29
694.034	986.89
694.478	1374.89
694.923	1580.69
695.367	2084.09
695.812	1092.59
696.256	443.09
696.701	327.09
697.145	307.39
697.59	296.39
698.034	287.39
698.478	294.29
698.922	291.19
699.367	293.39
699.811	296.59
700.255	311.89
700.699	344.89
701.143	382.59
701.588	431.99
702.032	466.89
702.476	458.79
702.92	433.39
703.364	434.69
703.808	558.49
704.252	899.29
704.696	1284.59
705.14	1508.29
705.584	1952.39
706.027	957.69
706.471	467.29
706.915	353.59
707.359	305.49
707.803	279.99
708.246	282.09
708.69	276.09
709.134	280.29
709.577	278.79
710.021	285.09
710.465	274.39
710.908	271.59
711.352	261.89
711.795	282.49
712.239	305.09
712.682	339.09
713.126	374.69
713.569	416.29
714.012	330.39
714.456	283.39
714.899	272.39
715.342	248.39
715.786	234.29
716.229	224.89
716.672	225.89
717.115	215.79
717.558	216.09
718.002	223.69
718.445	231.29
718.888	247.89
719.331	261.39
719.774	269.69
720.217	274.79
720.66	253.59
721.103	236.09
721.546	231.29
721.989	216.29
722.432	207.89
722.874	209.29
723.317	201.99
723.76	217.79
724.203	224.99
724.645	275.29
725.088	389.89
725.531	496.79
725.974	579.89
726.416	496.59
726.859	276.59
727.301	222.99
727.744	206.89
728.187	204.29
728.629	209.09
729.071	211.89
729.514	230.29
729.956	242.79
730.399	249.59
730.841	253.19
731.283	242.59
731.726	227.29
732.168	224.79
732.61	234.19
733.053	250.69
733.495	275.89
733.937	313.39
734.379	353.89
734.821	384.69
735.263	471.59
735.705	709.59
736.148	1359.79
736.59	2290.59
737.032	2788.29
737.474	2256.79
737.916	726.69
738.357	373.19
738.799	287.69
739.241	262.79
739.683	248.29
740.125	261.49
740.567	263.49
741.008	275.19
741.45	284.79
741.892	278.99
742.334	307.69
742.775	320.09
743.217	302.49
743.658	239.29
744.1	224.29
744.542	228.09
744.983	276.59
745.425	310.49
745.866	307.79
746.307	255.19
746.749	248.59
747.19	284.79
747.632	405.89
748.073	745.79
748.514	1624.69
748.956	2527.29
749.397	3171.29
749.838	2652.59
750.279	2680.59
750.72	1358.39
751.162	484.49
751.603	288.99
752.044	220.69
752.485	189.39
752.926	184.29
753.367	177.99
753.808	167.39
754.249	170.89
754.69	165.09
755.131	162.99
755.572	159.59
756.013	163.49
756.453	158.89
756.894	167.29
757.335	165.69
757.776	170.09
758.216	172.69
758.657	177.59
759.098	180.99
759.538	193.29
759.979	229.99
760.42	323.89
760.86	601.89
761.301	1558.59
761.741	3864.69
762.182	5872.39
762.622	4123.99
763.063	1172.09
763.503	477.09
763.943	312.19
764.384	302.39
764.824	354.19
765.264	398.69
765.705	264.09
766.145	180.09
766.585	167.69
767.025	154.59
767.465	167.19
767.906	208.89
768.346	282.99
768.786	306.49
769.226	237.29
769.666	277.19
770.106	520.59
770.546	1324.19
770.986	2379.49
771.426	2170.39
771.866	711.99
772.306	285.69
772.745	190.59
773.185	153.69
773.625	153.29
774.065	139.69
774.505	175.39
774.944	260.29
775.384	581.09
775.824	1107.59
776.263	1090.29
776.703	451.19
777.142	195.19
777.582	139.59
778.021	122.99
778.461	119.59
778.9	125.49
779.34	114.59
779.779	99.29
780.219	102.19
780.658	94.89
781.097	95.79
781.537	100.19
781.976	92.29
782.415	89.09
782.855	90.69
783.294	96.79
783.733	94.79
784.172	92.69
784.611	94.39
785.05	95.89
785.489	99.89
785.928	103.79
786.367	106.89
786.806	109.09
787.245	118.69
787.684	118.39
788.123	131.09
788.562	113.69
789.001	103.99
789.44	107.09
789.879	100.29
790.317	108.29
790.756	111.59
791.195	115.49
791.634	125.99
792.072	179.29
792.511	307.49
792.95	869.39
793.388	1922.09
793.827	1773.19
794.265	609.39
794.704	249.59
795.142	166.59
795.581	132.39
796.019	122.89
796.458	119.09
796.896	105.59
797.334	114.09
797.773	135.29
798.211	187.89
798.649	368.29
799.087	890.09
799.526	1405.39
799.964	1792.69
800.402	1847.79
800.84	677.19
801.278	264.89
801.716	159.49
802.154	133.99
802.592	125.09
803.03	118.59
803.468	120.09
803.906	126.09
804.344	134.19
804.782	125.39
805.22	117.09
805.658	109.29
806.096	128.79
806.533	136.79
806.971	152.29
807.409	186.29
807.847	275.19
808.284	553.19
808.722	1610.09
809.16	2955.99
809.597	2741.59
810.035	4833.69
810.472	5338.99
810.91	1885.59
811.347	703.49
811.785	359.19
812.222	225.29
812.66	176.39
813.097	144.29
813.535	127.59
813.972	108.39
814.409	106.89
814.846	96.39
815.284	98.79
815.721	87.39
816.158	90.59
816.595	100.69
817.032	159.49
817.47	177.09
817.907	146.09
818.344	129.69
818.781	105.49
819.218	88.09
819.655	104.99
820.092	166.09
820.529	193.69
820.966	154.99
821.403	117.29
821.839	95.49
822.276	88.59
822.713	109.89
823.15	120.49
823.587	104.29
824.023	124.59
824.46	260.69
824.897	774.89
825.333	1233.69
825.77	519.49
826.206	195.79
826.643	123.79
827.08	83.19
827.516	70.19
827.953	71.79
828.389	73.29
828.825	63.09
829.262	63.69
829.698	50.29
830.135	54.89
830.571	53.09
831.007	55.09
831.443	55.19
831.88	54.99
832.316	51.99
832.752	62.89
833.188	58.89
833.624	49.99
834.06	59.99
834.497	67.99
834.933	68.29
835.369	66.99
835.805	54.69
836.241	65.39
836.677	66.49
837.112	83.49
837.548	91.59
837.984	114.29
838.42	172.59
838.856	424.49
839.292	1327.39
839.727	2119.39
840.163	968.69
840.599	796.49
841.034	1798.29
841.47	1947.39
841.906	703.69
842.341	300.69
842.777	204.49
843.212	277.49
843.648	286.59
844.083	137.29
844.519	88.29
844.954	65.99
845.39	48.39
845.825	50.59
846.261	50.59
846.696	47.19
847.131	46.99
847.566	47.29
848.002	37.69
848.437	42.09
848.872	48.09
849.307	52.49
849.742	74.59
850.177	147.59
850.613	487.99
851.048	789.39
851.483	346.19
851.918	141.79
852.353	78.59
852.788	48.69
853.223	42.79
853.657	46.79
854.092	44.29
854.527	40.19
854.962	35.29
855.397	40.29
855.832	49.99
856.266	41.29
856.701	35.79
857.136	37.19
857.57	35.69
858.005	43.69
858.44	54.59
858.874	36.89
859.309	48.39
859.743	32.09
860.178	42.29
860.612	41.69
861.047	46.99
861.481	54.29
861.915	66.79
862.35	41.99
862.784	30.59
863.218	31.69
863.653	29.59
864.087	35.29
864.521	44.89
864.955	56.89
865.39	136.69
865.824	157.19
866.258	102.79
866.692	150.69
867.126	156.69
867.56	97.79
867.994	47.09
868.428	34.99
868.862	41.99
869.296	45.79
869.73	46.29
870.164	45.89
870.598	48.59
871.031	36.39
871.465	26.49
871.899	27.59
872.333	22.09
872.766	25.29
873.2	21.69
873.634	28.29
874.067	20.19
874.501	25.99
874.935	29.39
875.368	28.09
875.802	29.89
876.235	23.99
876.669	18.99
877.102	22.49
877.535	24.69
877.969	16.49
878.402	25.99
878.836	16.89
879.269	25.69
879.702	22.59
880.135	15.99
880.569	16.19
881.002	27.39
881.435	16.79
881.868	13.89
882.301	22.19
882.734	12.99
883.167	14.99
883.601	17.59
884.034	17.99
884.467	9.89
884.899	16.69
885.332	14.89
885.765	15.19
886.198	15.79
886.631	12.09
887.064	16.29
887.497	14.09
887.929	23.19
888.362	9.59
888.795	12.89
889.228	19.89
889.66	22.09
890.093	17.09
890.526	16.89
890.958	15.29
891.391	9.19
891.823	18.99
892.256	9.69
892.688	7.19
893.121	12.59
893.553	12.19
893.985	18.29
894.418	13.39
894.85	8.89
895.282	13.49
895.715	16.19
896.147	12.59
896.579	9.29
897.011	15.79
897.444	13.39
897.876	12.19
898.308	14.89
898.74	13.19
899.172	6.09
899.604	21.69
900.036	15.19
900.468	6.19
900.9	13.59
901.332	13.89
901.764	15.49
902.196	12.49
902.628	22.69
903.06	12.99
903.491	28.69
903.923	24.49
904.355	25.89
904.787	23.29
905.218	17.29
905.65	16.29
906.082	7.49
906.513	13.89
906.945	14.39
907.376	15.19
907.808	19.49
908.239	19.59
908.671	15.79
909.102	11.29
909.534	26.69
909.965	44.59
910.397	92.39
910.828	279.39
911.259	435.49
911.691	195.39
912.122	96.49
912.553	44.89
912.984	33.99
913.415	26.29
913.847	18.99
914.278	11.29
914.709	2.89
915.14	12.49
915.571	10.19
916.002	8.69
916.433	15.59
916.864	17.39
917.295	11.69
917.726	16.09
918.157	9.59
918.587	22.39
919.018	21.19
919.449	17.89
919.88	21.69
920.311	24.49
920.741	35.99
921.172	150.19
921.603	140.99
922.033	64.29
922.464	37.09
922.895	15.69
923.325	19.59
923.756	17.29
924.186	13.99
924.617	21.09
925.047	38.29
925.478	45.99
925.908	36.59
926.338	21.19
926.769	17.39
927.199	15.79
927.629	10.69
928.06	11.29
928.49	14.29
928.92	11.99
929.35	10.49
929.78	13.09
930.21	5.79
930.641	5.99
931.071	6.99
931.501	5.29
931.931	4.19
932.361	7.39
932.791	4.79
933.221	6.89
933.651	1.99
934.08	16.39
934.51	27.09
934.94	6.89
935.37	8.69
935.8	9.39
936.229	11.39
936.659	7.79
937.089	0.29
937.519	8.99
937.948	16.99
938.378	16.59
938.807	3.99
939.237	11.39
939.666	2.59
940.096	-11.81
940.525	-0.11
940.955	-0.31
941.384	-0.41
941.814	-4.21
942.243	2.29
942.672	4.89
943.102	0.89
943.531	3.19
943.96	-0.61
944.39	4.69
944.819	2.09
945.248	-0.61
945.677	4.39
946.106	1.09
946.535	3.99
946.964	1.39
947.393	2.69
947.822	5.79
948.251	-1.71
948.68	11.89
949.109	3.29
949.538	0.89
949.967	1.99
950.396	1.79
950.825	-4.11
951.254	0.09
951.682	-9.51
952.111	-0.81
952.54	11.29
952.969	-5.81
953.397	-0.91
953.826	-1.11
954.254	-7.51
954.683	-6.11
955.112	-4.21
955.54	-5.01
955.969	3.99
956.397	-2.31
956.826	-7.71
957.254	7.09
957.682	1.79
958.111	5.79
958.539	2.19
958.967	0.39
959.396	1.29
959.824	3.59
960.252	3.79
960.68	-4.81
961.109	-1.81
961.537	-5.01
961.965	2.19
962.393	-3.21
962.821	-6.51
963.249	-2.71
963.677	8.39
964.105	1.09
964.533	36.89
964.961	33.09
965.389	21.69
965.817	12.49
966.245	-0.61
966.672	5.19
967.1	-6.81
967.528	0.89
967.956	-3.21
968.383	-2.41
968.811	-2.41
969.239	-4.51
969.666	-7.71
970.094	-1.01
970.522	-0.81
970.949	-0.11
971.377	-8.81
971.804	-0.61
972.232	-5.41
972.659	-6.51
973.087	-4.71
973.514	-1.71
973.941	-4.61
974.369	-1.31
974.796	-1.91
975.223	-3.91
975.651	-8.51
976.078	5.89
976.505	6.59
976.932	-1.41
977.359	14.19
977.786	10.69
978.214	3.39
978.641	-4.91
979.068	-4.81
979.495	-0.51
979.922	-2.41
980.349	-3.81
980.776	0.79
981.202	0.39
981.629	6.69
982.056	9.49
982.483	-2.41
982.91	3.49
983.337	-4.71
983.763	-1.81
984.19	-8.81
984.617	-8.11
985.043	-4.91
985.47	-5.81
985.897	-1.91
986.323	-9.51
986.75	3.69
987.176	-4.61
987.603	-5.01
988.029	0.39
988.456	-1.41
988.882	1.19
989.308	-9.61
989.735	-6.11
990.161	-1.31
990.587	-6.91
991.014	-4.01
991.44	8.39
991.866	0.69
992.292	-2.21
992.719	-8.01
993.145	-1.71
993.571	-9.61
993.997	-8.71
994.423	-4.51
994.849	-5.71
995.275	-5.41
995.701	-1.01
996.127	-8.61
996.553	-3.01
996.979	-4.81
997.405	-3.91
997.83	-2.71
998.256	-7.61
998.682	-7.11
999.108	-10.81
999.534	-0.51
999.959	-2.21
1000.385	-5.51
1000.811	-1.51
1001.236	-8.71
1001.662	-8.81
1002.087	-5.61
1002.513	1.29
1002.938	-1.81
1003.364	0.39
1003.789	-6.11
1004.215	5.69
1004.64	-1.61
1005.066	5.89
1005.491	1.49
1005.916	3.99
1006.342	-11.21
1006.767	-7.11
1007.192	6.29
1007.617	-7.91
1008.042	-5.71
1008.468	-6.71
1008.893	-4.21
1009.318	0.09
1009.743	-5.41
1010.168	-5.31
1010.593	-1.61
1011.018	-9.91
1011.443	-2.51
1011.868	-4.41
1012.293	-4.61
1012.718	-8.71
1013.143	-7.31
1013.567	-3.41
1013.992	-2.71
1014.417	-12.81
1014.842	8.49
1015.267	-5.71
1015.691	-8.31
1016.116	4.39
1016.541	0.39
1016.965	4.59
1017.39	3.89
1017.814	-2.31
1018.239	-2.31
1018.663	-4.61
1019.088	-12.61
1019.512	-2.91
1019.937	-6.51
1020.361	-4.61
1020.785	-9.11
1021.21	0.39
1021.634	-0.21
1022.058	0.79
1022.483	3.79
1022.907	-4.41
1023.331	-6.81
1023.755	-9.91
1024.179	-0.11
1024.604	-5.71
1025.028	-3.11
1025.452	-7.21
1025.876	0.09
1026.3	6.69
1026.724	-5.71
1027.148	-4.81
1027.572	-8.51
1027.996	-7.41
1028.42	-4.31
1028.843	1.49
1029.267	-2.81
1029.691	-4.41
1030.115	-8.11
1030.539	-11.81
1030.962	-5.81
1031.386	-13.71
1031.81	7.29
1032.233	3.19
1032.657	-0.71
1033.08	-2.31
1033.504	-2.01
1033.927	-2.61
1034.351	-5.21
1034.774	-4.41
1035.198	-5.21
1035.621	-5.71
1036.045	-3.91
1036.468	1.49
1036.891	-7.41
1037.315	-6.71
1037.738	-9.51
1038.161	2.19
1038.584	-3.71
1039.008	-7.41
1039.431	-1.71
1039.854	-4.01
1040.277	-1.11
1040.7	-15.31
1041.123	-3.11
1041.546	-8.11
1041.969	-6.21
1042.392	-9.81
1042.815	-6.61
1043.238	-0.51
1043.661	-2.71
1044.084	-9.31
1044.507	-4.41
1044.93	0.79
1045.352	-4.21
1045.775	-5.91
1046.198	-3.51
1046.621	-2.01
1047.043	-1.61
1047.466	10.19
1047.889	-0.61
1048.311	-2.81
1048.734	-5.41
1049.156	-6.31
1049.579	-7.11
1050.001	-4.21
1050.424	-3.01
1050.846	-2.01
1051.269	-2.31
1051.691	-2.21
1052.113	-3.51
1052.536	-1.01
1052.958	-5.21
1053.38	-11.41
1053.802	-13.11
1054.225	-2.31
1054.647	-4.51
1055.069	-2.31
1055.491	0.99
1055.913	-8.61
1056.335	2.49
1056.757	-4.51
1057.179	-5.81
1057.601	-3.21
1058.023	-5.11
1058.445	-4.21
1058.867	-9.51
1059.289	-7.21
1059.711	-4.11
1060.133	-1.61
1060.555	-6.31
1060.976	-4.91
1061.398	-4.51
1061.82	-7.01
1062.241	-7.81
1062.663	-10.61
1063.085	-9.91
1063.506	-1.51
1063.928	-6.01
1064.35	-3.11
1064.771	-11.51
1065.193	-7.91
1065.614	-3.91
1066.035	-2.81
1066.457	-0.01
1066.878	0.39
1067.3	-5.21
1067.721	-4.41
1068.142	-6.01
1068.564	-4.71
1068.985	-9.91
1069.406	-4.81
1069.827	-7.31
1070.248	-3.21
1070.67	-10.61
1071.091	-3.31
1071.512	-4.31
1071.933	-7.71
1072.354	-4.21
1072.775	-2.91
1073.196	-7.81
1073.617	-6.71
1074.038	-4.81
1074.459	-3.91
1074.88	-5.91
1075.3	3.89
1075.721	-9.71
1076.142	-0.01
1076.563	-1.01
1076.983	-7.11
1077.404	-9.21
1077.825	-9.51
1078.246	-2.51
1078.666	-13.01
1079.087	-6.61
1079.507	-4.41
1079.928	0.99
1080.348	1.29
1080.769	-5.31
1081.189	1.49
1081.61	-2.41
1082.03	-6.01
1082.451	-4.71
1082.871	-11.21
1083.291	-11.51
1083.711	-9.81
1084.132	-5.31
1084.552	-6.71
1084.972	-3.01
1085.392	-12.51
1085.813	-10.91
1086.233	-4.11
1086.653	-5.31
1087.073	-3.71
1087.493	-9.31
1087.913	-8.21
1088.333	-10.21
1088.753	-1.91
1089.173	2.79
1089.593	-6.81
1090.013	-1.81
1090.433	-0.41
1090.852	-10.51
1091.272	-8.01
1091.692	-5.61
1092.112	-7.61
1092.531	-8.51
1092.951	-11.21
1093.371	-2.51
1093.79	-0.41
1094.21	-2.21
1094.63	-5.11
1095.049	-5.11
1095.469	-1.31
1095.888	-1.91
1096.308	-3.31
1096.727	3.09
1097.146	-6.51
1097.566	3.89
1097.985	-4.01
1098.405	-0.91
1098.824	-7.31
1099.243	-7.91
1099.662	-12.81
1100.082	-6.61
1100.501	-3.51
1100.92	-7.31
1101.339	-5.51
1101.758	-8.61
