Data from 20171114-ORNL-Ar_H_NY_Subt18_08-06-07-085.txt Node
Date: Tue Nov 14 08:06:07 EST 2017
User: Ender
Spectrometer: HR+D1039
Trigger mode: 0
Integration Time (sec): 2.730000E-2
Scans to average: 10
Electric dark correction enabled: true
Nonlinearity correction enabled: false
Boxcar width: 0
XAxis mode: Wavelengths
Number of Pixels in Spectrum: 2048
>>>>>Begin Spectral Data<<<<<
187.836	-3.36
188.309	-3.36
188.782	-3.36
189.255	1.84
189.728	-1.26
190.201	6.24
190.674	-0.16
191.147	2.04
191.619	-5.66
192.092	-2.16
192.565	-0.56
193.038	4.74
193.511	0.84
193.984	6.14
194.456	-5.06
194.929	3.94
195.402	-3.46
195.874	-4.16
196.347	1.24
196.82	-9.66
197.292	2.94
197.765	-0.66
198.237	-3.06
198.71	-1.76
199.182	1.24
199.655	4.24
200.127	1.04
200.6	-0.46
201.072	-0.86
201.544	-3.66
202.017	-0.96
202.489	1.64
202.961	-3.36
203.433	1.24
203.906	-6.76
204.378	-8.76
204.85	-0.06
205.322	-8.26
205.794	-4.66
206.266	-8.16
206.739	-6.96
207.211	-1.16
207.683	-4.46
208.155	-9.76
208.627	-7.86
209.099	-1.86
209.57	-9.86
210.042	-4.76
210.514	-5.16
210.986	-2.16
211.458	-9.46
211.93	-6.36
212.402	3.64
212.873	-8.26
213.345	-7.66
213.817	-8.56
214.288	-6.96
214.76	-8.56
215.232	-2.86
215.703	-4.96
216.175	-4.76
216.646	-0.56
217.118	-5.76
217.589	-5.06
218.061	-2.66
218.532	-3.26
219.004	-2.46
219.475	-4.46
219.946	-5.76
220.418	-2.46
220.889	3.84
221.36	1.04
221.832	1.34
222.303	-6.86
222.774	4.64
223.245	-12.36
223.717	-1.36
224.188	-8.56
224.659	-5.56
225.13	-8.56
225.601	-5.46
226.072	0.34
226.543	-0.76
227.014	0.54
227.485	-0.26
227.956	-2.96
228.427	-3.36
228.898	3.74
229.369	0.74
229.839	0.14
230.31	-2.36
230.781	1.44
231.252	1.04
231.722	-5.36
232.193	-5.96
232.664	-2.76
233.135	0.14
233.605	-2.86
234.076	-5.46
234.546	0.04
235.017	2.54
235.487	-0.16
235.958	-4.06
236.428	-4.66
236.899	2.64
237.369	4.14
237.84	-1.86
238.31	4.34
238.78	7.04
239.251	-2.26
239.721	5.54
240.191	-1.56
240.662	3.14
241.132	2.04
241.602	-0.46
242.072	-1.46
242.542	3.04
243.013	-1.16
243.483	1.44
243.953	-1.06
244.423	1.84
244.893	-2.96
245.363	7.94
245.833	-5.66
246.303	-3.86
246.773	-1.06
247.243	4.04
247.712	5.64
248.182	9.64
248.652	5.04
249.122	-1.56
249.592	11.84
250.061	22.64
250.531	32.24
251.001	17.14
251.471	23.94
251.94	18.74
252.41	7.24
252.879	-0.26
253.349	13.84
253.818	11.24
254.288	1.54
254.757	5.24
255.227	0.74
255.696	2.64
256.166	-2.56
256.635	5.34
257.105	7.04
257.574	6.64
258.043	10.24
258.513	13.94
258.982	21.24
259.451	10.24
259.92	11.04
260.389	11.94
260.859	22.44
261.328	18.04
261.797	14.54
262.266	6.14
262.735	6.54
263.204	-0.26
263.673	-5.46
264.142	0.14
264.611	-7.26
265.08	1.44
265.549	-4.86
266.018	-2.06
266.487	0.34
266.955	-2.96
267.424	0.24
267.893	4.24
268.362	-0.36
268.83	7.94
269.299	15.44
269.768	5.94
270.236	5.14
270.705	-2.06
271.174	9.94
271.642	13.04
272.111	9.24
272.579	17.44
273.048	25.64
273.516	29.54
273.985	26.64
274.453	26.14
274.922	20.04
275.39	15.34
275.858	4.84
276.327	11.94
276.795	20.54
277.263	10.34
277.731	30.94
278.2	55.94
278.668	58.24
279.136	46.04
279.604	21.14
280.072	16.14
280.54	11.64
281.008	6.84
281.477	16.44
281.945	14.84
282.413	21.14
282.881	14.94
283.348	7.84
283.816	15.64
284.284	15.54
284.752	19.94
285.22	11.94
285.688	15.64
286.156	14.84
286.623	48.84
287.091	57.94
287.559	30.34
288.026	16.54
288.494	17.64
288.962	8.04
289.429	12.84
289.897	17.34
290.364	15.54
290.832	14.04
291.3	13.54
291.767	17.94
292.234	15.44
292.702	11.74
293.169	20.34
293.637	24.14
294.104	19.94
294.571	8.14
295.039	13.94
295.506	12.74
295.973	13.24
296.44	12.84
296.908	19.74
297.375	20.04
297.842	17.94
298.309	23.24
298.776	18.94
299.243	17.84
299.71	16.24
300.177	26.34
300.644	22.44
301.111	23.24
301.578	26.14
302.045	17.44
302.512	27.04
302.979	22.94
303.446	23.84
303.913	19.74
304.379	24.64
304.846	29.04
305.313	29.34
305.78	24.44
306.246	24.04
306.713	33.04
307.18	29.54
307.646	34.24
308.113	31.24
308.579	28.24
309.046	28.14
309.512	27.14
309.979	19.44
310.445	27.74
310.912	28.24
311.378	31.94
311.845	31.34
312.311	30.64
312.777	29.14
313.244	36.84
313.71	40.04
314.176	32.24
314.642	31.54
315.109	29.54
315.575	36.94
316.041	44.14
316.507	34.24
316.973	39.34
317.439	34.44
317.905	37.74
318.371	34.34
318.837	37.24
319.303	38.74
319.769	28.54
320.235	45.04
320.701	34.84
321.167	34.84
321.633	32.24
322.099	42.14
322.564	44.44
323.03	38.34
323.496	36.14
323.962	37.64
324.427	38.34
324.893	46.04
325.359	40.94
325.824	38.94
326.29	34.34
326.755	34.64
327.221	35.84
327.686	35.44
328.152	47.64
328.617	43.34
329.083	46.24
329.548	55.24
330.014	42.34
330.479	43.74
330.944	42.74
331.41	44.54
331.875	44.94
332.34	50.14
332.805	44.34
333.271	50.44
333.736	41.14
334.201	53.14
334.666	55.84
335.131	57.04
335.596	55.74
336.061	46.94
336.526	47.04
336.991	55.64
337.456	57.04
337.921	46.34
338.386	44.04
338.851	45.34
339.316	48.04
339.781	45.64
340.246	50.34
340.711	46.04
341.175	57.84
341.64	43.64
342.105	50.04
342.569	59.94
343.034	57.64
343.499	56.14
343.963	58.94
344.428	63.24
344.893	61.34
345.357	61.24
345.822	63.84
346.286	73.94
346.751	82.24
347.215	72.44
347.679	75.74
348.144	101.24
348.608	85.64
349.073	73.14
349.537	70.84
350.001	79.44
350.465	90.24
350.93	88.34
351.394	84.14
351.858	79.44
352.322	89.34
352.786	88.34
353.25	102.04
353.715	116.24
354.179	101.94
354.643	120.34
355.107	131.24
355.571	114.04
356.035	108.24
356.498	118.14
356.962	127.44
357.426	134.74
357.89	118.94
358.354	89.04
358.818	85.84
359.281	82.34
359.745	80.04
360.209	81.44
360.673	78.04
361.136	80.34
361.6	89.44
362.064	87.04
362.527	88.04
362.991	91.84
363.454	86.74
363.918	78.84
364.381	79.14
364.845	84.44
365.308	85.24
365.772	90.64
366.235	89.04
366.698	91.94
367.162	94.04
367.625	88.74
368.088	85.94
368.552	96.44
369.015	87.74
369.478	97.94
369.941	103.84
370.404	96.24
370.867	107.14
371.331	114.14
371.794	119.44
372.257	115.54
372.72	123.34
373.183	110.44
373.646	108.94
374.109	103.64
374.572	113.64
375.035	108.14
375.497	119.24
375.96	109.94
376.423	107.24
376.886	115.84
377.349	109.84
377.811	108.74
378.274	108.84
378.737	112.04
379.199	118.14
379.662	117.24
380.125	117.24
380.587	124.04
381.05	123.54
381.512	132.04
381.975	134.94
382.437	128.14
382.9	123.34
383.362	131.54
383.825	141.84
384.287	153.64
384.75	142.54
385.212	141.54
385.674	143.84
386.136	138.04
386.599	132.04
387.061	133.64
387.523	132.74
387.985	138.94
388.447	148.64
388.91	145.24
389.372	157.84
389.834	154.84
390.296	148.64
390.758	155.34
391.22	178.24
391.682	221.04
392.144	300.44
392.606	229.54
393.068	174.24
393.529	176.44
393.991	162.64
394.453	150.44
394.915	157.74
395.377	190.14
395.838	208.54
396.3	165.24
396.762	146.84
397.224	134.84
397.685	132.04
398.147	131.84
398.608	131.84
399.07	132.74
399.531	136.34
399.993	145.54
400.454	154.04
400.916	154.44
401.377	147.34
401.839	157.04
402.3	153.44
402.762	165.04
403.223	180.54
403.684	175.54
404.145	167.54
404.607	163.84
405.068	173.44
405.529	177.54
405.99	190.24
406.451	181.24
406.913	178.64
407.374	167.74
407.835	158.94
408.296	171.44
408.757	178.24
409.218	194.64
409.679	182.44
410.14	180.74
410.601	183.34
411.062	190.84
411.522	192.04
411.983	199.04
412.444	178.94
412.905	182.64
413.366	187.64
413.826	194.84
414.287	216.94
414.748	269.44
415.208	254.24
415.669	212.24
416.13	214.44
416.59	205.44
417.051	219.44
417.511	223.54
417.972	242.74
418.432	250.84
418.893	290.44
419.353	253.24
419.814	206.14
420.274	188.44
420.734	183.54
421.195	210.84
421.655	204.74
422.115	198.24
422.576	202.04
423.036	205.84
423.496	203.94
423.956	219.04
424.416	233.64
424.876	268.84
425.336	258.44
425.797	267.94
426.257	266.64
426.717	245.24
427.177	236.44
427.637	229.84
428.097	243.24
428.556	249.74
429.016	275.94
429.476	278.44
429.936	283.24
430.396	288.84
430.856	292.24
431.315	324.14
431.775	357.94
432.235	387.14
432.694	361.74
433.154	368.84
433.614	410.44
434.073	342.64
434.533	295.04
434.993	281.14
435.452	290.44
435.912	298.84
436.371	294.34
436.83	288.74
437.29	283.44
437.749	254.74
438.209	253.44
438.668	277.94
439.127	290.44
439.587	265.94
440.046	258.04
440.505	275.94
440.964	287.14
441.424	337.94
441.883	319.14
442.342	265.64
442.801	228.84
443.26	226.64
443.719	231.94
444.178	221.14
444.637	215.24
445.096	226.84
445.555	232.84
446.014	224.34
446.473	230.34
446.932	238.34
447.391	229.34
447.849	231.14
448.308	222.94
448.767	228.84
449.226	237.04
449.685	240.44
450.143	248.14
450.602	240.34
451.061	233.74
451.519	234.54
451.978	235.84
452.436	238.74
452.895	245.54
453.353	258.44
453.812	248.94
454.27	252.14
454.729	240.44
455.187	246.84
455.646	254.64
456.104	256.14
456.562	265.34
457.021	272.94
457.479	265.44
457.937	279.94
458.395	266.04
458.854	256.54
459.312	267.14
459.77	277.44
460.228	268.54
460.686	247.74
461.144	253.14
461.602	247.64
462.06	245.14
462.518	248.44
462.976	262.44
463.434	260.54
463.892	268.04
464.35	286.54
464.808	291.54
465.266	277.04
465.724	275.34
466.181	281.74
466.639	276.04
467.097	299.44
467.555	305.74
468.012	309.44
468.47	314.24
468.928	335.74
469.385	345.74
469.843	354.94
470.3	352.34
470.758	368.74
471.215	401.34
471.673	418.34
472.13	419.44
472.588	420.94
473.045	376.54
473.503	387.24
473.96	395.44
474.417	411.64
474.875	440.84
475.332	483.44
475.789	475.24
476.246	471.04
476.704	486.64
477.161	524.94
477.618	537.94
478.075	578.64
478.532	640.04
478.989	707.74
479.446	830.94
479.903	791.04
480.36	828.84
480.817	887.74
481.274	998.64
481.731	1106.24
482.188	1198.84
482.645	1330.44
483.102	1450.14
483.558	1597.24
484.015	1637.44
484.472	1616.64
484.929	1566.44
485.385	1507.74
485.842	1476.64
486.299	1399.54
486.755	1328.54
487.212	1129.84
487.668	952.24
488.125	876.34
488.582	803.64
489.038	767.04
489.494	722.24
489.951	704.74
490.407	681.54
490.864	659.54
491.32	656.74
491.776	655.74
492.233	664.24
492.689	632.04
493.145	612.14
493.602	608.84
494.058	631.44
494.514	629.54
494.97	658.84
495.426	663.94
495.882	636.14
496.338	630.54
496.794	640.24
497.251	643.44
497.707	653.24
498.163	653.34
498.618	660.54
499.074	664.24
499.53	686.24
499.986	700.34
500.442	665.04
500.898	651.44
501.354	638.24
501.809	653.24
502.265	662.44
502.721	675.84
503.177	674.14
503.632	681.24
504.088	688.34
504.543	733.74
504.999	728.74
505.455	674.64
505.91	641.44
506.366	653.24
506.821	639.04
507.277	637.04
507.732	638.84
508.187	633.24
508.643	649.74
509.098	647.04
509.553	676.24
510.009	681.34
510.464	689.64
510.919	701.94
511.375	710.84
511.83	728.04
512.285	742.74
512.74	774.24
513.195	807.84
513.65	786.34
514.105	785.34
514.56	791.54
515.015	805.94
515.47	832.54
515.925	800.54
516.38	805.94
516.835	799.84
517.29	796.54
517.745	793.84
518.2	780.14
518.655	760.34
519.109	747.54
519.564	753.94
520.019	746.04
520.474	739.84
520.928	744.54
521.383	733.74
521.838	716.04
522.292	724.64
522.747	733.44
523.201	717.64
523.656	705.24
524.11	710.04
524.565	714.94
525.019	704.94
525.474	713.14
525.928	716.24
526.382	713.34
526.837	707.54
527.291	713.74
527.745	709.04
528.2	708.14
528.654	703.64
529.108	703.64
529.562	704.24
530.016	710.34
530.47	709.24
530.925	707.84
531.379	710.34
531.833	719.74
532.287	718.24
532.741	713.34
533.195	710.84
533.649	727.94
534.103	736.54
534.556	723.44
535.01	722.64
535.464	719.34
535.918	735.44
536.372	740.14
536.826	736.84
537.279	718.34
537.733	727.34
538.187	729.54
538.64	732.14
539.094	729.34
539.548	740.84
540.001	737.84
540.455	740.54
540.908	743.04
541.362	750.24
541.815	756.04
542.269	762.34
542.722	775.24
543.175	782.34
543.629	783.44
544.082	808.34
544.536	805.14
544.989	803.14
545.442	805.94
545.895	801.04
546.349	794.04
546.802	799.94
547.255	810.84
547.708	811.34
548.161	822.34
548.614	831.74
549.067	844.74
549.52	828.34
549.973	818.34
550.426	808.64
550.879	809.84
551.332	809.74
551.785	818.04
552.238	824.44
552.691	835.84
553.144	849.64
553.596	852.44
554.049	875.84
554.502	912.94
554.955	923.94
555.407	927.54
555.86	916.64
556.313	908.94
556.765	897.64
557.218	898.64
557.67	900.34
558.123	890.94
558.576	884.94
559.028	892.64
559.48	905.84
559.933	898.34
560.385	856.64
560.838	825.14
561.29	801.04
561.742	785.84
562.195	778.94
562.647	776.74
563.099	782.04
563.551	778.04
564.004	792.34
564.456	785.34
564.908	774.94
565.36	768.44
565.812	743.64
566.264	737.64
566.716	733.14
567.168	721.04
567.62	730.74
568.072	710.44
568.524	697.94
568.976	690.54
569.428	693.74
569.88	692.14
570.332	695.84
570.784	696.34
571.235	697.74
571.687	699.04
572.139	706.74
572.59	722.84
573.042	720.34
573.494	720.54
573.945	718.04
574.397	689.04
574.849	692.24
575.3	708.04
575.752	697.44
576.203	692.64
576.655	695.64
577.106	685.34
577.557	675.34
578.009	673.14
578.46	674.84
578.912	676.14
579.363	673.24
579.814	677.34
580.265	671.84
580.717	683.94
581.168	685.14
581.619	684.64
582.07	689.04
582.521	682.04
582.972	683.84
583.423	689.24
583.875	690.84
584.326	710.94
584.777	750.94
585.227	836.34
585.678	932.24
586.129	1022.94
586.58	1090.34
587.031	1168.64
587.482	1347.34
587.933	1527.84
588.384	1331.04
588.834	979.04
589.285	813.84
589.736	793.84
590.186	782.84
590.637	775.54
591.088	761.34
591.538	743.74
591.989	742.04
592.439	731.54
592.89	732.54
593.34	719.94
593.791	727.34
594.241	710.64
594.692	721.64
595.142	712.74
595.593	702.44
596.043	709.24
596.493	724.04
596.943	722.14
597.394	731.34
597.844	714.24
598.294	735.24
598.744	752.14
599.195	788.14
599.645	818.24
600.095	860.74
600.545	920.44
600.995	973.64
601.445	1031.04
601.895	1091.64
602.345	1136.74
602.795	1113.74
603.245	1053.54
603.695	1018.54
604.145	966.74
604.594	915.14
605.044	857.84
605.494	804.24
605.944	762.14
606.393	752.84
606.843	736.64
607.293	730.24
607.743	733.94
608.192	750.44
608.642	765.54
609.091	777.74
609.541	776.14
609.99	788.24
610.44	776.34
610.889	725.24
611.339	704.04
611.788	691.14
612.238	712.04
612.687	725.84
613.136	716.84
613.586	746.04
614.035	736.04
614.484	761.64
614.933	765.54
615.383	750.54
615.832	743.34
616.281	738.24
616.73	694.84
617.179	675.04
617.628	661.84
618.077	638.24
618.526	635.24
618.975	621.14
619.424	615.94
619.873	617.24
620.322	616.44
620.771	610.34
621.22	610.24
621.669	594.94
622.118	598.64
622.567	587.44
623.015	567.84
623.464	577.14
623.913	567.54
624.361	557.44
624.81	553.34
625.259	555.74
625.707	555.34
626.156	559.94
626.604	567.14
627.053	562.44
627.501	569.74
627.95	565.64
628.398	581.44
628.847	564.84
629.295	568.84
629.744	577.24
630.192	568.24
630.64	567.84
631.089	566.94
631.537	576.34
631.985	593.04
632.433	595.24
632.881	615.24
633.33	657.74
633.778	639.74
634.226	567.04
634.674	575.04
635.122	590.64
635.57	593.94
636.018	623.34
636.466	593.74
636.914	562.44
637.362	573.74
637.81	577.14
638.258	580.24
638.705	579.74
639.153	607.84
639.601	605.14
640.049	643.14
640.497	675.94
640.944	694.94
641.392	647.64
641.84	610.04
642.287	589.74
642.735	571.44
643.182	579.94
643.63	581.64
644.078	575.94
644.525	589.84
644.973	589.04
645.42	609.34
645.867	627.74
646.315	638.94
646.762	654.14
647.21	688.14
647.657	720.24
648.104	752.74
648.551	779.84
648.999	839.14
649.446	913.64
649.893	1006.94
650.34	1158.84
650.787	1396.94
651.234	1740.64
651.682	2258.84
652.129	3106.64
652.576	4470.44
653.023	6576.44
653.47	9077.14
653.917	11381.34
654.363	13086.14
654.81	14483.54
655.257	13838.54
655.704	9050.44
656.151	5308.24
656.598	3448.64
657.044	2428.64
657.491	1864.44
657.938	1509.14
658.385	1251.74
658.831	1091.24
659.278	976.44
659.724	862.84
660.171	778.64
660.618	725.14
661.064	681.54
661.511	669.04
661.957	659.14
662.404	643.44
662.85	649.54
663.296	620.54
663.743	565.34
664.189	545.44
664.635	528.14
665.082	531.04
665.528	521.84
665.974	513.14
666.42	510.44
666.867	507.44
667.313	483.44
667.759	481.24
668.205	481.84
668.651	488.34
669.097	484.54
669.543	504.74
669.989	467.64
670.435	450.44
670.881	445.34
671.327	454.64
671.773	464.44
672.219	485.04
672.665	537.14
673.11	577.14
673.556	618.54
674.002	665.94
674.448	648.64
674.893	545.24
675.339	467.44
675.785	435.54
676.23	412.44
676.676	388.44
677.122	378.34
677.567	372.54
678.013	358.44
678.458	348.94
678.904	348.94
679.349	335.74
679.794	351.14
680.24	348.94
680.685	343.04
681.131	343.04
681.576	343.64
682.021	353.14
682.466	343.64
682.912	340.34
683.357	351.34
683.802	377.64
684.247	403.94
684.692	444.64
685.137	490.44
685.583	531.14
686.028	553.44
686.473	520.94
686.918	444.64
687.363	416.24
687.807	384.64
688.252	356.44
688.697	352.14
689.142	329.24
689.587	325.94
690.032	328.74
690.477	334.14
690.921	339.94
691.366	381.74
691.811	396.84
692.255	428.24
692.7	451.64
693.145	490.34
693.589	680.44
694.034	1111.94
694.478	1511.74
694.923	1723.74
695.367	2250.34
695.812	1189.64
696.256	493.44
696.701	367.54
697.145	332.44
697.59	325.54
698.034	321.34
698.478	319.54
698.922	323.44
699.367	325.84
699.811	333.04
700.255	354.44
700.699	380.64
701.143	425.44
701.588	472.94
702.032	500.34
702.476	507.64
702.92	489.34
703.364	479.44
703.808	615.44
704.252	1005.84
704.696	1423.64
705.14	1657.54
705.584	2110.94
706.027	1051.34
706.471	510.54
706.915	394.74
707.359	341.24
707.803	317.94
708.246	306.24
708.69	310.64
709.134	313.14
709.577	304.14
710.021	320.34
710.465	311.74
710.908	292.84
711.352	295.24
711.795	311.84
712.239	337.14
712.682	381.24
713.126	406.54
713.569	466.94
714.012	367.64
714.456	321.84
714.899	297.24
715.342	271.34
715.786	261.34
716.229	260.84
716.672	251.34
717.115	248.04
717.558	255.84
718.002	247.04
718.445	252.94
718.888	279.24
719.331	285.84
719.774	302.34
720.217	297.84
720.66	282.04
721.103	262.64
721.546	254.54
721.989	249.74
722.432	231.04
722.874	237.64
723.317	227.34
723.76	231.94
724.203	253.04
724.645	310.34
725.088	434.14
725.531	556.64
725.974	631.14
726.416	537.44
726.859	308.74
727.301	244.34
727.744	238.14
728.187	226.54
728.629	228.94
729.071	231.94
729.514	251.14
729.956	267.94
730.399	278.44
730.841	282.34
731.283	260.64
731.726	254.64
732.168	257.14
732.61	263.14
733.053	283.44
733.495	311.14
733.937	339.24
734.379	389.04
734.821	421.34
735.263	526.64
735.705	810.64
736.148	1533.14
736.59	2528.74
737.032	3018.84
737.474	2448.84
737.916	795.04
738.357	424.44
738.799	316.94
739.241	297.64
739.683	278.44
740.125	285.94
740.567	294.24
741.008	312.94
741.45	310.64
741.892	306.44
742.334	340.14
742.775	358.44
743.217	333.84
743.658	264.84
744.1	250.14
744.542	258.04
744.983	300.04
745.425	330.24
745.866	339.04
746.307	283.54
746.749	271.34
747.19	322.54
747.632	440.84
748.073	841.24
748.514	1813.04
748.956	2787.94
749.397	3491.14
749.838	2905.54
750.279	2905.74
750.72	1469.44
751.162	538.34
751.603	312.84
752.044	252.74
752.485	217.64
752.926	212.54
753.367	203.04
753.808	190.24
754.249	187.54
754.69	176.94
755.131	173.74
755.572	176.24
756.013	173.04
756.453	183.14
756.894	187.04
757.335	187.84
757.776	194.94
758.216	188.14
758.657	198.54
759.098	189.74
759.538	215.04
759.979	260.44
760.42	359.24
760.86	686.74
761.301	1769.34
761.741	4300.34
762.182	6361.14
762.622	4451.14
763.063	1285.34
763.503	535.54
763.943	340.24
764.384	343.14
764.824	412.24
765.264	447.74
765.705	304.74
766.145	212.74
766.585	189.34
767.025	182.14
767.465	185.54
767.906	244.64
768.346	320.24
768.786	346.54
769.226	267.34
769.666	312.54
770.106	597.44
770.546	1503.64
770.986	2596.14
771.426	2326.44
771.866	780.84
772.306	326.64
772.745	205.24
773.185	169.94
773.625	171.04
774.065	167.64
774.505	203.94
774.944	303.94
775.384	660.94
775.824	1210.04
776.263	1195.64
776.703	505.74
777.142	224.24
777.582	150.14
778.021	133.84
778.461	133.64
778.9	135.24
779.34	128.74
779.779	111.94
780.219	101.44
780.658	106.34
781.097	105.84
781.537	109.34
781.976	106.14
782.415	103.94
782.855	100.94
783.294	98.84
783.733	103.74
784.172	110.94
784.611	106.44
785.05	107.44
785.489	111.04
785.928	114.64
786.367	115.84
786.806	120.24
787.245	122.14
787.684	129.94
788.123	150.44
788.562	129.94
789.001	127.84
789.44	120.74
789.879	119.74
790.317	117.44
790.756	127.84
791.195	123.64
791.634	143.84
792.072	193.44
792.511	349.24
792.95	964.94
793.388	2089.84
793.827	1899.74
794.265	661.74
794.704	275.44
795.142	182.64
795.581	147.64
796.019	133.74
796.458	124.74
796.896	120.14
797.334	120.14
797.773	153.44
798.211	206.54
798.649	421.44
799.087	989.04
799.526	1550.14
799.964	1963.04
800.402	1989.64
800.84	738.14
801.278	293.14
801.716	181.34
802.154	148.34
802.592	147.34
803.03	135.84
803.468	130.24
803.906	139.24
804.344	143.94
804.782	132.84
805.22	131.24
805.658	130.44
806.096	147.44
806.533	153.04
806.971	169.44
807.409	215.84
807.847	301.14
808.284	642.14
808.722	1814.24
809.16	3210.54
809.597	3040.74
810.035	5285.14
810.472	5715.94
810.91	2048.84
811.347	776.14
811.785	391.34
812.222	251.04
812.66	196.34
813.097	162.64
813.535	138.64
813.972	121.34
814.409	112.64
814.846	106.84
815.284	111.94
815.721	99.44
816.158	98.34
816.595	120.84
817.032	174.54
817.47	195.14
817.907	171.74
818.344	144.34
818.781	108.34
819.218	101.94
819.655	121.84
820.092	183.54
820.529	207.04
820.966	175.44
821.403	132.94
821.839	103.84
822.276	104.14
822.713	117.74
823.15	133.54
823.587	120.94
824.023	142.24
824.46	293.54
824.897	871.14
825.333	1335.74
825.77	566.64
826.206	224.24
826.643	138.14
827.08	97.44
827.516	76.04
827.953	73.94
828.389	76.84
828.825	75.44
829.262	68.24
829.698	65.64
830.135	63.34
830.571	64.64
831.007	61.44
831.443	56.24
831.88	64.74
832.316	68.24
832.752	63.94
833.188	59.64
833.624	63.94
834.06	68.34
834.497	70.74
834.933	64.94
835.369	76.54
835.805	70.44
836.241	81.04
836.677	78.64
837.112	84.04
837.548	100.74
837.984	131.84
838.42	192.84
838.856	475.74
839.292	1458.94
839.727	2253.64
840.163	1046.34
840.599	903.44
841.034	1989.24
841.47	2080.24
841.906	762.44
842.341	324.24
842.777	229.24
843.212	311.84
843.648	305.74
844.083	145.84
844.519	96.14
844.954	74.74
845.39	59.54
845.825	55.74
846.261	51.04
846.696	52.94
847.131	48.74
847.566	59.24
848.002	47.44
848.437	55.74
848.872	65.94
849.307	58.94
849.742	85.44
850.177	176.64
850.613	536.14
851.048	861.14
851.483	369.64
851.918	144.64
852.353	91.34
852.788	59.14
853.223	60.74
853.657	56.84
854.092	45.34
854.527	33.64
854.962	42.24
855.397	45.84
855.832	52.04
856.266	39.14
856.701	35.54
857.136	37.84
857.57	40.34
858.005	52.34
858.44	51.54
858.874	44.34
859.309	54.64
859.743	40.04
860.178	52.64
860.612	43.44
861.047	57.94
861.481	61.64
861.915	68.44
862.35	43.04
862.784	26.44
863.218	37.24
863.653	31.74
864.087	45.14
864.521	49.84
864.955	68.14
865.39	153.34
865.824	168.34
866.258	114.34
866.692	156.44
867.126	167.24
867.56	98.54
867.994	50.34
868.428	37.84
868.862	52.04
869.296	57.34
869.73	58.84
870.164	59.04
870.598	45.04
871.031	37.34
871.465	28.84
871.899	32.64
872.333	25.84
872.766	25.14
873.2	17.24
873.634	31.84
874.067	23.34
874.501	26.84
874.935	31.64
875.368	28.24
875.802	22.84
876.235	23.04
876.669	21.64
877.102	21.94
877.535	25.74
877.969	18.64
878.402	17.84
878.836	20.14
879.269	23.14
879.702	25.14
880.135	21.74
880.569	20.34
881.002	27.14
881.435	23.14
881.868	15.44
882.301	21.64
882.734	26.64
883.167	21.64
883.601	18.44
884.034	19.34
884.467	16.94
884.899	16.04
885.332	12.04
885.765	15.44
886.198	17.24
886.631	23.34
887.064	17.04
887.497	17.24
887.929	20.94
888.362	9.54
888.795	9.44
889.228	18.54
889.66	25.04
890.093	21.54
890.526	12.04
890.958	12.24
891.391	15.34
891.823	21.74
892.256	16.44
892.688	14.74
893.121	16.44
893.553	14.14
893.985	19.54
894.418	11.94
894.85	10.24
895.282	15.14
895.715	11.84
896.147	13.54
896.579	15.64
897.011	15.44
897.444	20.64
897.876	10.64
898.308	19.64
898.74	17.14
899.172	14.94
899.604	20.94
900.036	22.54
900.468	16.34
900.9	12.64
901.332	16.14
901.764	19.84
902.196	22.64
902.628	16.94
903.06	14.84
903.491	31.44
903.923	26.04
904.355	21.64
904.787	23.84
905.218	19.64
905.65	22.84
906.082	12.04
906.513	13.74
906.945	10.54
907.376	11.64
907.808	12.84
908.239	17.04
908.671	14.24
909.102	18.64
909.534	23.84
909.965	36.54
910.397	88.74
910.828	304.64
911.259	460.74
911.691	211.74
912.122	103.24
912.553	44.84
912.984	28.64
913.415	26.64
913.847	22.74
914.278	18.64
914.709	13.94
915.14	25.94
915.571	20.14
916.002	10.94
916.433	19.44
916.864	18.74
917.295	9.44
917.726	17.44
918.157	11.14
918.587	29.04
919.018	26.44
919.449	18.24
919.88	22.14
920.311	30.24
920.741	47.64
921.172	165.74
921.603	147.44
922.033	71.24
922.464	41.64
922.895	18.64
923.325	21.94
923.756	14.84
924.186	16.24
924.617	23.74
925.047	41.74
925.478	55.94
925.908	48.64
926.338	21.84
926.769	15.74
927.199	16.04
927.629	12.54
928.06	13.24
928.49	9.74
928.92	14.94
929.35	8.74
929.78	15.44
930.21	7.34
930.641	5.94
931.071	10.64
931.501	6.44
931.931	3.54
932.361	5.64
932.791	1.24
933.221	3.94
933.651	7.54
934.08	18.84
934.51	30.34
934.94	5.94
935.37	6.94
935.8	13.84
936.229	2.84
936.659	11.54
937.089	-1.86
937.519	11.44
937.948	20.84
938.378	24.94
938.807	11.24
939.237	-2.16
939.666	7.04
940.096	-3.16
940.525	2.44
940.955	1.64
941.384	4.34
941.814	-3.76
942.243	6.24
942.672	5.24
943.102	-1.76
943.531	-1.86
943.96	4.64
944.39	-0.66
944.819	0.04
945.248	2.24
945.677	2.94
946.106	3.94
946.535	1.24
946.964	1.64
947.393	-3.96
947.822	1.84
948.251	-3.36
948.68	6.04
949.109	6.04
949.538	1.24
949.967	-1.06
950.396	-2.46
950.825	-1.56
951.254	-2.36
951.682	-6.76
952.111	-0.46
952.54	9.54
952.969	-2.26
953.397	-5.66
953.826	0.24
954.254	-8.46
954.683	0.94
955.112	1.14
955.54	-4.66
955.969	-0.26
956.397	-2.46
956.826	-4.06
957.254	7.84
957.682	0.94
958.111	4.64
958.539	-4.46
958.967	-4.06
959.396	0.74
959.824	1.34
960.252	4.94
960.68	-7.56
961.109	-1.56
961.537	-7.16
961.965	-0.26
962.393	-2.16
962.821	-9.56
963.249	2.04
963.677	5.04
964.105	1.64
964.533	43.04
964.961	34.84
965.389	17.14
965.817	7.64
966.245	-0.56
966.672	1.44
967.1	-7.96
967.528	0.84
967.956	-5.86
968.383	-0.06
968.811	-7.46
969.239	-2.86
969.666	-8.66
970.094	2.24
970.522	0.74
970.949	0.54
971.377	-5.86
971.804	-4.86
972.232	-0.66
972.659	-3.66
973.087	-0.56
973.514	-4.66
973.941	-5.86
974.369	5.54
974.796	0.04
975.223	1.54
975.651	0.74
976.078	1.74
976.505	-3.96
976.932	2.34
977.359	18.04
977.786	11.44
978.214	-0.16
978.641	-1.06
979.068	-9.06
979.495	-2.66
979.922	1.84
980.349	-4.96
980.776	3.14
981.202	-3.26
981.629	5.04
982.056	6.74
982.483	-4.76
982.91	3.74
983.337	-6.96
983.763	-0.06
984.19	-6.86
984.617	-5.96
985.043	-7.46
985.47	0.74
985.897	-3.16
986.323	-7.46
986.75	1.74
987.176	-2.56
987.603	-0.86
988.029	-5.56
988.456	-5.26
988.882	5.24
989.308	-3.36
989.735	-12.16
990.161	5.44
990.587	-2.66
991.014	-0.16
991.44	8.84
991.866	0.24
992.292	-3.06
992.719	-4.36
993.145	-2.06
993.571	-15.16
993.997	-4.66
994.423	-8.26
994.849	-2.86
995.275	6.34
995.701	0.34
996.127	-6.26
996.553	-0.46
996.979	-5.56
997.405	-4.76
997.83	-6.56
998.256	-7.76
998.682	-1.06
999.108	-13.16
999.534	-4.96
999.959	-0.36
1000.385	-7.66
1000.811	1.44
1001.236	-5.66
1001.662	-4.86
1002.087	-11.66
1002.513	-5.46
1002.938	-3.56
1003.364	-2.46
1003.789	-1.06
1004.215	-2.46
1004.64	-2.96
1005.066	1.84
1005.491	2.34
1005.916	-3.46
1006.342	-4.26
1006.767	-4.46
1007.192	1.74
1007.617	-2.06
1008.042	-4.66
1008.468	-11.96
1008.893	-6.16
1009.318	-6.16
1009.743	-8.66
1010.168	-1.96
1010.593	0.84
1011.018	-2.56
1011.443	-1.56
1011.868	-4.36
1012.293	0.64
1012.718	-5.26
1013.143	3.24
1013.567	-3.56
1013.992	-5.66
1014.417	-14.06
1014.842	0.84
1015.267	-5.46
1015.691	-9.96
1016.116	7.84
1016.541	-4.36
1016.965	0.54
1017.39	3.94
1017.814	-1.16
1018.239	1.24
1018.663	-5.06
1019.088	-10.56
1019.512	-8.96
1019.937	-2.76
1020.361	-8.66
1020.785	-8.26
1021.21	-3.86
1021.634	-1.36
1022.058	-4.36
1022.483	0.74
1022.907	-5.26
1023.331	-7.86
1023.755	-7.66
1024.179	-7.36
1024.604	-6.76
1025.028	-9.06
1025.452	-1.06
1025.876	-0.96
1026.3	0.04
1026.724	-9.86
1027.148	-6.56
1027.572	-5.96
1027.996	-6.66
1028.42	-4.76
1028.843	-4.66
1029.267	-8.76
1029.691	0.74
1030.115	-8.16
1030.539	-11.66
1030.962	-0.86
1031.386	-9.86
1031.81	-1.96
1032.233	1.84
1032.657	-3.66
1033.08	-6.96
1033.504	-2.36
1033.927	-10.06
1034.351	-2.16
1034.774	-10.56
1035.198	-1.46
1035.621	-8.46
1036.045	-10.56
1036.468	4.64
1036.891	-5.26
1037.315	-12.86
1037.738	-8.06
1038.161	1.34
1038.584	-9.26
1039.008	-3.76
1039.431	-4.26
1039.854	-3.06
1040.277	-15.16
1040.7	-11.26
1041.123	0.54
1041.546	-7.86
1041.969	-2.06
1042.392	-3.96
1042.815	-4.66
1043.238	4.84
1043.661	2.24
1044.084	-8.76
1044.507	-9.06
1044.93	-6.46
1045.352	-3.46
1045.775	-4.56
1046.198	0.24
1046.621	-5.76
1047.043	1.54
1047.466	3.44
1047.889	-5.66
1048.311	-6.36
1048.734	1.34
1049.156	-0.36
1049.579	-3.36
1050.001	-2.36
1050.424	1.24
1050.846	-4.16
1051.269	-14.16
1051.691	-7.36
1052.113	-5.26
1052.536	-7.96
1052.958	-1.86
1053.38	-4.76
1053.802	-10.86
1054.225	0.44
1054.647	-9.26
1055.069	-7.76
1055.491	-0.86
1055.913	-4.16
1056.335	-0.56
1056.757	-7.06
1057.179	-0.86
1057.601	-5.16
1058.023	-7.26
1058.445	-4.86
1058.867	1.34
1059.289	-4.46
1059.711	-5.16
1060.133	-5.86
1060.555	-0.96
1060.976	-3.56
1061.398	-2.56
1061.82	-8.96
1062.241	-8.86
1062.663	-13.16
1063.085	-0.46
1063.506	-3.76
1063.928	-8.06
1064.35	-0.36
1064.771	-13.56
1065.193	-1.66
1065.614	-12.06
1066.035	-5.06
1066.457	-1.16
1066.878	4.54
1067.3	-11.66
1067.721	-6.26
1068.142	-5.46
1068.564	-4.56
1068.985	-1.86
1069.406	-5.66
1069.827	-7.06
1070.248	2.74
1070.67	-7.56
1071.091	-5.86
1071.512	2.24
1071.933	-10.26
1072.354	-7.66
1072.775	-10.36
1073.196	-7.66
1073.617	-6.36
1074.038	-7.06
1074.459	-6.56
1074.88	-11.46
1075.3	-4.56
1075.721	-4.06
1076.142	1.64
1076.563	0.54
1076.983	-14.36
1077.404	-15.26
1077.825	-5.46
1078.246	-2.56
1078.666	-15.16
1079.087	-15.06
1079.507	-1.96
1079.928	-6.36
1080.348	-3.06
1080.769	-4.96
1081.189	-8.06
1081.61	-2.86
1082.03	-8.96
1082.451	-6.56
1082.871	-3.56
1083.291	-4.26
1083.711	-12.96
1084.132	-6.36
1084.552	-10.66
1084.972	1.84
1085.392	-10.96
1085.813	-11.66
1086.233	-10.06
1086.653	-4.06
1087.073	-1.86
1087.493	-8.26
1087.913	-14.06
1088.333	-6.56
1088.753	-5.56
1089.173	0.64
1089.593	-6.96
1090.013	3.84
1090.433	1.74
1090.852	-6.06
1091.272	0.04
1091.692	-0.76
1092.112	-6.56
1092.531	-11.56
1092.951	-16.66
1093.371	-3.06
1093.79	-3.26
1094.21	-12.06
1094.63	-12.06
1095.049	-4.36
1095.469	-3.66
1095.888	-1.96
1096.308	5.04
1096.727	5.14
1097.146	-8.16
1097.566	2.24
1097.985	-8.06
1098.405	-3.46
1098.824	-8.26
1099.243	-8.46
1099.662	-5.06
1100.082	-3.86
1100.501	-5.96
1100.92	-8.06
1101.339	-5.76
1101.758	-5.26
