Data from 20171114-ORNL-Ar_H_NY_Subt18_08-04-58-295.txt Node
Date: Tue Nov 14 08:04:58 EST 2017
User: Ender
Spectrometer: HR+D1039
Trigger mode: 0
Integration Time (sec): 2.730000E-2
Scans to average: 10
Electric dark correction enabled: true
Nonlinearity correction enabled: false
Boxcar width: 0
XAxis mode: Wavelengths
Number of Pixels in Spectrum: 2048
>>>>>Begin Spectral Data<<<<<
187.836	-6.43
188.309	-6.43
188.782	-6.43
189.255	1.77
189.728	-4.43
190.201	5.77
190.674	0.37
191.147	2.97
191.619	-3.73
192.092	-1.53
192.565	0.47
193.038	2.47
193.511	1.67
193.984	2.57
194.456	0.77
194.929	-0.13
195.402	-2.83
195.874	0.27
196.347	-2.13
196.82	-5.53
197.292	4.57
197.765	0.27
198.237	-6.53
198.71	6.17
199.182	-2.43
199.655	11.37
200.127	5.67
200.6	-4.13
201.072	-3.73
201.544	-5.93
202.017	-0.63
202.489	1.37
202.961	-0.53
203.433	4.47
203.906	-4.13
204.378	-6.73
204.85	-5.13
205.322	-6.53
205.794	-0.03
206.266	-7.53
206.739	-11.23
207.211	3.57
207.683	-11.03
208.155	-5.53
208.627	-6.03
209.099	-1.73
209.57	-5.03
210.042	-0.33
210.514	-1.33
210.986	-6.33
211.458	-5.53
211.93	-2.33
212.402	3.27
212.873	-6.93
213.345	-12.03
213.817	-15.33
214.288	-2.53
214.76	-9.33
215.232	-9.33
215.703	-1.83
216.175	-2.93
216.646	-3.93
217.118	-7.43
217.589	-2.93
218.061	-2.13
218.532	-7.73
219.004	-3.13
219.475	-1.03
219.946	-0.23
220.418	-4.03
220.889	3.27
221.36	2.47
221.832	-2.73
222.303	-9.43
222.774	2.37
223.245	-10.63
223.717	-8.43
224.188	-8.23
224.659	-12.13
225.13	-3.03
225.601	0.37
226.072	4.47
226.543	-0.03
227.014	-3.73
227.485	0.37
227.956	-5.93
228.427	-0.23
228.898	3.87
229.369	-0.03
229.839	-5.03
230.31	-2.53
230.781	0.57
231.252	-4.93
231.722	-5.83
232.193	-5.23
232.664	1.97
233.135	1.97
233.605	-1.93
234.076	-4.63
234.546	1.77
235.017	1.87
235.487	0.37
235.958	-3.33
236.428	-0.93
236.899	6.37
237.369	3.77
237.84	-0.53
238.31	4.67
238.78	7.27
239.251	-2.43
239.721	0.77
240.191	-4.53
240.662	-5.23
241.132	-2.33
241.602	-1.83
242.072	-0.03
242.542	7.97
243.013	1.57
243.483	2.87
243.953	-0.53
244.423	-1.13
244.893	-3.73
245.363	1.47
245.833	-3.73
246.303	2.77
246.773	9.67
247.243	1.57
247.712	2.07
248.182	8.57
248.652	7.77
249.122	-4.93
249.592	10.87
250.061	21.07
250.531	30.77
251.001	10.07
251.471	19.07
251.94	18.87
252.41	3.47
252.879	0.97
253.349	13.37
253.818	10.97
254.288	5.57
254.757	8.67
255.227	3.07
255.696	7.17
256.166	8.17
256.635	10.37
257.105	10.77
257.574	11.27
258.043	12.87
258.513	10.47
258.982	18.47
259.451	11.77
259.92	14.27
260.389	14.67
260.859	19.97
261.328	14.37
261.797	18.97
262.266	11.67
262.735	10.87
263.204	0.87
263.673	3.27
264.142	10.97
264.611	-5.73
265.08	3.37
265.549	-4.73
266.018	9.57
266.487	6.67
266.955	0.87
267.424	-0.73
267.893	5.17
268.362	-1.63
268.83	6.07
269.299	11.17
269.768	9.67
270.236	6.67
270.705	4.77
271.174	4.07
271.642	4.17
272.111	10.17
272.579	21.37
273.048	28.87
273.516	30.07
273.985	32.67
274.453	25.67
274.922	18.57
275.39	9.27
275.858	8.47
276.327	14.37
276.795	19.07
277.263	13.17
277.731	32.07
278.2	56.47
278.668	60.97
279.136	49.37
279.604	19.87
280.072	14.77
280.54	16.27
281.008	15.97
281.477	18.77
281.945	8.27
282.413	13.67
282.881	12.77
283.348	7.67
283.816	14.77
284.284	14.47
284.752	17.27
285.22	16.27
285.688	15.87
286.156	19.37
286.623	47.97
287.091	57.27
287.559	26.27
288.026	23.57
288.494	16.87
288.962	6.07
289.429	7.97
289.897	23.57
290.364	15.27
290.832	18.37
291.3	19.77
291.767	20.37
292.234	22.07
292.702	14.97
293.169	21.57
293.637	29.67
294.104	21.97
294.571	13.77
295.039	10.87
295.506	15.47
295.973	13.97
296.44	12.37
296.908	18.07
297.375	18.97
297.842	21.97
298.309	20.37
298.776	19.17
299.243	29.37
299.71	18.67
300.177	21.17
300.644	23.37
301.111	21.37
301.578	23.17
302.045	16.77
302.512	21.47
302.979	21.67
303.446	21.57
303.913	17.47
304.379	24.77
304.846	34.67
305.313	27.67
305.78	21.27
306.246	24.97
306.713	29.47
307.18	25.07
307.646	31.87
308.113	26.77
308.579	31.17
309.046	23.07
309.512	26.47
309.979	22.57
310.445	30.37
310.912	34.07
311.378	32.07
311.845	37.67
312.311	34.27
312.777	36.47
313.244	34.37
313.71	37.27
314.176	33.67
314.642	31.87
315.109	36.77
315.575	39.47
316.041	37.27
316.507	36.47
316.973	40.17
317.439	37.77
317.905	40.77
318.371	43.17
318.837	30.97
319.303	38.27
319.769	35.47
320.235	27.17
320.701	31.47
321.167	38.17
321.633	36.57
322.099	34.37
322.564	39.07
323.03	45.87
323.496	40.17
323.962	42.07
324.427	35.47
324.893	43.47
325.359	42.07
325.824	37.07
326.29	35.27
326.755	46.37
327.221	45.57
327.686	41.97
328.152	45.77
328.617	40.37
329.083	50.77
329.548	54.27
330.014	51.07
330.479	43.27
330.944	43.77
331.41	40.07
331.875	42.97
332.34	47.97
332.805	42.77
333.271	51.47
333.736	47.47
334.201	54.87
334.666	52.37
335.131	53.37
335.596	51.97
336.061	48.97
336.526	41.87
336.991	46.47
337.456	57.77
337.921	49.17
338.386	48.57
338.851	45.57
339.316	52.37
339.781	44.47
340.246	51.97
340.711	47.07
341.175	55.37
341.64	42.77
342.105	55.17
342.569	54.07
343.034	60.17
343.499	57.87
343.963	58.77
344.428	63.57
344.893	65.57
345.357	60.57
345.822	62.77
346.286	73.07
346.751	73.97
347.215	70.97
347.679	79.27
348.144	104.37
348.608	89.47
349.073	72.07
349.537	79.97
350.001	83.47
350.465	93.17
350.93	84.47
351.394	85.77
351.858	72.77
352.322	90.27
352.786	88.07
353.25	102.77
353.715	109.77
354.179	104.57
354.643	124.67
355.107	128.57
355.571	109.67
356.035	107.07
356.498	119.97
356.962	130.17
357.426	127.57
357.89	122.07
358.354	90.37
358.818	78.37
359.281	78.67
359.745	75.87
360.209	80.57
360.673	81.57
361.136	83.37
361.6	89.07
362.064	83.87
362.527	80.67
362.991	93.37
363.454	83.07
363.918	77.67
364.381	74.47
364.845	86.27
365.308	78.17
365.772	86.17
366.235	85.27
366.698	81.27
367.162	86.17
367.625	89.57
368.088	90.17
368.552	84.77
369.015	92.37
369.478	98.87
369.941	102.27
370.404	96.57
370.867	103.07
371.331	107.27
371.794	119.27
372.257	112.87
372.72	111.77
373.183	113.37
373.646	102.67
374.109	103.37
374.572	105.67
375.035	106.57
375.497	105.47
375.96	107.97
376.423	101.77
376.886	116.37
377.349	108.87
377.811	109.47
378.274	103.37
378.737	108.37
379.199	105.67
379.662	108.97
380.125	114.67
380.587	111.77
381.05	123.37
381.512	130.97
381.975	136.57
382.437	129.57
382.9	122.67
383.362	127.87
383.825	139.27
384.287	149.47
384.75	138.37
385.212	139.37
385.674	140.47
386.136	143.17
386.599	129.87
387.061	129.67
387.523	131.27
387.985	138.87
388.447	142.77
388.91	146.67
389.372	148.37
389.834	153.07
390.296	139.57
390.758	151.17
391.22	168.07
391.682	203.77
392.144	289.27
392.606	220.67
393.068	163.17
393.529	167.07
393.991	153.07
394.453	151.17
394.915	155.97
395.377	192.27
395.838	208.27
396.3	151.97
396.762	141.97
397.224	134.77
397.685	129.67
398.147	130.57
398.608	129.37
399.07	124.47
399.531	134.07
399.993	143.37
400.454	146.27
400.916	146.17
401.377	140.47
401.839	145.87
402.3	150.07
402.762	158.67
403.223	181.17
403.684	171.47
404.145	161.57
404.607	162.97
405.068	165.27
405.529	170.97
405.99	188.87
406.451	172.17
406.913	177.67
407.374	161.77
407.835	158.37
408.296	167.87
408.757	170.67
409.218	185.57
409.679	181.97
410.14	178.67
410.601	171.97
411.062	178.37
411.522	182.67
411.983	186.37
412.444	174.97
412.905	174.77
413.366	175.97
413.826	188.37
414.287	211.67
414.748	259.67
415.208	246.87
415.669	207.47
416.13	207.77
416.59	193.77
417.051	213.97
417.511	211.57
417.972	229.87
418.432	241.17
418.893	278.07
419.353	247.67
419.814	197.97
420.274	183.77
420.734	180.17
421.195	195.87
421.655	189.57
422.115	189.57
422.576	189.67
423.036	196.27
423.496	205.87
423.956	214.67
424.416	227.17
424.876	261.17
425.336	251.07
425.797	260.47
426.257	247.17
426.717	235.77
427.177	227.67
427.637	220.27
428.097	231.27
428.556	245.77
429.016	265.87
429.476	257.67
429.936	266.77
430.396	274.77
430.856	288.97
431.315	308.97
431.775	342.57
432.235	377.77
432.694	347.27
433.154	359.87
433.614	385.07
434.073	338.37
434.533	281.07
434.993	261.87
435.452	282.47
435.912	289.37
436.371	284.47
436.83	278.17
437.29	269.07
437.749	246.97
438.209	240.57
438.668	272.67
439.127	276.77
439.587	265.77
440.046	243.47
440.505	253.97
440.964	270.77
441.424	319.87
441.883	307.77
442.342	260.37
442.801	220.77
443.26	211.27
443.719	217.37
444.178	209.57
444.637	208.27
445.096	217.87
445.555	217.97
446.014	217.67
446.473	224.47
446.932	221.27
447.391	214.87
447.849	227.47
448.308	215.17
448.767	221.87
449.226	231.77
449.685	231.67
450.143	238.87
450.602	235.47
451.061	220.57
451.519	221.87
451.978	224.57
452.436	223.67
452.895	230.07
453.353	246.77
453.812	236.57
454.27	237.57
454.729	233.27
455.187	239.27
455.646	239.77
456.104	249.07
456.562	253.47
457.021	262.97
457.479	258.97
457.937	268.17
458.395	260.27
458.854	243.67
459.312	248.57
459.77	266.87
460.228	248.77
460.686	235.97
461.144	252.47
461.602	237.67
462.06	236.37
462.518	252.57
462.976	250.17
463.434	251.47
463.892	262.47
464.35	266.67
464.808	281.67
465.266	259.07
465.724	264.27
466.181	273.27
466.639	266.47
467.097	286.47
467.555	296.77
468.012	298.37
468.47	311.47
468.928	321.47
469.385	337.37
469.843	339.87
470.3	342.27
470.758	352.57
471.215	377.57
471.673	397.17
472.13	395.67
472.588	404.77
473.045	358.87
473.503	364.67
473.96	386.07
474.417	397.27
474.875	424.47
475.332	459.57
475.789	452.17
476.246	459.97
476.704	482.37
477.161	495.07
477.618	515.57
478.075	546.37
478.532	604.67
478.989	676.37
479.446	785.37
479.903	760.17
480.36	787.47
480.817	852.07
481.274	950.37
481.731	1056.97
482.188	1153.57
482.645	1277.47
483.102	1401.27
483.558	1535.27
484.015	1584.97
484.472	1564.87
484.929	1523.67
485.385	1459.27
485.842	1413.87
486.299	1347.97
486.755	1276.77
487.212	1080.57
487.668	913.97
488.125	840.07
488.582	772.77
489.038	729.57
489.494	699.57
489.951	673.67
490.407	653.17
490.864	647.67
491.32	638.37
491.776	629.47
492.233	633.57
492.689	596.27
493.145	593.97
493.602	576.67
494.058	601.67
494.514	608.27
494.97	631.67
495.426	636.17
495.882	613.07
496.338	604.57
496.794	613.77
497.251	611.17
497.707	627.87
498.163	636.07
498.618	632.87
499.074	641.17
499.53	657.87
499.986	665.27
500.442	639.77
500.898	616.97
501.354	616.17
501.809	620.07
502.265	634.57
502.721	644.87
503.177	651.47
503.632	645.17
504.088	668.07
504.543	699.07
504.999	700.57
505.455	651.17
505.91	621.77
506.366	622.37
506.821	610.47
507.277	618.37
507.732	613.87
508.187	605.67
508.643	622.17
509.098	623.27
509.553	639.87
510.009	654.97
510.464	653.87
510.919	668.57
511.375	685.47
511.83	694.97
512.285	702.97
512.74	739.87
513.195	764.57
513.65	760.27
514.105	748.47
514.56	763.77
515.015	775.67
515.47	787.67
515.925	775.17
516.38	774.77
516.835	775.37
517.29	772.87
517.745	763.87
518.2	748.87
518.655	729.77
519.109	727.57
519.564	728.17
520.019	709.87
520.474	720.37
520.928	718.47
521.383	706.87
521.838	699.27
522.292	696.97
522.747	695.17
523.201	689.47
523.656	684.77
524.11	671.37
524.565	668.87
525.019	670.87
525.474	686.87
525.928	689.87
526.382	686.97
526.837	682.27
527.291	684.77
527.745	691.17
528.2	677.57
528.654	677.77
529.108	672.07
529.562	682.37
530.016	676.37
530.47	673.37
530.925	676.57
531.379	677.57
531.833	692.17
532.287	678.07
532.741	686.17
533.195	693.47
533.649	695.57
534.103	697.67
534.556	707.87
535.01	695.47
535.464	687.47
535.918	694.97
536.372	704.07
536.826	702.47
537.279	686.17
537.733	692.97
538.187	698.17
538.64	695.77
539.094	700.47
539.548	715.77
540.001	702.47
540.455	709.57
540.908	714.17
541.362	709.67
541.815	718.27
542.269	731.37
542.722	734.37
543.175	753.97
543.629	754.07
544.082	762.07
544.536	763.17
544.989	763.27
545.442	770.87
545.895	774.57
546.349	763.27
546.802	763.37
547.255	775.67
547.708	775.17
548.161	788.57
548.614	796.47
549.067	808.57
549.52	801.77
549.973	791.87
550.426	777.47
550.879	769.57
551.332	772.57
551.785	785.37
552.238	777.27
552.691	786.57
553.144	802.87
553.596	824.47
554.049	831.07
554.502	856.37
554.955	882.57
555.407	881.37
555.86	877.67
556.313	868.87
556.765	853.17
557.218	858.47
557.67	856.57
558.123	851.37
558.576	840.07
559.028	856.17
559.48	852.87
559.933	845.27
560.385	812.07
560.838	782.17
561.29	754.37
561.742	750.87
562.195	733.67
562.647	729.37
563.099	744.27
563.551	743.17
564.004	754.77
564.456	736.77
564.908	732.87
565.36	721.87
565.812	710.67
566.264	706.77
566.716	694.17
567.168	696.67
567.62	691.07
568.072	668.47
568.524	666.97
568.976	667.87
569.428	639.47
569.88	643.67
570.332	650.07
570.784	648.07
571.235	656.97
571.687	664.47
572.139	661.47
572.59	670.17
573.042	682.57
573.494	681.57
573.945	689.47
574.397	661.77
574.849	663.17
575.3	663.37
575.752	651.77
576.203	650.97
576.655	653.77
577.106	646.87
577.557	637.57
578.009	631.67
578.46	637.47
578.912	639.97
579.363	634.47
579.814	638.87
580.265	635.77
580.717	639.07
581.168	633.87
581.619	644.17
582.07	642.07
582.521	639.97
582.972	633.97
583.423	649.67
583.875	646.47
584.326	668.17
584.777	708.37
585.227	788.17
585.678	865.57
586.129	956.17
586.58	1023.07
587.031	1097.97
587.482	1268.57
587.933	1445.07
588.384	1254.27
588.834	930.37
589.285	758.57
589.736	736.37
590.186	740.17
590.637	725.27
591.088	706.77
591.538	700.57
591.989	700.27
592.439	688.97
592.89	677.17
593.34	670.47
593.791	668.47
594.241	671.47
594.692	675.77
595.142	659.17
595.593	666.57
596.043	657.87
596.493	681.47
596.943	680.67
597.394	691.57
597.844	666.87
598.294	688.27
598.744	697.97
599.195	731.27
599.645	763.37
600.095	804.87
600.545	844.97
600.995	914.17
601.445	957.67
601.895	1023.07
602.345	1069.77
602.795	1038.77
603.245	1002.27
603.695	965.87
604.145	901.67
604.594	855.37
605.044	800.37
605.494	750.67
605.944	705.57
606.393	706.27
606.843	687.07
607.293	683.17
607.743	686.67
608.192	697.07
608.642	716.67
609.091	725.77
609.541	722.37
609.99	728.27
610.44	715.87
610.889	671.87
611.339	656.77
611.788	641.67
612.238	652.47
612.687	674.97
613.136	666.77
613.586	687.17
614.035	694.17
614.484	710.17
614.933	714.67
615.383	698.77
615.832	683.97
616.281	671.87
616.73	640.17
617.179	621.77
617.628	610.77
618.077	589.27
618.526	579.67
618.975	579.87
619.424	573.17
619.873	572.27
620.322	572.67
620.771	564.07
621.22	566.57
621.669	552.17
622.118	554.67
622.567	543.07
623.015	526.97
623.464	529.77
623.913	516.37
624.361	511.47
624.81	513.17
625.259	509.17
625.707	514.97
626.156	515.87
626.604	525.37
627.053	517.17
627.501	528.27
627.95	524.07
628.398	538.67
628.847	523.57
629.295	529.37
629.744	530.87
630.192	534.27
630.64	530.17
631.089	517.67
631.537	524.27
631.985	541.87
632.433	555.27
632.881	561.27
633.33	612.07
633.778	585.17
634.226	525.17
634.674	526.07
635.122	538.07
635.57	549.47
636.018	573.77
636.466	537.97
636.914	504.87
637.362	528.57
637.81	524.47
638.258	532.07
638.705	534.57
639.153	553.97
639.601	568.97
640.049	591.27
640.497	624.37
640.944	640.67
641.392	581.77
641.84	570.07
642.287	546.27
642.735	524.37
643.182	524.87
643.63	528.87
644.078	531.97
644.525	548.27
644.973	551.57
645.42	556.57
645.867	573.57
646.315	589.17
646.762	603.17
647.21	634.07
647.657	650.67
648.104	691.87
648.551	707.27
648.999	777.07
649.446	833.57
649.893	922.37
650.34	1056.37
650.787	1266.77
651.234	1564.27
651.682	2039.17
652.129	2809.47
652.576	4017.57
653.023	5979.97
653.47	8227.87
653.917	10364.57
654.363	12116.97
654.81	13555.07
655.257	12855.47
655.704	8388.97
656.151	4914.27
656.598	3180.47
657.044	2245.77
657.491	1735.37
657.938	1373.67
658.385	1152.97
658.831	996.07
659.278	883.17
659.724	791.17
660.171	728.17
660.618	660.07
661.064	637.17
661.511	611.77
661.957	597.57
662.404	590.47
662.85	588.17
663.296	574.67
663.743	506.87
664.189	497.07
664.635	490.87
665.082	479.17
665.528	481.17
665.974	472.57
666.42	471.67
666.867	457.67
667.313	437.67
667.759	437.77
668.205	442.47
668.651	448.97
669.097	443.97
669.543	460.27
669.989	426.37
670.435	408.07
670.881	410.17
671.327	415.37
671.773	431.47
672.219	441.77
672.665	487.67
673.11	526.07
673.556	566.77
674.002	604.37
674.448	602.27
674.893	498.27
675.339	433.87
675.785	390.17
676.23	382.97
676.676	354.97
677.122	345.17
677.567	339.67
678.013	335.67
678.458	313.57
678.904	329.57
679.349	309.67
679.794	323.97
680.24	316.57
680.685	313.47
681.131	317.37
681.576	318.17
682.021	318.77
682.466	321.37
682.912	318.87
683.357	318.87
683.802	344.77
684.247	362.17
684.692	414.07
685.137	455.87
685.583	490.97
686.028	512.47
686.473	476.47
686.918	410.47
687.363	372.37
687.807	356.07
688.252	327.27
688.697	323.97
689.142	302.87
689.587	298.07
690.032	292.17
690.477	312.77
690.921	313.87
691.366	339.67
691.811	356.77
692.255	386.07
692.7	422.47
693.145	446.17
693.589	615.77
694.034	1003.77
694.478	1374.47
694.923	1590.17
695.367	2094.17
695.812	1081.97
696.256	453.17
696.701	338.17
697.145	313.97
697.59	290.17
698.034	287.27
698.478	299.07
698.922	293.07
699.367	289.07
699.811	310.37
700.255	312.37
700.699	349.67
701.143	382.07
701.588	427.67
702.032	464.17
702.476	452.57
702.92	435.57
703.364	442.47
703.808	556.97
704.252	906.67
704.696	1292.77
705.14	1501.57
705.584	1954.97
706.027	963.97
706.471	474.67
706.915	350.07
707.359	313.17
707.803	289.77
708.246	278.87
708.69	280.37
709.134	284.27
709.577	287.27
710.021	284.07
710.465	276.07
710.908	272.87
711.352	269.37
711.795	285.37
712.239	308.27
712.682	340.07
713.126	373.47
713.569	427.27
714.012	336.37
714.456	294.17
714.899	265.17
715.342	244.07
715.786	231.07
716.229	233.87
716.672	229.77
717.115	224.97
717.558	223.77
718.002	228.67
718.445	237.57
718.888	259.87
719.331	270.07
719.774	276.77
720.217	278.57
720.66	251.87
721.103	238.07
721.546	229.77
721.989	228.87
722.432	207.07
722.874	209.37
723.317	205.77
723.76	212.97
724.203	227.57
724.645	284.77
725.088	391.57
725.531	501.97
725.974	583.37
726.416	497.17
726.859	273.07
727.301	222.97
727.744	214.27
728.187	208.17
728.629	213.57
729.071	215.87
729.514	233.77
729.956	241.47
730.399	252.17
730.841	255.87
731.283	248.27
731.726	233.37
732.168	231.87
732.61	237.77
733.053	254.07
733.495	279.57
733.937	311.97
734.379	363.77
734.821	386.87
735.263	478.17
735.705	724.47
736.148	1378.37
736.59	2283.87
737.032	2805.87
737.474	2264.67
737.916	725.77
738.357	383.67
738.799	292.07
739.241	266.77
739.683	253.37
740.125	260.17
740.567	264.67
741.008	277.67
741.45	281.07
741.892	281.47
742.334	310.17
742.775	324.07
743.217	316.67
743.658	250.17
744.1	233.67
744.542	227.17
744.983	286.47
745.425	310.17
745.866	316.57
746.307	254.37
746.749	252.27
747.19	287.27
747.632	396.27
748.073	759.27
748.514	1620.37
748.956	2556.67
749.397	3201.67
749.838	2661.57
750.279	2712.87
750.72	1349.97
751.162	491.57
751.603	290.47
752.044	223.67
752.485	193.67
752.926	186.07
753.367	179.17
753.808	172.07
754.249	173.27
754.69	166.07
755.131	165.17
755.572	161.37
756.013	157.17
756.453	158.27
756.894	168.67
757.335	166.37
757.776	168.97
758.216	172.07
758.657	179.77
759.098	180.47
759.538	203.17
759.979	237.77
760.42	331.17
760.86	599.77
761.301	1565.67
761.741	3894.17
762.182	5907.77
762.622	4155.17
763.063	1182.27
763.503	484.47
763.943	309.67
764.384	300.47
764.824	366.57
765.264	411.47
765.705	280.47
766.145	186.37
766.585	163.57
767.025	158.47
767.465	161.97
767.906	211.77
768.346	290.27
768.786	313.57
769.226	233.67
769.666	278.57
770.106	533.07
770.546	1338.07
770.986	2371.97
771.426	2171.77
771.866	717.57
772.306	291.97
772.745	184.77
773.185	148.87
773.625	140.87
774.065	148.97
774.505	175.57
774.944	267.07
775.384	595.37
775.824	1109.07
776.263	1098.57
776.703	462.37
777.142	195.07
777.582	140.07
778.021	127.57
778.461	121.97
778.9	128.37
779.34	118.57
779.779	99.97
780.219	96.47
780.658	94.77
781.097	100.87
781.537	100.57
781.976	104.87
782.415	97.97
782.855	94.77
783.294	90.67
783.733	91.37
784.172	97.97
784.611	91.87
785.05	90.37
785.489	87.37
785.928	99.97
786.367	102.37
786.806	110.37
787.245	114.97
787.684	118.87
788.123	128.17
788.562	118.37
789.001	111.27
789.44	106.67
789.879	102.17
790.317	102.57
790.756	109.27
791.195	116.67
791.634	126.37
792.072	179.07
792.511	314.07
792.95	871.07
793.388	1921.47
793.827	1776.77
794.265	615.57
794.704	243.37
795.142	167.67
795.581	139.87
796.019	119.37
796.458	109.97
796.896	111.17
797.334	118.77
797.773	137.17
798.211	190.07
798.649	378.67
799.087	893.87
799.526	1415.77
799.964	1784.87
800.402	1849.77
800.84	675.57
801.278	269.97
801.716	165.17
802.154	134.07
802.592	130.97
803.03	118.87
803.468	114.77
803.906	121.17
804.344	130.07
804.782	125.27
805.22	116.27
805.658	112.17
806.096	126.47
806.533	138.27
806.971	146.17
807.409	189.27
807.847	272.77
808.284	564.67
808.722	1624.27
809.16	2977.87
809.597	2750.97
810.035	4846.07
810.472	5387.17
810.91	1897.27
811.347	712.07
811.785	354.87
812.222	231.57
812.66	174.27
813.097	139.17
813.535	124.67
813.972	117.77
814.409	101.77
814.846	94.07
815.284	102.27
815.721	79.77
816.158	97.27
816.595	103.47
817.032	153.27
817.47	184.37
817.907	151.27
818.344	131.17
818.781	105.67
819.218	90.07
819.655	107.67
820.092	165.57
820.529	191.67
820.966	159.27
821.403	122.07
821.839	97.37
822.276	95.87
822.713	112.97
823.15	119.47
823.587	110.97
824.023	129.47
824.46	257.67
824.897	787.97
825.333	1237.47
825.77	524.27
826.206	203.57
826.643	119.67
827.08	86.97
827.516	68.67
827.953	60.67
828.389	65.47
828.825	58.97
829.262	57.17
829.698	55.07
830.135	51.67
830.571	48.47
831.007	51.87
831.443	56.47
831.88	52.47
832.316	53.67
832.752	57.17
833.188	60.07
833.624	51.57
834.06	61.87
834.497	62.57
834.933	65.47
835.369	65.37
835.805	56.17
836.241	67.77
836.677	68.07
837.112	79.67
837.548	87.27
837.984	112.07
838.42	171.47
838.856	422.67
839.292	1333.57
839.727	2106.97
840.163	964.77
840.599	814.67
841.034	1810.57
841.47	1951.87
841.906	705.37
842.341	298.47
842.777	205.27
843.212	289.77
843.648	284.57
844.083	139.07
844.519	79.77
844.954	66.97
845.39	51.07
845.825	51.67
846.261	48.67
846.696	42.67
847.131	45.77
847.566	51.27
848.002	41.67
848.437	40.87
848.872	53.37
849.307	53.07
849.742	71.97
850.177	156.57
850.613	484.57
851.048	799.87
851.483	341.47
851.918	138.37
852.353	70.77
852.788	51.07
853.223	52.07
853.657	44.57
854.092	38.07
854.527	34.57
854.962	39.27
855.397	38.57
855.832	46.17
856.266	34.67
856.701	35.17
857.136	29.07
857.57	34.67
858.005	39.07
858.44	44.87
858.874	33.37
859.309	42.67
859.743	32.27
860.178	43.77
860.612	32.67
861.047	48.77
861.481	52.47
861.915	59.37
862.35	41.57
862.784	27.07
863.218	34.97
863.653	29.37
864.087	44.07
864.521	54.57
864.955	60.17
865.39	138.57
865.824	153.77
866.258	98.47
866.692	146.47
867.126	158.77
867.56	93.57
867.994	51.27
868.428	30.67
868.862	45.57
869.296	46.27
869.73	49.97
870.164	40.67
870.598	38.47
871.031	29.47
871.465	33.37
871.899	24.97
872.333	16.07
872.766	22.87
873.2	19.97
873.634	26.17
874.067	24.27
874.501	18.87
874.935	29.37
875.368	30.87
875.802	22.57
876.235	17.97
876.669	20.87
877.102	26.77
877.535	21.57
877.969	17.17
878.402	25.17
878.836	9.77
879.269	14.87
879.702	18.67
880.135	18.77
880.569	18.77
881.002	27.57
881.435	10.97
881.868	14.77
882.301	14.97
882.734	13.27
883.167	18.07
883.601	13.27
884.034	15.87
884.467	13.37
884.899	13.67
885.332	18.17
885.765	12.37
886.198	7.47
886.631	15.57
887.064	19.47
887.497	18.87
887.929	24.77
888.362	15.97
888.795	13.07
889.228	8.57
889.66	20.37
890.093	12.77
890.526	11.77
890.958	16.47
891.391	15.27
891.823	22.37
892.256	11.97
892.688	10.57
893.121	18.27
893.553	19.67
893.985	27.37
894.418	12.67
894.85	10.27
895.282	10.97
895.715	11.67
896.147	9.07
896.579	15.57
897.011	13.47
897.444	16.27
897.876	12.77
898.308	14.27
898.74	12.87
899.172	14.17
899.604	17.37
900.036	10.57
900.468	14.27
900.9	18.07
901.332	12.27
901.764	14.97
902.196	18.27
902.628	18.27
903.06	8.67
903.491	23.27
903.923	20.57
904.355	17.37
904.787	20.37
905.218	11.57
905.65	17.47
906.082	9.17
906.513	12.77
906.945	9.27
907.376	14.77
907.808	18.97
908.239	20.57
908.671	17.87
909.102	20.17
909.534	21.27
909.965	41.77
910.397	80.77
910.828	284.77
911.259	436.17
911.691	193.77
912.122	97.97
912.553	42.87
912.984	23.77
913.415	22.97
913.847	24.47
914.278	12.37
914.709	10.67
915.14	11.57
915.571	13.67
916.002	7.27
916.433	16.77
916.864	13.47
917.295	7.47
917.726	21.67
918.157	16.07
918.587	26.07
919.018	13.57
919.449	16.07
919.88	23.37
920.311	25.17
920.741	39.07
921.172	146.07
921.603	132.77
922.033	61.17
922.464	37.47
922.895	19.17
923.325	20.27
923.756	11.57
924.186	15.67
924.617	23.97
925.047	35.77
925.478	50.57
925.908	41.07
926.338	22.67
926.769	12.97
927.199	18.07
927.629	9.67
928.06	14.27
928.49	14.67
928.92	11.27
929.35	15.37
929.78	7.67
930.21	5.17
930.641	10.17
931.071	4.87
931.501	-0.63
931.931	7.57
932.361	4.67
932.791	5.17
933.221	1.87
933.651	6.67
934.08	10.57
934.51	24.57
934.94	11.07
935.37	7.17
935.8	8.27
936.229	10.47
936.659	11.47
937.089	0.57
937.519	11.77
937.948	22.87
938.378	11.27
938.807	7.67
939.237	-0.73
939.666	7.77
940.096	-10.13
940.525	3.57
940.955	-1.53
941.384	5.87
941.814	-4.73
942.243	-5.73
942.672	2.97
943.102	-5.63
943.531	-1.93
943.96	2.57
944.39	0.87
944.819	-3.73
945.248	1.17
945.677	2.37
946.106	1.67
946.535	1.27
946.964	0.07
947.393	0.67
947.822	-3.63
948.251	-1.53
948.68	7.27
949.109	4.97
949.538	1.17
949.967	-1.33
950.396	-1.13
950.825	2.37
951.254	-1.63
951.682	-7.83
952.111	3.07
952.54	1.87
952.969	-3.73
953.397	-2.53
953.826	2.87
954.254	-4.83
954.683	1.17
955.112	-0.43
955.54	0.07
955.969	-1.73
956.397	0.17
956.826	-4.03
957.254	3.47
957.682	6.77
958.111	0.77
958.539	1.77
958.967	-2.83
959.396	-2.23
959.824	-1.03
960.252	-1.23
960.68	-6.93
961.109	-5.53
961.537	-7.83
961.965	-0.93
962.393	-3.73
962.821	-1.73
963.249	0.27
963.677	6.17
964.105	5.17
964.533	41.47
964.961	34.57
965.389	17.57
965.817	2.87
966.245	-0.33
966.672	0.37
967.1	-4.43
967.528	-5.53
967.956	-5.23
968.383	1.17
968.811	-5.43
969.239	-2.13
969.666	-3.93
970.094	-0.93
970.522	-0.03
970.949	-4.83
971.377	-6.53
971.804	-5.03
972.232	-1.23
972.659	-6.03
973.087	-3.13
973.514	-2.83
973.941	-7.73
974.369	4.67
974.796	-4.53
975.223	-6.93
975.651	-4.33
976.078	1.67
976.505	-2.03
976.932	-1.43
977.359	9.27
977.786	14.07
978.214	-0.13
978.641	-8.13
979.068	-2.33
979.495	-10.33
979.922	-1.43
980.349	-4.13
980.776	-3.73
981.202	-0.53
981.629	9.67
982.056	3.47
982.483	-4.13
982.91	5.27
983.337	-5.93
983.763	4.17
984.19	-6.73
984.617	-2.33
985.043	-4.53
985.47	-2.83
985.897	-8.73
986.323	-11.43
986.75	1.77
987.176	-5.73
987.603	-0.63
988.029	1.97
988.456	-1.43
988.882	2.17
989.308	-5.73
989.735	-9.23
990.161	1.57
990.587	-2.93
991.014	2.07
991.44	5.47
991.866	-5.73
992.292	-3.93
992.719	-3.93
993.145	-4.73
993.571	-12.73
993.997	-3.33
994.423	-1.13
994.849	-11.33
995.275	3.57
995.701	0.47
996.127	-2.93
996.553	-2.03
996.979	-5.63
997.405	2.37
997.83	-7.93
998.256	-6.13
998.682	-9.93
999.108	-10.33
999.534	-7.03
999.959	-4.53
1000.385	-5.23
1000.811	-1.13
1001.236	-7.33
1001.662	-8.23
1002.087	-13.23
1002.513	0.07
1002.938	-4.83
1003.364	-4.23
1003.789	-3.33
1004.215	-0.93
1004.64	-2.83
1005.066	2.27
1005.491	0.97
1005.916	-7.73
1006.342	-7.43
1006.767	-10.33
1007.192	2.87
1007.617	-7.23
1008.042	-15.23
1008.468	-6.63
1008.893	-4.43
1009.318	-3.23
1009.743	-0.63
1010.168	3.37
1010.593	-3.83
1011.018	-15.33
1011.443	-0.83
1011.868	2.07
1012.293	-1.93
1012.718	-3.63
1013.143	0.67
1013.567	2.57
1013.992	-0.33
1014.417	-15.83
1014.842	-3.13
1015.267	-6.13
1015.691	-3.93
1016.116	5.17
1016.541	-2.23
1016.965	2.37
1017.39	-0.43
1017.814	-6.43
1018.239	-4.53
1018.663	-6.23
1019.088	-15.63
1019.512	-3.53
1019.937	1.87
1020.361	-7.13
1020.785	-10.93
1021.21	-5.13
1021.634	-3.33
1022.058	0.87
1022.483	2.77
1022.907	-4.23
1023.331	-6.53
1023.755	-3.03
1024.179	-1.33
1024.604	-5.63
1025.028	-4.13
1025.452	-11.33
1025.876	-3.73
1026.3	0.67
1026.724	-10.63
1027.148	-5.33
1027.572	-11.73
1027.996	-8.13
1028.42	-5.53
1028.843	-4.43
1029.267	-3.53
1029.691	-4.13
1030.115	-5.33
1030.539	-4.73
1030.962	-11.03
1031.386	-8.33
1031.81	0.27
1032.233	-1.23
1032.657	-6.03
1033.08	-2.43
1033.504	-5.43
1033.927	-7.93
1034.351	-2.23
1034.774	-7.83
1035.198	0.27
1035.621	-7.53
1036.045	-8.43
1036.468	-1.13
1036.891	-5.63
1037.315	-8.23
1037.738	-9.23
1038.161	-5.93
1038.584	-5.83
1039.008	-8.93
1039.431	-3.23
1039.854	0.67
1040.277	-8.63
1040.7	-8.23
1041.123	-0.53
1041.546	-3.63
1041.969	-3.43
1042.392	-8.63
1042.815	-5.53
1043.238	-1.23
1043.661	5.07
1044.084	-8.43
1044.507	-3.83
1044.93	-9.23
1045.352	-6.53
1045.775	2.07
1046.198	-4.13
1046.621	-0.83
1047.043	-1.53
1047.466	8.67
1047.889	-2.43
1048.311	-5.63
1048.734	-5.83
1049.156	-4.73
1049.579	-2.73
1050.001	-2.53
1050.424	-3.93
1050.846	-2.63
1051.269	-1.13
1051.691	-7.23
1052.113	-8.83
1052.536	-3.23
1052.958	-3.93
1053.38	-4.73
1053.802	-10.13
1054.225	-2.23
1054.647	-9.43
1055.069	-7.43
1055.491	-1.23
1055.913	-13.23
1056.335	-2.73
1056.757	-4.73
1057.179	-7.53
1057.601	-5.23
1058.023	-7.03
1058.445	-4.63
1058.867	-4.13
1059.289	-3.53
1059.711	-8.43
1060.133	-6.73
1060.555	-8.33
1060.976	-7.13
1061.398	-5.03
1061.82	-7.73
1062.241	-5.23
1062.663	-7.03
1063.085	-5.53
1063.506	-3.03
1063.928	-4.43
1064.35	-2.13
1064.771	-19.63
1065.193	-2.33
1065.614	-9.83
1066.035	-2.23
1066.457	-3.33
1066.878	-4.63
1067.3	-3.93
1067.721	-4.23
1068.142	-6.03
1068.564	-7.13
1068.985	-4.23
1069.406	-3.63
1069.827	-6.23
1070.248	-0.13
1070.67	-11.23
1071.091	-1.53
1071.512	-5.23
1071.933	-6.63
1072.354	-7.23
1072.775	2.87
1073.196	-9.73
1073.617	-5.13
1074.038	-8.03
1074.459	-3.33
1074.88	-9.93
1075.3	-0.83
1075.721	-3.13
1076.142	-0.53
1076.563	-0.83
1076.983	-7.63
1077.404	-8.93
1077.825	-6.23
1078.246	-6.73
1078.666	-11.73
1079.087	-7.43
1079.507	-7.93
1079.928	-0.83
1080.348	-1.63
1080.769	-1.53
1081.189	3.67
1081.61	0.77
1082.03	-4.93
1082.451	-6.23
1082.871	-3.13
1083.291	-8.23
1083.711	-9.83
1084.132	-6.63
1084.552	-5.43
1084.972	0.17
1085.392	-9.93
1085.813	-13.03
1086.233	-10.93
1086.653	-7.93
1087.073	-4.43
1087.493	-9.93
1087.913	-9.63
1088.333	-12.23
1088.753	-6.13
1089.173	2.17
1089.593	-2.63
1090.013	-1.03
1090.433	4.37
1090.852	-1.03
1091.272	-3.83
1091.692	-1.13
1092.112	-6.53
1092.531	-10.03
1092.951	-18.13
1093.371	-6.63
1093.79	1.87
1094.21	-3.43
1094.63	-4.93
1095.049	-5.43
1095.469	-3.13
1095.888	-6.23
1096.308	0.47
1096.727	6.97
1097.146	2.07
1097.566	-8.33
1097.985	-10.93
1098.405	-3.13
1098.824	-6.53
1099.243	-11.63
1099.662	-10.13
1100.082	-7.23
1100.501	-5.43
1100.92	-5.33
1101.339	-10.23
1101.758	-7.83
