Data from 20171114-ORNL-Ar_H_NY_Subt18_08-07-10-416.txt Node
Date: Tue Nov 14 08:07:10 EST 2017
User: Ender
Spectrometer: HR+D1039
Trigger mode: 0
Integration Time (sec): 2.730000E-2
Scans to average: 10
Electric dark correction enabled: true
Nonlinearity correction enabled: false
Boxcar width: 0
XAxis mode: Wavelengths
Number of Pixels in Spectrum: 2048
>>>>>Begin Spectral Data<<<<<
187.836	-2.99
188.309	-2.99
188.782	-2.99
189.255	-3.79
189.728	-1.89
190.201	6.51
190.674	-2.99
191.147	2.51
191.619	-11.39
192.092	0.51
192.565	6.81
193.038	0.91
193.511	2.81
193.984	3.01
194.456	-1.79
194.929	0.21
195.402	3.21
195.874	-1.59
196.347	-4.79
196.82	-9.29
197.292	1.01
197.765	-1.49
198.237	-15.69
198.71	3.41
199.182	-1.69
199.655	-2.09
200.127	-1.09
200.6	-2.29
201.072	-3.29
201.544	-7.39
202.017	-3.69
202.489	3.01
202.961	-7.19
203.433	-7.69
203.906	2.11
204.378	-9.29
204.85	-8.59
205.322	-8.19
205.794	3.61
206.266	-5.59
206.739	-13.39
207.211	-0.09
207.683	-11.49
208.155	-6.69
208.627	-3.49
209.099	-0.09
209.57	-7.79
210.042	-4.09
210.514	-6.09
210.986	-2.59
211.458	-13.69
211.93	-9.79
212.402	4.61
212.873	-4.49
213.345	-8.69
213.817	-13.39
214.288	-0.29
214.76	-10.59
215.232	-4.79
215.703	-2.69
216.175	-3.79
216.646	0.41
217.118	-7.29
217.589	-7.39
218.061	-7.49
218.532	-3.99
219.004	-3.49
219.475	-5.09
219.946	0.21
220.418	-7.49
220.889	1.61
221.36	-1.69
221.832	-3.89
222.303	-5.59
222.774	-2.99
223.245	-8.39
223.717	-11.59
224.188	-1.49
224.659	-9.89
225.13	-10.49
225.601	-4.09
226.072	5.61
226.543	3.31
227.014	0.41
227.485	-2.19
227.956	-7.39
228.427	-5.19
228.898	-1.99
229.369	3.71
229.839	-7.39
230.31	-11.99
230.781	-3.99
231.252	-2.39
231.722	-4.79
232.193	-0.39
232.664	-7.69
233.135	-6.69
233.605	-5.49
234.076	-10.89
234.546	0.21
235.017	-0.09
235.487	3.11
235.958	-2.89
236.428	-7.39
236.899	0.91
237.369	-6.29
237.84	-7.99
238.31	-5.59
238.78	-6.29
239.251	-7.79
239.721	-4.59
240.191	-2.29
240.662	-2.59
241.132	-1.09
241.602	-11.79
242.072	-2.39
242.542	0.41
243.013	-2.29
243.483	-3.29
243.953	0.01
244.423	-3.59
244.893	-3.09
245.363	-6.49
245.833	-1.79
246.303	-10.89
246.773	3.11
247.243	-5.29
247.712	-4.29
248.182	8.61
248.652	-2.39
249.122	-11.59
249.592	-2.99
250.061	-0.29
250.531	7.31
251.001	-8.29
251.471	6.01
251.94	4.81
252.41	-3.89
252.879	-8.29
253.349	4.41
253.818	3.01
254.288	5.01
254.757	-1.89
255.227	-7.89
255.696	3.01
256.166	1.01
256.635	-2.19
257.105	0.91
257.574	-0.79
258.043	-0.69
258.513	-9.29
258.982	1.61
259.451	-2.99
259.92	-0.29
260.389	-1.79
260.859	5.41
261.328	1.71
261.797	4.81
262.266	-6.49
262.735	-1.19
263.204	2.51
263.673	-8.29
264.142	-2.79
264.611	-9.29
265.08	0.41
265.549	0.41
266.018	4.61
266.487	-5.59
266.955	-4.89
267.424	-4.59
267.893	6.11
268.362	-2.09
268.83	1.01
269.299	3.71
269.768	-0.99
270.236	2.51
270.705	-4.29
271.174	-4.29
271.642	0.41
272.111	-0.09
272.579	1.61
273.048	-1.09
273.516	0.31
273.985	2.11
274.453	2.81
274.922	10.51
275.39	1.51
275.858	-3.09
276.327	5.11
276.795	10.91
277.263	-6.89
277.731	9.31
278.2	2.61
278.668	7.31
279.136	7.01
279.604	-2.89
280.072	10.01
280.54	1.71
281.008	3.01
281.477	10.81
281.945	1.61
282.413	7.11
282.881	11.51
283.348	-2.29
283.816	4.31
284.284	8.71
284.752	9.41
285.22	7.01
285.688	7.51
286.156	6.61
286.623	12.01
287.091	6.91
287.559	9.71
288.026	10.31
288.494	8.91
288.962	4.51
289.429	10.61
289.897	10.61
290.364	6.41
290.832	8.51
291.3	9.41
291.767	7.71
292.234	13.11
292.702	9.01
293.169	12.31
293.637	14.91
294.104	12.11
294.571	3.51
295.039	8.01
295.506	6.21
295.973	10.91
296.44	6.31
296.908	13.51
297.375	6.21
297.842	13.61
298.309	14.61
298.776	7.61
299.243	11.11
299.71	7.41
300.177	15.11
300.644	11.91
301.111	16.11
301.578	17.41
302.045	7.91
302.512	16.41
302.979	12.01
303.446	16.71
303.913	10.81
304.379	8.91
304.846	17.81
305.313	13.31
305.78	12.81
306.246	20.81
306.713	9.21
307.18	12.11
307.646	18.71
308.113	18.51
308.579	15.21
309.046	15.91
309.512	18.71
309.979	11.71
310.445	22.01
310.912	21.01
311.378	26.31
311.845	25.41
312.311	14.31
312.777	24.01
313.244	28.61
313.71	33.11
314.176	20.81
314.642	23.71
315.109	20.11
315.575	22.81
316.041	31.01
316.507	17.81
316.973	22.91
317.439	26.01
317.905	25.41
318.371	27.41
318.837	16.01
319.303	26.31
319.769	20.61
320.235	29.01
320.701	29.61
321.167	32.51
321.633	25.11
322.099	25.81
322.564	32.81
323.03	30.81
323.496	24.51
323.962	32.21
324.427	27.11
324.893	32.71
325.359	28.71
325.824	28.81
326.29	27.41
326.755	29.31
327.221	31.91
327.686	29.91
328.152	38.71
328.617	30.51
329.083	38.11
329.548	43.51
330.014	31.91
330.479	32.71
330.944	35.51
331.41	32.61
331.875	32.91
332.34	37.21
332.805	23.11
333.271	34.21
333.736	32.81
334.201	39.11
334.666	40.11
335.131	43.41
335.596	40.11
336.061	41.51
336.526	30.21
336.991	43.31
337.456	50.61
337.921	38.11
338.386	30.41
338.851	42.31
339.316	46.11
339.781	39.81
340.246	41.31
340.711	42.91
341.175	45.31
341.64	36.11
342.105	41.41
342.569	47.01
343.034	49.91
343.499	45.91
343.963	48.91
344.428	52.01
344.893	52.61
345.357	50.91
345.822	51.41
346.286	62.41
346.751	65.91
347.215	59.51
347.679	64.61
348.144	79.61
348.608	77.01
349.073	59.51
349.537	68.21
350.001	68.11
350.465	74.51
350.93	66.01
351.394	68.21
351.858	60.11
352.322	70.01
352.786	71.41
353.25	75.01
353.715	93.01
354.179	87.81
354.643	98.91
355.107	99.21
355.571	88.71
356.035	84.71
356.498	90.31
356.962	91.81
357.426	104.51
357.89	102.31
358.354	84.91
358.818	80.51
359.281	74.81
359.745	67.71
360.209	68.71
360.673	66.21
361.136	72.11
361.6	75.91
362.064	74.01
362.527	79.41
362.991	87.81
363.454	72.81
363.918	68.61
364.381	76.71
364.845	79.61
365.308	77.81
365.772	85.11
366.235	77.31
366.698	75.41
367.162	72.61
367.625	77.11
368.088	80.71
368.552	79.41
369.015	77.71
369.478	81.91
369.941	90.61
370.404	80.51
370.867	87.51
371.331	91.71
371.794	97.71
372.257	91.81
372.72	98.51
373.183	106.81
373.646	83.91
374.109	86.91
374.572	91.31
375.035	95.01
375.497	99.41
375.96	94.81
376.423	93.71
376.886	110.01
377.349	104.61
377.811	93.51
378.274	89.31
378.737	94.01
379.199	98.41
379.662	101.31
380.125	108.01
380.587	103.41
381.05	104.31
381.512	101.41
381.975	114.81
382.437	116.81
382.9	106.81
383.362	115.61
383.825	118.41
384.287	114.31
384.75	108.71
385.212	117.61
385.674	126.51
386.136	124.31
386.599	115.61
387.061	116.31
387.523	120.41
387.985	119.51
388.447	124.61
388.91	113.01
389.372	121.81
389.834	125.51
390.296	119.91
390.758	125.51
391.22	127.41
391.682	141.41
392.144	145.21
392.606	133.01
393.068	131.41
393.529	150.21
393.991	132.51
394.453	128.31
394.915	133.71
395.377	126.41
395.838	131.21
396.3	135.51
396.762	142.01
397.224	125.81
397.685	122.91
398.147	127.01
398.608	130.31
399.07	132.71
399.531	139.11
399.993	147.71
400.454	156.81
400.916	152.71
401.377	149.91
401.839	141.81
402.3	153.51
402.762	170.81
403.223	167.81
403.684	163.61
404.145	163.11
404.607	150.91
405.068	162.01
405.529	166.31
405.99	179.61
406.451	171.21
406.913	169.81
407.374	161.91
407.835	167.61
408.296	161.91
408.757	163.61
409.218	185.11
409.679	174.81
410.14	173.31
410.601	176.51
411.062	179.41
411.522	181.31
411.983	173.21
412.444	177.71
412.905	188.51
413.366	187.31
413.826	198.11
414.287	222.81
414.748	265.41
415.208	250.61
415.669	232.11
416.13	204.51
416.59	214.01
417.051	219.01
417.511	227.91
417.972	241.81
418.432	253.61
418.893	299.41
419.353	261.21
419.814	205.31
420.274	187.81
420.734	185.31
421.195	198.81
421.655	196.01
422.115	193.21
422.576	196.91
423.036	206.31
423.496	213.31
423.956	212.01
424.416	237.21
424.876	268.61
425.336	261.71
425.797	266.31
426.257	265.61
426.717	244.01
427.177	235.81
427.637	230.41
428.097	239.81
428.556	247.41
429.016	277.91
429.476	268.71
429.936	277.21
430.396	280.31
430.856	289.81
431.315	322.01
431.775	342.71
432.235	379.31
432.694	354.11
433.154	355.81
433.614	388.31
434.073	337.51
434.533	290.81
434.993	276.11
435.452	288.01
435.912	298.61
436.371	284.91
436.83	285.51
437.29	265.51
437.749	251.61
438.209	249.71
438.668	268.21
439.127	286.81
439.587	272.51
440.046	253.21
440.505	264.51
440.964	283.41
441.424	319.11
441.883	314.01
442.342	275.71
442.801	235.71
443.26	242.61
443.719	235.51
444.178	227.61
444.637	222.61
445.096	225.61
445.555	234.31
446.014	237.11
446.473	239.91
446.932	244.71
447.391	232.31
447.849	244.91
448.308	236.91
448.767	235.71
449.226	249.31
449.685	250.71
450.143	265.41
450.602	254.81
451.061	239.81
451.519	246.51
451.978	247.71
452.436	243.61
452.895	248.11
453.353	272.01
453.812	259.01
454.27	254.21
454.729	256.61
455.187	253.01
455.646	249.91
456.104	259.11
456.562	268.01
457.021	282.11
457.479	271.61
457.937	287.91
458.395	284.61
458.854	268.21
459.312	268.51
459.77	292.81
460.228	272.11
460.686	261.01
461.144	260.91
461.602	258.31
462.06	254.61
462.518	276.61
462.976	276.51
463.434	275.41
463.892	270.71
464.35	285.41
464.808	304.71
465.266	272.51
465.724	282.31
466.181	294.21
466.639	279.81
467.097	304.61
467.555	319.71
468.012	320.01
468.47	318.31
468.928	349.51
469.385	357.91
469.843	368.21
470.3	365.01
470.758	384.21
471.215	401.41
471.673	425.01
472.13	422.11
472.588	437.81
473.045	392.11
473.503	402.91
473.96	410.21
474.417	425.21
474.875	455.11
475.332	487.11
475.789	486.51
476.246	494.51
476.704	511.61
477.161	521.61
477.618	541.41
478.075	580.81
478.532	630.91
478.989	706.01
479.446	818.51
479.903	782.71
480.36	815.31
480.817	851.21
481.274	951.61
481.731	1044.51
482.188	1125.51
482.645	1252.01
483.102	1346.11
483.558	1467.41
484.015	1496.71
484.472	1488.11
484.929	1432.91
485.385	1397.31
485.842	1357.51
486.299	1318.61
486.755	1262.81
487.212	1082.01
487.668	937.91
488.125	856.91
488.582	791.51
489.038	772.61
489.494	740.11
489.951	709.81
490.407	693.11
490.864	665.51
491.32	664.91
491.776	669.51
492.233	673.51
492.689	654.71
493.145	633.31
493.602	627.51
494.058	633.61
494.514	643.31
494.97	664.01
495.426	682.11
495.882	646.91
496.338	643.21
496.794	664.21
497.251	640.51
497.707	652.41
498.163	661.31
498.618	668.01
499.074	668.71
499.53	700.81
499.986	696.01
500.442	673.01
500.898	656.01
501.354	638.11
501.809	641.41
502.265	649.81
502.721	662.31
503.177	667.81
503.632	673.61
504.088	678.51
504.543	704.21
504.999	728.71
505.455	690.91
505.91	664.31
506.366	671.21
506.821	668.81
507.277	672.51
507.732	662.41
508.187	658.51
508.643	678.21
509.098	675.71
509.553	690.01
510.009	702.31
510.464	712.51
510.919	728.31
511.375	732.31
511.83	747.81
512.285	760.31
512.74	803.81
513.195	819.11
513.65	802.31
514.105	805.71
514.56	806.51
515.015	828.71
515.47	842.01
515.925	823.81
516.38	820.61
516.835	840.11
517.29	818.31
517.745	820.71
518.2	813.31
518.655	789.31
519.109	786.01
519.564	770.81
520.019	770.81
520.474	760.21
520.928	761.71
521.383	757.11
521.838	749.01
522.292	745.31
522.747	762.11
523.201	741.01
523.656	734.81
524.11	734.31
524.565	729.81
525.019	726.31
525.474	734.71
525.928	739.11
526.382	735.61
526.837	743.81
527.291	732.91
527.745	741.61
528.2	736.81
528.654	722.71
529.108	731.61
529.562	737.41
530.016	729.61
530.47	726.21
530.925	717.01
531.379	726.51
531.833	731.91
532.287	733.21
532.741	734.51
533.195	732.31
533.649	745.21
534.103	757.11
534.556	744.01
535.01	742.81
535.464	736.81
535.918	751.01
536.372	763.21
536.826	743.21
537.279	732.61
537.733	746.11
538.187	740.91
538.64	747.31
539.094	755.41
539.548	757.81
540.001	761.01
540.455	769.61
540.908	775.21
541.362	780.31
541.815	784.21
542.269	806.11
542.722	806.01
543.175	808.91
543.629	817.71
544.082	823.01
544.536	825.91
544.989	822.11
545.442	845.31
545.895	845.61
546.349	835.31
546.802	839.31
547.255	846.21
547.708	856.81
548.161	855.51
548.614	865.41
549.067	869.71
549.52	866.81
549.973	847.81
550.426	851.91
550.879	838.01
551.332	836.01
551.785	858.21
552.238	850.51
552.691	879.11
553.144	874.31
553.596	888.91
554.049	916.21
554.502	931.31
554.955	959.91
555.407	965.91
555.86	942.41
556.313	940.91
556.765	927.71
557.218	924.01
557.67	924.01
558.123	919.01
558.576	922.91
559.028	927.51
559.48	934.61
559.933	927.81
560.385	887.11
560.838	855.51
561.29	835.61
561.742	829.81
562.195	813.11
562.647	803.11
563.099	821.21
563.551	811.81
564.004	825.91
564.456	817.51
564.908	803.41
565.36	775.11
565.812	767.21
566.264	760.81
566.716	762.11
567.168	732.11
567.62	747.31
568.072	737.71
568.524	727.81
568.976	715.81
569.428	720.11
569.88	717.21
570.332	720.61
570.784	727.71
571.235	712.41
571.687	729.51
572.139	741.31
572.59	751.41
573.042	757.21
573.494	745.41
573.945	749.91
574.397	725.41
574.849	736.71
575.3	730.31
575.752	718.81
576.203	705.01
576.655	713.61
577.106	706.71
577.557	705.71
578.009	700.31
578.46	704.11
578.912	695.61
579.363	698.01
579.814	686.61
580.265	694.61
580.717	698.61
581.168	700.11
581.619	710.71
582.07	718.21
582.521	703.81
582.972	697.81
583.423	700.31
583.875	709.31
584.326	714.01
584.777	728.61
585.227	744.51
585.678	751.61
586.129	772.81
586.58	782.11
587.031	821.61
587.482	836.71
587.933	864.91
588.384	849.01
588.834	816.21
589.285	800.31
589.736	805.41
590.186	814.21
590.637	801.21
591.088	784.01
591.538	770.11
591.989	763.31
592.439	751.91
592.89	750.41
593.34	753.01
593.791	736.71
594.241	733.11
594.692	736.01
595.142	732.21
595.593	716.81
596.043	735.91
596.493	734.71
596.943	737.71
597.394	747.71
597.844	753.21
598.294	755.31
598.744	785.71
599.195	812.51
599.645	859.41
600.095	906.51
600.545	954.61
600.995	1010.11
601.445	1063.81
601.895	1140.51
602.345	1190.41
602.795	1170.71
603.245	1118.81
603.695	1061.01
604.145	1002.31
604.594	957.91
605.044	904.51
605.494	838.71
605.944	781.21
606.393	772.71
606.843	760.81
607.293	757.91
607.743	750.11
608.192	763.51
608.642	787.31
609.091	783.91
609.541	784.31
609.99	797.81
610.44	800.71
610.889	748.71
611.339	722.51
611.788	710.31
612.238	724.21
612.687	736.41
613.136	720.81
613.586	731.71
614.035	728.81
614.484	738.11
614.933	732.91
615.383	734.81
615.832	734.41
616.281	729.31
616.73	698.11
617.179	684.51
617.628	666.71
618.077	659.31
618.526	645.51
618.975	640.91
619.424	634.81
619.873	633.21
620.322	647.51
620.771	633.81
621.22	621.71
621.669	609.21
622.118	601.21
622.567	600.81
623.015	585.21
623.464	587.91
623.913	579.51
624.361	569.81
624.81	574.11
625.259	568.91
625.707	580.51
626.156	578.01
626.604	586.01
627.053	585.01
627.501	578.11
627.95	586.81
628.398	606.91
628.847	589.11
629.295	588.01
629.744	605.31
630.192	588.51
630.64	573.51
631.089	562.71
631.537	554.11
631.985	545.61
632.433	547.91
632.881	540.11
633.33	547.21
633.778	540.71
634.226	545.61
634.674	561.31
635.122	557.21
635.57	570.21
636.018	570.61
636.466	581.81
636.914	564.01
637.362	580.81
637.81	595.91
638.258	605.01
638.705	607.11
639.153	635.01
639.601	644.71
640.049	661.81
640.497	694.11
640.944	710.31
641.392	660.11
641.84	636.91
642.287	605.71
642.735	580.21
643.182	576.01
643.63	573.61
644.078	577.41
644.525	591.01
644.973	599.61
645.42	612.91
645.867	622.91
646.315	649.61
646.762	675.61
647.21	708.71
647.657	721.51
648.104	759.41
648.551	778.41
648.999	839.61
649.446	901.11
649.893	977.61
650.34	1131.51
650.787	1353.21
651.234	1645.61
651.682	2146.41
652.129	2895.01
652.576	4105.11
653.023	5953.41
653.47	8091.61
653.917	10037.61
654.363	11553.11
654.81	12764.81
655.257	12067.81
655.704	7997.01
656.151	4799.31
656.598	3172.21
657.044	2260.21
657.491	1769.21
657.938	1432.31
658.385	1209.81
658.831	1053.61
659.278	953.01
659.724	846.31
660.171	789.31
660.618	717.01
661.064	687.91
661.511	676.01
661.957	653.71
662.404	645.51
662.85	659.71
663.296	632.41
663.743	581.01
664.189	553.21
664.635	547.71
665.082	537.51
665.528	535.51
665.974	534.81
666.42	521.71
666.867	519.11
667.313	484.51
667.759	479.81
668.205	469.01
668.651	465.91
669.097	455.51
669.543	451.21
669.989	456.11
670.435	464.11
670.881	463.31
671.327	468.21
671.773	488.31
672.219	510.01
672.665	562.61
673.11	602.21
673.556	655.61
674.002	686.81
674.448	684.21
674.893	570.21
675.339	493.01
675.785	448.51
676.23	434.71
676.676	410.11
677.122	394.61
677.567	384.51
678.013	377.41
678.458	377.31
678.904	370.81
679.349	357.01
679.794	369.21
680.24	364.41
680.685	365.01
681.131	354.61
681.576	370.61
682.021	373.91
682.466	369.01
682.912	359.01
683.357	371.01
683.802	400.51
684.247	421.51
684.692	474.31
685.137	513.91
685.583	553.01
686.028	589.41
686.473	537.21
686.918	457.41
687.363	423.71
687.807	402.01
688.252	389.91
688.697	365.71
689.142	345.61
689.587	342.81
690.032	339.91
690.477	355.61
690.921	358.91
691.366	396.31
691.811	420.81
692.255	446.61
692.7	475.11
693.145	522.91
693.589	730.21
694.034	1184.81
694.478	1620.31
694.923	1812.31
695.367	2365.11
695.812	1254.71
696.256	521.21
696.701	389.51
697.145	358.21
697.59	336.11
698.034	324.51
698.478	339.81
698.922	335.71
699.367	339.71
699.811	338.31
700.255	364.61
700.699	390.91
701.143	434.71
701.588	483.71
702.032	531.41
702.476	533.21
702.92	508.21
703.364	519.91
703.808	673.21
704.252	1093.81
704.696	1532.11
705.14	1754.31
705.584	2230.61
706.027	1121.61
706.471	537.31
706.915	417.41
707.359	369.61
707.803	326.21
708.246	330.41
708.69	329.41
709.134	327.21
709.577	317.81
710.021	336.71
710.465	315.51
710.908	312.91
711.352	309.81
711.795	325.31
712.239	362.31
712.682	403.31
713.126	423.81
713.569	469.11
714.012	368.91
714.456	314.51
714.899	301.51
715.342	281.81
715.786	271.61
716.229	262.81
716.672	261.71
717.115	254.41
717.558	262.21
718.002	257.81
718.445	270.01
718.888	292.11
719.331	298.81
719.774	319.21
720.217	306.31
720.66	292.21
721.103	271.61
721.546	265.51
721.989	265.41
722.432	242.81
722.874	237.51
723.317	233.81
723.76	241.21
724.203	265.91
724.645	332.71
725.088	461.71
725.531	591.61
725.974	663.51
726.416	576.11
726.859	318.81
727.301	258.71
727.744	238.31
728.187	241.71
728.629	245.21
729.071	260.31
729.514	271.61
729.956	285.41
730.399	290.21
730.841	291.31
731.283	286.11
731.726	281.01
732.168	276.91
732.61	279.81
733.053	296.21
733.495	326.21
733.937	373.31
734.379	415.81
734.821	459.81
735.263	577.51
735.705	882.41
736.148	1663.31
736.59	2732.41
737.032	3197.51
737.474	2614.11
737.916	851.01
738.357	446.11
738.799	338.91
739.241	311.01
739.683	292.11
740.125	302.41
740.567	311.61
741.008	336.71
741.45	331.01
741.892	327.61
742.334	363.01
742.775	376.41
743.217	354.31
743.658	280.31
744.1	273.11
744.542	272.71
744.983	326.41
745.425	361.41
745.866	355.91
746.307	291.51
746.749	285.21
747.19	343.11
747.632	487.71
748.073	940.81
748.514	1978.91
748.956	3007.21
749.397	3784.81
749.838	3124.61
750.279	3125.31
750.72	1582.81
751.162	583.01
751.603	344.51
752.044	262.51
752.485	227.91
752.926	218.41
753.367	207.41
753.808	203.11
754.249	198.21
754.69	197.21
755.131	182.91
755.572	183.11
756.013	186.31
756.453	184.91
756.894	195.31
757.335	196.71
757.776	198.41
758.216	203.91
758.657	201.61
759.098	212.01
759.538	234.41
759.979	273.91
760.42	392.61
760.86	749.51
761.301	1942.21
761.741	4698.11
762.182	6752.01
762.622	4772.61
763.063	1389.11
763.503	559.01
763.943	342.81
764.384	279.81
764.824	261.81
765.264	240.11
765.705	213.41
766.145	188.71
766.585	181.31
767.025	168.91
767.465	174.81
767.906	185.71
768.346	195.91
768.786	202.11
769.226	220.61
769.666	310.81
770.106	649.01
770.546	1654.61
770.986	2785.51
771.426	2478.21
771.866	835.91
772.306	340.31
772.745	213.31
773.185	169.51
773.625	167.41
774.065	151.51
774.505	165.01
774.944	212.41
775.384	373.71
775.824	603.91
776.263	589.31
776.703	283.31
777.142	162.11
777.582	137.81
778.021	122.91
778.461	125.11
778.9	123.51
779.34	131.61
779.779	114.01
780.219	110.31
780.658	108.31
781.097	111.31
781.537	117.71
781.976	112.81
782.415	107.31
782.855	105.61
783.294	103.41
783.733	112.41
784.172	112.61
784.611	102.21
785.05	111.31
785.489	113.01
785.928	117.91
786.367	125.51
786.806	121.41
787.245	127.51
787.684	139.71
788.123	148.01
788.562	137.11
789.001	131.31
789.44	127.91
789.879	117.01
790.317	126.01
790.756	136.41
791.195	136.41
791.634	154.51
792.072	215.91
792.511	382.21
792.95	1065.41
793.388	2224.61
793.827	1995.81
794.265	699.21
794.704	292.61
795.142	183.61
795.581	164.91
796.019	143.01
796.458	135.71
796.896	123.01
797.334	139.71
797.773	161.61
798.211	230.41
798.649	467.01
799.087	1080.91
799.526	1680.81
799.964	2122.61
800.402	2111.91
800.84	793.51
801.278	313.11
801.716	189.21
802.154	155.31
802.592	150.01
803.03	146.51
803.468	135.21
803.906	156.11
804.344	165.61
804.782	153.51
805.22	144.61
805.658	133.31
806.096	155.41
806.533	168.01
806.971	180.21
807.409	227.71
807.847	338.71
808.284	708.11
808.722	1984.81
809.16	3470.01
809.597	3316.81
810.035	5724.51
810.472	6052.81
810.91	2214.91
811.347	839.11
811.785	428.71
812.222	262.41
812.66	207.91
813.097	176.81
813.535	153.21
813.972	134.61
814.409	126.31
814.846	112.11
815.284	119.21
815.721	109.91
816.158	106.51
816.595	114.51
817.032	157.21
817.47	184.01
817.907	142.51
818.344	110.71
818.781	103.51
819.218	98.61
819.655	130.91
820.092	195.91
820.529	225.41
820.966	177.01
821.403	136.01
821.839	99.01
822.276	95.81
822.713	128.81
823.15	134.11
823.587	123.81
824.023	152.01
824.46	317.51
824.897	938.31
825.333	1410.81
825.77	613.71
826.206	242.11
826.643	144.71
827.08	106.11
827.516	87.71
827.953	86.21
828.389	85.41
828.825	73.41
829.262	68.11
829.698	64.71
830.135	64.81
830.571	61.11
831.007	59.31
831.443	63.21
831.88	57.61
832.316	62.71
832.752	63.41
833.188	65.31
833.624	70.71
834.06	66.41
834.497	72.81
834.933	79.81
835.369	74.01
835.805	67.71
836.241	72.81
836.677	81.61
837.112	96.01
837.548	109.91
837.984	138.11
838.42	211.71
838.856	526.11
839.292	1604.41
839.727	2414.61
840.163	1130.61
840.599	989.81
841.034	2152.21
841.47	2235.51
841.906	809.11
842.341	345.11
842.777	202.61
843.212	207.81
843.648	190.21
844.083	115.81
844.519	91.71
844.954	70.21
845.39	54.31
845.825	59.51
846.261	57.81
846.696	54.21
847.131	54.51
847.566	54.01
848.002	53.31
848.437	54.71
848.872	53.91
849.307	63.51
849.742	91.01
850.177	189.01
850.613	580.51
851.048	919.91
851.483	391.81
851.918	164.11
852.353	82.41
852.788	59.11
853.223	53.11
853.657	56.11
854.092	53.21
854.527	40.61
854.962	41.81
855.397	44.41
855.832	45.21
856.266	40.61
856.701	35.81
857.136	38.31
857.57	42.71
858.005	57.91
858.44	64.51
858.874	48.61
859.309	53.61
859.743	38.91
860.178	48.81
860.612	43.21
861.047	51.01
861.481	71.31
861.915	79.11
862.35	53.31
862.784	31.11
863.218	37.71
863.653	31.91
864.087	46.01
864.521	52.71
864.955	69.31
865.39	162.41
865.824	180.81
866.258	112.91
866.692	178.81
867.126	193.11
867.56	112.71
867.994	54.71
868.428	36.31
868.862	54.21
869.296	50.11
869.73	59.01
870.164	56.41
870.598	48.81
871.031	40.41
871.465	33.71
871.899	33.21
872.333	27.61
872.766	21.01
873.2	28.51
873.634	34.41
874.067	22.01
874.501	30.11
874.935	30.31
875.368	29.31
875.802	26.11
876.235	21.61
876.669	15.11
877.102	15.01
877.535	30.71
877.969	22.01
878.402	24.41
878.836	19.61
879.269	24.21
879.702	21.81
880.135	21.21
880.569	18.61
881.002	21.81
881.435	23.01
881.868	13.21
882.301	20.51
882.734	19.11
883.167	23.61
883.601	19.11
884.034	22.01
884.467	14.11
884.899	17.51
885.332	20.71
885.765	19.01
886.198	16.41
886.631	14.71
887.064	13.71
887.497	19.91
887.929	23.21
888.362	12.81
888.795	16.11
889.228	17.21
889.66	25.21
890.093	18.11
890.526	14.31
890.958	20.61
891.391	17.21
891.823	16.51
892.256	19.21
892.688	17.01
893.121	17.01
893.553	15.41
893.985	22.51
894.418	17.31
894.85	10.11
895.282	14.11
895.715	16.11
896.147	18.51
896.579	14.01
897.011	13.91
897.444	17.51
897.876	14.11
898.308	13.31
898.74	14.31
899.172	15.31
899.604	25.01
900.036	17.51
900.468	12.71
900.9	24.41
901.332	18.31
901.764	11.21
902.196	22.31
902.628	13.11
903.06	18.11
903.491	25.31
903.923	20.31
904.355	22.51
904.787	21.61
905.218	19.21
905.65	20.71
906.082	8.11
906.513	12.11
906.945	13.71
907.376	12.91
907.808	20.21
908.239	17.81
908.671	15.71
909.102	24.11
909.534	27.21
909.965	49.61
910.397	99.41
910.828	326.21
911.259	492.91
911.691	231.71
912.122	114.01
912.553	58.01
912.984	35.21
913.415	24.91
913.847	23.91
914.278	14.91
914.709	14.81
915.14	21.11
915.571	17.91
916.002	11.71
916.433	14.91
916.864	19.11
917.295	12.41
917.726	21.11
918.157	12.01
918.587	28.91
919.018	20.01
919.449	23.01
919.88	20.41
920.311	30.21
920.741	53.91
921.172	180.81
921.603	159.31
922.033	77.21
922.464	47.61
922.895	20.81
923.325	20.31
923.756	13.91
924.186	7.81
924.617	12.61
925.047	19.31
925.478	27.91
925.908	19.21
926.338	5.61
926.769	11.61
927.199	14.51
927.629	1.81
928.06	11.51
928.49	13.61
928.92	9.91
929.35	5.81
929.78	9.71
930.21	11.11
930.641	5.91
931.071	5.51
931.501	4.31
931.931	9.51
932.361	9.51
932.791	3.51
933.221	6.11
933.651	5.31
934.08	17.41
934.51	27.31
934.94	13.91
935.37	8.61
935.8	8.71
936.229	7.11
936.659	8.71
937.089	4.31
937.519	10.81
937.948	18.31
938.378	6.51
938.807	6.71
939.237	2.71
939.666	7.71
940.096	1.71
940.525	1.81
940.955	1.01
941.384	4.31
941.814	-10.29
942.243	-1.69
942.672	0.01
943.102	4.11
943.531	-3.89
943.96	3.11
944.39	2.41
944.819	6.91
945.248	4.91
945.677	2.81
946.106	5.71
946.535	6.81
946.964	0.71
947.393	1.31
947.822	1.91
948.251	-3.29
948.68	-2.99
949.109	6.71
949.538	0.41
949.967	3.51
950.396	-1.29
950.825	0.71
951.254	2.81
951.682	-5.59
952.111	2.51
952.54	2.21
952.969	-11.69
953.397	-11.39
953.826	-0.79
954.254	-11.69
954.683	-1.79
955.112	-3.39
955.54	-1.09
955.969	-1.69
956.397	1.41
956.826	-4.79
957.254	7.71
957.682	-3.89
958.111	4.31
958.539	-0.19
958.967	0.21
959.396	-3.79
959.824	4.41
960.252	4.91
960.68	-6.59
961.109	2.11
961.537	-4.49
961.965	0.51
962.393	-2.89
962.821	-0.89
963.249	2.11
963.677	0.91
964.105	5.31
964.533	44.01
964.961	45.81
965.389	21.31
965.817	7.41
966.245	-0.79
966.672	-4.89
967.1	-8.19
967.528	-1.29
967.956	-1.49
968.383	-1.29
968.811	-5.09
969.239	-0.29
969.666	-7.49
970.094	2.51
970.522	-2.39
970.949	-1.59
971.377	-5.69
971.804	-4.59
972.232	0.91
972.659	-7.79
973.087	-4.39
973.514	-3.89
973.941	-7.39
974.369	3.81
974.796	0.21
975.223	0.61
975.651	-2.09
976.078	4.71
976.505	-0.79
976.932	0.61
977.359	12.61
977.786	10.11
978.214	-1.29
978.641	-1.29
979.068	-4.49
979.495	-4.29
979.922	-4.89
980.349	-6.09
980.776	6.01
981.202	-5.79
981.629	2.91
982.056	-0.39
982.483	-3.79
982.91	-3.09
983.337	-7.69
983.763	2.01
984.19	-0.39
984.617	-5.09
985.043	-3.79
985.47	1.81
985.897	-2.69
986.323	-8.09
986.75	-2.89
987.176	0.11
987.603	-2.49
988.029	-2.79
988.456	-7.39
988.882	2.71
989.308	-8.79
989.735	-7.79
990.161	-5.39
990.587	-9.19
991.014	-1.39
991.44	6.41
991.866	-2.89
992.292	-3.99
992.719	-3.59
993.145	-0.39
993.571	-9.59
993.997	-6.59
994.423	-8.59
994.849	-10.39
995.275	0.91
995.701	2.21
996.127	-2.69
996.553	-0.19
996.979	-3.79
997.405	0.11
997.83	-3.69
998.256	-9.19
998.682	-4.19
999.108	-7.99
999.534	-3.59
999.959	-5.79
1000.385	-4.89
1000.811	-2.39
1001.236	-5.89
1001.662	-5.09
1002.087	-13.49
1002.513	-2.39
1002.938	2.11
1003.364	-2.29
1003.789	-1.79
1004.215	1.51
1004.64	-4.19
1005.066	1.21
1005.491	2.71
1005.916	-4.09
1006.342	-1.59
1006.767	-6.39
1007.192	5.81
1007.617	-6.29
1008.042	-2.09
1008.468	-10.89
1008.893	-7.39
1009.318	-5.19
1009.743	-4.79
1010.168	5.71
1010.593	0.41
1011.018	-7.29
1011.443	-11.99
1011.868	2.21
1012.293	-2.89
1012.718	-4.89
1013.143	-5.79
1013.567	-1.59
1013.992	0.51
1014.417	-17.29
1014.842	-2.29
1015.267	-15.29
1015.691	-4.39
1016.116	-1.19
1016.541	-5.89
1016.965	-1.49
1017.39	-0.29
1017.814	-4.79
1018.239	-2.69
1018.663	-8.79
1019.088	-12.69
1019.512	0.11
1019.937	-7.29
1020.361	-4.69
1020.785	-6.49
1021.21	-4.39
1021.634	-4.29
1022.058	-6.69
1022.483	1.21
1022.907	-1.49
1023.331	-3.09
1023.755	-2.69
1024.179	2.31
1024.604	-10.19
1025.028	-7.89
1025.452	-10.39
1025.876	1.81
1026.3	5.01
1026.724	-13.99
1027.148	-3.49
1027.572	-9.19
1027.996	-3.09
1028.42	-4.49
1028.843	-3.39
1029.267	-5.19
1029.691	-3.59
1030.115	-10.29
1030.539	-10.19
1030.962	-6.69
1031.386	-10.69
1031.81	-0.89
1032.233	-0.89
1032.657	-7.09
1033.08	-1.39
1033.504	-5.39
1033.927	-10.99
1034.351	-4.39
1034.774	-6.49
1035.198	-5.89
1035.621	-3.49
1036.045	-5.29
1036.468	-6.69
1036.891	-10.39
1037.315	-6.89
1037.738	-11.39
1038.161	0.81
1038.584	-8.99
1039.008	-7.79
1039.431	-1.79
1039.854	-1.59
1040.277	-8.49
1040.7	-12.39
1041.123	3.11
1041.546	-7.49
1041.969	-5.99
1042.392	-5.09
1042.815	-0.69
1043.238	-2.39
1043.661	-3.19
1044.084	-13.39
1044.507	-6.39
1044.93	-11.39
1045.352	-10.49
1045.775	0.31
1046.198	-2.69
1046.621	-1.99
1047.043	-4.99
1047.466	5.21
1047.889	-4.19
1048.311	-8.19
1048.734	-6.99
1049.156	-7.79
1049.579	-7.29
1050.001	-6.99
1050.424	-3.69
1050.846	-10.69
1051.269	-2.39
1051.691	-7.59
1052.113	-7.39
1052.536	-6.59
1052.958	-2.89
1053.38	-4.39
1053.802	-14.59
1054.225	-8.39
1054.647	-7.89
1055.069	-10.99
1055.491	3.11
1055.913	-6.69
1056.335	-2.39
1056.757	-13.79
1057.179	-8.39
1057.601	-3.39
1058.023	-5.39
1058.445	-6.59
1058.867	-2.49
1059.289	-7.79
1059.711	-6.69
1060.133	-5.69
1060.555	-1.69
1060.976	-9.79
1061.398	-4.09
1061.82	-8.49
1062.241	-9.79
1062.663	-8.29
1063.085	-8.59
1063.506	-4.49
1063.928	-4.69
1064.35	-6.49
1064.771	-15.59
1065.193	-7.19
1065.614	-6.79
1066.035	-3.89
1066.457	-9.09
1066.878	-3.39
1067.3	-12.99
1067.721	-5.89
1068.142	-3.89
1068.564	-2.59
1068.985	1.71
1069.406	-5.39
1069.827	-7.69
1070.248	-0.49
1070.67	-4.99
1071.091	-5.79
1071.512	-8.89
1071.933	-6.09
1072.354	-10.89
1072.775	-2.79
1073.196	-2.89
1073.617	-5.89
1074.038	-11.19
1074.459	-6.79
1074.88	-12.19
1075.3	1.81
1075.721	-4.49
1076.142	0.21
1076.563	-3.89
1076.983	-10.59
1077.404	-5.09
1077.825	-9.39
1078.246	-6.49
1078.666	-11.59
1079.087	-10.39
1079.507	-9.69
1079.928	-0.79
1080.348	-3.69
1080.769	-9.99
1081.189	-2.39
1081.61	-2.89
1082.03	-4.49
1082.451	-8.09
1082.871	-7.19
1083.291	-10.69
1083.711	-12.39
1084.132	0.61
1084.552	2.21
1084.972	-5.79
1085.392	-15.49
1085.813	-13.39
1086.233	-7.59
1086.653	-9.79
1087.073	-13.39
1087.493	-6.89
1087.913	-8.49
1088.333	-11.49
1088.753	-6.49
1089.173	4.41
1089.593	-2.39
1090.013	0.91
1090.433	-3.89
1090.852	-3.29
1091.272	-4.69
1091.692	-1.39
1092.112	-7.29
1092.531	-6.49
1092.951	-14.09
1093.371	-4.99
1093.79	0.21
1094.21	-3.49
1094.63	-8.39
1095.049	-5.79
1095.469	0.81
1095.888	-3.49
1096.308	-0.39
1096.727	-1.39
1097.146	-5.29
1097.566	0.51
1097.985	-7.99
1098.405	-1.19
1098.824	-9.39
1099.243	-9.59
1099.662	-12.29
1100.082	-6.69
1100.501	-4.29
1100.92	-8.39
1101.339	-9.19
1101.758	-7.89
