Data from 20171114-ORNL-Ar_H_NY_Subt18_08-05-23-409.txt Node
Date: Tue Nov 14 08:05:23 EST 2017
User: Ender
Spectrometer: HR+D1039
Trigger mode: 0
Integration Time (sec): 2.730000E-2
Scans to average: 10
Electric dark correction enabled: true
Nonlinearity correction enabled: false
Boxcar width: 0
XAxis mode: Wavelengths
Number of Pixels in Spectrum: 2048
>>>>>Begin Spectral Data<<<<<
187.836	-3.07
188.309	-3.07
188.782	-3.07
189.255	0.23
189.728	2.13
190.201	4.83
190.674	6.13
191.147	0.53
191.619	-8.17
192.092	0.03
192.565	5.63
193.038	-0.47
193.511	-1.67
193.984	-2.67
194.456	-3.77
194.929	4.03
195.402	-6.57
195.874	2.83
196.347	-4.57
196.82	-3.57
197.292	3.93
197.765	-2.97
198.237	-6.37
198.71	10.43
199.182	-2.17
199.655	-0.37
200.127	5.03
200.6	-4.07
201.072	-1.47
201.544	3.63
202.017	-3.47
202.489	10.63
202.961	-1.17
203.433	-4.87
203.906	-8.67
204.378	-3.27
204.85	-2.87
205.322	-3.47
205.794	-3.97
206.266	1.93
206.739	-5.67
207.211	-2.27
207.683	-1.87
208.155	-5.17
208.627	-8.37
209.099	-2.87
209.57	-5.17
210.042	-1.77
210.514	-9.67
210.986	1.93
211.458	-9.97
211.93	-4.57
212.402	5.63
212.873	-2.97
213.345	-5.57
213.817	-9.67
214.288	-4.67
214.76	-12.47
215.232	3.63
215.703	-2.57
216.175	-4.77
216.646	-2.27
217.118	0.03
217.589	-2.27
218.061	-0.77
218.532	-1.57
219.004	-1.67
219.475	-0.97
219.946	-1.27
220.418	-3.37
220.889	3.43
221.36	-0.07
221.832	-3.47
222.303	-13.47
222.774	-2.67
223.245	-4.17
223.717	-3.77
224.188	-0.77
224.659	-4.57
225.13	-8.77
225.601	-1.57
226.072	0.03
226.543	3.93
227.014	-2.77
227.485	-1.17
227.956	-7.07
228.427	0.63
228.898	3.43
229.369	5.33
229.839	-4.67
230.31	-8.77
230.781	2.73
231.252	-0.17
231.722	-3.27
232.193	0.43
232.664	0.63
233.135	6.43
233.605	-0.67
234.076	-1.57
234.546	1.43
235.017	3.63
235.487	2.93
235.958	2.33
236.428	-1.87
236.899	7.53
237.369	8.93
237.84	1.13
238.31	9.63
238.78	3.73
239.251	9.63
239.721	3.13
240.191	0.73
240.662	-10.37
241.132	0.43
241.602	-1.77
242.072	1.23
242.542	7.43
243.013	5.93
243.483	9.33
243.953	10.13
244.423	1.43
244.893	3.93
245.363	11.23
245.833	6.93
246.303	3.83
246.773	5.53
247.243	-1.07
247.712	13.83
248.182	12.63
248.652	4.73
249.122	2.53
249.592	13.33
250.061	23.53
250.531	32.83
251.001	23.03
251.471	22.33
251.94	23.23
252.41	10.63
252.879	1.83
253.349	15.83
253.818	10.23
254.288	8.33
254.757	3.63
255.227	8.03
255.696	7.43
256.166	7.53
256.635	3.13
257.105	7.93
257.574	2.33
258.043	11.93
258.513	5.63
258.982	23.93
259.451	8.73
259.92	16.23
260.389	19.93
260.859	18.03
261.328	12.63
261.797	19.13
262.266	14.43
262.735	10.03
263.204	8.23
263.673	0.53
264.142	9.83
264.611	-1.17
265.08	5.53
265.549	5.73
266.018	7.63
266.487	1.83
266.955	5.53
267.424	7.63
267.893	5.63
268.362	9.63
268.83	7.53
269.299	6.43
269.768	11.03
270.236	14.13
270.705	6.73
271.174	10.73
271.642	11.73
272.111	15.03
272.579	19.43
273.048	31.73
273.516	30.33
273.985	33.73
274.453	31.33
274.922	26.83
275.39	18.13
275.858	3.93
276.327	17.03
276.795	19.03
277.263	13.13
277.731	34.53
278.2	61.63
278.668	68.93
279.136	56.13
279.604	21.13
280.072	19.53
280.54	19.03
281.008	11.43
281.477	20.83
281.945	11.83
282.413	20.73
282.881	20.63
283.348	11.13
283.816	14.43
284.284	22.63
284.752	22.33
285.22	16.73
285.688	18.93
286.156	13.93
286.623	47.53
287.091	54.23
287.559	33.83
288.026	24.23
288.494	18.73
288.962	10.13
289.429	10.93
289.897	13.83
290.364	16.23
290.832	21.93
291.3	15.03
291.767	20.93
292.234	18.83
292.702	18.13
293.169	20.63
293.637	27.13
294.104	24.53
294.571	15.23
295.039	17.03
295.506	18.33
295.973	23.43
296.44	9.33
296.908	24.13
297.375	17.23
297.842	23.03
298.309	18.63
298.776	19.83
299.243	25.23
299.71	11.33
300.177	30.83
300.644	22.63
301.111	28.13
301.578	27.43
302.045	19.93
302.512	33.03
302.979	32.43
303.446	25.53
303.913	19.33
304.379	22.13
304.846	26.83
305.313	31.23
305.78	22.73
306.246	26.73
306.713	30.13
307.18	27.23
307.646	29.53
308.113	32.33
308.579	29.43
309.046	26.13
309.512	28.13
309.979	25.23
310.445	31.93
310.912	34.03
311.378	42.03
311.845	33.23
312.311	35.03
312.777	37.03
313.244	29.73
313.71	43.13
314.176	25.43
314.642	35.03
315.109	39.93
315.575	43.33
316.041	42.93
316.507	35.13
316.973	41.93
317.439	30.23
317.905	44.23
318.371	38.73
318.837	40.83
319.303	40.53
319.769	36.23
320.235	39.33
320.701	40.63
321.167	39.43
321.633	33.73
322.099	41.13
322.564	49.03
323.03	42.83
323.496	42.03
323.962	41.33
324.427	42.73
324.893	45.23
325.359	40.73
325.824	34.23
326.29	37.83
326.755	40.73
327.221	38.13
327.686	44.23
328.152	54.43
328.617	42.03
329.083	48.63
329.548	54.93
330.014	46.53
330.479	40.83
330.944	41.83
331.41	43.53
331.875	47.83
332.34	43.83
332.805	50.03
333.271	53.93
333.736	50.33
334.201	51.03
334.666	59.13
335.131	53.13
335.596	53.63
336.061	54.23
336.526	48.23
336.991	51.03
337.456	51.13
337.921	48.83
338.386	44.63
338.851	46.13
339.316	48.13
339.781	50.63
340.246	51.03
340.711	48.13
341.175	56.53
341.64	48.93
342.105	53.13
342.569	53.03
343.034	64.83
343.499	60.43
343.963	55.43
344.428	70.63
344.893	69.23
345.357	58.83
345.822	59.33
346.286	70.93
346.751	70.63
347.215	68.33
347.679	68.13
348.144	98.83
348.608	83.33
349.073	77.03
349.537	77.63
350.001	87.43
350.465	91.23
350.93	85.63
351.394	85.63
351.858	76.23
352.322	91.93
352.786	86.03
353.25	106.23
353.715	118.13
354.179	102.73
354.643	119.13
355.107	124.43
355.571	114.73
356.035	112.63
356.498	118.53
356.962	126.33
357.426	133.63
357.89	123.43
358.354	92.83
358.818	88.13
359.281	83.03
359.745	80.03
360.209	81.83
360.673	84.83
361.136	82.73
361.6	83.43
362.064	80.93
362.527	85.53
362.991	92.13
363.454	81.23
363.918	79.73
364.381	80.43
364.845	88.03
365.308	85.23
365.772	90.73
366.235	87.13
366.698	84.33
367.162	92.43
367.625	92.23
368.088	83.93
368.552	93.23
369.015	96.73
369.478	102.43
369.941	103.03
370.404	94.23
370.867	111.03
371.331	107.33
371.794	124.33
372.257	111.43
372.72	115.43
373.183	119.33
373.646	105.53
374.109	107.73
374.572	109.93
375.035	109.43
375.497	110.03
375.96	111.63
376.423	104.13
376.886	112.73
377.349	107.63
377.811	105.43
378.274	109.43
378.737	111.33
379.199	118.13
379.662	105.13
380.125	113.93
380.587	123.13
381.05	121.53
381.512	132.13
381.975	137.73
382.437	130.13
382.9	130.13
383.362	133.33
383.825	142.43
384.287	151.13
384.75	146.23
385.212	143.33
385.674	140.43
386.136	137.43
386.599	125.63
387.061	130.23
387.523	127.13
387.985	136.03
388.447	145.43
388.91	144.33
389.372	158.03
389.834	159.33
390.296	144.73
390.758	161.23
391.22	166.93
391.682	217.63
392.144	296.83
392.606	228.33
393.068	165.43
393.529	165.43
393.991	155.53
394.453	146.53
394.915	156.03
395.377	187.03
395.838	212.63
396.3	159.53
396.762	148.73
397.224	132.73
397.685	127.93
398.147	129.43
398.608	131.23
399.07	136.63
399.531	137.13
399.993	141.23
400.454	148.93
400.916	147.83
401.377	144.63
401.839	148.33
402.3	154.73
402.762	166.63
403.223	173.63
403.684	173.23
404.145	159.63
404.607	159.63
405.068	176.83
405.529	171.13
405.99	187.23
406.451	175.53
406.913	176.83
407.374	157.63
407.835	163.13
408.296	170.23
408.757	175.03
409.218	183.73
409.679	179.83
410.14	179.13
410.601	172.63
411.062	182.83
411.522	184.83
411.983	187.23
412.444	175.43
412.905	181.23
413.366	185.33
413.826	195.73
414.287	212.23
414.748	255.93
415.208	240.23
415.669	209.33
416.13	199.83
416.59	203.93
417.051	207.73
417.511	215.63
417.972	236.73
418.432	243.13
418.893	283.73
419.353	249.13
419.814	199.33
420.274	182.43
420.734	178.93
421.195	198.03
421.655	198.33
422.115	187.83
422.576	185.93
423.036	188.83
423.496	203.03
423.956	214.03
424.416	233.23
424.876	265.63
425.336	257.53
425.797	265.93
426.257	256.03
426.717	228.73
427.177	225.73
427.637	218.63
428.097	229.93
428.556	245.33
429.016	269.33
429.476	259.43
429.936	272.03
430.396	273.03
430.856	291.43
431.315	310.73
431.775	349.03
432.235	373.53
432.694	349.33
433.154	357.23
433.614	387.83
434.073	327.43
434.533	272.93
434.993	269.73
435.452	279.43
435.912	291.23
436.371	290.03
436.83	283.13
437.29	271.93
437.749	240.13
438.209	246.63
438.668	271.03
439.127	280.03
439.587	262.03
440.046	245.63
440.505	261.03
440.964	276.33
441.424	319.63
441.883	310.73
442.342	262.53
442.801	229.93
443.26	220.03
443.719	224.33
444.178	213.43
444.637	211.63
445.096	210.33
445.555	220.53
446.014	223.73
446.473	223.93
446.932	232.83
447.391	227.23
447.849	226.33
448.308	218.33
448.767	226.33
449.226	237.43
449.685	232.33
450.143	246.43
450.602	241.13
451.061	230.23
451.519	233.43
451.978	233.53
452.436	238.83
452.895	235.53
453.353	248.03
453.812	237.33
454.27	237.73
454.729	236.73
455.187	233.63
455.646	239.83
456.104	245.83
456.562	254.73
457.021	264.33
457.479	260.53
457.937	267.13
458.395	267.63
458.854	246.83
459.312	247.43
459.77	268.23
460.228	255.53
460.686	241.73
461.144	251.03
461.602	236.73
462.06	235.43
462.518	253.93
462.976	250.63
463.434	255.63
463.892	258.33
464.35	269.13
464.808	293.53
465.266	261.33
465.724	262.93
466.181	271.13
466.639	267.83
467.097	278.73
467.555	302.53
468.012	305.43
468.47	296.33
468.928	319.83
469.385	338.83
469.843	347.03
470.3	343.13
470.758	360.73
471.215	383.63
471.673	406.23
472.13	409.53
472.588	417.73
473.045	357.93
473.503	374.23
473.96	384.43
474.417	402.73
474.875	432.63
475.332	471.73
475.789	462.53
476.246	466.53
476.704	483.63
477.161	508.03
477.618	513.43
478.075	562.03
478.532	616.93
478.989	699.73
479.446	804.53
479.903	770.03
480.36	810.53
480.817	870.23
481.274	970.13
481.731	1059.63
482.188	1172.93
482.645	1322.53
483.102	1410.83
483.558	1543.83
484.015	1605.13
484.472	1595.23
484.929	1523.43
485.385	1481.33
485.842	1447.73
486.299	1375.13
486.755	1305.33
487.212	1107.13
487.668	935.53
488.125	853.83
488.582	786.43
489.038	746.73
489.494	705.63
489.951	681.63
490.407	664.23
490.864	641.73
491.32	639.33
491.776	640.73
492.233	636.73
492.689	599.63
493.145	598.33
493.602	599.93
494.058	606.83
494.514	609.73
494.97	636.83
495.426	639.53
495.882	628.63
496.338	618.13
496.794	628.83
497.251	613.63
497.707	632.73
498.163	632.13
498.618	639.33
499.074	654.63
499.53	683.03
499.986	673.63
500.442	647.63
500.898	618.43
501.354	629.33
501.809	631.53
502.265	637.93
502.721	658.23
503.177	663.93
503.632	658.63
504.088	673.23
504.543	712.83
504.999	707.53
505.455	651.33
505.91	633.03
506.366	624.43
506.821	624.03
507.277	626.63
507.732	623.93
508.187	613.63
508.643	622.43
509.098	633.23
509.553	641.73
510.009	655.63
510.464	660.53
510.919	681.03
511.375	689.73
511.83	703.63
512.285	709.93
512.74	757.13
513.195	783.03
513.65	767.63
514.105	761.13
514.56	770.83
515.015	780.63
515.47	800.93
515.925	790.13
516.38	785.03
516.835	793.43
517.29	776.63
517.745	770.93
518.2	758.33
518.655	742.43
519.109	734.13
519.564	733.43
520.019	718.13
520.474	713.83
520.928	715.43
521.383	716.43
521.838	705.63
522.292	707.43
522.747	698.33
523.201	691.63
523.656	685.13
524.11	686.73
524.565	685.53
525.019	679.83
525.474	691.23
525.928	691.93
526.382	681.33
526.837	682.73
527.291	700.33
527.745	688.23
528.2	690.83
528.654	685.83
529.108	679.53
529.562	683.83
530.016	687.73
530.47	679.83
530.925	680.43
531.379	687.73
531.833	687.73
532.287	693.43
532.741	686.13
533.195	695.73
533.649	713.23
534.103	725.13
534.556	710.73
535.01	704.83
535.464	694.93
535.918	710.33
536.372	711.83
536.826	707.33
537.279	705.13
537.733	702.43
538.187	703.23
538.64	705.03
539.094	722.53
539.548	724.73
540.001	714.33
540.455	713.33
540.908	724.93
541.362	723.23
541.815	735.73
542.269	747.73
542.722	748.83
543.175	746.43
543.629	758.53
544.082	777.23
544.536	771.93
544.989	771.83
545.442	786.33
545.895	784.83
546.349	776.63
546.802	783.53
547.255	784.83
547.708	792.73
548.161	800.03
548.614	798.43
549.067	816.33
549.52	815.13
549.973	802.23
550.426	798.23
550.879	775.33
551.332	783.93
551.785	794.53
552.238	791.63
552.691	810.33
553.144	818.43
553.596	830.53
554.049	844.13
554.502	873.13
554.955	892.63
555.407	895.63
555.86	898.73
556.313	885.63
556.765	860.23
557.218	868.53
557.67	864.03
558.123	855.73
558.576	860.93
559.028	862.03
559.48	870.73
559.933	846.73
560.385	824.83
560.838	791.53
561.29	772.83
561.742	764.53
562.195	734.73
562.647	748.93
563.099	760.23
563.551	761.03
564.004	762.63
564.456	755.53
564.908	748.43
565.36	733.73
565.812	717.93
566.264	715.93
566.716	711.03
567.168	699.73
567.62	701.03
568.072	693.33
568.524	683.43
568.976	680.93
569.428	655.53
569.88	655.33
570.332	661.83
570.784	666.53
571.235	665.53
571.687	676.83
572.139	682.73
572.59	692.23
573.042	698.03
573.494	693.53
573.945	682.53
574.397	663.13
574.849	680.23
575.3	683.93
575.752	664.03
576.203	660.03
576.655	674.53
577.106	652.83
577.557	647.83
578.009	653.43
578.46	651.63
578.912	646.93
579.363	650.63
579.814	647.73
580.265	635.83
580.717	656.63
581.168	651.83
581.619	652.43
582.07	649.03
582.521	654.03
582.972	653.23
583.423	658.83
583.875	658.73
584.326	687.93
584.777	735.73
585.227	805.53
585.678	895.13
586.129	969.53
586.58	1052.63
587.031	1144.53
587.482	1295.93
587.933	1478.03
588.384	1281.43
588.834	963.83
589.285	783.43
589.736	755.53
590.186	748.63
590.637	741.73
591.088	721.33
591.538	718.03
591.989	708.83
592.439	707.33
592.89	698.03
593.34	689.83
593.791	697.43
594.241	684.13
594.692	686.33
595.142	689.13
595.593	685.03
596.043	691.03
596.493	697.53
596.943	691.93
597.394	698.63
597.844	693.63
598.294	707.83
598.744	724.33
599.195	750.63
599.645	782.33
600.095	821.23
600.545	885.03
600.995	932.73
601.445	986.73
601.895	1062.73
602.345	1105.63
602.795	1073.83
603.245	1032.13
603.695	976.93
604.145	916.43
604.594	878.73
605.044	826.03
605.494	769.93
605.944	722.93
606.393	719.73
606.843	702.03
607.293	713.93
607.743	711.53
608.192	718.03
608.642	731.43
609.091	736.73
609.541	739.13
609.99	734.83
610.44	731.43
610.889	688.63
611.339	674.33
611.788	663.43
612.238	687.93
612.687	696.63
613.136	696.13
613.586	709.23
614.035	710.43
614.484	735.43
614.933	735.13
615.383	727.23
615.832	711.43
616.281	707.23
616.73	657.93
617.179	643.63
617.628	615.03
618.077	601.33
618.526	594.83
618.975	590.13
619.424	583.13
619.873	589.83
620.322	595.23
620.771	582.23
621.22	582.03
621.669	575.13
622.118	566.03
622.567	558.73
623.015	544.73
623.464	549.33
623.913	535.43
624.361	520.83
624.81	522.73
625.259	534.83
625.707	540.53
626.156	535.93
626.604	540.83
627.053	532.43
627.501	535.63
627.95	543.83
628.398	553.23
628.847	540.93
629.295	542.53
629.744	550.43
630.192	545.63
630.64	545.83
631.089	546.83
631.537	559.83
631.985	557.03
632.433	574.73
632.881	585.13
633.33	632.43
633.778	611.63
634.226	547.03
634.674	548.13
635.122	541.93
635.57	571.53
636.018	599.93
636.466	558.53
636.914	524.23
637.362	539.63
637.81	546.53
638.258	545.73
638.705	556.83
639.153	573.73
639.601	578.23
640.049	607.63
640.497	643.83
640.944	659.03
641.392	601.33
641.84	581.33
642.287	562.13
642.735	546.43
643.182	546.93
643.63	542.63
644.078	546.83
644.525	564.43
644.973	563.13
645.42	569.13
645.867	594.53
646.315	619.03
646.762	621.73
647.21	658.23
647.657	689.13
648.104	716.43
648.551	737.23
648.999	804.13
649.446	868.23
649.893	958.43
650.34	1102.93
650.787	1320.03
651.234	1637.83
651.682	2140.83
652.129	2914.53
652.576	4221.53
653.023	6248.63
653.47	8611.33
653.917	10815.43
654.363	12573.33
654.81	13997.13
655.257	13343.73
655.704	8717.63
656.151	5106.23
656.598	3302.43
657.044	2343.33
657.491	1792.63
657.938	1428.43
658.385	1190.13
658.831	1041.63
659.278	921.53
659.724	810.33
660.171	740.53
660.618	678.13
661.064	657.33
661.511	634.73
661.957	625.93
662.404	602.73
662.85	618.93
663.296	598.63
663.743	534.13
664.189	506.03
664.635	511.83
665.082	489.73
665.528	496.43
665.974	497.73
666.42	484.43
666.867	473.83
667.313	465.53
667.759	458.93
668.205	453.43
668.651	461.23
669.097	456.53
669.543	484.43
669.989	440.73
670.435	426.73
670.881	417.53
671.327	420.63
671.773	444.13
672.219	460.83
672.665	505.83
673.11	542.93
673.556	591.83
674.002	632.23
674.448	615.93
674.893	513.93
675.339	443.83
675.785	409.73
676.23	390.03
676.676	367.83
677.122	358.53
677.567	355.93
678.013	342.63
678.458	338.03
678.904	331.73
679.349	327.03
679.794	329.83
680.24	327.83
680.685	332.03
681.131	324.93
681.576	327.63
682.021	331.43
682.466	331.13
682.912	322.93
683.357	330.13
683.802	356.83
684.247	378.33
684.692	425.43
685.137	460.33
685.583	498.73
686.028	530.63
686.473	482.43
686.918	412.63
687.363	394.83
687.807	375.83
688.252	343.03
688.697	336.23
689.142	321.93
689.587	307.13
690.032	308.53
690.477	317.23
690.921	327.13
691.366	356.33
691.811	373.03
692.255	406.83
692.7	434.63
693.145	473.83
693.589	642.53
694.034	1032.53
694.478	1426.73
694.923	1624.43
695.367	2130.03
695.812	1120.23
696.256	468.33
696.701	348.53
697.145	323.43
697.59	303.63
698.034	301.53
698.478	310.03
698.922	304.93
699.367	309.03
699.811	311.43
700.255	330.83
700.699	359.63
701.143	391.93
701.588	436.63
702.032	483.03
702.476	481.23
702.92	458.23
703.364	461.83
703.808	580.43
704.252	940.33
704.696	1333.43
705.14	1563.63
705.584	2017.63
706.027	993.83
706.471	491.43
706.915	360.13
707.359	327.43
707.803	293.73
708.246	287.53
708.69	287.73
709.134	293.33
709.577	290.13
710.021	296.73
710.465	293.53
710.908	283.23
711.352	276.33
711.795	286.33
712.239	326.23
712.682	358.23
713.126	389.63
713.569	437.43
714.012	345.93
714.456	307.03
714.899	279.93
715.342	257.23
715.786	243.03
716.229	242.33
716.672	242.53
717.115	232.73
717.558	235.13
718.002	227.53
718.445	250.53
718.888	273.33
719.331	275.83
719.774	283.43
720.217	288.13
720.66	256.63
721.103	254.13
721.546	237.73
721.989	231.53
722.432	215.73
722.874	219.83
723.317	211.13
723.76	224.13
724.203	242.83
724.645	282.83
725.088	411.13
725.531	530.43
725.974	598.63
726.416	513.83
726.859	289.03
727.301	232.23
727.744	220.03
728.187	217.93
728.629	221.23
729.071	225.43
729.514	242.13
729.956	253.63
730.399	263.43
730.841	268.93
731.283	253.73
731.726	245.33
732.168	244.93
732.61	247.03
733.053	261.13
733.495	293.13
733.937	325.53
734.379	367.23
734.821	396.83
735.263	498.53
735.705	753.73
736.148	1425.03
736.59	2369.63
737.032	2862.93
737.474	2334.43
737.916	754.43
738.357	402.63
738.799	305.13
739.241	272.73
739.683	265.73
740.125	277.53
740.567	272.43
741.008	291.23
741.45	291.23
741.892	296.53
742.334	315.13
742.775	335.03
743.217	325.93
743.658	254.13
744.1	235.43
744.542	249.33
744.983	280.63
745.425	313.33
745.866	321.33
746.307	259.13
746.749	261.63
747.19	299.13
747.632	414.73
748.073	792.23
748.514	1674.73
748.956	2637.73
749.397	3285.93
749.838	2746.63
750.279	2767.23
750.72	1381.13
751.162	508.43
751.603	294.83
752.044	235.03
752.485	205.83
752.926	198.43
753.367	184.83
753.808	186.93
754.249	178.33
754.69	173.23
755.131	166.43
755.572	175.63
756.013	168.23
756.453	164.53
756.894	172.13
757.335	178.53
757.776	190.23
758.216	185.83
758.657	183.23
759.098	185.63
759.538	217.13
759.979	248.93
760.42	340.73
760.86	626.13
761.301	1636.83
761.741	4021.23
762.182	6015.43
762.622	4262.13
763.063	1216.23
763.503	496.23
763.943	319.33
764.384	317.83
764.824	374.63
765.264	414.93
765.705	293.33
766.145	189.13
766.585	179.13
767.025	162.03
767.465	174.53
767.906	225.83
768.346	300.03
768.786	318.93
769.226	240.83
769.666	287.43
770.106	562.13
770.546	1398.33
770.986	2470.73
771.426	2240.13
771.866	746.53
772.306	305.73
772.745	196.83
773.185	166.03
773.625	162.53
774.065	154.53
774.505	189.13
774.944	289.53
775.384	637.83
775.824	1205.93
776.263	1183.33
776.703	493.93
777.142	217.53
777.582	147.03
778.021	127.23
778.461	128.13
778.9	133.63
779.34	122.33
779.779	109.53
780.219	99.23
780.658	103.53
781.097	107.93
781.537	101.13
781.976	99.43
782.415	99.63
782.855	90.23
783.294	96.63
783.733	99.83
784.172	102.53
784.611	100.93
785.05	97.43
785.489	108.23
785.928	108.53
786.367	115.53
786.806	110.93
787.245	122.23
787.684	128.63
788.123	141.63
788.562	124.73
789.001	112.93
789.44	107.73
789.879	110.43
790.317	110.03
790.756	119.93
791.195	117.13
791.634	135.53
792.072	186.33
792.511	318.43
792.95	896.43
793.388	1981.73
793.827	1827.13
794.265	633.53
794.704	259.93
795.142	174.33
795.581	148.73
796.019	129.83
796.458	122.33
796.896	113.93
797.334	128.63
797.773	142.33
798.211	200.33
798.649	387.93
799.087	929.93
799.526	1457.93
799.964	1838.23
800.402	1898.03
800.84	706.33
801.278	275.93
801.716	170.53
802.154	143.63
802.592	128.93
803.03	126.23
803.468	119.63
803.906	134.83
804.344	143.43
804.782	133.13
805.22	125.03
805.658	117.53
806.096	138.53
806.533	146.23
806.971	158.63
807.409	195.93
807.847	291.03
808.284	586.43
808.722	1682.13
809.16	3049.33
809.597	2845.43
810.035	4975.73
810.472	5439.03
810.91	1969.03
811.347	740.43
811.785	376.43
812.222	239.33
812.66	176.63
813.097	144.03
813.535	125.93
813.972	121.03
814.409	111.83
814.846	94.73
815.284	104.03
815.721	93.93
816.158	101.23
816.595	113.53
817.032	170.23
817.47	182.03
817.907	159.73
818.344	140.23
818.781	108.93
819.218	85.83
819.655	113.53
820.092	171.23
820.529	206.53
820.966	171.13
821.403	125.03
821.839	100.73
822.276	98.93
822.713	117.33
823.15	122.73
823.587	108.53
824.023	133.73
824.46	259.33
824.897	820.33
825.333	1277.13
825.77	543.23
826.206	208.43
826.643	121.53
827.08	88.03
827.516	83.63
827.953	74.73
828.389	77.33
828.825	70.53
829.262	72.33
829.698	61.83
830.135	63.23
830.571	58.63
831.007	60.53
831.443	61.23
831.88	61.83
832.316	67.53
832.752	57.33
833.188	58.93
833.624	56.33
834.06	65.43
834.497	64.23
834.933	62.13
835.369	71.63
835.805	60.23
836.241	65.93
836.677	73.83
837.112	83.73
837.548	97.23
837.984	115.93
838.42	181.53
838.856	440.63
839.292	1367.93
839.727	2146.23
840.163	992.23
840.599	832.33
841.034	1869.93
841.47	2008.43
841.906	722.23
842.341	306.73
842.777	215.53
843.212	305.83
843.648	300.83
844.083	149.13
844.519	88.63
844.954	77.93
845.39	54.83
845.825	55.93
846.261	53.33
846.696	47.93
847.131	49.63
847.566	56.33
848.002	48.83
848.437	46.13
848.872	57.03
849.307	55.13
849.742	73.93
850.177	167.03
850.613	499.53
851.048	830.33
851.483	359.53
851.918	147.43
852.353	78.63
852.788	55.93
853.223	56.03
853.657	51.73
854.092	41.53
854.527	38.13
854.962	38.93
855.397	41.83
855.832	47.13
856.266	40.93
856.701	40.33
857.136	36.93
857.57	40.53
858.005	43.23
858.44	54.93
858.874	42.83
859.309	48.23
859.743	35.73
860.178	39.73
860.612	42.63
861.047	48.73
861.481	65.13
861.915	63.73
862.35	46.33
862.784	29.63
863.218	39.13
863.653	34.03
864.087	47.93
864.521	51.43
864.955	63.33
865.39	146.93
865.824	161.73
866.258	107.13
866.692	150.13
867.126	165.53
867.56	99.73
867.994	45.83
868.428	35.13
868.862	45.03
869.296	51.33
869.73	58.03
870.164	56.93
870.598	49.93
871.031	32.63
871.465	30.33
871.899	31.93
872.333	20.03
872.766	21.33
873.2	24.03
873.634	27.23
874.067	22.53
874.501	25.43
874.935	34.63
875.368	33.23
875.802	24.73
876.235	25.33
876.669	22.33
877.102	22.53
877.535	27.73
877.969	23.33
878.402	23.03
878.836	17.33
879.269	17.63
879.702	20.93
880.135	19.93
880.569	22.03
881.002	26.13
881.435	22.73
881.868	17.63
882.301	20.33
882.734	16.93
883.167	25.13
883.601	20.13
884.034	21.13
884.467	14.93
884.899	25.93
885.332	19.03
885.765	16.53
886.198	14.53
886.631	19.03
887.064	18.73
887.497	15.13
887.929	24.73
888.362	14.63
888.795	14.73
889.228	14.23
889.66	19.33
890.093	22.23
890.526	15.73
890.958	19.83
891.391	11.73
891.823	26.43
892.256	13.63
892.688	11.43
893.121	16.83
893.553	14.63
893.985	19.13
894.418	19.83
894.85	17.33
895.282	16.83
895.715	17.63
896.147	12.63
896.579	24.73
897.011	18.83
897.444	18.93
897.876	10.53
898.308	12.13
898.74	14.03
899.172	15.43
899.604	23.43
900.036	17.93
900.468	11.33
900.9	6.83
901.332	20.83
901.764	13.03
902.196	17.43
902.628	14.93
903.06	14.13
903.491	26.93
903.923	19.83
904.355	22.03
904.787	21.03
905.218	19.23
905.65	16.93
906.082	17.53
906.513	13.83
906.945	15.93
907.376	15.23
907.808	21.23
908.239	21.13
908.671	15.53
909.102	24.23
909.534	22.33
909.965	43.83
910.397	81.53
910.828	283.73
911.259	448.73
911.691	201.73
912.122	97.33
912.553	50.33
912.984	37.03
913.415	28.53
913.847	23.03
914.278	17.53
914.709	7.03
915.14	18.13
915.571	16.43
916.002	13.73
916.433	16.53
916.864	17.73
917.295	14.53
917.726	23.13
918.157	16.53
918.587	30.13
919.018	24.83
919.449	20.23
919.88	26.13
920.311	27.23
920.741	50.13
921.172	153.63
921.603	141.53
922.033	72.03
922.464	43.83
922.895	18.83
923.325	20.83
923.756	17.93
924.186	14.73
924.617	29.13
925.047	33.63
925.478	58.23
925.908	56.43
926.338	24.83
926.769	16.13
927.199	19.73
927.629	13.33
928.06	23.53
928.49	15.53
928.92	16.43
929.35	15.73
929.78	13.43
930.21	7.93
930.641	10.43
931.071	8.63
931.501	6.03
931.931	11.33
932.361	8.63
932.791	1.63
933.221	6.83
933.651	2.43
934.08	10.93
934.51	29.03
934.94	15.63
935.37	12.63
935.8	10.23
936.229	11.43
936.659	12.23
937.089	9.13
937.519	13.13
937.948	25.83
938.378	16.73
938.807	4.93
939.237	-0.27
939.666	5.73
940.096	-0.07
940.525	5.13
940.955	4.03
941.384	4.23
941.814	-1.37
942.243	0.23
942.672	3.83
943.102	-0.17
943.531	4.83
943.96	0.33
944.39	-0.37
944.819	2.43
945.248	5.63
945.677	3.63
946.106	4.23
946.535	8.23
946.964	4.03
947.393	2.83
947.822	2.53
948.251	-2.27
948.68	-0.77
949.109	4.83
949.538	6.53
949.967	5.53
950.396	3.53
950.825	-5.27
951.254	-3.17
951.682	-3.47
952.111	5.63
952.54	2.83
952.969	-3.07
953.397	-3.17
953.826	3.33
954.254	-1.97
954.683	-1.97
955.112	-0.47
955.54	-1.47
955.969	3.73
956.397	1.43
956.826	-4.07
957.254	3.93
957.682	6.33
958.111	3.33
958.539	5.33
958.967	2.43
959.396	0.73
959.824	1.73
960.252	1.73
960.68	-4.37
961.109	-1.37
961.537	-0.77
961.965	-4.07
962.393	-0.37
962.821	0.93
963.249	-3.87
963.677	2.93
964.105	3.03
964.533	40.73
964.961	38.73
965.389	24.03
965.817	7.23
966.245	6.13
966.672	4.93
967.1	-3.87
967.528	2.33
967.956	-3.67
968.383	-4.17
968.811	-7.27
969.239	-4.27
969.666	-9.07
970.094	0.23
970.522	1.03
970.949	-2.67
971.377	-10.27
971.804	-2.57
972.232	-3.57
972.659	0.03
973.087	-5.37
973.514	2.13
973.941	-8.17
974.369	2.53
974.796	2.13
975.223	1.63
975.651	3.33
976.078	3.23
976.505	6.13
976.932	3.73
977.359	16.43
977.786	10.83
978.214	8.03
978.641	0.83
979.068	0.73
979.495	-4.97
979.922	-2.47
980.349	-2.97
980.776	3.73
981.202	-4.57
981.629	5.23
982.056	6.43
982.483	-0.57
982.91	3.93
983.337	-6.87
983.763	2.43
984.19	-1.27
984.617	-2.97
985.043	-5.47
985.47	-3.07
985.897	0.43
986.323	-9.47
986.75	4.63
987.176	-0.87
987.603	1.93
988.029	0.93
988.456	-6.87
988.882	3.73
989.308	-3.27
989.735	-0.77
990.161	-3.97
990.587	0.03
991.014	0.13
991.44	6.23
991.866	-0.87
992.292	-4.17
992.719	-3.47
993.145	1.23
993.571	-6.17
993.997	1.63
994.423	-4.67
994.849	0.53
995.275	6.13
995.701	2.23
996.127	-3.47
996.553	3.03
996.979	1.83
997.405	2.03
997.83	-5.27
998.256	-5.57
998.682	-8.47
999.108	-5.27
999.534	-0.27
999.959	-1.97
1000.385	-0.87
1000.811	4.53
1001.236	-7.27
1001.662	-5.87
1002.087	-8.97
1002.513	-0.47
1002.938	5.03
1003.364	-5.17
1003.789	3.53
1004.215	5.03
1004.64	2.63
1005.066	8.43
1005.491	2.13
1005.916	-1.77
1006.342	-2.37
1006.767	-2.57
1007.192	5.63
1007.617	-1.97
1008.042	-4.27
1008.468	0.63
1008.893	-4.57
1009.318	-1.27
1009.743	-3.07
1010.168	3.23
1010.593	0.13
1011.018	-9.27
1011.443	-0.07
1011.868	-1.67
1012.293	-7.17
1012.718	-5.77
1013.143	1.63
1013.567	2.53
1013.992	2.33
1014.417	-13.87
1014.842	1.73
1015.267	-2.17
1015.691	-2.07
1016.116	8.73
1016.541	1.63
1016.965	-2.07
1017.39	2.53
1017.814	-0.17
1018.239	-0.07
1018.663	-2.67
1019.088	-5.47
1019.512	-4.37
1019.937	-2.77
1020.361	-3.07
1020.785	-8.77
1021.21	-0.57
1021.634	-7.07
1022.058	1.13
1022.483	4.43
1022.907	-2.07
1023.331	-2.27
1023.755	-2.27
1024.179	-1.67
1024.604	-6.07
1025.028	-2.97
1025.452	-2.57
1025.876	0.93
1026.3	-0.17
1026.724	-12.57
1027.148	-0.77
1027.572	-6.27
1027.996	-5.47
1028.42	2.23
1028.843	-1.77
1029.267	-2.47
1029.691	0.13
1030.115	-5.47
1030.539	-7.57
1030.962	-2.97
1031.386	-12.17
1031.81	-3.17
1032.233	-3.47
1032.657	-1.07
1033.08	-4.47
1033.504	-2.17
1033.927	-3.67
1034.351	0.53
1034.774	-4.57
1035.198	2.13
1035.621	-8.07
1036.045	-9.47
1036.468	3.53
1036.891	-9.37
1037.315	-8.47
1037.738	-3.97
1038.161	1.33
1038.584	-5.87
1039.008	-4.07
1039.431	-1.47
1039.854	-2.67
1040.277	-9.27
1040.7	-10.07
1041.123	0.13
1041.546	-3.97
1041.969	-5.77
1042.392	-9.57
1042.815	0.23
1043.238	0.13
1043.661	4.23
1044.084	-3.57
1044.507	-3.87
1044.93	-0.17
1045.352	-2.57
1045.775	-1.77
1046.198	-6.37
1046.621	-1.97
1047.043	-4.77
1047.466	4.03
1047.889	-5.97
1048.311	-6.37
1048.734	-0.37
1049.156	-2.97
1049.579	1.43
1050.001	-2.17
1050.424	-1.87
1050.846	1.43
1051.269	-1.57
1051.691	-1.07
1052.113	-5.87
1052.536	-2.97
1052.958	-5.77
1053.38	-6.67
1053.802	-10.37
1054.225	0.53
1054.647	-6.17
1055.069	-3.97
1055.491	4.73
1055.913	-1.47
1056.335	-5.77
1056.757	-1.77
1057.179	-3.77
1057.601	-3.77
1058.023	0.23
1058.445	-7.37
1058.867	-3.47
1059.289	-2.57
1059.711	-5.77
1060.133	-5.27
1060.555	-4.37
1060.976	-4.27
1061.398	-3.97
1061.82	-7.27
1062.241	-3.67
1062.663	-5.67
1063.085	-1.87
1063.506	-2.17
1063.928	-0.27
1064.35	0.53
1064.771	-10.87
1065.193	-1.87
1065.614	-6.17
1066.035	-1.57
1066.457	-5.97
1066.878	4.33
1067.3	-2.17
1067.721	-3.07
1068.142	-5.87
1068.564	-0.57
1068.985	-3.47
1069.406	-2.87
1069.827	-7.87
1070.248	-0.57
1070.67	-5.67
1071.091	-8.87
1071.512	-4.17
1071.933	-3.97
1072.354	-5.47
1072.775	-4.77
1073.196	-6.57
1073.617	-4.57
1074.038	-6.57
1074.459	-6.27
1074.88	-5.37
1075.3	4.53
1075.721	-4.77
1076.142	3.03
1076.563	-1.47
1076.983	-7.07
1077.404	-3.57
1077.825	-9.67
1078.246	-0.37
1078.666	-8.17
1079.087	-5.17
1079.507	-5.97
1079.928	3.93
1080.348	-5.07
1080.769	-7.07
1081.189	1.13
1081.61	-3.07
1082.03	-6.87
1082.451	-12.77
1082.871	-9.87
1083.291	-10.57
1083.711	-10.07
1084.132	-10.67
1084.552	-3.77
1084.972	0.43
1085.392	-11.67
1085.813	-8.07
1086.233	-3.77
1086.653	-0.97
1087.073	-5.87
1087.493	-2.27
1087.913	-4.37
1088.333	-1.07
1088.753	1.73
1089.173	-0.57
1089.593	-4.17
1090.013	-2.17
1090.433	4.63
1090.852	0.73
1091.272	4.73
1091.692	-1.67
1092.112	-0.97
1092.531	-6.67
1092.951	-10.67
1093.371	-7.37
1093.79	6.33
1094.21	-2.97
1094.63	-7.37
1095.049	-4.97
1095.469	-1.67
1095.888	-0.37
1096.308	3.13
1096.727	5.43
1097.146	-4.17
1097.566	0.33
1097.985	-7.57
1098.405	-5.97
1098.824	-11.07
1099.243	-0.97
1099.662	-7.87
1100.082	-0.37
1100.501	3.93
1100.92	-5.07
1101.339	-8.37
1101.758	-5.97
