Data from 20171114-ORNL-Ar_H_NY_Subt18_08-06-18-277.txt Node
Date: Tue Nov 14 08:06:18 EST 2017
User: Ender
Spectrometer: HR+D1039
Trigger mode: 0
Integration Time (sec): 2.730000E-2
Scans to average: 10
Electric dark correction enabled: true
Nonlinearity correction enabled: false
Boxcar width: 0
XAxis mode: Wavelengths
Number of Pixels in Spectrum: 2048
>>>>>Begin Spectral Data<<<<<
187.836	-4.54
188.309	-4.54
188.782	-4.54
189.255	-1.34
189.728	-3.04
190.201	1.46
190.674	-1.54
191.147	8.46
191.619	-5.04
192.092	1.26
192.565	1.96
193.038	2.56
193.511	0.66
193.984	2.96
194.456	-1.24
194.929	-1.04
195.402	-2.34
195.874	0.76
196.347	1.46
196.82	-4.04
197.292	7.16
197.765	-3.04
198.237	-7.74
198.71	-2.84
199.182	-4.04
199.655	3.26
200.127	-0.14
200.6	-3.04
201.072	-4.04
201.544	-5.64
202.017	-11.54
202.489	4.36
202.961	-4.04
203.433	-2.34
203.906	-5.34
204.378	-11.24
204.85	-1.14
205.322	-10.84
205.794	-1.84
206.266	-2.34
206.739	-8.64
207.211	1.06
207.683	-5.54
208.155	-5.44
208.627	-4.84
209.099	-4.24
209.57	-12.84
210.042	1.96
210.514	-4.44
210.986	-1.74
211.458	-7.54
211.93	-1.64
212.402	0.96
212.873	-7.14
213.345	-5.84
213.817	-8.54
214.288	-6.14
214.76	-8.94
215.232	-3.74
215.703	-2.34
216.175	-0.94
216.646	-1.34
217.118	-2.94
217.589	-7.74
218.061	-0.14
218.532	-5.14
219.004	-3.04
219.475	-1.64
219.946	-3.54
220.418	-7.54
220.889	1.56
221.36	2.56
221.832	-4.64
222.303	-8.94
222.774	-5.84
223.245	-8.34
223.717	0.26
224.188	-4.24
224.659	-11.14
225.13	-7.94
225.601	0.36
226.072	1.46
226.543	-5.04
227.014	1.26
227.485	1.76
227.956	-5.44
228.427	-1.14
228.898	-4.24
229.369	3.06
229.839	0.96
230.31	-2.04
230.781	2.86
231.252	-4.64
231.722	-9.34
232.193	-1.54
232.664	-1.84
233.135	1.56
233.605	3.56
234.076	-3.34
234.546	-1.44
235.017	2.16
235.487	1.46
235.958	-1.34
236.428	0.06
236.899	6.86
237.369	4.76
237.84	0.26
238.31	7.76
238.78	0.66
239.251	-2.24
239.721	5.36
240.191	0.46
240.662	2.56
241.132	-5.04
241.602	-2.64
242.072	0.86
242.542	12.06
243.013	-1.64
243.483	5.76
243.953	-0.04
244.423	-2.44
244.893	-0.44
245.363	4.16
245.833	7.86
246.303	-1.54
246.773	8.86
247.243	2.06
247.712	6.96
248.182	9.06
248.652	9.86
249.122	-0.14
249.592	8.86
250.061	12.36
250.531	33.86
251.001	11.86
251.471	25.46
251.94	18.26
252.41	8.86
252.879	7.06
253.349	14.66
253.818	12.76
254.288	6.76
254.757	4.46
255.227	2.16
255.696	2.16
256.166	7.56
256.635	11.86
257.105	6.66
257.574	6.76
258.043	10.26
258.513	15.46
258.982	19.46
259.451	10.76
259.92	16.76
260.389	9.76
260.859	16.56
261.328	12.66
261.797	16.06
262.266	7.76
262.735	11.16
263.204	4.46
263.673	0.86
264.142	9.96
264.611	0.46
265.08	5.86
265.549	-0.34
266.018	10.36
266.487	1.66
266.955	1.76
267.424	-1.74
267.893	2.76
268.362	3.76
268.83	1.66
269.299	13.66
269.768	6.36
270.236	10.46
270.705	0.96
271.174	3.16
271.642	6.66
272.111	8.86
272.579	13.86
273.048	26.26
273.516	28.26
273.985	22.96
274.453	25.06
274.922	19.76
275.39	17.86
275.858	-1.84
276.327	8.76
276.795	18.46
277.263	12.76
277.731	28.56
278.2	52.36
278.668	53.06
279.136	45.86
279.604	22.96
280.072	13.36
280.54	7.86
281.008	13.56
281.477	14.86
281.945	14.46
282.413	15.76
282.881	19.86
283.348	3.86
283.816	16.76
284.284	15.86
284.752	19.56
285.22	14.56
285.688	15.96
286.156	21.66
286.623	43.26
287.091	54.56
287.559	25.76
288.026	20.56
288.494	18.36
288.962	6.36
289.429	15.16
289.897	20.86
290.364	17.96
290.832	15.56
291.3	16.26
291.767	20.86
292.234	20.36
292.702	14.56
293.169	21.56
293.637	24.96
294.104	21.86
294.571	9.26
295.039	10.66
295.506	13.46
295.973	12.06
296.44	14.06
296.908	20.26
297.375	22.26
297.842	21.06
298.309	16.26
298.776	11.96
299.243	16.96
299.71	13.06
300.177	21.46
300.644	24.36
301.111	17.96
301.578	21.86
302.045	15.46
302.512	23.96
302.979	29.06
303.446	18.96
303.913	25.76
304.379	18.96
304.846	26.86
305.313	23.06
305.78	27.46
306.246	26.86
306.713	28.66
307.18	27.96
307.646	27.46
308.113	28.56
308.579	20.26
309.046	26.06
309.512	21.96
309.979	19.86
310.445	25.36
310.912	29.36
311.378	34.26
311.845	31.96
312.311	29.56
312.777	39.16
313.244	29.96
313.71	40.46
314.176	35.06
314.642	36.86
315.109	41.96
315.575	31.96
316.041	39.76
316.507	38.96
316.973	41.66
317.439	38.16
317.905	43.06
318.371	36.96
318.837	40.16
319.303	41.86
319.769	38.76
320.235	36.56
320.701	36.66
321.167	40.76
321.633	33.76
322.099	41.16
322.564	46.66
323.03	42.96
323.496	39.96
323.962	43.86
324.427	34.26
324.893	44.66
325.359	39.66
325.824	44.76
326.29	35.06
326.755	39.76
327.221	38.56
327.686	41.56
328.152	45.16
328.617	48.96
329.083	46.66
329.548	51.76
330.014	40.46
330.479	40.16
330.944	42.06
331.41	40.06
331.875	45.66
332.34	40.06
332.805	42.06
333.271	43.86
333.736	45.46
334.201	55.86
334.666	52.76
335.131	51.76
335.596	56.06
336.061	53.96
336.526	47.16
336.991	47.06
337.456	59.06
337.921	46.06
338.386	50.76
338.851	47.26
339.316	50.56
339.781	46.26
340.246	60.86
340.711	46.86
341.175	54.06
341.64	50.36
342.105	54.16
342.569	54.96
343.034	65.06
343.499	58.36
343.963	54.86
344.428	73.26
344.893	61.36
345.357	64.76
345.822	57.76
346.286	77.86
346.751	83.46
347.215	73.56
347.679	72.26
348.144	93.06
348.608	86.96
349.073	70.16
349.537	76.46
350.001	78.26
350.465	91.86
350.93	78.76
351.394	79.96
351.858	80.66
352.322	95.06
352.786	93.16
353.25	106.96
353.715	119.06
354.179	104.06
354.643	126.96
355.107	128.86
355.571	107.16
356.035	105.96
356.498	117.46
356.962	127.06
357.426	132.46
357.89	119.06
358.354	94.36
358.818	87.36
359.281	83.36
359.745	80.66
360.209	78.66
360.673	78.76
361.136	86.86
361.6	80.86
362.064	87.16
362.527	92.06
362.991	93.46
363.454	79.56
363.918	75.56
364.381	80.36
364.845	84.36
365.308	93.36
365.772	82.96
366.235	84.96
366.698	87.56
367.162	86.46
367.625	84.66
368.088	92.06
368.552	98.96
369.015	88.36
369.478	98.96
369.941	102.46
370.404	97.36
370.867	109.16
371.331	116.86
371.794	122.06
372.257	115.46
372.72	119.66
373.183	109.56
373.646	103.16
374.109	106.16
374.572	112.96
375.035	113.36
375.497	111.26
375.96	110.86
376.423	110.56
376.886	108.06
377.349	113.16
377.811	106.56
378.274	112.36
378.737	110.56
379.199	116.56
379.662	121.36
380.125	118.16
380.587	117.36
381.05	125.76
381.512	139.46
381.975	135.86
382.437	135.36
382.9	135.46
383.362	134.66
383.825	143.66
384.287	155.06
384.75	145.16
385.212	147.96
385.674	150.36
386.136	144.96
386.599	129.16
387.061	133.86
387.523	135.06
387.985	136.06
388.447	144.46
388.91	150.56
389.372	166.66
389.834	156.46
390.296	144.16
390.758	157.86
391.22	175.36
391.682	214.26
392.144	309.46
392.606	237.46
393.068	181.46
393.529	173.06
393.991	158.16
394.453	155.66
394.915	160.96
395.377	194.96
395.838	220.56
396.3	166.66
396.762	147.06
397.224	141.16
397.685	137.66
398.147	136.96
398.608	129.66
399.07	132.86
399.531	139.36
399.993	151.96
400.454	151.36
400.916	147.16
401.377	149.06
401.839	155.46
402.3	159.06
402.762	173.16
403.223	180.66
403.684	179.36
404.145	168.26
404.607	168.16
405.068	165.16
405.529	177.56
405.99	191.46
406.451	186.26
406.913	178.36
407.374	176.06
407.835	171.16
408.296	169.96
408.757	178.06
409.218	197.56
409.679	190.36
410.14	182.66
410.601	179.36
411.062	190.16
411.522	189.96
411.983	195.16
412.444	186.26
412.905	186.36
413.366	191.66
413.826	198.06
414.287	222.56
414.748	272.56
415.208	256.86
415.669	220.86
416.13	216.86
416.59	206.16
417.051	226.26
417.511	222.26
417.972	246.56
418.432	254.46
418.893	298.86
419.353	263.16
419.814	201.16
420.274	193.46
420.734	186.56
421.195	203.96
421.655	202.56
422.115	199.36
422.576	200.16
423.036	211.26
423.496	214.96
423.956	228.66
424.416	245.36
424.876	273.66
425.336	265.86
425.797	275.66
426.257	260.06
426.717	248.76
427.177	243.36
427.637	227.96
428.097	236.96
428.556	260.96
429.016	279.16
429.476	272.86
429.936	282.86
430.396	288.86
430.856	303.66
431.315	328.86
431.775	357.76
432.235	390.86
432.694	363.76
433.154	377.46
433.614	409.76
434.073	352.06
434.533	291.06
434.993	280.86
435.452	290.66
435.912	301.36
436.371	294.76
436.83	290.56
437.29	278.46
437.749	265.36
438.209	250.56
438.668	282.76
439.127	296.96
439.587	274.76
440.046	257.66
440.505	266.56
440.964	283.96
441.424	339.06
441.883	329.46
442.342	269.96
442.801	236.66
443.26	229.96
443.719	229.86
444.178	224.16
444.637	221.26
445.096	230.56
445.555	232.26
446.014	229.76
446.473	230.86
446.932	237.36
447.391	239.96
447.849	237.26
448.308	223.96
448.767	232.46
449.226	242.96
449.685	243.56
450.143	252.06
450.602	246.46
451.061	240.46
451.519	242.16
451.978	242.06
452.436	239.76
452.895	244.16
453.353	264.26
453.812	250.36
454.27	249.96
454.729	243.76
455.187	250.16
455.646	253.96
456.104	255.96
456.562	271.86
457.021	279.76
457.479	269.16
457.937	282.26
458.395	279.06
458.854	264.26
459.312	266.96
459.77	284.06
460.228	262.86
460.686	255.96
461.144	257.66
461.602	257.56
462.06	252.56
462.518	267.46
462.976	262.16
463.434	262.96
463.892	268.26
464.35	284.46
464.808	295.26
465.266	278.06
465.724	274.56
466.181	277.86
466.639	281.56
467.097	295.76
467.555	310.16
468.012	306.46
468.47	323.16
468.928	333.46
469.385	353.26
469.843	353.96
470.3	360.96
470.758	368.76
471.215	399.36
471.673	419.56
472.13	418.26
472.588	424.86
473.045	385.66
473.503	391.46
473.96	409.76
474.417	420.66
474.875	449.76
475.332	489.96
475.789	476.06
476.246	482.96
476.704	496.66
477.161	526.56
477.618	541.06
478.075	577.26
478.532	625.56
478.989	712.36
479.446	833.06
479.903	802.46
480.36	836.46
480.817	892.26
481.274	1002.56
481.731	1105.86
482.188	1199.36
482.645	1336.76
483.102	1453.46
483.558	1598.26
484.015	1661.36
484.472	1619.46
484.929	1566.36
485.385	1512.76
485.842	1483.56
486.299	1401.26
486.755	1341.76
487.212	1135.36
487.668	952.46
488.125	885.86
488.582	805.06
489.038	768.66
489.494	731.06
489.951	706.76
490.407	689.26
490.864	666.16
491.32	667.76
491.776	664.66
492.233	665.06
492.689	631.46
493.145	629.16
493.602	610.16
494.058	639.66
494.514	637.56
494.97	662.96
495.426	663.56
495.882	638.36
496.338	637.16
496.794	652.76
497.251	644.46
497.707	648.16
498.163	662.16
498.618	665.86
499.074	659.76
499.53	701.76
499.986	702.86
500.442	678.06
500.898	647.36
501.354	655.26
501.809	649.86
502.265	657.06
502.721	684.76
503.177	697.46
503.632	683.26
504.088	703.96
504.543	732.46
504.999	732.26
505.455	671.96
505.91	648.76
506.366	650.36
506.821	645.76
507.277	647.26
507.732	645.96
508.187	647.26
508.643	652.96
509.098	649.86
509.553	671.16
510.009	685.86
510.464	689.96
510.919	706.06
511.375	714.16
511.83	727.26
512.285	738.46
512.74	789.56
513.195	809.86
513.65	793.56
514.105	788.26
514.56	792.16
515.015	810.66
515.47	838.36
515.925	813.16
516.38	808.56
516.835	822.06
517.29	811.36
517.745	807.36
518.2	785.96
518.655	771.86
519.109	767.36
519.564	763.56
520.019	750.36
520.474	751.36
520.928	747.96
521.383	738.76
521.838	724.96
522.292	730.76
522.747	727.26
523.201	723.76
523.656	719.66
524.11	711.96
524.565	712.96
525.019	707.16
525.474	722.16
525.928	722.96
526.382	708.96
526.837	718.36
527.291	725.66
527.745	712.76
528.2	718.26
528.654	712.26
529.108	708.86
529.562	706.16
530.016	702.56
530.47	711.46
530.925	709.06
531.379	714.56
531.833	726.96
532.287	718.16
532.741	714.26
533.195	714.56
533.649	733.06
534.103	743.76
534.556	721.46
535.01	732.06
535.464	726.96
535.918	733.86
536.372	738.76
536.826	738.16
537.279	724.36
537.733	732.66
538.187	725.36
538.64	739.26
539.094	739.06
539.548	742.96
540.001	740.96
540.455	742.26
540.908	751.56
541.362	758.26
541.815	758.16
542.269	774.66
542.722	786.96
543.175	793.16
543.629	799.56
544.082	810.76
544.536	803.16
544.989	816.16
545.442	811.86
545.895	812.46
546.349	804.16
546.802	815.96
547.255	825.86
547.708	823.76
548.161	829.16
548.614	842.46
549.067	838.36
549.52	849.16
549.973	834.06
550.426	823.16
550.879	814.56
551.332	820.36
551.785	822.46
552.238	828.06
552.691	831.56
553.144	853.06
553.596	866.46
554.049	889.16
554.502	916.46
554.955	925.36
555.407	927.36
555.86	926.56
556.313	910.76
556.765	899.66
557.218	897.96
557.67	900.06
558.123	885.56
558.576	889.46
559.028	901.66
559.48	905.26
559.933	905.36
560.385	865.96
560.838	824.26
561.29	804.46
561.742	805.46
562.195	788.86
562.647	784.16
563.099	796.16
563.551	783.66
564.004	797.66
564.456	785.56
564.908	769.66
565.36	762.66
565.812	746.76
566.264	744.36
566.716	727.86
567.168	733.76
567.62	736.46
568.072	721.76
568.524	714.66
568.976	710.76
569.428	698.06
569.88	701.46
570.332	696.76
570.784	699.66
571.235	698.36
571.687	716.16
572.139	713.76
572.59	727.56
573.042	729.16
573.494	726.96
573.945	714.46
574.397	701.86
574.849	703.56
575.3	696.16
575.752	690.06
576.203	686.26
576.655	703.16
577.106	683.46
577.557	692.06
578.009	683.26
578.46	676.86
578.912	677.16
579.363	679.46
579.814	682.36
580.265	677.06
580.717	690.36
581.168	687.06
581.619	699.96
582.07	697.36
582.521	695.26
582.972	683.76
583.423	691.66
583.875	695.66
584.326	711.06
584.777	753.56
585.227	836.96
585.678	925.86
586.129	1014.36
586.58	1079.56
587.031	1167.76
587.482	1310.66
587.933	1507.16
588.384	1296.66
588.834	983.26
589.285	815.56
589.736	792.96
590.186	777.96
590.637	778.56
591.088	765.16
591.538	755.66
591.989	745.36
592.439	740.96
592.89	734.16
593.34	725.16
593.791	735.06
594.241	723.66
594.692	725.36
595.142	713.96
595.593	713.56
596.043	721.06
596.493	726.36
596.943	732.76
597.394	727.06
597.844	722.96
598.294	740.76
598.744	760.76
599.195	787.66
599.645	825.56
600.095	872.96
600.545	935.16
600.995	979.76
601.445	1032.36
601.895	1102.96
602.345	1162.46
602.795	1133.26
603.245	1080.46
603.695	1036.46
604.145	971.96
604.594	928.26
605.044	867.96
605.494	806.36
605.944	775.96
606.393	755.56
606.843	741.26
607.293	744.76
607.743	747.56
608.192	750.86
608.642	762.66
609.091	774.06
609.541	783.16
609.99	784.76
610.44	780.56
610.889	732.26
611.339	718.06
611.788	702.96
612.238	713.56
612.687	722.16
613.136	729.86
613.586	755.46
614.035	753.06
614.484	769.86
614.933	767.96
615.383	765.56
615.832	747.76
616.281	735.06
616.73	695.16
617.179	679.76
617.628	660.46
618.077	636.26
618.526	634.86
618.975	625.96
619.424	625.66
619.873	632.16
620.322	635.56
620.771	615.66
621.22	615.76
621.669	610.86
622.118	594.66
622.567	587.96
623.015	580.86
623.464	573.96
623.913	566.66
624.361	562.76
624.81	553.86
625.259	561.16
625.707	567.96
626.156	566.66
626.604	565.36
627.053	573.66
627.501	570.76
627.95	583.16
628.398	583.16
628.847	580.66
629.295	575.66
629.744	594.96
630.192	576.16
630.64	573.36
631.089	574.06
631.537	580.16
631.985	595.86
632.433	604.96
632.881	620.56
633.33	662.76
633.778	641.96
634.226	573.06
634.674	577.96
635.122	583.86
635.57	611.46
636.018	634.66
636.466	585.76
636.914	563.86
637.362	586.86
637.81	583.36
638.258	592.26
638.705	588.56
639.153	618.76
639.601	621.86
640.049	645.76
640.497	666.86
640.944	696.76
641.392	650.56
641.84	618.66
642.287	598.76
642.735	578.26
643.182	586.96
643.63	577.26
644.078	592.06
644.525	602.46
644.973	601.96
645.42	607.76
645.867	628.26
646.315	647.96
646.762	669.36
647.21	706.66
647.657	723.66
648.104	765.86
648.551	779.66
648.999	853.16
649.446	922.56
649.893	1019.66
650.34	1173.46
650.787	1406.66
651.234	1752.06
651.682	2271.46
652.129	3123.96
652.576	4478.96
653.023	6627.76
653.47	9074.36
653.917	11356.06
654.363	13103.06
654.81	14534.96
655.257	13781.76
655.704	9013.36
656.151	5361.36
656.598	3472.36
657.044	2449.86
657.491	1876.96
657.938	1511.66
658.385	1255.76
658.831	1094.36
659.278	972.76
659.724	865.96
660.171	792.56
660.618	724.56
661.064	692.06
661.511	677.66
661.957	666.26
662.404	647.76
662.85	649.66
663.296	620.16
663.743	566.86
664.189	548.86
664.635	538.66
665.082	538.26
665.528	526.26
665.974	526.06
666.42	512.16
666.867	512.76
667.313	496.36
667.759	488.56
668.205	479.26
668.651	489.26
669.097	497.26
669.543	499.26
669.989	474.96
670.435	457.56
670.881	447.66
671.327	452.06
671.773	469.86
672.219	486.86
672.665	543.06
673.11	591.16
673.556	630.96
674.002	669.66
674.448	660.16
674.893	556.26
675.339	472.96
675.785	444.06
676.23	410.56
676.676	398.46
677.122	388.26
677.567	375.56
678.013	377.16
678.458	362.56
678.904	368.86
679.349	353.06
679.794	356.16
680.24	354.06
680.685	345.26
681.131	352.66
681.576	346.96
682.021	359.46
682.466	355.16
682.912	347.86
683.357	348.56
683.802	387.96
684.247	412.76
684.692	455.26
685.137	496.26
685.583	545.26
686.028	566.16
686.473	513.26
686.918	449.66
687.363	418.66
687.807	394.46
688.252	359.76
688.697	357.76
689.142	336.56
689.587	330.26
690.032	327.46
690.477	339.26
690.921	353.86
691.366	364.76
691.811	395.96
692.255	427.86
692.7	462.06
693.145	501.86
693.589	691.36
694.034	1118.56
694.478	1539.16
694.923	1730.36
695.367	2265.66
695.812	1199.66
696.256	502.96
696.701	368.46
697.145	355.56
697.59	325.26
698.034	320.06
698.478	322.96
698.922	329.96
699.367	329.26
699.811	343.46
700.255	356.86
700.699	388.56
701.143	419.06
701.588	479.36
702.032	514.86
702.476	504.86
702.92	493.26
703.364	492.56
703.808	636.96
704.252	1030.26
704.696	1453.06
705.14	1671.66
705.584	2118.06
706.027	1065.36
706.471	525.76
706.915	398.46
707.359	338.76
707.803	316.16
708.246	309.76
708.69	313.36
709.134	315.36
709.577	307.76
710.021	315.06
710.465	306.96
710.908	291.86
711.352	290.56
711.795	310.56
712.239	355.06
712.682	394.06
713.126	417.56
713.569	468.16
714.012	371.56
714.456	326.06
714.899	305.36
715.342	275.06
715.786	254.26
716.229	259.76
716.672	253.66
717.115	248.56
717.558	250.96
718.002	250.96
718.445	262.86
718.888	289.66
719.331	298.56
719.774	311.36
720.217	305.66
720.66	279.56
721.103	264.96
721.546	260.56
721.989	244.46
722.432	230.16
722.874	240.46
723.317	226.36
723.76	233.56
724.203	255.26
724.645	319.96
725.088	449.36
725.531	565.26
725.974	645.56
726.416	547.56
726.859	303.06
727.301	244.96
727.744	237.66
728.187	237.86
728.629	236.16
729.071	242.06
729.514	249.46
729.956	272.76
730.399	288.86
730.841	288.16
731.283	267.96
731.726	263.36
732.168	257.86
732.61	266.36
733.053	286.96
733.495	313.36
733.937	351.26
734.379	397.96
734.821	435.66
735.263	538.86
735.705	825.56
736.148	1569.56
736.59	2552.26
737.032	3047.66
737.474	2474.66
737.916	810.66
738.357	426.26
738.799	320.76
739.241	295.96
739.683	286.96
740.125	292.26
740.567	300.76
741.008	310.16
741.45	312.56
741.892	310.26
742.334	346.76
742.775	364.96
743.217	340.06
743.658	267.26
744.1	258.56
744.542	268.06
744.983	310.46
745.425	336.76
745.866	340.86
746.307	279.56
746.749	284.46
747.19	320.86
747.632	448.36
748.073	864.56
748.514	1856.66
748.956	2822.96
749.397	3545.26
749.838	2951.66
750.279	2962.46
750.72	1480.46
751.162	547.96
751.603	319.06
752.044	253.96
752.485	219.06
752.926	206.86
753.367	202.86
753.808	195.36
754.249	194.66
754.69	187.96
755.131	175.86
755.572	182.26
756.013	181.96
756.453	185.36
756.894	188.26
757.335	187.96
757.776	203.06
758.216	190.46
758.657	198.06
759.098	201.76
759.538	224.36
759.979	263.06
760.42	367.76
760.86	689.66
761.301	1784.76
761.741	4374.06
762.182	6408.86
762.622	4515.16
763.063	1295.86
763.503	535.16
763.943	343.26
764.384	343.36
764.824	392.96
765.264	426.76
765.705	304.76
766.145	212.26
766.585	190.16
767.025	180.36
767.465	185.86
767.906	235.76
768.346	305.36
768.786	331.66
769.226	259.26
769.666	317.76
770.106	610.76
770.546	1527.56
770.986	2620.06
771.426	2364.46
771.866	789.56
772.306	326.86
772.745	206.16
773.185	173.46
773.625	167.76
774.065	170.46
774.505	191.06
774.944	294.06
775.384	669.56
775.824	1229.26
776.263	1180.86
776.703	512.66
777.142	210.66
777.582	157.36
778.021	141.26
778.461	136.26
778.9	138.96
779.34	139.06
779.779	117.16
780.219	111.96
780.658	108.86
781.097	117.86
781.537	116.96
781.976	109.16
782.415	111.36
782.855	113.46
783.294	103.06
783.733	106.46
784.172	105.46
784.611	104.56
785.05	112.26
785.489	111.56
785.928	116.76
786.367	115.66
786.806	115.96
787.245	124.56
787.684	128.56
788.123	149.26
788.562	136.16
789.001	132.06
789.44	120.56
789.879	120.56
790.317	115.96
790.756	121.16
791.195	123.16
791.634	148.96
792.072	206.26
792.511	364.86
792.95	990.96
793.388	2128.76
793.827	1936.36
794.265	673.06
794.704	269.46
795.142	185.96
795.581	154.96
796.019	135.46
796.458	129.06
796.896	120.16
797.334	130.96
797.773	150.76
798.211	221.86
798.649	432.16
799.087	1009.96
799.526	1571.76
799.964	2004.36
800.402	1991.26
800.84	743.86
801.278	299.96
801.716	188.86
802.154	152.76
802.592	148.06
803.03	140.16
803.468	134.96
803.906	146.46
804.344	150.86
804.782	140.66
805.22	129.16
805.658	125.96
806.096	145.36
806.533	157.96
806.971	171.76
807.409	213.76
807.847	312.16
808.284	649.36
808.722	1842.26
809.16	3263.46
809.597	3076.86
810.035	5354.06
810.472	5740.36
810.91	2070.16
811.347	790.06
811.785	399.46
812.222	256.96
812.66	193.66
813.097	162.36
813.535	139.76
813.972	134.96
814.409	116.76
814.846	108.36
815.284	112.76
815.721	107.16
816.158	102.26
816.595	117.86
817.032	171.56
817.47	201.66
817.907	170.16
818.344	146.36
818.781	110.56
819.218	97.66
819.655	125.26
820.092	181.06
820.529	217.66
820.966	180.36
821.403	136.96
821.839	101.66
822.276	102.96
822.713	119.66
823.15	136.96
823.587	114.66
824.023	141.36
824.46	300.46
824.897	882.76
825.333	1346.16
825.77	578.56
826.206	223.36
826.643	133.56
827.08	106.36
827.516	79.46
827.953	79.86
828.389	82.16
828.825	65.36
829.262	64.46
829.698	65.36
830.135	66.86
830.571	67.06
831.007	63.36
831.443	65.06
831.88	63.96
832.316	63.86
832.752	66.56
833.188	69.26
833.624	58.36
834.06	71.56
834.497	73.66
834.933	71.26
835.369	77.96
835.805	70.06
836.241	78.16
836.677	84.56
837.112	93.36
837.548	102.06
837.984	140.36
838.42	199.96
838.856	485.06
839.292	1476.06
839.727	2272.26
840.163	1061.96
840.599	912.86
841.034	2001.26
841.47	2121.06
841.906	766.96
842.341	333.56
842.777	231.46
843.212	307.96
843.648	302.96
844.083	151.16
844.519	93.36
844.954	80.66
845.39	55.26
845.825	59.96
846.261	61.06
846.696	58.56
847.131	53.16
847.566	62.56
848.002	54.66
848.437	54.46
848.872	57.36
849.307	62.16
849.742	83.26
850.177	175.86
850.613	539.66
851.048	875.46
851.483	379.56
851.918	151.36
852.353	85.46
852.788	55.16
853.223	56.76
853.657	54.76
854.092	43.16
854.527	44.36
854.962	48.26
855.397	46.36
855.832	50.76
856.266	38.86
856.701	37.86
857.136	34.66
857.57	44.46
858.005	45.76
858.44	55.36
858.874	48.66
859.309	55.46
859.743	37.46
860.178	49.56
860.612	42.76
861.047	49.56
861.481	68.16
861.915	70.76
862.35	46.46
862.784	33.56
863.218	37.66
863.653	30.36
864.087	52.66
864.521	53.06
864.955	73.86
865.39	153.46
865.824	176.86
866.258	116.96
866.692	160.96
867.126	174.46
867.56	100.16
867.994	55.86
868.428	41.66
868.862	42.36
869.296	52.86
869.73	60.66
870.164	53.26
870.598	42.36
871.031	38.16
871.465	28.66
871.899	34.46
872.333	22.86
872.766	26.66
873.2	26.86
873.634	25.36
874.067	24.46
874.501	21.66
874.935	33.56
875.368	34.06
875.802	28.76
876.235	26.46
876.669	23.96
877.102	20.46
877.535	24.06
877.969	21.26
878.402	25.36
878.836	20.66
879.269	21.06
879.702	24.96
880.135	21.56
880.569	23.06
881.002	27.66
881.435	25.56
881.868	18.56
882.301	19.96
882.734	14.96
883.167	18.46
883.601	16.66
884.034	19.26
884.467	12.96
884.899	15.16
885.332	10.86
885.765	15.66
886.198	22.76
886.631	18.36
887.064	18.96
887.497	22.66
887.929	30.66
888.362	16.16
888.795	11.76
889.228	17.96
889.66	23.56
890.093	17.16
890.526	22.06
890.958	18.36
891.391	20.46
891.823	23.26
892.256	16.46
892.688	14.36
893.121	19.36
893.553	21.16
893.985	22.66
894.418	22.86
894.85	13.26
895.282	17.16
895.715	15.76
896.147	18.66
896.579	15.66
897.011	16.26
897.444	22.06
897.876	7.66
898.308	18.96
898.74	18.66
899.172	15.26
899.604	24.16
900.036	21.66
900.468	15.96
900.9	10.46
901.332	21.26
901.764	15.06
902.196	19.16
902.628	15.06
903.06	17.66
903.491	27.16
903.923	24.56
904.355	25.56
904.787	25.56
905.218	31.16
905.65	20.16
906.082	18.76
906.513	10.56
906.945	14.56
907.376	14.16
907.808	20.96
908.239	22.56
908.671	18.96
909.102	22.66
909.534	27.36
909.965	47.96
910.397	88.56
910.828	309.76
911.259	465.06
911.691	219.06
912.122	110.16
912.553	52.56
912.984	31.66
913.415	26.26
913.847	20.96
914.278	21.26
914.709	22.06
915.14	20.26
915.571	15.16
916.002	10.96
916.433	19.26
916.864	17.46
917.295	12.76
917.726	17.76
918.157	18.46
918.587	32.76
919.018	21.56
919.449	17.96
919.88	21.36
920.311	29.26
920.741	46.56
921.172	164.36
921.603	152.26
922.033	73.46
922.464	44.56
922.895	19.26
923.325	18.96
923.756	14.86
924.186	16.86
924.617	28.56
925.047	39.16
925.478	48.76
925.908	39.56
926.338	21.16
926.769	22.46
927.199	23.06
927.629	12.86
928.06	15.26
928.49	11.56
928.92	12.16
929.35	10.16
929.78	9.16
930.21	9.06
930.641	7.86
931.071	10.66
931.501	5.86
931.931	11.16
932.361	5.96
932.791	2.16
933.221	9.16
933.651	6.76
934.08	16.36
934.51	28.16
934.94	13.06
935.37	6.86
935.8	14.26
936.229	5.36
936.659	7.36
937.089	1.26
937.519	12.06
937.948	21.46
938.378	13.46
938.807	7.96
939.237	-1.24
939.666	8.16
940.096	-4.84
940.525	3.16
940.955	-2.54
941.384	5.66
941.814	-5.54
942.243	1.46
942.672	3.76
943.102	0.86
943.531	-0.94
943.96	9.86
944.39	2.26
944.819	-0.64
945.248	0.86
945.677	3.76
946.106	0.26
946.535	3.56
946.964	6.26
947.393	4.06
947.822	1.96
948.251	-1.94
948.68	3.46
949.109	5.56
949.538	7.26
949.967	1.06
950.396	3.76
950.825	-0.34
951.254	2.16
951.682	-6.34
952.111	9.06
952.54	9.36
952.969	-6.34
953.397	-9.84
953.826	1.66
954.254	-2.44
954.683	0.56
955.112	-3.34
955.54	1.86
955.969	-2.24
956.397	-1.04
956.826	0.66
957.254	2.06
957.682	-1.24
958.111	0.96
958.539	0.16
958.967	-0.64
959.396	3.96
959.824	-0.64
960.252	-1.44
960.68	-0.94
961.109	0.46
961.537	-8.24
961.965	-1.94
962.393	0.86
962.821	-2.54
963.249	0.66
963.677	4.26
964.105	6.36
964.533	39.16
964.961	36.66
965.389	23.26
965.817	11.96
966.245	1.16
966.672	4.56
967.1	-2.14
967.528	-2.04
967.956	-1.64
968.383	-0.44
968.811	0.26
969.239	-1.64
969.666	-1.94
970.094	0.16
970.522	0.06
970.949	-3.64
971.377	-3.94
971.804	0.56
972.232	-4.04
972.659	-2.94
973.087	-1.74
973.514	-2.14
973.941	-4.94
974.369	2.76
974.796	-1.74
975.223	2.86
975.651	-1.14
976.078	-2.94
976.505	3.86
976.932	1.16
977.359	18.06
977.786	16.86
978.214	1.76
978.641	-3.94
979.068	-1.74
979.495	-9.74
979.922	0.16
980.349	-7.04
980.776	0.16
981.202	-2.24
981.629	0.76
982.056	4.06
982.483	2.26
982.91	3.56
983.337	-3.64
983.763	7.06
984.19	-4.74
984.617	-1.94
985.043	-4.94
985.47	-3.54
985.897	-2.24
986.323	-5.94
986.75	-0.74
987.176	-6.74
987.603	-2.34
988.029	0.06
988.456	-7.84
988.882	5.86
989.308	-6.94
989.735	-9.34
990.161	1.66
990.587	-6.94
991.014	-0.04
991.44	6.16
991.866	-5.34
992.292	-8.14
992.719	-3.84
993.145	5.66
993.571	-7.34
993.997	-3.54
994.423	0.26
994.849	-5.64
995.275	2.06
995.701	0.16
996.127	-2.04
996.553	3.26
996.979	-4.24
997.405	-3.24
997.83	-7.14
998.256	-5.44
998.682	-5.44
999.108	-6.54
999.534	-2.24
999.959	-5.94
1000.385	-8.04
1000.811	5.96
1001.236	-8.84
1001.662	-8.94
1002.087	-7.04
1002.513	-0.64
1002.938	4.26
1003.364	0.76
1003.789	-2.04
1004.215	5.16
1004.64	0.66
1005.066	-0.24
1005.491	1.86
1005.916	-2.64
1006.342	-2.84
1006.767	-5.74
1007.192	1.26
1007.617	-4.44
1008.042	-9.04
1008.468	-10.94
1008.893	2.16
1009.318	-5.94
1009.743	4.06
1010.168	5.76
1010.593	3.56
1011.018	-7.04
1011.443	-7.44
1011.868	3.46
1012.293	-5.44
1012.718	-10.14
1013.143	-3.74
1013.567	3.06
1013.992	-7.04
1014.417	-9.44
1014.842	3.36
1015.267	-4.54
1015.691	-4.04
1016.116	-0.04
1016.541	-0.74
1016.965	2.36
1017.39	3.06
1017.814	-3.44
1018.239	0.86
1018.663	-8.94
1019.088	-8.14
1019.512	-2.24
1019.937	1.16
1020.361	-8.04
1020.785	-8.14
1021.21	-1.34
1021.634	-7.94
1022.058	-0.64
1022.483	-1.54
1022.907	-6.24
1023.331	-0.44
1023.755	0.96
1024.179	-4.34
1024.604	-12.34
1025.028	-9.54
1025.452	-3.04
1025.876	-4.54
1026.3	1.06
1026.724	-9.74
1027.148	-3.14
1027.572	-12.84
1027.996	-8.84
1028.42	-6.44
1028.843	-7.74
1029.267	-10.94
1029.691	-2.64
1030.115	-10.74
1030.539	-7.14
1030.962	-12.24
1031.386	-7.24
1031.81	-2.74
1032.233	-5.94
1032.657	3.06
1033.08	-5.24
1033.504	-8.04
1033.927	-8.14
1034.351	-0.34
1034.774	-7.74
1035.198	-0.84
1035.621	-10.74
1036.045	-5.54
1036.468	2.36
1036.891	-8.74
1037.315	-7.14
1037.738	-8.64
1038.161	-3.04
1038.584	-4.54
1039.008	-5.04
1039.431	1.76
1039.854	-4.24
1040.277	-7.04
1040.7	-8.54
1041.123	-0.84
1041.546	-10.44
1041.969	-6.64
1042.392	-2.94
1042.815	-3.94
1043.238	-2.24
1043.661	2.46
1044.084	-12.34
1044.507	-6.44
1044.93	-3.64
1045.352	-9.04
1045.775	-0.44
1046.198	-1.94
1046.621	-6.14
1047.043	0.86
1047.466	10.46
1047.889	-2.74
1048.311	-7.74
1048.734	-1.14
1049.156	-4.44
1049.579	2.36
1050.001	1.06
1050.424	-1.84
1050.846	-8.44
1051.269	0.36
1051.691	-12.14
1052.113	-6.84
1052.536	-2.34
1052.958	-2.64
1053.38	-1.04
1053.802	-13.84
1054.225	0.06
1054.647	-10.34
1055.069	-1.94
1055.491	3.26
1055.913	-9.34
1056.335	-0.14
1056.757	-4.24
1057.179	-8.04
1057.601	-9.84
1058.023	-2.64
1058.445	-9.34
1058.867	-4.84
1059.289	-9.04
1059.711	-7.54
1060.133	-1.14
1060.555	-2.94
1060.976	-4.64
1061.398	-4.04
1061.82	-6.74
1062.241	-11.44
1062.663	-11.84
1063.085	-2.14
1063.506	-4.04
1063.928	-1.84
1064.35	3.06
1064.771	-11.64
1065.193	-4.74
1065.614	-0.54
1066.035	2.76
1066.457	-1.14
1066.878	-0.34
1067.3	-4.34
1067.721	-2.74
1068.142	-5.04
1068.564	-5.84
1068.985	-4.44
1069.406	-1.84
1069.827	-4.44
1070.248	4.36
1070.67	-3.94
1071.091	-2.24
1071.512	-2.04
1071.933	-7.14
1072.354	-5.94
1072.775	-7.24
1073.196	-4.14
1073.617	-0.74
1074.038	-3.84
1074.459	1.56
1074.88	-11.64
1075.3	1.86
1075.721	-7.34
1076.142	-2.84
1076.563	-1.74
1076.983	-13.24
1077.404	-12.44
1077.825	-10.04
1078.246	0.96
1078.666	-7.44
1079.087	-4.64
1079.507	-6.54
1079.928	-1.54
1080.348	-3.84
1080.769	-6.54
1081.189	0.56
1081.61	-7.64
1082.03	-8.84
1082.451	-8.04
1082.871	-3.84
1083.291	-4.94
1083.711	-10.44
1084.132	-2.14
1084.552	-3.64
1084.972	-1.64
1085.392	-12.64
1085.813	-8.44
1086.233	-6.54
1086.653	-3.54
1087.073	-2.94
1087.493	-3.04
1087.913	-10.24
1088.333	-11.94
1088.753	0.36
1089.173	-0.34
1089.593	-0.44
1090.013	-4.64
1090.433	-0.94
1090.852	-6.14
1091.272	-0.64
1091.692	-7.84
1092.112	-7.74
1092.531	-7.94
1092.951	-10.74
1093.371	-4.04
1093.79	-3.04
1094.21	-5.24
1094.63	-5.34
1095.049	-8.04
1095.469	-7.14
1095.888	-2.04
1096.308	2.16
1096.727	0.56
1097.146	-0.94
1097.566	0.76
1097.985	-7.04
1098.405	-1.34
1098.824	-6.14
1099.243	-8.94
1099.662	-7.34
1100.082	-3.54
1100.501	0.66
1100.92	-9.44
1101.339	-4.64
1101.758	-9.54
