Data from 20171114-ORNL-Ar_H_NY_Subt18_08-04-37-549.txt Node
Date: Tue Nov 14 08:04:37 EST 2017
User: Ender
Spectrometer: HR+D1039
Trigger mode: 0
Integration Time (sec): 2.730000E-2
Scans to average: 10
Electric dark correction enabled: true
Nonlinearity correction enabled: false
Boxcar width: 0
XAxis mode: Wavelengths
Number of Pixels in Spectrum: 2048
>>>>>Begin Spectral Data<<<<<
187.836	-4.42
188.309	-4.42
188.782	-4.42
189.255	-1.62
189.728	2.58
190.201	0.88
190.674	0.68
191.147	-1.02
191.619	-2.32
192.092	1.68
192.565	6.78
193.038	-0.72
193.511	-1.52
193.984	-3.52
194.456	-2.62
194.929	1.78
195.402	1.08
195.874	2.28
196.347	-5.92
196.82	-5.82
197.292	4.58
197.765	-4.52
198.237	-5.72
198.71	3.28
199.182	-3.42
199.655	-0.32
200.127	3.78
200.6	0.68
201.072	-5.32
201.544	-1.52
202.017	-7.02
202.489	5.88
202.961	-1.72
203.433	-1.92
203.906	0.18
204.378	-4.22
204.85	-4.12
205.322	-10.62
205.794	-3.62
206.266	4.08
206.739	-9.72
207.211	1.48
207.683	-9.72
208.155	-4.12
208.627	-11.62
209.099	-6.92
209.57	-9.52
210.042	-4.02
210.514	3.98
210.986	-1.72
211.458	-9.92
211.93	0.38
212.402	-0.32
212.873	-6.92
213.345	-12.32
213.817	-11.12
214.288	-0.52
214.76	-7.22
215.232	-4.82
215.703	-3.12
216.175	-5.82
216.646	-5.92
217.118	-4.72
217.589	-6.62
218.061	1.28
218.532	-4.92
219.004	0.38
219.475	-2.62
219.946	0.48
220.418	-5.82
220.889	3.68
221.36	2.18
221.832	-7.02
222.303	-2.92
222.774	1.88
223.245	-7.62
223.717	-4.82
224.188	-5.52
224.659	-13.22
225.13	-2.62
225.601	-5.72
226.072	0.28
226.543	2.68
227.014	2.08
227.485	-2.62
227.956	-3.12
228.427	1.98
228.898	-3.02
229.369	-0.82
229.839	-1.62
230.31	-1.02
230.781	3.28
231.252	-4.32
231.722	-6.52
232.193	-0.02
232.664	1.18
233.135	4.98
233.605	-2.22
234.076	-2.92
234.546	-1.22
235.017	6.88
235.487	-0.22
235.958	-1.32
236.428	2.38
236.899	7.68
237.369	7.28
237.84	-3.62
238.31	10.08
238.78	4.28
239.251	-2.62
239.721	1.08
240.191	5.48
240.662	-6.62
241.132	0.28
241.602	1.68
242.072	4.28
242.542	9.58
243.013	0.48
243.483	11.28
243.953	9.28
244.423	1.98
244.893	-6.12
245.363	-0.02
245.833	2.58
246.303	-4.92
246.773	10.68
247.243	5.28
247.712	9.88
248.182	11.28
248.652	4.48
249.122	-3.52
249.592	14.98
250.061	21.68
250.531	36.28
251.001	22.18
251.471	24.38
251.94	23.18
252.41	7.88
252.879	0.08
253.349	10.58
253.818	5.68
254.288	7.08
254.757	6.98
255.227	5.38
255.696	-3.32
256.166	13.28
256.635	4.98
257.105	7.18
257.574	3.28
258.043	5.28
258.513	14.98
258.982	20.28
259.451	10.18
259.92	16.88
260.389	17.08
260.859	18.88
261.328	12.38
261.797	20.48
262.266	10.88
262.735	15.58
263.204	8.98
263.673	3.58
264.142	11.08
264.611	-0.82
265.08	1.08
265.549	2.38
266.018	5.68
266.487	2.78
266.955	0.38
267.424	7.88
267.893	11.28
268.362	3.68
268.83	0.28
269.299	12.98
269.768	4.58
270.236	8.98
270.705	4.38
271.174	13.08
271.642	11.68
272.111	11.38
272.579	19.48
273.048	26.28
273.516	27.78
273.985	36.18
274.453	28.18
274.922	22.88
275.39	9.08
275.858	4.78
276.327	15.08
276.795	22.88
277.263	10.58
277.731	29.18
278.2	62.88
278.668	65.98
279.136	54.78
279.604	21.78
280.072	17.48
280.54	16.78
281.008	15.08
281.477	16.18
281.945	16.68
282.413	18.08
282.881	14.98
283.348	8.98
283.816	17.38
284.284	12.08
284.752	20.18
285.22	15.18
285.688	19.78
286.156	14.88
286.623	45.28
287.091	61.18
287.559	25.48
288.026	15.08
288.494	15.78
288.962	10.28
289.429	15.48
289.897	17.78
290.364	18.38
290.832	18.28
291.3	14.98
291.767	17.28
292.234	20.48
292.702	12.58
293.169	22.78
293.637	25.68
294.104	23.88
294.571	8.08
295.039	15.28
295.506	18.08
295.973	23.28
296.44	20.18
296.908	19.18
297.375	23.38
297.842	22.18
298.309	21.28
298.776	15.18
299.243	25.48
299.71	11.98
300.177	24.68
300.644	26.58
301.111	20.38
301.578	22.58
302.045	25.28
302.512	23.28
302.979	22.08
303.446	26.38
303.913	16.88
304.379	21.28
304.846	31.28
305.313	27.78
305.78	26.28
306.246	29.78
306.713	30.58
307.18	32.48
307.646	30.28
308.113	33.08
308.579	23.78
309.046	30.68
309.512	26.98
309.979	19.68
310.445	27.68
310.912	32.38
311.378	30.38
311.845	32.18
312.311	31.28
312.777	29.38
313.244	33.38
313.71	40.58
314.176	34.68
314.642	33.98
315.109	33.08
315.575	39.08
316.041	39.08
316.507	31.28
316.973	40.98
317.439	35.78
317.905	39.68
318.371	37.68
318.837	31.88
319.303	29.48
319.769	31.18
320.235	35.88
320.701	40.58
321.167	36.68
321.633	36.18
322.099	40.58
322.564	45.98
323.03	42.58
323.496	42.18
323.962	43.18
324.427	39.48
324.893	42.78
325.359	41.08
325.824	39.58
326.29	33.28
326.755	41.58
327.221	41.88
327.686	37.78
328.152	50.18
328.617	46.08
329.083	51.78
329.548	50.88
330.014	46.28
330.479	41.78
330.944	48.28
331.41	40.38
331.875	47.28
332.34	47.68
332.805	40.28
333.271	50.88
333.736	40.98
334.201	59.28
334.666	53.28
335.131	60.58
335.596	51.58
336.061	48.48
336.526	48.58
336.991	50.08
337.456	53.98
337.921	47.48
338.386	47.18
338.851	43.48
339.316	41.38
339.781	48.38
340.246	50.68
340.711	47.78
341.175	55.28
341.64	42.18
342.105	48.88
342.569	62.68
343.034	60.38
343.499	49.48
343.963	53.28
344.428	58.78
344.893	63.38
345.357	62.68
345.822	62.98
346.286	67.78
346.751	73.08
347.215	72.88
347.679	77.48
348.144	101.88
348.608	83.78
349.073	70.28
349.537	75.68
350.001	78.28
350.465	86.28
350.93	80.48
351.394	82.38
351.858	71.18
352.322	83.58
352.786	92.18
353.25	99.18
353.715	102.38
354.179	102.18
354.643	117.68
355.107	127.18
355.571	103.28
356.035	102.08
356.498	110.78
356.962	122.38
357.426	127.18
357.89	115.58
358.354	91.18
358.818	82.48
359.281	81.88
359.745	76.48
360.209	78.18
360.673	73.88
361.136	82.58
361.6	83.78
362.064	85.18
362.527	82.18
362.991	91.28
363.454	79.88
363.918	76.38
364.381	76.38
364.845	88.78
365.308	80.48
365.772	88.18
366.235	87.08
366.698	85.68
367.162	81.68
367.625	88.88
368.088	85.58
368.552	92.88
369.015	86.48
369.478	94.48
369.941	99.48
370.404	90.68
370.867	107.48
371.331	104.28
371.794	114.08
372.257	107.08
372.72	113.18
373.183	106.98
373.646	97.98
374.109	107.28
374.572	109.08
375.035	101.88
375.497	104.68
375.96	104.88
376.423	96.38
376.886	106.58
377.349	106.88
377.811	100.98
378.274	99.88
378.737	105.48
379.199	106.28
379.662	109.28
380.125	110.68
380.587	117.28
381.05	116.48
381.512	121.08
381.975	126.18
382.437	120.68
382.9	122.38
383.362	128.98
383.825	135.48
384.287	144.58
384.75	136.98
385.212	129.98
385.674	137.28
386.136	128.88
386.599	118.58
387.061	121.48
387.523	127.18
387.985	127.58
388.447	143.48
388.91	142.28
389.372	150.08
389.834	139.28
390.296	143.08
390.758	150.78
391.22	156.68
391.682	196.78
392.144	279.08
392.606	212.48
393.068	165.38
393.529	164.08
393.991	150.88
394.453	144.48
394.915	151.18
395.377	184.88
395.838	207.38
396.3	145.58
396.762	131.88
397.224	125.88
397.685	120.58
398.147	126.58
398.608	122.88
399.07	123.18
399.531	130.28
399.993	133.98
400.454	145.38
400.916	140.38
401.377	136.98
401.839	142.78
402.3	144.78
402.762	160.08
403.223	172.28
403.684	162.58
404.145	157.88
404.607	159.68
405.068	161.08
405.529	162.88
405.99	177.18
406.451	170.68
406.913	162.28
407.374	158.08
407.835	150.58
408.296	163.68
408.757	163.98
409.218	175.08
409.679	168.48
410.14	165.68
410.601	176.08
411.062	177.18
411.522	176.78
411.983	179.98
412.444	167.98
412.905	171.68
413.366	175.68
413.826	184.68
414.287	209.58
414.748	247.18
415.208	233.88
415.669	197.98
416.13	195.68
416.59	196.08
417.051	206.78
417.511	206.08
417.972	223.68
418.432	230.68
418.893	274.08
419.353	237.28
419.814	181.78
420.274	171.18
420.734	166.78
421.195	186.88
421.655	190.08
422.115	184.18
422.576	175.28
423.036	185.38
423.496	198.18
423.956	202.98
424.416	212.68
424.876	248.78
425.336	247.68
425.797	244.68
426.257	238.08
426.717	224.38
427.177	222.28
427.637	207.08
428.097	226.18
428.556	230.98
429.016	250.18
429.476	245.78
429.936	255.78
430.396	255.68
430.856	273.58
431.315	300.78
431.775	329.28
432.235	360.88
432.694	333.68
433.154	342.28
433.614	359.08
434.073	314.18
434.533	265.58
434.993	253.98
435.452	265.28
435.912	276.88
436.371	271.98
436.83	267.88
437.29	252.48
437.749	230.08
438.209	226.88
438.668	255.48
439.127	270.78
439.587	250.98
440.046	233.38
440.505	252.08
440.964	261.58
441.424	303.38
441.883	298.88
442.342	245.28
442.801	204.78
443.26	204.88
443.719	202.08
444.178	210.58
444.637	193.98
445.096	204.48
445.555	212.28
446.014	206.18
446.473	209.58
446.932	206.98
447.391	207.98
447.849	212.88
448.308	200.38
448.767	209.08
449.226	222.08
449.685	217.08
450.143	235.18
450.602	220.58
451.061	209.98
451.519	221.98
451.978	222.28
452.436	218.68
452.895	224.48
453.353	242.78
453.812	223.98
454.27	221.98
454.729	224.68
455.187	219.68
455.646	230.08
456.104	227.38
456.562	236.18
457.021	243.48
457.479	242.08
457.937	253.98
458.395	240.48
458.854	227.98
459.312	233.58
459.77	254.08
460.228	236.28
460.686	228.38
461.144	235.58
461.602	232.58
462.06	224.38
462.518	237.78
462.976	234.08
463.434	241.38
463.892	248.48
464.35	252.88
464.808	274.88
465.266	243.98
465.724	249.18
466.181	252.98
466.639	255.58
467.097	269.38
467.555	275.98
468.012	285.88
468.47	288.28
468.928	305.08
469.385	326.68
469.843	330.98
470.3	321.58
470.758	344.18
471.215	361.28
471.673	382.58
472.13	372.38
472.588	384.58
473.045	354.58
473.503	346.68
473.96	366.18
474.417	373.28
474.875	403.88
475.332	444.38
475.789	436.78
476.246	439.88
476.704	446.38
477.161	478.98
477.618	487.88
478.075	522.48
478.532	568.58
478.989	639.78
479.446	753.18
479.903	725.08
480.36	761.98
480.817	799.88
481.274	915.28
481.731	1019.48
482.188	1100.78
482.645	1230.18
483.102	1337.18
483.558	1466.48
484.015	1531.18
484.472	1504.58
484.929	1445.58
485.385	1418.58
485.842	1362.38
486.299	1290.48
486.755	1223.78
487.212	1025.88
487.668	876.68
488.125	800.38
488.582	735.58
489.038	699.48
489.494	671.68
489.951	644.88
490.407	627.58
490.864	609.48
491.32	606.68
491.776	592.48
492.233	605.68
492.689	571.08
493.145	557.28
493.602	553.88
494.058	576.48
494.514	580.68
494.97	604.48
495.426	603.08
495.882	581.78
496.338	574.08
496.794	598.18
497.251	586.48
497.707	597.78
498.163	592.08
498.618	600.58
499.074	610.58
499.53	637.88
499.986	637.68
500.442	607.98
500.898	591.18
501.354	574.08
501.809	583.88
502.265	598.28
502.721	613.88
503.177	626.18
503.632	617.18
504.088	628.58
504.543	663.28
504.999	668.08
505.455	614.78
505.91	588.28
506.366	593.28
506.821	583.08
507.277	584.48
507.732	576.38
508.187	578.18
508.643	595.08
509.098	588.98
509.553	609.18
510.009	617.38
510.464	619.58
510.919	638.38
511.375	635.98
511.83	654.38
512.285	670.78
512.74	712.88
513.195	737.98
513.65	723.28
514.105	719.78
514.56	728.58
515.015	744.28
515.47	745.78
515.925	739.98
516.38	740.98
516.835	744.18
517.29	738.28
517.745	726.88
518.2	719.68
518.655	699.58
519.109	697.78
519.564	700.78
520.019	681.78
520.474	674.68
520.928	680.18
521.383	674.68
521.838	669.98
522.292	663.48
522.747	656.98
523.201	650.28
523.656	644.58
524.11	646.28
524.565	642.78
525.019	633.98
525.474	647.68
525.928	651.08
526.382	650.28
526.837	647.88
527.291	655.78
527.745	642.18
528.2	643.58
528.654	645.98
529.108	641.48
529.562	637.28
530.016	636.48
530.47	643.58
530.925	639.68
531.379	642.18
531.833	657.38
532.287	638.78
532.741	649.58
533.195	660.98
533.649	663.48
534.103	659.08
534.556	663.88
535.01	664.78
535.464	654.58
535.918	670.08
536.372	662.08
536.826	669.28
537.279	656.78
537.733	655.08
538.187	663.78
538.64	657.68
539.094	677.88
539.548	672.88
540.001	678.28
540.455	659.18
540.908	668.48
541.362	689.38
541.815	689.48
542.269	691.18
542.722	694.18
543.175	713.78
543.629	705.28
544.082	721.48
544.536	720.78
544.989	732.18
545.442	731.28
545.895	724.68
546.349	728.08
546.802	721.88
547.255	732.38
547.708	740.78
548.161	745.78
548.614	745.18
549.067	755.58
549.52	750.88
549.973	739.18
550.426	746.78
550.879	726.98
551.332	726.18
551.785	734.08
552.238	737.18
552.691	742.28
553.144	754.48
553.596	784.88
554.049	794.48
554.502	816.88
554.955	835.28
555.407	829.78
555.86	829.88
556.313	818.88
556.765	807.98
557.218	809.68
557.67	818.18
558.123	803.98
558.576	797.08
559.028	791.88
559.48	802.08
559.933	794.68
560.385	761.18
560.838	732.18
561.29	718.88
561.742	713.58
562.195	694.38
562.647	682.78
563.099	697.68
563.551	704.68
564.004	714.58
564.456	708.98
564.908	701.58
565.36	679.38
565.812	670.08
566.264	664.18
566.716	655.38
567.168	642.78
567.62	659.58
568.072	649.68
568.524	630.68
568.976	621.78
569.428	617.98
569.88	606.98
570.332	612.88
570.784	622.58
571.235	606.98
571.687	623.98
572.139	636.98
572.59	647.38
573.042	644.28
573.494	653.48
573.945	632.78
574.397	618.98
574.849	620.28
575.3	628.68
575.752	626.88
576.203	611.38
576.655	620.08
577.106	615.58
577.557	600.28
578.009	598.88
578.46	593.78
578.912	601.58
579.363	597.38
579.814	605.18
580.265	588.88
580.717	595.98
581.168	601.48
581.619	614.98
582.07	610.28
582.521	608.28
582.972	611.08
583.423	607.68
583.875	606.58
584.326	632.48
584.777	673.78
585.227	744.98
585.678	824.68
586.129	919.68
586.58	995.08
587.031	1055.78
587.482	1238.48
587.933	1413.98
588.384	1206.08
588.834	889.38
589.285	723.68
589.736	705.28
590.186	693.78
590.637	683.58
591.088	654.08
591.538	656.98
591.989	641.58
592.439	653.78
592.89	639.28
593.34	633.58
593.791	624.58
594.241	622.88
594.692	635.08
595.142	615.18
595.593	632.18
596.043	623.88
596.493	632.18
596.943	638.98
597.394	636.38
597.844	630.08
598.294	648.48
598.744	668.58
599.195	693.38
599.645	722.38
600.095	752.28
600.545	807.08
600.995	851.98
601.445	906.98
601.895	974.08
602.345	1007.68
602.795	987.08
603.245	949.28
603.695	910.78
604.145	845.18
604.594	795.08
605.044	765.98
605.494	711.58
605.944	672.98
606.393	654.58
606.843	640.68
607.293	652.38
607.743	647.28
608.192	655.38
608.642	674.08
609.091	676.18
609.541	689.98
609.99	678.88
610.44	670.38
610.889	636.28
611.339	608.98
611.788	607.38
612.238	615.98
612.687	628.38
613.136	629.98
613.586	656.48
614.035	650.68
614.484	663.48
614.933	671.08
615.383	658.78
615.832	646.18
616.281	641.08
616.73	604.08
617.179	570.88
617.628	564.18
618.077	561.38
618.526	542.18
618.975	535.08
619.424	550.08
619.873	534.18
620.322	537.88
620.771	528.28
621.22	524.48
621.669	512.88
622.118	516.98
622.567	511.98
623.015	495.28
623.464	490.58
623.913	486.68
624.361	481.78
624.81	478.98
625.259	485.78
625.707	482.88
626.156	478.28
626.604	492.18
627.053	484.78
627.501	492.38
627.95	494.48
628.398	503.18
628.847	495.68
629.295	493.88
629.744	487.18
630.192	495.58
630.64	500.78
631.089	488.48
631.537	503.38
631.985	506.68
632.433	524.68
632.881	523.18
633.33	573.38
633.778	547.38
634.226	489.98
634.674	490.78
635.122	500.68
635.57	506.08
636.018	544.08
636.466	504.88
636.914	489.38
637.362	495.38
637.81	501.68
638.258	500.08
638.705	494.48
639.153	513.48
639.601	531.68
640.049	554.28
640.497	583.78
640.944	598.48
641.392	560.78
641.84	532.98
642.287	505.68
642.735	493.58
643.182	483.78
643.63	502.68
644.078	494.58
644.525	508.98
644.973	517.68
645.42	523.78
645.867	532.08
646.315	544.88
646.762	565.98
647.21	588.48
647.657	615.68
648.104	642.18
648.551	670.18
648.999	722.68
649.446	785.38
649.893	863.68
650.34	995.18
650.787	1185.68
651.234	1459.38
651.682	1917.18
652.129	2627.88
652.576	3782.48
653.023	5629.68
653.47	7732.38
653.917	9843.28
654.363	11495.58
654.81	12944.98
655.257	12283.88
655.704	7919.38
656.151	4630.58
656.598	2998.68
657.044	2120.58
657.491	1621.98
657.938	1295.78
658.385	1071.48
658.831	936.88
659.278	839.18
659.724	731.98
660.171	683.88
660.618	627.38
661.064	586.58
661.511	566.78
661.957	565.08
662.404	553.38
662.85	548.98
663.296	526.98
663.743	489.68
664.189	459.78
664.635	457.98
665.082	450.28
665.528	455.58
665.974	442.48
666.42	433.98
666.867	429.38
667.313	427.88
667.759	412.18
668.205	408.68
668.651	416.48
669.097	418.98
669.543	431.28
669.989	396.38
670.435	385.88
670.881	377.98
671.327	383.68
671.773	394.78
672.219	415.28
672.665	459.78
673.11	489.28
673.556	534.48
674.002	577.68
674.448	561.78
674.893	469.48
675.339	404.88
675.785	372.08
676.23	357.98
676.676	334.48
677.122	324.38
677.567	315.48
678.013	308.38
678.458	306.28
678.904	308.68
679.349	287.88
679.794	301.58
680.24	298.48
680.685	290.98
681.131	298.28
681.576	294.68
682.021	301.88
682.466	287.98
682.912	295.88
683.357	292.38
683.802	319.08
684.247	341.88
684.692	384.78
685.137	417.78
685.583	447.38
686.028	479.18
686.473	442.38
686.918	381.08
687.363	347.78
687.807	339.98
688.252	301.28
688.697	304.48
689.142	286.18
689.587	281.58
690.032	273.38
690.477	287.68
690.921	291.78
691.366	315.58
691.811	333.28
692.255	362.68
692.7	392.88
693.145	426.38
693.589	576.28
694.034	933.08
694.478	1287.78
694.923	1481.68
695.367	1953.58
695.812	1028.58
696.256	422.58
696.701	309.58
697.145	290.58
697.59	270.98
698.034	272.18
698.478	284.28
698.922	272.08
699.367	276.38
699.811	287.48
700.255	299.98
700.699	322.58
701.143	359.38
701.588	406.58
702.032	436.28
702.476	434.58
702.92	414.38
703.364	407.28
703.808	521.68
704.252	849.68
704.696	1199.28
705.14	1431.68
705.584	1830.58
706.027	908.38
706.471	438.88
706.915	337.58
707.359	293.38
707.803	273.08
708.246	258.48
708.69	258.28
709.134	259.68
709.577	260.88
710.021	268.18
710.465	261.28
710.908	245.58
711.352	253.68
711.795	259.08
712.239	289.68
712.682	326.38
713.126	352.48
713.569	393.28
714.012	314.38
714.456	278.68
714.899	249.98
715.342	236.48
715.786	218.08
716.229	215.88
716.672	216.68
717.115	207.88
717.558	205.98
718.002	208.58
718.445	220.28
718.888	236.68
719.331	244.38
719.774	258.28
720.217	249.38
720.66	236.88
721.103	220.78
721.546	213.78
721.989	205.38
722.432	188.68
722.874	192.68
723.317	190.88
723.76	193.18
724.203	206.68
724.645	261.98
725.088	368.68
725.531	478.08
725.974	548.88
726.416	476.48
726.859	256.18
727.301	209.98
727.744	194.98
728.187	197.38
728.629	203.68
729.071	203.08
729.514	214.88
729.956	226.28
730.399	240.38
730.841	238.38
731.283	225.78
731.726	226.98
732.168	209.58
732.61	221.78
733.053	240.48
733.495	255.28
733.937	295.38
734.379	331.58
734.821	362.68
735.263	450.48
735.705	683.08
736.148	1287.68
736.59	2138.08
737.032	2608.48
737.474	2127.58
737.916	674.38
738.357	358.48
738.799	271.38
739.241	239.38
739.683	238.28
740.125	242.98
740.567	247.88
741.008	260.48
741.45	260.98
741.892	261.68
742.334	290.58
742.775	311.48
743.217	286.78
743.658	225.68
744.1	218.18
744.542	212.48
744.983	257.88
745.425	290.98
745.866	289.68
746.307	236.88
746.749	240.78
747.19	266.78
747.632	365.08
748.073	695.88
748.514	1501.58
748.956	2396.08
749.397	2983.48
749.838	2476.08
750.279	2566.98
750.72	1277.58
751.162	450.68
751.603	262.68
752.044	210.48
752.485	175.78
752.926	173.68
753.367	162.08
753.808	156.28
754.249	152.18
754.69	148.48
755.131	148.08
755.572	148.98
756.013	140.68
756.453	155.98
756.894	157.48
757.335	157.38
757.776	160.18
758.216	161.88
758.657	162.98
759.098	158.58
759.538	185.88
759.979	215.98
760.42	298.28
760.86	570.68
761.301	1449.68
761.741	3638.68
762.182	5577.48
762.622	3914.68
763.063	1101.38
763.503	449.88
763.943	290.38
764.384	293.48
764.824	358.08
765.264	399.88
765.705	268.28
766.145	173.08
766.585	158.38
767.025	155.58
767.465	159.98
767.906	201.28
768.346	279.58
768.786	302.38
769.226	217.38
769.666	265.08
770.106	494.08
770.546	1240.28
770.986	2256.38
771.426	2059.58
771.866	674.28
772.306	270.68
772.745	178.28
773.185	147.68
773.625	147.08
774.065	141.08
774.505	163.98
774.944	256.98
775.384	574.88
775.824	1084.98
776.263	1085.48
776.703	456.08
777.142	192.08
777.582	132.88
778.021	111.88
778.461	118.58
778.9	115.88
779.34	119.28
779.779	95.58
780.219	97.78
780.658	91.58
781.097	97.68
781.537	97.48
781.976	92.18
782.415	82.98
782.855	84.28
783.294	88.78
783.733	87.78
784.172	94.68
784.611	87.38
785.05	87.68
785.489	94.18
785.928	105.88
786.367	104.18
786.806	100.38
787.245	111.98
787.684	113.88
788.123	124.48
788.562	107.68
789.001	107.58
789.44	103.28
789.879	96.98
790.317	93.48
790.756	104.28
791.195	105.18
791.634	125.28
792.072	172.88
792.511	298.78
792.95	806.88
793.388	1819.38
793.827	1688.88
794.265	574.68
794.704	234.58
795.142	152.38
795.581	127.88
796.019	111.78
796.458	110.58
796.896	103.98
797.334	110.28
797.773	126.18
798.211	181.88
798.649	355.78
799.087	831.88
799.526	1332.08
799.964	1679.78
800.402	1737.58
800.84	644.78
801.278	254.78
801.716	155.78
802.154	122.48
802.592	119.98
803.03	118.48
803.468	106.68
803.906	120.38
804.344	127.38
804.782	113.98
805.22	111.68
805.658	102.68
806.096	120.08
806.533	126.58
806.971	145.98
807.409	180.78
807.847	255.08
808.284	535.38
808.722	1533.38
809.16	2824.68
809.597	2597.68
810.035	4570.98
810.472	5109.58
810.91	1804.68
811.347	672.18
811.785	333.88
812.222	218.48
812.66	164.78
813.097	131.38
813.535	115.68
813.972	106.58
814.409	99.28
814.846	91.48
815.284	93.58
815.721	88.68
816.158	92.68
816.595	93.98
817.032	149.18
817.47	173.58
817.907	151.68
818.344	129.78
818.781	100.08
819.218	81.08
819.655	97.48
820.092	152.48
820.529	188.18
820.966	150.38
821.403	114.28
821.839	91.68
822.276	93.68
822.713	107.78
823.15	114.58
823.587	99.18
824.023	120.58
824.46	236.08
824.897	733.88
825.333	1172.68
825.77	494.88
826.206	190.08
826.643	109.58
827.08	81.68
827.516	69.58
827.953	58.48
828.389	68.48
828.825	54.28
829.262	59.78
829.698	49.28
830.135	45.48
830.571	45.68
831.007	47.78
831.443	54.18
831.88	56.68
832.316	49.78
832.752	52.98
833.188	53.68
833.624	54.08
834.06	52.28
834.497	56.58
834.933	59.98
835.369	67.28
835.805	49.88
836.241	59.68
836.677	66.38
837.112	69.18
837.548	73.98
837.984	108.68
838.42	158.58
838.856	396.88
839.292	1245.48
839.727	1995.68
840.163	919.38
840.599	753.28
841.034	1705.98
841.47	1851.88
841.906	666.38
842.341	271.68
842.777	194.38
843.212	274.68
843.648	277.28
844.083	132.78
844.519	77.18
844.954	65.18
845.39	42.58
845.825	45.78
846.261	46.68
846.696	49.68
847.131	39.48
847.566	50.38
848.002	43.68
848.437	46.78
848.872	49.68
849.307	48.38
849.742	73.18
850.177	141.48
850.613	467.38
851.048	756.88
851.483	319.88
851.918	127.68
852.353	67.38
852.788	54.18
853.223	46.28
853.657	47.88
854.092	37.98
854.527	36.78
854.962	35.18
855.397	33.98
855.832	43.68
856.266	32.58
856.701	28.08
857.136	28.58
857.57	33.98
858.005	39.68
858.44	50.98
858.874	42.68
859.309	46.58
859.743	32.28
860.178	40.58
860.612	34.68
861.047	46.98
861.481	59.58
861.915	61.58
862.35	38.68
862.784	26.38
863.218	37.38
863.653	25.88
864.087	39.98
864.521	41.28
864.955	60.28
865.39	128.58
865.824	145.28
866.258	97.78
866.692	143.38
867.126	157.28
867.56	92.18
867.994	49.98
868.428	30.38
868.862	40.18
869.296	42.68
869.73	43.38
870.164	44.48
870.598	36.18
871.031	28.08
871.465	21.88
871.899	21.18
872.333	18.88
872.766	19.58
873.2	18.18
873.634	28.48
874.067	22.78
874.501	26.08
874.935	29.48
875.368	24.38
875.802	18.38
876.235	17.68
876.669	17.68
877.102	20.18
877.535	15.88
877.969	14.98
878.402	16.08
878.836	13.78
879.269	19.98
879.702	23.18
880.135	16.08
880.569	12.68
881.002	27.58
881.435	17.18
881.868	16.28
882.301	18.48
882.734	12.08
883.167	23.68
883.601	15.68
884.034	17.88
884.467	9.48
884.899	15.78
885.332	14.98
885.765	7.78
886.198	13.38
886.631	13.88
887.064	16.78
887.497	21.08
887.929	17.58
888.362	10.98
888.795	6.08
889.228	16.38
889.66	13.88
890.093	16.78
890.526	9.38
890.958	12.78
891.391	18.08
891.823	20.18
892.256	11.08
892.688	12.08
893.121	9.28
893.553	12.08
893.985	18.48
894.418	9.68
894.85	8.88
895.282	14.48
895.715	13.78
896.147	11.38
896.579	13.78
897.011	15.98
897.444	15.98
897.876	1.78
898.308	10.48
898.74	7.58
899.172	12.78
899.604	16.98
900.036	18.78
900.468	10.48
900.9	15.28
901.332	15.38
901.764	13.38
902.196	19.28
902.628	11.48
903.06	10.58
903.491	22.38
903.923	17.28
904.355	16.28
904.787	22.38
905.218	16.58
905.65	9.98
906.082	13.88
906.513	11.28
906.945	16.08
907.376	15.98
907.808	13.88
908.239	17.18
908.671	19.48
909.102	23.08
909.534	23.48
909.965	36.38
910.397	78.18
910.828	268.58
911.259	425.38
911.691	185.48
912.122	91.18
912.553	43.78
912.984	31.88
913.415	25.68
913.847	24.48
914.278	15.08
914.709	12.48
915.14	11.58
915.571	12.28
916.002	11.48
916.433	9.88
916.864	10.98
917.295	6.58
917.726	15.38
918.157	8.48
918.587	23.88
919.018	16.38
919.449	18.58
919.88	16.08
920.311	18.28
920.741	38.18
921.172	140.18
921.603	127.88
922.033	57.18
922.464	39.28
922.895	19.88
923.325	19.18
923.756	11.68
924.186	11.68
924.617	24.48
925.047	37.38
925.478	45.08
925.908	37.98
926.338	22.98
926.769	17.38
927.199	19.58
927.629	6.58
928.06	12.88
928.49	14.58
928.92	9.98
929.35	7.68
929.78	10.08
930.21	6.18
930.641	7.18
931.071	6.98
931.501	2.28
931.931	4.78
932.361	10.98
932.791	2.58
933.221	2.88
933.651	-2.82
934.08	19.58
934.51	24.18
934.94	5.78
935.37	10.38
935.8	8.98
936.229	4.48
936.659	12.98
937.089	3.78
937.519	13.58
937.948	26.28
938.378	19.38
938.807	3.58
939.237	3.68
939.666	12.78
940.096	-4.92
940.525	-1.02
940.955	4.98
941.384	-0.32
941.814	-5.52
942.243	0.88
942.672	1.48
943.102	-3.72
943.531	-1.72
943.96	1.88
944.39	4.38
944.819	0.58
945.248	3.38
945.677	0.48
946.106	6.58
946.535	-0.72
946.964	-5.12
947.393	3.18
947.822	4.38
948.251	-4.22
948.68	7.38
949.109	3.38
949.538	8.38
949.967	-5.22
950.396	-2.02
950.825	-2.22
951.254	-8.42
951.682	-10.42
952.111	3.98
952.54	1.48
952.969	-1.02
953.397	-6.02
953.826	0.28
954.254	-2.52
954.683	2.38
955.112	-1.82
955.54	-0.62
955.969	0.98
956.397	2.28
956.826	-1.42
957.254	0.48
957.682	0.88
958.111	3.98
958.539	-3.12
958.967	-1.52
959.396	-0.82
959.824	0.38
960.252	-1.62
960.68	-7.32
961.109	-4.32
961.537	-5.92
961.965	2.58
962.393	-4.72
962.821	-2.82
963.249	1.38
963.677	-0.22
964.105	3.38
964.533	35.98
964.961	29.28
965.389	20.58
965.817	7.78
966.245	1.28
966.672	-5.42
967.1	-11.02
967.528	-2.32
967.956	-5.02
968.383	-0.12
968.811	-7.32
969.239	-4.52
969.666	-0.22
970.094	4.08
970.522	2.78
970.949	2.58
971.377	-3.92
971.804	-5.82
972.232	0.88
972.659	2.98
973.087	-4.82
973.514	2.68
973.941	-3.42
974.369	5.38
974.796	5.08
975.223	-0.12
975.651	-5.02
976.078	1.18
976.505	-0.32
976.932	10.98
977.359	13.28
977.786	6.68
978.214	-2.52
978.641	-6.02
979.068	-0.22
979.495	-10.72
979.922	-5.42
980.349	-6.52
980.776	0.28
981.202	-2.92
981.629	4.48
982.056	4.08
982.483	0.18
982.91	-1.12
983.337	-5.82
983.763	1.88
984.19	-2.42
984.617	-6.12
985.043	-9.62
985.47	-1.62
985.897	-0.52
986.323	-10.62
986.75	4.68
987.176	1.18
987.603	2.88
988.029	-0.92
988.456	-0.22
988.882	6.48
989.308	-12.72
989.735	-4.82
990.161	2.28
990.587	-8.72
991.014	-3.22
991.44	6.68
991.866	-6.92
992.292	-2.02
992.719	-0.02
993.145	0.78
993.571	-9.02
993.997	-3.52
994.423	-1.42
994.849	-3.72
995.275	-2.22
995.701	-2.32
996.127	-6.62
996.553	1.58
996.979	-2.52
997.405	1.98
997.83	-10.82
998.256	-0.92
998.682	-8.92
999.108	-12.22
999.534	-5.92
999.959	0.48
1000.385	3.48
1000.811	4.08
1001.236	-11.62
1001.662	-7.62
1002.087	-4.82
1002.513	0.28
1002.938	0.58
1003.364	-1.62
1003.789	1.58
1004.215	5.28
1004.64	-4.22
1005.066	0.88
1005.491	0.28
1005.916	0.88
1006.342	-7.92
1006.767	-12.32
1007.192	5.58
1007.617	-1.12
1008.042	-4.72
1008.468	-5.72
1008.893	-4.62
1009.318	-4.82
1009.743	-3.12
1010.168	4.78
1010.593	1.18
1011.018	-7.92
1011.443	0.88
1011.868	4.98
1012.293	-4.22
1012.718	-5.72
1013.143	-1.22
1013.567	1.28
1013.992	-8.82
1014.417	-13.62
1014.842	7.48
1015.267	-8.62
1015.691	-3.52
1016.116	7.68
1016.541	-2.02
1016.965	4.98
1017.39	1.28
1017.814	-1.52
1018.239	-2.72
1018.663	-13.22
1019.088	-12.42
1019.512	-5.32
1019.937	1.68
1020.361	0.18
1020.785	-4.42
1021.21	-0.42
1021.634	2.18
1022.058	3.78
1022.483	1.48
1022.907	-1.32
1023.331	-7.82
1023.755	-2.72
1024.179	-3.12
1024.604	-6.62
1025.028	-3.92
1025.452	-6.72
1025.876	-4.02
1026.3	2.78
1026.724	-7.02
1027.148	-9.02
1027.572	-10.92
1027.996	-5.12
1028.42	0.68
1028.843	-4.12
1029.267	-3.62
1029.691	-2.22
1030.115	-4.22
1030.539	-6.82
1030.962	-4.52
1031.386	-7.72
1031.81	-1.52
1032.233	-0.92
1032.657	1.58
1033.08	1.78
1033.504	-3.52
1033.927	-6.22
1034.351	-1.52
1034.774	-4.82
1035.198	0.68
1035.621	-6.32
1036.045	-6.12
1036.468	0.28
1036.891	-8.12
1037.315	-12.42
1037.738	-11.02
1038.161	5.08
1038.584	-8.22
1039.008	-2.12
1039.431	-4.32
1039.854	0.78
1040.277	-7.72
1040.7	-8.32
1041.123	0.48
1041.546	-5.12
1041.969	-3.82
1042.392	-5.12
1042.815	2.08
1043.238	-4.62
1043.661	0.08
1044.084	0.28
1044.507	-5.62
1044.93	-3.92
1045.352	-5.02
1045.775	-4.62
1046.198	-2.52
1046.621	2.48
1047.043	-5.22
1047.466	4.78
1047.889	-9.92
1048.311	-5.92
1048.734	-2.82
1049.156	-4.22
1049.579	-0.92
1050.001	-3.52
1050.424	0.68
1050.846	-1.22
1051.269	-4.82
1051.691	-5.52
1052.113	-5.82
1052.536	-1.02
1052.958	-3.92
1053.38	-5.12
1053.802	-12.22
1054.225	1.48
1054.647	-8.92
1055.069	-2.22
1055.491	6.28
1055.913	-7.52
1056.335	4.58
1056.757	-0.82
1057.179	-9.32
1057.601	-7.62
1058.023	-6.32
1058.445	-7.32
1058.867	-6.22
1059.289	-1.32
1059.711	-8.72
1060.133	-2.32
1060.555	-3.82
1060.976	-5.52
1061.398	-0.62
1061.82	-2.32
1062.241	-1.32
1062.663	-3.52
1063.085	-1.22
1063.506	3.88
1063.928	-5.02
1064.35	-3.22
1064.771	-4.22
1065.193	1.78
1065.614	-6.82
1066.035	-3.32
1066.457	-3.92
1066.878	-1.32
1067.3	-8.82
1067.721	-5.42
1068.142	0.98
1068.564	-5.62
1068.985	-4.52
1069.406	-9.12
1069.827	-3.62
1070.248	-0.22
1070.67	-4.22
1071.091	-7.92
1071.512	-2.62
1071.933	-5.82
1072.354	-6.72
1072.775	-12.22
1073.196	-10.82
1073.617	-7.62
1074.038	-4.82
1074.459	-4.32
1074.88	-6.32
1075.3	-2.42
1075.721	-4.22
1076.142	1.98
1076.563	-3.62
1076.983	-7.52
1077.404	-7.32
1077.825	-14.92
1078.246	-4.42
1078.666	-12.82
1079.087	-5.82
1079.507	-11.32
1079.928	2.68
1080.348	-0.82
1080.769	-13.22
1081.189	-1.32
1081.61	-4.32
1082.03	-5.52
1082.451	-9.02
1082.871	-8.02
1083.291	-4.72
1083.711	-8.42
1084.132	-3.42
1084.552	-5.72
1084.972	0.38
1085.392	-5.02
1085.813	-11.92
1086.233	0.68
1086.653	-6.72
1087.073	0.98
1087.493	-7.22
1087.913	-4.82
1088.333	-5.82
1088.753	-4.02
1089.173	7.48
1089.593	-4.42
1090.013	-1.62
1090.433	-1.22
1090.852	-5.02
1091.272	-4.22
1091.692	-2.82
1092.112	-3.72
1092.531	-10.32
1092.951	-15.02
1093.371	1.38
1093.79	0.58
1094.21	-4.72
1094.63	-3.92
1095.049	-4.52
1095.469	-5.72
1095.888	-6.62
1096.308	-2.12
1096.727	3.88
1097.146	-10.02
1097.566	-5.42
1097.985	-4.92
1098.405	-4.42
1098.824	-10.32
1099.243	-8.42
1099.662	-7.02
1100.082	-7.22
1100.501	0.48
1100.92	-9.62
1101.339	-7.52
1101.758	-2.92
