Data from 20171114-ORNL-Ar_H_NY_Subt18_08-06-04-355.txt Node
Date: Tue Nov 14 08:06:04 EST 2017
User: Ender
Spectrometer: HR+D1039
Trigger mode: 0
Integration Time (sec): 2.730000E-2
Scans to average: 10
Electric dark correction enabled: true
Nonlinearity correction enabled: false
Boxcar width: 0
XAxis mode: Wavelengths
Number of Pixels in Spectrum: 2048
>>>>>Begin Spectral Data<<<<<
187.836	-4.01
188.309	-4.01
188.782	-4.01
189.255	-0.11
189.728	1.19
190.201	4.09
190.674	2.89
191.147	-0.81
191.619	-4.21
192.092	4.39
192.565	2.69
193.038	-4.81
193.511	0.99
193.984	-3.11
194.456	-2.71
194.929	1.89
195.402	-0.91
195.874	2.49
196.347	-5.91
196.82	-10.01
197.292	3.69
197.765	-7.31
198.237	-1.21
198.71	5.39
199.182	-1.81
199.655	2.99
200.127	4.89
200.6	-7.51
201.072	3.19
201.544	-4.91
202.017	-3.51
202.489	3.19
202.961	-0.31
203.433	0.39
203.906	-5.31
204.378	-6.41
204.85	-5.41
205.322	-10.01
205.794	0.49
206.266	-4.71
206.739	-6.61
207.211	2.99
207.683	-4.21
208.155	-6.71
208.627	-5.51
209.099	-3.91
209.57	-3.21
210.042	-0.61
210.514	-5.41
210.986	0.19
211.458	-4.61
211.93	-3.81
212.402	4.29
212.873	-3.21
213.345	-7.71
213.817	-5.01
214.288	-2.01
214.76	-7.41
215.232	-5.41
215.703	-5.61
216.175	0.69
216.646	-6.81
217.118	-9.21
217.589	-5.21
218.061	-1.71
218.532	-9.61
219.004	-3.11
219.475	-3.41
219.946	-7.11
220.418	-3.61
220.889	6.69
221.36	4.99
221.832	-5.41
222.303	-10.31
222.774	-0.41
223.245	-9.41
223.717	-7.51
224.188	-6.81
224.659	-1.81
225.13	-3.91
225.601	-9.41
226.072	-3.21
226.543	-0.71
227.014	1.79
227.485	2.89
227.956	-6.11
228.427	-3.71
228.898	1.89
229.369	4.89
229.839	-0.71
230.31	-1.11
230.781	0.79
231.252	-8.51
231.722	1.19
232.193	1.49
232.664	-3.61
233.135	1.09
233.605	0.39
234.076	-3.11
234.546	2.49
235.017	7.79
235.487	-1.91
235.958	-0.01
236.428	-9.11
236.899	1.49
237.369	1.29
237.84	-5.91
238.31	9.29
238.78	3.99
239.251	0.69
239.721	2.69
240.191	1.29
240.662	-2.61
241.132	1.39
241.602	-2.31
242.072	5.59
242.542	6.09
243.013	-3.51
243.483	0.49
243.953	1.29
244.423	2.49
244.893	-4.91
245.363	6.79
245.833	0.59
246.303	0.49
246.773	8.09
247.243	4.09
247.712	6.19
248.182	5.09
248.652	9.89
249.122	1.49
249.592	12.09
250.061	24.49
250.531	34.19
251.001	18.29
251.471	23.29
251.94	20.29
252.41	9.59
252.879	3.49
253.349	12.59
253.818	8.19
254.288	7.69
254.757	6.19
255.227	-0.81
255.696	2.39
256.166	6.39
256.635	4.39
257.105	9.39
257.574	6.09
258.043	14.49
258.513	14.59
258.982	19.19
259.451	12.39
259.92	11.49
260.389	13.59
260.859	11.59
261.328	11.69
261.797	18.69
262.266	8.99
262.735	10.99
263.204	5.89
263.673	2.59
264.142	6.79
264.611	-2.41
265.08	-3.71
265.549	1.49
266.018	10.29
266.487	-0.11
266.955	-1.21
267.424	0.29
267.893	7.99
268.362	4.89
268.83	6.69
269.299	14.99
269.768	7.79
270.236	11.19
270.705	3.99
271.174	9.09
271.642	11.09
272.111	11.19
272.579	21.59
273.048	20.59
273.516	28.69
273.985	27.39
274.453	20.99
274.922	21.59
275.39	15.09
275.858	8.19
276.327	16.39
276.795	20.29
277.263	14.49
277.731	33.49
278.2	51.59
278.668	60.29
279.136	51.99
279.604	27.09
280.072	18.69
280.54	9.19
281.008	10.49
281.477	20.09
281.945	15.69
282.413	15.79
282.881	17.49
283.348	8.39
283.816	14.99
284.284	13.09
284.752	20.49
285.22	14.29
285.688	17.89
286.156	22.59
286.623	49.09
287.091	56.09
287.559	30.09
288.026	24.89
288.494	19.69
288.962	6.39
289.429	11.39
289.897	19.49
290.364	14.99
290.832	20.49
291.3	15.99
291.767	16.69
292.234	27.29
292.702	17.99
293.169	16.59
293.637	25.89
294.104	25.69
294.571	15.89
295.039	8.49
295.506	21.39
295.973	25.59
296.44	17.39
296.908	21.39
297.375	23.59
297.842	22.29
298.309	13.19
298.776	13.29
299.243	24.59
299.71	13.59
300.177	24.09
300.644	17.99
301.111	26.69
301.578	27.89
302.045	15.69
302.512	23.89
302.979	24.19
303.446	29.09
303.913	18.09
304.379	19.69
304.846	29.09
305.313	31.69
305.78	22.79
306.246	30.79
306.713	24.49
307.18	31.19
307.646	29.79
308.113	31.49
308.579	27.59
309.046	26.59
309.512	22.69
309.979	15.19
310.445	27.09
310.912	26.89
311.378	28.99
311.845	30.69
312.311	38.19
312.777	34.19
313.244	30.79
313.71	39.49
314.176	29.49
314.642	31.59
315.109	34.09
315.575	41.99
316.041	43.29
316.507	33.49
316.973	46.79
317.439	35.39
317.905	40.79
318.371	39.29
318.837	37.79
319.303	34.99
319.769	37.79
320.235	41.79
320.701	36.19
321.167	42.69
321.633	37.69
322.099	44.59
322.564	45.19
323.03	36.29
323.496	38.39
323.962	42.39
324.427	39.79
324.893	48.59
325.359	37.39
325.824	44.39
326.29	39.49
326.755	41.39
327.221	41.29
327.686	48.19
328.152	54.79
328.617	43.29
329.083	50.39
329.548	54.29
330.014	50.99
330.479	43.29
330.944	46.09
331.41	48.89
331.875	52.99
332.34	45.19
332.805	48.49
333.271	51.89
333.736	44.99
334.201	55.69
334.666	51.79
335.131	49.19
335.596	52.09
336.061	52.49
336.526	40.89
336.991	47.29
337.456	59.09
337.921	53.59
338.386	50.39
338.851	42.19
339.316	43.39
339.781	47.49
340.246	60.99
340.711	50.09
341.175	51.19
341.64	52.59
342.105	52.99
342.569	55.19
343.034	62.49
343.499	56.29
343.963	60.39
344.428	66.29
344.893	63.99
345.357	69.09
345.822	64.79
346.286	67.39
346.751	73.49
347.215	70.59
347.679	80.19
348.144	100.39
348.608	83.79
349.073	73.89
349.537	73.89
350.001	84.19
350.465	93.69
350.93	86.89
351.394	83.89
351.858	81.09
352.322	95.59
352.786	91.09
353.25	105.69
353.715	115.79
354.179	108.89
354.643	124.99
355.107	130.09
355.571	113.69
356.035	108.89
356.498	125.39
356.962	127.79
357.426	143.89
357.89	125.79
358.354	94.19
358.818	86.09
359.281	81.39
359.745	81.09
360.209	83.89
360.673	79.19
361.136	86.49
361.6	84.59
362.064	84.49
362.527	92.99
362.991	97.19
363.454	79.69
363.918	81.39
364.381	82.79
364.845	83.89
365.308	88.09
365.772	89.89
366.235	94.89
366.698	95.99
367.162	86.39
367.625	89.09
368.088	95.69
368.552	97.49
369.015	94.59
369.478	102.79
369.941	108.19
370.404	98.69
370.867	105.89
371.331	115.69
371.794	121.59
372.257	117.29
372.72	122.09
373.183	121.59
373.646	106.59
374.109	101.49
374.572	112.99
375.035	109.69
375.497	117.29
375.96	111.89
376.423	113.69
376.886	124.09
377.349	119.09
377.811	112.69
378.274	104.39
378.737	112.29
379.199	121.69
379.662	120.29
380.125	122.79
380.587	126.09
381.05	125.29
381.512	142.99
381.975	139.29
382.437	127.89
382.9	127.89
383.362	140.49
383.825	149.79
384.287	151.09
384.75	146.09
385.212	138.79
385.674	142.49
386.136	143.59
386.599	134.29
387.061	134.79
387.523	132.89
387.985	139.29
388.447	153.69
388.91	145.99
389.372	167.29
389.834	156.39
390.296	154.59
390.758	159.09
391.22	169.59
391.682	216.29
392.144	307.49
392.606	233.19
393.068	173.89
393.529	172.39
393.991	156.29
394.453	155.49
394.915	158.39
395.377	199.69
395.838	212.59
396.3	163.09
396.762	151.99
397.224	143.69
397.685	138.19
398.147	137.79
398.608	135.49
399.07	137.79
399.531	147.49
399.993	151.59
400.454	162.49
400.916	155.49
401.377	154.99
401.839	160.59
402.3	161.19
402.762	164.89
403.223	192.89
403.684	176.39
404.145	167.09
404.607	173.39
405.068	180.19
405.529	174.09
405.99	195.59
406.451	178.89
406.913	179.39
407.374	176.39
407.835	171.99
408.296	174.39
408.757	179.79
409.218	202.19
409.679	186.49
410.14	185.39
410.601	185.69
411.062	194.39
411.522	196.39
411.983	210.79
412.444	182.19
412.905	185.69
413.366	186.59
413.826	208.09
414.287	228.59
414.748	271.59
415.208	257.59
415.669	223.89
416.13	214.59
416.59	212.99
417.051	219.69
417.511	231.79
417.972	249.59
418.432	262.69
418.893	299.39
419.353	261.79
419.814	207.69
420.274	190.89
420.734	185.19
421.195	205.09
421.655	203.39
422.115	196.69
422.576	203.19
423.036	207.09
423.496	216.79
423.956	231.29
424.416	244.39
424.876	279.09
425.336	270.69
425.797	275.09
426.257	264.39
426.717	257.59
427.177	243.69
427.637	236.09
428.097	245.99
428.556	258.09
429.016	280.49
429.476	282.69
429.936	287.89
430.396	294.49
430.856	305.09
431.315	326.79
431.775	361.89
432.235	389.39
432.694	364.79
433.154	381.19
433.614	417.39
434.073	355.59
434.533	304.59
434.993	283.69
435.452	300.79
435.912	317.59
436.371	302.29
436.83	296.39
437.29	277.39
437.749	261.89
438.209	256.19
438.668	288.99
439.127	297.09
439.587	277.19
440.046	259.09
440.505	272.69
440.964	294.29
441.424	335.79
441.883	329.39
442.342	275.69
442.801	236.19
443.26	233.49
443.719	233.09
444.178	233.79
444.637	229.19
445.096	229.99
445.555	234.29
446.014	230.39
446.473	237.69
446.932	249.79
447.391	244.09
447.849	234.59
448.308	231.99
448.767	231.39
449.226	244.39
449.685	247.19
450.143	262.79
450.602	250.89
451.061	234.89
451.519	250.19
451.978	245.79
452.436	248.79
452.895	251.49
453.353	263.49
453.812	247.39
454.27	249.69
454.729	250.79
455.187	251.49
455.646	254.29
456.104	262.29
456.562	275.19
457.021	274.69
457.479	275.89
457.937	284.49
458.395	278.99
458.854	262.19
459.312	267.29
459.77	283.99
460.228	271.19
460.686	254.69
461.144	261.09
461.602	257.79
462.06	254.89
462.518	263.59
462.976	265.79
463.434	264.29
463.892	274.79
464.35	287.79
464.808	311.79
465.266	283.89
465.724	287.99
466.181	279.09
466.639	283.79
467.097	303.39
467.555	312.49
468.012	316.09
468.47	323.99
468.928	346.99
469.385	360.69
469.843	359.09
470.3	358.89
470.758	384.39
471.215	393.29
471.673	419.59
472.13	421.09
472.588	439.09
473.045	382.99
473.503	395.59
473.96	419.89
474.417	421.39
474.875	461.49
475.332	490.29
475.789	488.89
476.246	488.99
476.704	511.09
477.161	526.79
477.618	535.49
478.075	582.99
478.532	647.19
478.989	709.29
479.446	836.39
479.903	802.09
480.36	845.69
480.817	907.69
481.274	1005.89
481.731	1124.69
482.188	1211.39
482.645	1345.29
483.102	1450.39
483.558	1588.09
484.015	1641.29
484.472	1627.89
484.929	1573.79
485.385	1525.29
485.842	1479.19
486.299	1414.89
486.755	1340.69
487.212	1144.99
487.668	958.79
488.125	880.09
488.582	812.49
489.038	773.89
489.494	742.29
489.951	711.59
490.407	695.09
490.864	665.59
491.32	678.79
491.776	662.89
492.233	676.49
492.689	629.79
493.145	623.99
493.602	619.49
494.058	629.39
494.514	641.69
494.97	664.59
495.426	684.19
495.882	651.39
496.338	647.89
496.794	645.99
497.251	647.69
497.707	663.19
498.163	648.69
498.618	659.39
499.074	666.49
499.53	697.29
499.986	698.49
500.442	677.59
500.898	656.69
501.354	651.79
501.809	660.89
502.265	680.99
502.721	681.99
503.177	691.09
503.632	683.19
504.088	698.49
504.543	735.09
504.999	741.89
505.455	678.59
505.91	652.59
506.366	654.69
506.821	648.79
507.277	643.39
507.732	648.19
508.187	637.49
508.643	660.89
509.098	667.89
509.553	681.29
510.009	686.49
510.464	699.49
510.919	710.49
511.375	715.39
511.83	720.19
512.285	746.69
512.74	781.39
513.195	809.69
513.65	797.29
514.105	793.59
514.56	785.09
515.015	813.99
515.47	827.89
515.925	817.79
516.38	804.49
516.835	814.49
517.29	805.79
517.745	811.19
518.2	781.19
518.655	781.69
519.109	771.19
519.564	762.49
520.019	752.89
520.474	755.19
520.928	766.39
521.383	740.49
521.838	735.19
522.292	732.59
522.747	727.19
523.201	730.29
523.656	716.09
524.11	719.59
524.565	712.79
525.019	721.59
525.474	722.59
525.928	729.49
526.382	718.19
526.837	723.69
527.291	723.89
527.745	722.79
528.2	715.19
528.654	702.89
529.108	706.29
529.562	706.19
530.016	707.29
530.47	709.89
530.925	716.19
531.379	718.99
531.833	727.59
532.287	726.19
532.741	726.09
533.195	721.59
533.649	737.89
534.103	731.19
534.556	726.59
535.01	729.29
535.464	729.59
535.918	738.39
536.372	741.89
536.826	727.29
537.279	726.89
537.733	741.19
538.187	745.89
538.64	734.69
539.094	748.79
539.548	749.69
540.001	750.49
540.455	747.99
540.908	760.39
541.362	763.89
541.815	767.09
542.269	775.39
542.722	781.59
543.175	793.99
543.629	786.49
544.082	812.09
544.536	807.59
544.989	799.49
545.442	820.79
545.895	807.29
546.349	810.89
546.802	815.89
547.255	822.59
547.708	831.39
548.161	836.09
548.614	847.79
549.067	857.19
549.52	838.39
549.973	836.09
550.426	820.29
550.879	809.49
551.332	817.79
551.785	831.79
552.238	821.39
552.691	842.39
553.144	853.39
553.596	866.69
554.049	892.49
554.502	912.89
554.955	931.99
555.407	936.09
555.86	932.59
556.313	917.59
556.765	908.49
557.218	900.49
557.67	905.59
558.123	907.19
558.576	894.69
559.028	889.69
559.48	904.89
559.933	902.39
560.385	854.09
560.838	834.39
561.29	809.89
561.742	814.49
562.195	780.29
562.647	785.09
563.099	800.09
563.551	795.89
564.004	806.99
564.456	790.99
564.908	777.89
565.36	762.99
565.812	748.59
566.264	732.39
566.716	752.49
567.168	728.59
567.62	739.29
568.072	724.89
568.524	710.69
568.976	718.79
569.428	697.39
569.88	698.29
570.332	697.49
570.784	694.79
571.235	699.69
571.687	707.29
572.139	716.29
572.59	726.49
573.042	728.69
573.494	737.19
573.945	719.89
574.397	695.69
574.849	697.89
575.3	708.99
575.752	699.49
576.203	684.49
576.655	694.09
577.106	680.79
577.557	681.79
578.009	683.29
578.46	680.39
578.912	679.69
579.363	675.29
579.814	687.89
580.265	679.49
580.717	684.79
581.168	687.29
581.619	689.89
582.07	689.49
582.521	692.39
582.972	687.09
583.423	696.09
583.875	703.89
584.326	717.39
584.777	762.49
585.227	838.39
585.678	929.29
586.129	1003.59
586.58	1068.49
587.031	1156.79
587.482	1317.79
587.933	1495.39
588.384	1305.09
588.834	975.09
589.285	824.39
589.736	797.99
590.186	802.09
590.637	775.29
591.088	764.69
591.538	752.29
591.989	742.69
592.439	733.89
592.89	728.69
593.34	719.09
593.791	720.29
594.241	723.59
594.692	725.99
595.142	719.59
595.593	710.39
596.043	722.39
596.493	726.99
596.943	729.09
597.394	725.59
597.844	719.49
598.294	735.69
598.744	766.99
599.195	789.19
599.645	819.69
600.095	859.09
600.545	922.69
600.995	975.99
601.445	1027.69
601.895	1099.69
602.345	1137.29
602.795	1117.19
603.245	1083.09
603.695	1035.79
604.145	975.59
604.594	930.89
605.044	879.79
605.494	809.79
605.944	765.39
606.393	749.79
606.843	739.19
607.293	749.49
607.743	734.79
608.192	759.99
608.642	769.99
609.091	782.89
609.541	781.19
609.99	779.99
610.44	782.29
610.889	731.99
611.339	709.09
611.788	698.79
612.238	710.49
612.687	720.59
613.136	723.09
613.586	737.19
614.035	737.79
614.484	765.79
614.933	766.99
615.383	759.69
615.832	746.69
616.281	731.79
616.73	692.99
617.179	672.79
617.628	659.89
618.077	639.99
618.526	629.49
618.975	624.99
619.424	622.59
619.873	617.39
620.322	625.49
620.771	619.89
621.22	612.09
621.669	592.79
622.118	596.89
622.567	588.09
623.015	586.29
623.464	582.29
623.913	575.29
624.361	553.79
624.81	558.19
625.259	558.69
625.707	560.69
626.156	566.19
626.604	569.09
627.053	572.69
627.501	567.39
627.95	572.49
628.398	578.29
628.847	580.69
629.295	577.69
629.744	574.59
630.192	575.29
630.64	578.89
631.089	574.79
631.537	582.89
631.985	584.69
632.433	603.79
632.881	604.79
633.33	659.79
633.778	654.09
634.226	573.59
634.674	575.99
635.122	589.59
635.57	594.89
636.018	627.29
636.466	587.69
636.914	565.09
637.362	568.09
637.81	580.49
638.258	573.49
638.705	582.19
639.153	611.29
639.601	624.09
640.049	646.39
640.497	668.39
640.944	698.99
641.392	649.49
641.84	613.79
642.287	588.49
642.735	564.99
643.182	575.79
643.63	577.79
644.078	582.29
644.525	594.19
644.973	598.29
645.42	601.69
645.867	616.69
646.315	644.39
646.762	668.29
647.21	694.19
647.657	715.19
648.104	747.49
648.551	777.69
648.999	845.49
649.446	926.99
649.893	1007.89
650.34	1168.59
650.787	1388.69
651.234	1730.59
651.682	2238.99
652.129	3068.29
652.576	4455.69
653.023	6553.39
653.47	8950.69
653.917	11207.69
654.363	12983.49
654.81	14341.49
655.257	13651.49
655.704	8945.09
656.151	5293.69
656.598	3429.79
657.044	2428.29
657.491	1880.39
657.938	1511.79
658.385	1248.09
658.831	1080.89
659.278	966.89
659.724	856.09
660.171	796.69
660.618	724.19
661.064	693.79
661.511	668.09
661.957	656.19
662.404	642.99
662.85	648.89
663.296	630.99
663.743	559.79
664.189	537.29
664.635	536.99
665.082	528.59
665.528	535.39
665.974	525.79
666.42	511.39
666.867	512.29
667.313	491.99
667.759	479.09
668.205	477.89
668.651	486.59
669.097	484.89
669.543	491.19
669.989	470.79
670.435	457.29
670.881	447.89
671.327	450.09
671.773	464.59
672.219	490.09
672.665	541.79
673.11	577.89
673.556	629.49
674.002	665.89
674.448	655.19
674.893	545.49
675.339	470.29
675.785	443.89
676.23	422.89
676.676	390.89
677.122	386.09
677.567	367.09
678.013	363.39
678.458	358.29
678.904	361.29
679.349	348.09
679.794	353.99
680.24	349.49
680.685	350.19
681.131	351.89
681.576	343.59
682.021	347.39
682.466	347.79
682.912	344.49
683.357	350.69
683.802	382.59
684.247	406.69
684.692	451.39
685.137	490.39
685.583	536.39
686.028	556.99
686.473	513.79
686.918	443.39
687.363	416.69
687.807	389.69
688.252	363.19
688.697	346.19
689.142	327.19
689.587	333.79
690.032	324.09
690.477	337.89
690.921	350.59
691.366	380.09
691.811	400.39
692.255	423.09
692.7	448.99
693.145	490.49
693.589	684.19
694.034	1116.69
694.478	1517.89
694.923	1721.59
695.367	2257.99
695.812	1195.99
696.256	492.79
696.701	364.59
697.145	342.49
697.59	331.39
698.034	320.49
698.478	334.59
698.922	318.59
699.367	329.39
699.811	340.99
700.255	353.19
700.699	374.89
701.143	420.99
701.588	469.39
702.032	513.09
702.476	502.49
702.92	485.79
703.364	482.59
703.808	625.09
704.252	1018.09
704.696	1438.79
705.14	1648.59
705.584	2121.99
706.027	1058.59
706.471	511.59
706.915	385.49
707.359	348.19
707.803	318.09
708.246	306.09
708.69	311.79
709.134	320.69
709.577	307.19
710.021	315.49
710.465	308.89
710.908	290.29
711.352	298.19
711.795	313.99
712.239	348.89
712.682	382.69
713.126	416.29
713.569	459.29
714.012	367.19
714.456	320.29
714.899	298.69
715.342	274.79
715.786	252.19
716.229	257.59
716.672	254.69
717.115	247.79
717.558	248.59
718.002	252.29
718.445	260.09
718.888	276.59
719.331	291.59
719.774	314.69
720.217	304.69
720.66	283.79
721.103	265.29
721.546	252.49
721.989	239.99
722.432	228.49
722.874	241.99
723.317	232.79
723.76	237.99
724.203	261.79
724.645	309.49
725.088	437.79
725.531	563.69
725.974	636.19
726.416	540.69
726.859	303.19
727.301	241.59
727.744	230.19
728.187	227.59
728.629	235.99
729.071	240.49
729.514	258.89
729.956	271.59
730.399	272.99
730.841	278.19
731.283	266.09
731.726	267.49
732.168	257.59
732.61	263.39
733.053	282.09
733.495	307.59
733.937	349.89
734.379	388.69
734.821	440.79
735.263	532.99
735.705	813.79
736.148	1533.59
736.59	2526.99
737.032	3033.79
737.474	2462.39
737.916	791.49
738.357	433.39
738.799	330.29
739.241	297.39
739.683	286.59
740.125	284.39
740.567	296.19
741.008	309.29
741.45	312.19
741.892	311.19
742.334	340.59
742.775	348.59
743.217	338.79
743.658	267.69
744.1	250.59
744.542	253.19
744.983	308.39
745.425	343.59
745.866	340.19
746.307	270.89
746.749	279.09
747.19	316.89
747.632	444.39
748.073	845.69
748.514	1821.79
748.956	2793.49
749.397	3516.39
749.838	2919.69
750.279	2930.09
750.72	1479.29
751.162	538.69
751.603	319.69
752.044	249.49
752.485	219.09
752.926	207.99
753.367	200.19
753.808	188.49
754.249	193.69
754.69	187.89
755.131	178.79
755.572	183.69
756.013	184.49
756.453	184.39
756.894	185.79
757.335	187.89
757.776	197.09
758.216	195.59
758.657	198.19
759.098	195.79
759.538	224.89
759.979	261.09
760.42	370.89
760.86	692.09
761.301	1761.99
761.741	4313.29
762.182	6364.09
762.622	4482.79
763.063	1297.09
763.503	531.19
763.943	336.89
764.384	330.59
764.824	390.99
765.264	423.69
765.705	293.39
766.145	207.69
766.585	182.99
767.025	174.59
767.465	187.39
767.906	232.19
768.346	311.49
768.786	324.99
769.226	255.49
769.666	318.39
770.106	602.69
770.546	1514.09
770.986	2618.19
771.426	2357.89
771.866	783.49
772.306	332.99
772.745	206.39
773.185	172.89
773.625	169.09
774.065	161.49
774.505	193.79
774.944	296.49
775.384	642.69
775.824	1172.19
776.263	1160.29
776.703	493.09
777.142	219.39
777.582	152.09
778.021	136.59
778.461	140.59
778.9	133.99
779.34	135.59
779.779	114.79
780.219	111.49
780.658	108.49
781.097	116.39
781.537	118.29
781.976	113.19
782.415	108.09
782.855	105.89
783.294	105.19
783.733	109.49
784.172	107.59
784.611	103.69
785.05	109.69
785.489	109.09
785.928	119.69
786.367	123.19
786.806	115.39
787.245	128.89
787.684	132.39
788.123	144.29
788.562	133.19
789.001	123.29
789.44	117.39
789.879	121.39
790.317	119.09
790.756	130.19
791.195	131.49
791.634	150.99
792.072	197.49
792.511	364.79
792.95	980.39
793.388	2102.09
793.827	1928.29
794.265	664.39
794.704	276.69
795.142	181.39
795.581	151.29
796.019	134.99
796.458	127.89
796.896	121.09
797.334	126.99
797.773	144.09
798.211	214.89
798.649	433.49
799.087	1002.59
799.526	1561.49
799.964	1973.99
800.402	1997.89
800.84	747.19
801.278	295.49
801.716	179.29
802.154	156.69
802.592	145.89
803.03	138.79
803.468	135.79
803.906	148.99
804.344	140.89
804.782	135.89
805.22	133.69
805.658	126.49
806.096	150.99
806.533	149.79
806.971	169.89
807.409	220.29
807.847	305.99
808.284	638.19
808.722	1814.49
809.16	3242.19
809.597	3020.89
810.035	5316.89
810.472	5705.29
810.91	2068.09
811.347	779.59
811.785	396.49
812.222	251.49
812.66	194.19
813.097	165.09
813.535	135.29
813.972	122.29
814.409	120.99
814.846	105.69
815.284	107.79
815.721	98.19
816.158	105.19
816.595	122.89
817.032	181.49
817.47	193.19
817.907	161.59
818.344	143.29
818.781	115.99
819.218	106.19
819.655	123.69
820.092	183.89
820.529	211.79
820.966	175.19
821.403	129.99
821.839	102.19
822.276	102.99
822.713	116.89
823.15	127.49
823.587	115.79
824.023	141.49
824.46	294.29
824.897	869.49
825.333	1347.89
825.77	570.69
826.206	225.79
826.643	134.99
827.08	102.59
827.516	79.49
827.953	69.59
828.389	79.99
828.825	72.69
829.262	67.99
829.698	64.59
830.135	60.89
830.571	57.49
831.007	66.09
831.443	67.29
831.88	63.59
832.316	60.09
832.752	67.59
833.188	64.89
833.624	62.09
834.06	68.69
834.497	69.99
834.933	76.99
835.369	73.09
835.805	70.69
836.241	78.39
836.677	77.29
837.112	92.99
837.548	104.79
837.984	133.89
838.42	189.49
838.856	475.89
839.292	1479.39
839.727	2281.39
840.163	1055.69
840.599	907.69
841.034	1981.39
841.47	2092.59
841.906	764.39
842.341	331.09
842.777	223.49
843.212	304.79
843.648	305.49
844.083	145.79
844.519	80.39
844.954	78.19
845.39	59.09
845.825	56.49
846.261	56.69
846.696	51.89
847.131	55.09
847.566	56.99
848.002	53.79
848.437	58.29
848.872	56.49
849.307	62.89
849.742	82.19
850.177	177.09
850.613	543.79
851.048	865.79
851.483	378.29
851.918	141.69
852.353	87.89
852.788	60.59
853.223	50.59
853.657	63.99
854.092	50.09
854.527	42.49
854.962	41.69
855.397	43.59
855.832	50.39
856.266	45.89
856.701	40.99
857.136	37.19
857.57	35.89
858.005	52.09
858.44	62.99
858.874	44.49
859.309	53.39
859.743	40.79
860.178	52.59
860.612	39.89
861.047	52.69
861.481	69.79
861.915	67.79
862.35	46.99
862.784	35.19
863.218	35.39
863.653	41.19
864.087	49.79
864.521	57.99
864.955	72.79
865.39	157.89
865.824	178.49
866.258	106.79
866.692	159.39
867.126	168.19
867.56	104.59
867.994	52.59
868.428	33.69
868.862	48.29
869.296	55.29
869.73	53.69
870.164	53.79
870.598	45.49
871.031	37.49
871.465	28.29
871.899	24.59
872.333	19.49
872.766	25.49
873.2	24.39
873.634	31.49
874.067	29.49
874.501	26.09
874.935	33.79
875.368	29.19
875.802	31.69
876.235	32.19
876.669	26.49
877.102	25.59
877.535	28.69
877.969	26.79
878.402	27.29
878.836	15.79
879.269	24.69
879.702	25.79
880.135	25.29
880.569	20.59
881.002	26.89
881.435	17.99
881.868	11.99
882.301	15.99
882.734	21.49
883.167	23.49
883.601	24.49
884.034	29.29
884.467	9.69
884.899	20.89
885.332	13.99
885.765	13.69
886.198	17.99
886.631	21.39
887.064	16.89
887.497	15.19
887.929	27.29
888.362	12.69
888.795	10.39
889.228	23.09
889.66	15.79
890.093	14.99
890.526	18.19
890.958	13.59
891.391	15.09
891.823	21.39
892.256	7.99
892.688	13.99
893.121	9.39
893.553	19.29
893.985	20.29
894.418	18.69
894.85	11.69
895.282	13.59
895.715	17.79
896.147	11.49
896.579	8.99
897.011	13.79
897.444	16.89
897.876	13.39
898.308	18.29
898.74	16.59
899.172	18.29
899.604	23.89
900.036	18.79
900.468	14.79
900.9	17.39
901.332	19.79
901.764	13.29
902.196	26.09
902.628	21.79
903.06	18.79
903.491	26.79
903.923	22.59
904.355	16.39
904.787	23.29
905.218	22.79
905.65	13.69
906.082	12.99
906.513	13.59
906.945	21.19
907.376	14.89
907.808	24.49
908.239	14.49
908.671	20.99
909.102	18.29
909.534	21.39
909.965	43.59
910.397	87.39
910.828	307.69
911.259	469.99
911.691	213.19
912.122	106.49
912.553	51.19
912.984	29.19
913.415	20.59
913.847	23.89
914.278	14.59
914.709	15.69
915.14	15.89
915.571	18.69
916.002	11.19
916.433	14.39
916.864	15.89
917.295	12.69
917.726	23.79
918.157	16.79
918.587	34.19
919.018	23.39
919.449	21.49
919.88	23.19
920.311	30.59
920.741	50.29
921.172	159.69
921.603	150.19
922.033	63.39
922.464	44.89
922.895	22.29
923.325	24.09
923.756	17.19
924.186	15.19
924.617	25.39
925.047	43.99
925.478	51.99
925.908	38.49
926.338	26.79
926.769	16.49
927.199	21.39
927.629	9.39
928.06	18.39
928.49	20.49
928.92	19.09
929.35	13.69
929.78	10.39
930.21	8.49
930.641	12.29
931.071	9.49
931.501	7.29
931.931	12.29
932.361	8.39
932.791	5.89
933.221	6.49
933.651	8.39
934.08	16.79
934.51	27.69
934.94	11.09
935.37	7.99
935.8	12.39
936.229	7.29
936.659	11.19
937.089	2.09
937.519	13.39
937.948	26.79
938.378	11.79
938.807	1.49
939.237	-1.11
939.666	4.59
940.096	-5.51
940.525	6.69
940.955	3.59
941.384	2.59
941.814	-3.21
942.243	-6.31
942.672	4.99
943.102	-0.61
943.531	2.59
943.96	4.29
944.39	6.19
944.819	1.89
945.248	4.29
945.677	-0.81
946.106	2.19
946.535	11.19
946.964	-1.81
947.393	6.19
947.822	0.79
948.251	-4.31
948.68	3.69
949.109	8.89
949.538	6.99
949.967	2.19
950.396	3.69
950.825	1.29
951.254	4.99
951.682	-1.41
952.111	3.59
952.54	4.49
952.969	-3.31
953.397	-1.51
953.826	0.49
954.254	-7.81
954.683	-0.11
955.112	-2.11
955.54	-1.11
955.969	-2.51
956.397	4.29
956.826	-4.81
957.254	1.89
957.682	0.39
958.111	3.89
958.539	-3.51
958.967	1.29
959.396	-6.91
959.824	-0.11
960.252	4.59
960.68	-7.31
961.109	-1.51
961.537	-7.01
961.965	-4.21
962.393	6.09
962.821	3.69
963.249	-1.01
963.677	0.59
964.105	5.19
964.533	41.49
964.961	37.49
965.389	24.89
965.817	7.59
966.245	3.39
966.672	-0.91
967.1	-3.91
967.528	-1.81
967.956	-3.21
968.383	-2.01
968.811	-3.41
969.239	-4.91
969.666	-8.11
970.094	2.09
970.522	6.69
970.949	-0.31
971.377	-5.81
971.804	-6.01
972.232	-8.61
972.659	2.69
973.087	-2.71
973.514	0.89
973.941	-10.11
974.369	1.19
974.796	-2.01
975.223	-5.51
975.651	-6.21
976.078	2.19
976.505	3.19
976.932	3.79
977.359	12.89
977.786	12.59
978.214	-0.51
978.641	0.89
979.068	-0.91
979.495	-6.41
979.922	1.59
980.349	-5.91
980.776	4.29
981.202	3.39
981.629	-0.41
982.056	2.19
982.483	-6.51
982.91	0.79
983.337	-4.61
983.763	3.79
984.19	-7.11
984.617	-4.11
985.043	-6.21
985.47	-5.01
985.897	-3.31
986.323	-8.31
986.75	3.49
987.176	2.79
987.603	5.29
988.029	5.09
988.456	-4.41
988.882	2.89
989.308	-3.21
989.735	-2.21
990.161	1.79
990.587	-4.41
991.014	6.49
991.44	3.19
991.866	2.39
992.292	-2.91
992.719	-1.61
993.145	1.69
993.571	-10.31
993.997	-1.61
994.423	-1.61
994.849	-5.01
995.275	0.89
995.701	0.79
996.127	-3.11
996.553	4.29
996.979	-2.01
997.405	-0.71
997.83	-3.81
998.256	-0.41
998.682	-2.71
999.108	-7.41
999.534	-1.71
999.959	8.29
1000.385	-3.61
1000.811	-4.11
1001.236	-5.01
1001.662	-7.91
1002.087	-11.71
1002.513	-0.01
1002.938	4.29
1003.364	-0.51
1003.789	-1.91
1004.215	4.69
1004.64	2.59
1005.066	2.49
1005.491	-0.01
1005.916	1.69
1006.342	-6.01
1006.767	-7.01
1007.192	-0.11
1007.617	-1.81
1008.042	-4.31
1008.468	-7.01
1008.893	-8.11
1009.318	2.29
1009.743	-1.31
1010.168	-1.71
1010.593	1.59
1011.018	-1.01
1011.443	-3.11
1011.868	1.69
1012.293	-5.41
1012.718	-8.81
1013.143	1.79
1013.567	4.69
1013.992	-3.51
1014.417	-13.31
1014.842	5.49
1015.267	0.59
1015.691	-6.41
1016.116	-3.91
1016.541	-0.41
1016.965	-1.21
1017.39	3.89
1017.814	4.49
1018.239	-2.71
1018.663	-7.51
1019.088	-7.31
1019.512	0.39
1019.937	5.89
1020.361	-1.41
1020.785	-12.11
1021.21	-4.41
1021.634	-4.81
1022.058	1.89
1022.483	2.59
1022.907	-4.01
1023.331	-5.91
1023.755	-4.81
1024.179	2.59
1024.604	-4.71
1025.028	-5.31
1025.452	0.09
1025.876	-1.81
1026.3	-2.31
1026.724	-11.61
1027.148	-4.01
1027.572	-7.91
1027.996	2.69
1028.42	3.99
1028.843	-8.11
1029.267	-4.01
1029.691	-2.71
1030.115	-6.31
1030.539	-8.71
1030.962	-3.21
1031.386	-10.01
1031.81	1.69
1032.233	-2.11
1032.657	-0.31
1033.08	3.99
1033.504	0.09
1033.927	-8.11
1034.351	-1.91
1034.774	-4.81
1035.198	-3.01
1035.621	-10.01
1036.045	-10.31
1036.468	-0.11
1036.891	-10.81
1037.315	-8.11
1037.738	-9.21
1038.161	-0.31
1038.584	-6.21
1039.008	-5.11
1039.431	-9.01
1039.854	-2.91
1040.277	-9.21
1040.7	-6.11
1041.123	-0.11
1041.546	-5.81
1041.969	-3.71
1042.392	-7.61
1042.815	-1.41
1043.238	1.09
1043.661	-4.21
1044.084	-5.41
1044.507	-6.91
1044.93	-2.81
1045.352	-10.51
1045.775	-0.91
1046.198	-2.71
1046.621	2.09
1047.043	-2.61
1047.466	11.69
1047.889	-10.11
1048.311	-7.01
1048.734	-6.91
1049.156	-4.51
1049.579	-0.91
1050.001	-2.11
1050.424	-1.31
1050.846	1.49
1051.269	-8.01
1051.691	-6.31
1052.113	-2.51
1052.536	2.99
1052.958	-1.21
1053.38	-1.01
1053.802	-5.61
1054.225	-3.11
1054.647	-8.21
1055.069	-3.81
1055.491	0.19
1055.913	-8.21
1056.335	-0.51
1056.757	-7.51
1057.179	-7.51
1057.601	-0.81
1058.023	-3.01
1058.445	-3.21
1058.867	-6.21
1059.289	-5.61
1059.711	-1.61
1060.133	4.09
1060.555	-7.51
1060.976	-5.71
1061.398	-2.81
1061.82	-1.71
1062.241	-5.31
1062.663	-6.61
1063.085	-3.41
1063.506	-1.61
1063.928	-5.61
1064.35	-0.41
1064.771	-10.91
1065.193	-8.01
1065.614	-5.01
1066.035	-1.01
1066.457	-2.11
1066.878	-0.01
1067.3	-4.81
1067.721	1.09
1068.142	-5.31
1068.564	-1.91
1068.985	-7.51
1069.406	-0.41
1069.827	2.89
1070.248	0.69
1070.67	-0.61
1071.091	-7.61
1071.512	-2.71
1071.933	-9.21
1072.354	-1.31
1072.775	-4.81
1073.196	-9.01
1073.617	1.69
1074.038	-9.41
1074.459	-2.71
1074.88	-9.21
1075.3	-1.91
1075.721	-8.31
1076.142	-4.41
1076.563	-1.51
1076.983	-2.81
1077.404	-6.31
1077.825	-6.61
1078.246	-5.61
1078.666	-10.81
1079.087	-2.11
1079.507	-6.01
1079.928	1.49
1080.348	2.89
1080.769	-1.41
1081.189	-4.31
1081.61	-3.51
1082.03	-5.01
1082.451	-6.11
1082.871	-2.31
1083.291	-9.61
1083.711	-10.81
1084.132	-0.31
1084.552	-4.91
1084.972	-3.71
1085.392	-9.41
1085.813	-13.41
1086.233	-6.81
1086.653	-2.81
1087.073	-0.31
1087.493	-8.81
1087.913	-3.81
1088.333	-6.01
1088.753	-2.61
1089.173	-0.71
1089.593	-4.71
1090.013	-1.61
1090.433	-0.51
1090.852	-5.71
1091.272	0.19
1091.692	-4.11
1092.112	0.89
1092.531	-11.51
1092.951	-12.11
1093.371	0.09
1093.79	4.39
1094.21	-7.71
1094.63	-8.31
1095.049	-6.51
1095.469	-2.91
1095.888	-5.31
1096.308	-1.21
1096.727	7.49
1097.146	-5.41
1097.566	-1.61
1097.985	-7.71
1098.405	-3.91
1098.824	-3.51
1099.243	-7.51
1099.662	-3.71
1100.082	-4.11
1100.501	-0.01
1100.92	-10.81
1101.339	-5.11
1101.758	-3.71
