Data from 20171114-ORNL-Ar_H_NY_Subt18_08-09-13-860.txt Node
Date: Tue Nov 14 08:09:13 EST 2017
User: Ender
Spectrometer: HR+D1039
Trigger mode: 0
Integration Time (sec): 2.730000E-2
Scans to average: 10
Electric dark correction enabled: true
Nonlinearity correction enabled: false
Boxcar width: 0
XAxis mode: Wavelengths
Number of Pixels in Spectrum: 2048
>>>>>Begin Spectral Data<<<<<
187.836	-5.22
188.309	-5.22
188.782	-5.22
189.255	2.68
189.728	-0.42
190.201	5.18
190.674	4.88
191.147	7.38
191.619	-4.42
192.092	-1.52
192.565	5.68
193.038	2.88
193.511	0.88
193.984	-6.42
194.456	0.38
194.929	-2.62
195.402	-4.92
195.874	-4.42
196.347	-1.52
196.82	-5.52
197.292	3.78
197.765	-1.42
198.237	-7.62
198.71	6.68
199.182	-1.42
199.655	1.98
200.127	2.78
200.6	-6.72
201.072	-4.72
201.544	-1.12
202.017	-2.12
202.489	3.68
202.961	-2.82
203.433	2.38
203.906	-6.62
204.378	-9.42
204.85	-3.42
205.322	-8.22
205.794	-5.22
206.266	-3.92
206.739	-8.72
207.211	-3.22
207.683	-3.32
208.155	-5.82
208.627	-7.92
209.099	2.08
209.57	-9.22
210.042	-5.52
210.514	-7.82
210.986	-6.02
211.458	-14.32
211.93	-7.72
212.402	1.28
212.873	-11.22
213.345	-8.92
213.817	-9.62
214.288	-1.42
214.76	-10.22
215.232	0.18
215.703	-4.82
216.175	-7.52
216.646	-6.22
217.118	-6.92
217.589	-7.62
218.061	-3.42
218.532	-7.62
219.004	-3.62
219.475	-6.52
219.946	-4.52
220.418	-6.82
220.889	3.78
221.36	0.88
221.832	-3.82
222.303	-16.62
222.774	-4.02
223.245	-16.72
223.717	-9.72
224.188	-6.22
224.659	-8.82
225.13	-8.62
225.601	-2.22
226.072	-0.92
226.543	-0.82
227.014	-4.32
227.485	-2.72
227.956	-9.52
228.427	-4.22
228.898	-2.02
229.369	-1.22
229.839	-4.32
230.31	-3.72
230.781	0.38
231.252	-2.72
231.722	-3.62
232.193	-7.62
232.664	-4.72
233.135	-7.32
233.605	-4.22
234.076	-11.12
234.546	-6.52
235.017	-2.12
235.487	-5.82
235.958	-5.72
236.428	-7.22
236.899	-7.82
237.369	2.38
237.84	-6.02
238.31	-6.82
238.78	-3.42
239.251	-7.72
239.721	-6.42
240.191	-3.42
240.662	-6.52
241.132	2.28
241.602	-6.72
242.072	-4.72
242.542	3.48
243.013	-2.12
243.483	-1.42
243.953	0.38
244.423	-2.62
244.893	-6.62
245.363	-0.02
245.833	-2.02
246.303	-1.92
246.773	1.08
247.243	-3.52
247.712	1.38
248.182	-1.62
248.652	3.38
249.122	-8.72
249.592	-1.02
250.061	4.58
250.531	10.48
251.001	-9.12
251.471	-0.92
251.94	8.68
252.41	-5.62
252.879	-10.12
253.349	9.38
253.818	-0.62
254.288	2.38
254.757	-1.82
255.227	-7.82
255.696	-2.02
256.166	2.98
256.635	0.58
257.105	1.08
257.574	-2.12
258.043	-4.42
258.513	-5.72
258.982	-1.12
259.451	0.48
259.92	-0.62
260.389	-7.62
260.859	9.28
261.328	2.78
261.797	-4.62
262.266	-6.22
262.735	7.98
263.204	-1.32
263.673	-3.72
264.142	-4.42
264.611	-8.42
265.08	-1.72
265.549	-10.12
266.018	-2.92
266.487	-9.22
266.955	-7.82
267.424	-4.42
267.893	0.08
268.362	-1.72
268.83	1.28
269.299	9.98
269.768	2.58
270.236	-2.02
270.705	-1.22
271.174	1.08
271.642	5.38
272.111	-7.72
272.579	2.78
273.048	0.88
273.516	0.38
273.985	3.58
274.453	4.58
274.922	1.58
275.39	3.68
275.858	-1.42
276.327	5.78
276.795	7.18
277.263	-4.92
277.731	-1.02
278.2	3.68
278.668	1.58
279.136	7.98
279.604	8.08
280.072	8.98
280.54	-0.72
281.008	2.78
281.477	5.78
281.945	7.78
282.413	10.28
282.881	7.18
283.348	-2.92
283.816	4.28
284.284	2.78
284.752	12.08
285.22	9.68
285.688	5.98
286.156	9.88
286.623	12.18
287.091	7.48
287.559	3.48
288.026	2.18
288.494	8.88
288.962	-2.92
289.429	0.48
289.897	16.58
290.364	5.98
290.832	10.08
291.3	6.28
291.767	6.98
292.234	7.48
292.702	6.88
293.169	9.38
293.637	8.08
294.104	11.78
294.571	0.68
295.039	8.68
295.506	7.68
295.973	13.48
296.44	11.98
296.908	7.98
297.375	10.18
297.842	6.28
298.309	2.98
298.776	5.88
299.243	10.38
299.71	7.28
300.177	10.28
300.644	7.88
301.111	9.98
301.578	13.38
302.045	10.68
302.512	11.38
302.979	19.08
303.446	15.08
303.913	9.78
304.379	9.98
304.846	19.08
305.313	15.98
305.78	17.18
306.246	13.88
306.713	14.48
307.18	13.98
307.646	13.08
308.113	17.18
308.579	10.68
309.046	13.88
309.512	21.58
309.979	6.78
310.445	19.38
310.912	20.88
311.378	25.28
311.845	15.98
312.311	19.98
312.777	20.98
313.244	24.78
313.71	27.18
314.176	23.28
314.642	21.88
315.109	16.58
315.575	21.58
316.041	20.48
316.507	14.38
316.973	23.28
317.439	23.68
317.905	26.68
318.371	29.98
318.837	21.08
319.303	18.48
319.769	20.68
320.235	20.48
320.701	25.98
321.167	28.98
321.633	18.58
322.099	27.48
322.564	24.38
323.03	22.88
323.496	20.68
323.962	21.88
324.427	24.98
324.893	30.48
325.359	27.08
325.824	25.58
326.29	26.68
326.755	32.98
327.221	34.68
327.686	31.58
328.152	34.78
328.617	30.98
329.083	36.68
329.548	36.68
330.014	34.08
330.479	30.68
330.944	35.18
331.41	31.78
331.875	35.78
332.34	34.18
332.805	27.48
333.271	29.28
333.736	32.38
334.201	37.08
334.666	44.08
335.131	40.88
335.596	40.68
336.061	36.88
336.526	32.18
336.991	31.28
337.456	45.98
337.921	38.08
338.386	39.88
338.851	34.08
339.316	31.88
339.781	33.68
340.246	34.28
340.711	38.88
341.175	36.78
341.64	34.58
342.105	39.98
342.569	44.18
343.034	36.58
343.499	39.58
343.963	39.88
344.428	53.98
344.893	48.68
345.357	45.78
345.822	46.78
346.286	56.08
346.751	56.88
347.215	52.38
347.679	49.78
348.144	67.08
348.608	62.48
349.073	54.78
349.537	60.68
350.001	60.88
350.465	65.78
350.93	68.08
351.394	70.38
351.858	60.18
352.322	69.68
352.786	66.28
353.25	71.78
353.715	84.08
354.179	78.98
354.643	92.88
355.107	92.18
355.571	81.58
356.035	78.68
356.498	86.08
356.962	84.28
357.426	98.88
357.89	88.88
358.354	76.18
358.818	65.78
359.281	63.18
359.745	57.48
360.209	63.88
360.673	61.28
361.136	65.68
361.6	68.98
362.064	63.88
362.527	71.48
362.991	74.58
363.454	70.08
363.918	70.48
364.381	74.68
364.845	72.08
365.308	74.18
365.772	74.98
366.235	78.88
366.698	67.18
367.162	78.78
367.625	82.18
368.088	75.78
368.552	75.38
369.015	73.98
369.478	79.68
369.941	85.68
370.404	77.98
370.867	82.38
371.331	88.18
371.794	94.88
372.257	81.28
372.72	94.48
373.183	90.88
373.646	90.28
374.109	87.38
374.572	93.38
375.035	88.58
375.497	87.08
375.96	94.78
376.423	86.78
376.886	99.28
377.349	90.48
377.811	89.38
378.274	91.08
378.737	86.78
379.199	95.18
379.662	96.38
380.125	104.08
380.587	94.18
381.05	96.78
381.512	105.58
381.975	115.08
382.437	107.98
382.9	101.28
383.362	106.28
383.825	115.78
384.287	112.48
384.75	107.68
385.212	113.68
385.674	122.98
386.136	120.58
386.599	105.58
387.061	113.48
387.523	109.48
387.985	112.28
388.447	117.38
388.91	111.58
389.372	112.98
389.834	117.08
390.296	113.78
390.758	121.68
391.22	124.68
391.682	133.38
392.144	147.48
392.606	139.58
393.068	132.08
393.529	139.18
393.991	132.18
394.453	121.08
394.915	125.98
395.377	124.78
395.838	131.38
396.3	125.38
396.762	133.98
397.224	126.88
397.685	122.68
398.147	124.18
398.608	125.58
399.07	121.08
399.531	130.38
399.993	131.78
400.454	138.68
400.916	135.48
401.377	134.58
401.839	140.48
402.3	140.68
402.762	155.88
403.223	167.78
403.684	164.78
404.145	148.18
404.607	156.58
405.068	156.48
405.529	153.58
405.99	173.08
406.451	161.68
406.913	162.38
407.374	158.68
407.835	154.48
408.296	163.48
408.757	163.58
409.218	175.48
409.679	170.78
410.14	167.08
410.601	167.98
411.062	176.38
411.522	178.78
411.983	168.78
412.444	162.48
412.905	178.68
413.366	183.98
413.826	196.88
414.287	215.88
414.748	256.58
415.208	240.78
415.669	209.18
416.13	210.28
416.59	200.58
417.051	206.98
417.511	216.08
417.972	243.18
418.432	244.08
418.893	289.98
419.353	253.78
419.814	196.68
420.274	183.88
420.734	183.88
421.195	196.48
421.655	188.58
422.115	192.08
422.576	192.88
423.036	200.18
423.496	204.28
423.956	215.78
424.416	221.98
424.876	262.58
425.336	257.08
425.797	251.68
426.257	244.28
426.717	235.78
427.177	233.58
427.637	218.48
428.097	227.18
428.556	242.28
429.016	259.98
429.476	254.88
429.936	266.28
430.396	260.58
430.856	275.88
431.315	305.38
431.775	329.48
432.235	368.28
432.694	340.08
433.154	346.48
433.614	371.18
434.073	319.28
434.533	272.48
434.993	254.78
435.452	272.88
435.912	279.68
436.371	275.38
436.83	268.68
437.29	256.28
437.749	254.08
438.209	249.08
438.668	268.98
439.127	281.28
439.587	261.08
440.046	246.88
440.505	257.78
440.964	270.38
441.424	310.78
441.883	296.68
442.342	259.08
442.801	223.08
443.26	223.78
443.719	230.18
444.178	220.48
444.637	212.98
445.096	223.78
445.555	230.48
446.014	231.98
446.473	233.48
446.932	239.48
447.391	235.38
447.849	225.98
448.308	221.98
448.767	220.28
449.226	240.48
449.685	242.58
450.143	251.88
450.602	245.88
451.061	236.48
451.519	242.68
451.978	243.88
452.436	236.98
452.895	239.58
453.353	253.48
453.812	238.08
454.27	240.18
454.729	247.28
455.187	247.58
455.646	249.38
456.104	247.78
456.562	258.98
457.021	265.78
457.479	266.08
457.937	274.18
458.395	269.18
458.854	251.18
459.312	254.08
459.77	278.08
460.228	255.08
460.686	251.08
461.144	246.78
461.602	250.58
462.06	242.88
462.518	259.98
462.976	257.68
463.434	262.58
463.892	271.68
464.35	279.48
464.808	287.08
465.266	276.68
465.724	278.18
466.181	281.18
466.639	277.68
467.097	293.18
467.555	307.38
468.012	309.58
468.47	316.98
468.928	334.98
469.385	342.98
469.843	353.28
470.3	351.18
470.758	377.48
471.215	392.38
471.673	404.68
472.13	410.38
472.588	428.98
473.045	373.68
473.503	385.78
473.96	405.18
474.417	406.58
474.875	434.68
475.332	477.28
475.789	464.58
476.246	479.48
476.704	491.68
477.161	510.18
477.618	527.38
478.075	562.38
478.532	613.38
478.989	677.08
479.446	791.68
479.903	756.28
480.36	787.08
480.817	832.38
481.274	924.98
481.731	1012.08
482.188	1074.28
482.645	1204.48
483.102	1294.18
483.558	1408.28
484.015	1462.18
484.472	1438.88
484.929	1391.78
485.385	1360.78
485.842	1309.38
486.299	1259.38
486.755	1232.28
487.212	1042.08
487.668	904.88
488.125	833.48
488.582	769.18
489.038	743.18
489.494	712.28
489.951	690.08
490.407	659.58
490.864	648.88
491.32	654.18
491.776	644.48
492.233	652.38
492.689	622.88
493.145	617.18
493.602	607.98
494.058	617.78
494.514	626.28
494.97	642.48
495.426	652.08
495.882	626.78
496.338	615.08
496.794	627.78
497.251	616.88
497.707	642.68
498.163	645.08
498.618	649.08
499.074	648.98
499.53	680.58
499.986	671.18
500.442	660.38
500.898	631.98
501.354	629.48
501.809	637.48
502.265	636.68
502.721	639.38
503.177	657.78
503.632	653.28
504.088	660.88
504.543	684.58
504.999	707.98
505.455	665.68
505.91	654.78
506.366	649.38
506.821	643.88
507.277	637.78
507.732	650.58
508.187	647.88
508.643	654.38
509.098	658.18
509.553	674.38
510.009	691.68
510.464	700.38
510.919	701.98
511.375	714.78
511.83	725.58
512.285	742.58
512.74	782.38
513.195	800.38
513.65	774.08
514.105	782.98
514.56	792.48
515.015	804.78
515.47	823.08
515.925	800.28
516.38	798.48
516.835	817.28
517.29	801.68
517.745	798.28
518.2	783.98
518.655	767.28
519.109	759.78
519.564	755.58
520.019	737.28
520.474	738.48
520.928	747.78
521.383	737.68
521.838	730.18
522.292	733.18
522.747	732.18
523.201	736.18
523.656	730.98
524.11	719.88
524.565	711.38
525.019	716.08
525.474	722.38
525.928	716.28
526.382	721.88
526.837	721.58
527.291	723.48
527.745	718.88
528.2	723.98
528.654	711.58
529.108	703.18
529.562	711.18
530.016	719.28
530.47	718.88
530.925	712.48
531.379	714.08
531.833	720.38
532.287	720.28
532.741	720.38
533.195	718.68
533.649	733.98
534.103	737.98
534.556	727.68
535.01	725.68
535.464	719.38
535.918	735.68
536.372	735.38
536.826	736.88
537.279	724.18
537.733	728.48
538.187	741.48
538.64	731.08
539.094	732.38
539.548	749.98
540.001	749.08
540.455	749.58
540.908	755.68
541.362	758.18
541.815	769.68
542.269	779.08
542.722	797.58
543.175	797.98
543.629	801.38
544.082	813.58
544.536	817.08
544.989	811.38
545.442	827.48
545.895	817.98
546.349	820.08
546.802	828.38
547.255	832.08
547.708	842.08
548.161	844.68
548.614	855.68
549.067	860.98
549.52	845.28
549.973	843.18
550.426	842.08
550.879	824.58
551.332	834.38
551.785	835.08
552.238	840.98
552.691	839.38
553.144	856.38
553.596	891.08
554.049	905.08
554.502	941.98
554.955	937.58
555.407	944.58
555.86	932.98
556.313	929.18
556.765	912.28
557.218	919.38
557.67	905.18
558.123	908.58
558.576	907.78
559.028	908.68
559.48	909.98
559.933	902.48
560.385	873.28
560.838	841.08
561.29	828.08
561.742	816.48
562.195	800.68
562.647	805.68
563.099	812.88
563.551	812.78
564.004	813.48
564.456	806.18
564.908	784.28
565.36	774.38
565.812	757.88
566.264	753.38
566.716	750.08
567.168	732.78
567.62	743.18
568.072	717.18
568.524	722.68
568.976	719.68
569.428	701.48
569.88	705.28
570.332	709.28
570.784	724.08
571.235	719.68
571.687	726.18
572.139	733.18
572.59	742.88
573.042	740.98
573.494	739.78
573.945	738.58
574.397	712.08
574.849	715.98
575.3	712.28
575.752	713.68
576.203	713.78
576.655	718.38
577.106	700.58
577.557	693.58
578.009	688.88
578.46	698.18
578.912	689.18
579.363	691.88
579.814	690.88
580.265	684.48
580.717	696.18
581.168	689.08
581.619	714.48
582.07	708.38
582.521	700.68
582.972	699.18
583.423	702.08
583.875	703.78
584.326	711.88
584.777	729.28
585.227	751.78
585.678	764.68
586.129	786.98
586.58	796.38
587.031	829.38
587.482	856.78
587.933	900.58
588.384	861.88
588.834	820.18
589.285	814.58
589.736	811.18
590.186	801.48
590.637	801.88
591.088	781.78
591.538	766.78
591.989	759.28
592.439	755.08
592.89	749.68
593.34	738.68
593.791	731.58
594.241	730.88
594.692	735.08
595.142	726.68
595.593	727.08
596.043	730.08
596.493	743.38
596.943	735.68
597.394	753.98
597.844	753.38
598.294	767.18
598.744	789.68
599.195	826.58
599.645	868.38
600.095	897.98
600.545	959.08
600.995	1018.18
601.445	1086.68
601.895	1128.88
602.345	1198.48
602.795	1166.48
603.245	1119.38
603.695	1060.48
604.145	1004.68
604.594	964.08
605.044	911.48
605.494	846.28
605.944	791.08
606.393	786.98
606.843	754.88
607.293	763.88
607.743	757.88
608.192	774.88
608.642	787.68
609.091	792.58
609.541	796.68
609.99	793.98
610.44	800.08
610.889	741.58
611.339	731.28
611.788	712.48
612.238	725.58
612.687	727.08
613.136	721.88
613.586	737.18
614.035	730.58
614.484	743.98
614.933	736.68
615.383	738.58
615.832	745.88
616.281	736.48
616.73	701.28
617.179	686.88
617.628	671.08
618.077	656.28
618.526	644.28
618.975	637.98
619.424	632.08
619.873	638.18
620.322	641.28
620.771	630.08
621.22	632.38
621.669	617.28
622.118	614.68
622.567	602.98
623.015	597.08
623.464	592.08
623.913	580.68
624.361	577.08
624.81	564.08
625.259	579.88
625.707	589.38
626.156	585.68
626.604	602.98
627.053	588.28
627.501	584.38
627.95	599.08
628.398	615.28
628.847	599.58
629.295	595.38
629.744	595.38
630.192	582.58
630.64	595.88
631.089	573.48
631.537	564.08
631.985	559.88
632.433	557.08
632.881	547.48
633.33	552.88
633.778	557.28
634.226	555.38
634.674	570.08
635.122	561.28
635.57	572.08
636.018	588.78
636.466	583.28
636.914	587.68
637.362	590.28
637.81	607.08
638.258	617.48
638.705	613.78
639.153	638.98
639.601	641.38
640.049	676.38
640.497	699.38
640.944	730.28
641.392	672.78
641.84	650.28
642.287	620.38
642.735	585.88
643.182	599.88
643.63	580.18
644.078	589.88
644.525	601.08
644.973	600.78
645.42	612.58
645.867	640.98
646.315	665.68
646.762	683.68
647.21	711.38
647.657	740.58
648.104	766.98
648.551	791.18
648.999	852.58
649.446	929.18
649.893	1005.08
650.34	1155.98
650.787	1370.98
651.234	1696.88
651.682	2195.28
652.129	2975.58
652.576	4269.88
653.023	6205.68
653.47	8362.58
653.917	10292.18
654.363	11734.98
654.81	12864.58
655.257	12161.48
655.704	8075.48
656.151	4861.78
656.598	3218.08
657.044	2303.28
657.491	1801.08
657.938	1448.38
658.385	1205.28
658.831	1070.28
659.278	958.78
659.724	867.68
660.171	791.18
660.618	731.88
661.064	689.78
661.511	686.88
661.957	673.78
662.404	652.38
662.85	667.68
663.296	643.98
663.743	583.98
664.189	556.58
664.635	553.58
665.082	542.18
665.528	543.88
665.974	538.18
666.42	529.28
666.867	527.88
667.313	510.98
667.759	491.58
668.205	474.58
668.651	479.38
669.097	468.58
669.543	466.78
669.989	465.88
670.435	472.38
670.881	467.68
671.327	473.28
671.773	491.38
672.219	516.48
672.665	583.28
673.11	630.48
673.556	669.98
674.002	702.28
674.448	700.38
674.893	582.58
675.339	511.38
675.785	464.88
676.23	439.78
676.676	414.08
677.122	406.98
677.567	398.18
678.013	387.58
678.458	376.28
678.904	389.08
679.349	367.08
679.794	373.78
680.24	369.98
680.685	367.08
681.131	369.98
681.576	371.88
682.021	371.88
682.466	362.18
682.912	372.48
683.357	378.48
683.802	410.08
684.247	442.38
684.692	491.88
685.137	535.58
685.583	563.58
686.028	604.58
686.473	556.68
686.918	475.48
687.363	443.28
687.807	412.98
688.252	389.68
688.697	380.68
689.142	358.28
689.587	356.38
690.032	343.98
690.477	372.08
690.921	374.08
691.366	412.08
691.811	425.78
692.255	463.98
692.7	491.98
693.145	543.88
693.589	778.78
694.034	1254.08
694.478	1670.78
694.923	1845.78
695.367	2396.88
695.812	1270.88
696.256	520.38
696.701	387.38
697.145	369.28
697.59	347.38
698.034	332.68
698.478	343.88
698.922	338.98
699.367	343.88
699.811	349.28
700.255	375.08
700.699	411.18
701.143	462.38
701.588	498.18
702.032	543.88
702.476	553.78
702.92	524.68
703.364	527.58
703.808	710.38
704.252	1156.98
704.696	1580.78
705.14	1779.08
705.584	2256.98
706.027	1150.28
706.471	565.08
706.915	426.38
707.359	373.48
707.803	350.68
708.246	332.88
708.69	331.78
709.134	327.78
709.577	335.88
710.021	339.58
710.465	321.28
710.908	325.18
711.352	313.98
711.795	332.18
712.239	378.18
712.682	414.98
713.126	435.08
713.569	481.58
714.012	368.58
714.456	327.98
714.899	310.98
715.342	295.28
715.786	288.08
716.229	266.68
716.672	269.48
717.115	269.48
717.558	265.48
718.002	272.58
718.445	275.58
718.888	304.98
719.331	309.98
719.774	324.78
720.217	323.38
720.66	300.28
721.103	286.58
721.546	265.88
721.989	257.08
722.432	247.68
722.874	257.88
723.317	237.78
723.76	249.68
724.203	271.98
724.645	338.48
725.088	492.58
725.531	621.18
725.974	678.68
726.416	582.58
726.859	324.68
727.301	262.68
727.744	254.18
728.187	246.28
728.629	251.88
729.071	259.38
729.514	279.78
729.956	293.68
730.399	298.38
730.841	312.58
731.283	289.38
731.726	288.88
732.168	282.08
732.61	288.78
733.053	302.98
733.495	349.08
733.937	386.68
734.379	433.98
734.821	472.68
735.263	602.18
735.705	949.08
736.148	1788.88
736.59	2839.28
737.032	3250.48
737.474	2657.38
737.916	880.58
738.357	473.58
738.799	357.78
739.241	323.08
739.683	307.48
740.125	310.08
740.567	321.38
741.008	335.48
741.45	339.28
741.892	346.08
742.334	375.58
742.775	385.18
743.217	366.38
743.658	288.68
744.1	274.68
744.542	286.18
744.983	340.88
745.425	368.18
745.866	364.08
746.307	300.58
746.749	303.88
747.19	354.18
747.632	513.68
748.073	1012.18
748.514	2109.68
748.956	3102.18
749.397	3919.18
749.838	3247.38
750.279	3124.48
750.72	1612.48
751.162	596.38
751.603	345.48
752.044	277.28
752.485	232.78
752.926	228.08
753.367	217.28
753.808	206.18
754.249	202.98
754.69	194.68
755.131	196.68
755.572	192.78
756.013	195.38
756.453	198.78
756.894	201.88
757.335	210.28
757.776	205.28
758.216	214.48
758.657	212.98
759.098	215.68
759.538	245.48
759.979	298.98
760.42	423.28
760.86	813.98
761.301	2130.48
761.741	4967.28
762.182	6798.58
762.622	4822.58
763.063	1417.78
763.503	582.18
763.943	351.18
764.384	285.58
764.824	270.88
765.264	246.38
765.705	222.28
766.145	196.98
766.585	190.38
767.025	171.38
767.465	172.48
767.906	191.28
768.346	213.98
768.786	206.78
769.226	237.08
769.666	342.38
770.106	711.48
770.546	1770.28
770.986	2821.18
771.426	2512.98
771.866	855.18
772.306	352.58
772.745	223.48
773.185	176.78
773.625	175.88
774.065	166.88
774.505	177.08
774.944	219.98
775.384	398.08
775.824	632.68
776.263	604.08
776.703	303.68
777.142	165.28
777.582	143.58
778.021	128.98
778.461	128.08
778.9	128.58
779.34	134.68
779.779	122.38
780.219	119.18
780.658	112.68
781.097	116.58
781.537	115.88
781.976	109.38
782.415	114.28
782.855	112.18
783.294	107.38
783.733	116.18
784.172	121.08
784.611	109.28
785.05	120.58
785.489	121.28
785.928	123.18
786.367	124.68
786.806	129.08
787.245	142.08
787.684	136.48
788.123	147.68
788.562	143.18
789.001	140.78
789.44	129.08
789.879	128.68
790.317	120.48
790.756	133.58
791.195	142.28
791.634	161.78
792.072	221.38
792.511	409.58
792.95	1150.28
793.388	2296.88
793.827	2011.98
794.265	718.98
794.704	300.88
795.142	191.58
795.581	161.48
796.019	139.68
796.458	137.28
796.896	128.18
797.334	137.28
797.773	170.28
798.211	249.68
798.649	504.78
799.087	1130.28
799.526	1755.08
799.964	2216.38
800.402	2123.58
800.84	820.78
801.278	332.38
801.716	201.58
802.154	173.98
802.592	155.68
803.03	150.38
803.468	139.08
803.906	151.78
804.344	162.68
804.782	152.38
805.22	143.08
805.658	144.18
806.096	156.68
806.533	167.18
806.971	190.58
807.409	236.68
807.847	356.48
808.284	776.58
808.722	2097.18
809.16	3560.08
809.597	3534.18
810.035	5964.38
810.472	6094.48
810.91	2250.18
811.347	869.48
811.785	434.68
812.222	271.88
812.66	212.68
813.097	177.08
813.535	148.18
813.972	139.08
814.409	121.38
814.846	115.38
815.284	115.68
815.721	102.78
816.158	112.18
816.595	114.68
817.032	166.28
817.47	190.28
817.907	132.18
818.344	102.38
818.781	104.28
819.218	109.78
819.655	134.28
820.092	205.08
820.529	225.18
820.966	179.78
821.403	141.38
821.839	109.48
822.276	106.58
822.713	129.78
823.15	147.88
823.587	125.88
824.023	166.08
824.46	353.08
824.897	1004.38
825.333	1445.08
825.77	626.18
826.206	254.08
826.643	141.18
827.08	104.28
827.516	93.18
827.953	84.18
828.389	81.68
828.825	71.18
829.262	74.38
829.698	68.28
830.135	70.18
830.571	63.98
831.007	62.78
831.443	63.08
831.88	66.58
832.316	58.78
832.752	69.58
833.188	63.68
833.624	70.48
834.06	69.08
834.497	71.28
834.933	77.68
835.369	78.08
835.805	69.58
836.241	89.48
836.677	84.28
837.112	92.98
837.548	110.28
837.984	146.28
838.42	229.88
838.856	574.78
839.292	1688.58
839.727	2453.58
840.163	1163.58
840.599	1060.98
841.034	2230.68
841.47	2232.08
841.906	835.08
842.341	362.18
842.777	213.88
843.212	214.98
843.648	200.18
844.083	112.68
844.519	84.78
844.954	78.38
845.39	59.18
845.825	64.48
846.261	65.48
846.696	61.88
847.131	60.98
847.566	63.68
848.002	56.18
848.437	57.58
848.872	63.18
849.307	66.88
849.742	92.28
850.177	204.18
850.613	629.58
851.048	931.18
851.483	407.18
851.918	171.08
852.353	87.08
852.788	63.38
853.223	51.98
853.657	54.88
854.092	43.48
854.527	44.08
854.962	43.18
855.397	43.78
855.832	51.88
856.266	42.88
856.701	44.18
857.136	37.38
857.57	42.68
858.005	54.38
858.44	60.58
858.874	45.98
859.309	55.58
859.743	39.78
860.178	52.68
860.612	41.68
861.047	51.88
861.481	78.18
861.915	73.58
862.35	55.28
862.784	37.88
863.218	33.88
863.653	32.08
864.087	49.08
864.521	57.98
864.955	76.68
865.39	169.68
865.824	182.88
866.258	128.78
866.692	180.18
867.126	194.58
867.56	116.68
867.994	55.78
868.428	38.28
868.862	50.38
869.296	54.38
869.73	62.68
870.164	59.28
870.598	42.68
871.031	36.98
871.465	28.28
871.899	36.78
872.333	20.38
872.766	23.68
873.2	19.78
873.634	31.28
874.067	24.98
874.501	25.88
874.935	36.38
875.368	29.48
875.802	28.28
876.235	30.88
876.669	26.68
877.102	22.88
877.535	26.18
877.969	22.98
878.402	25.48
878.836	15.98
879.269	20.18
879.702	24.18
880.135	19.48
880.569	24.28
881.002	22.98
881.435	22.38
881.868	17.88
882.301	23.08
882.734	17.78
883.167	23.58
883.601	17.68
884.034	24.38
884.467	11.58
884.899	19.78
885.332	19.18
885.765	19.78
886.198	12.98
886.631	14.18
887.064	18.38
887.497	20.78
887.929	26.38
888.362	11.98
888.795	9.88
889.228	13.68
889.66	18.98
890.093	20.68
890.526	22.78
890.958	16.38
891.391	18.48
891.823	19.88
892.256	8.28
892.688	10.58
893.121	19.08
893.553	15.88
893.985	22.08
894.418	19.48
894.85	15.18
895.282	18.08
895.715	14.28
896.147	14.18
896.579	18.48
897.011	15.38
897.444	16.78
897.876	10.88
898.308	20.98
898.74	12.98
899.172	12.18
899.604	24.28
900.036	23.28
900.468	13.08
900.9	18.38
901.332	21.88
901.764	14.08
902.196	23.08
902.628	20.88
903.06	17.58
903.491	30.18
903.923	25.78
904.355	28.18
904.787	29.48
905.218	29.98
905.65	16.68
906.082	6.68
906.513	7.38
906.945	16.68
907.376	16.98
907.808	21.78
908.239	23.08
908.671	20.78
909.102	20.68
909.534	28.38
909.965	55.48
910.397	99.38
910.828	342.68
911.259	499.78
911.691	227.98
912.122	119.98
912.553	58.18
912.984	36.78
913.415	22.28
913.847	27.38
914.278	20.88
914.709	9.48
915.14	17.28
915.571	17.98
916.002	14.88
916.433	21.58
916.864	18.78
917.295	12.48
917.726	23.48
918.157	19.08
918.587	26.48
919.018	23.78
919.449	21.98
919.88	22.18
920.311	35.18
920.741	54.38
921.172	179.78
921.603	155.68
922.033	74.58
922.464	50.28
922.895	19.88
923.325	17.58
923.756	9.88
924.186	12.68
924.617	19.68
925.047	24.38
925.478	28.48
925.908	21.08
926.338	11.28
926.769	8.68
927.199	12.88
927.629	3.68
928.06	10.28
928.49	13.78
928.92	14.08
929.35	13.38
929.78	7.08
930.21	7.78
930.641	8.28
931.071	7.48
931.501	4.28
931.931	10.28
932.361	8.88
932.791	5.58
933.221	4.08
933.651	6.78
934.08	17.88
934.51	28.18
934.94	8.98
935.37	4.68
935.8	5.88
936.229	6.78
936.659	12.38
937.089	2.28
937.519	7.88
937.948	20.68
938.378	18.68
938.807	5.38
939.237	4.18
939.666	2.28
940.096	-2.12
940.525	-3.32
940.955	-1.72
941.384	6.68
941.814	-6.42
942.243	-3.92
942.672	2.38
943.102	0.18
943.531	-0.32
943.96	2.68
944.39	-0.62
944.819	-0.22
945.248	2.88
945.677	0.58
946.106	4.98
946.535	9.48
946.964	0.48
947.393	4.58
947.822	2.08
948.251	-4.02
948.68	1.08
949.109	3.58
949.538	8.18
949.967	-1.02
950.396	-2.12
950.825	-0.52
951.254	0.08
951.682	-2.42
952.111	4.18
952.54	6.88
952.969	-6.62
953.397	-12.42
953.826	-1.82
954.254	-8.22
954.683	2.38
955.112	-5.12
955.54	-1.82
955.969	-2.92
956.397	4.58
956.826	-4.52
957.254	5.58
957.682	-2.92
958.111	2.48
958.539	-3.42
958.967	3.58
959.396	-5.92
959.824	-2.52
960.252	-2.52
960.68	-4.32
961.109	-3.82
961.537	-4.02
961.965	3.68
962.393	-2.82
962.821	-4.32
963.249	4.48
963.677	5.88
964.105	11.18
964.533	50.58
964.961	46.48
965.389	21.48
965.817	3.48
966.245	4.28
966.672	0.58
967.1	-11.82
967.528	0.98
967.956	-0.62
968.383	-0.42
968.811	-1.52
969.239	-3.32
969.666	-0.82
970.094	-2.22
970.522	-5.92
970.949	-1.72
971.377	-0.62
971.804	-3.32
972.232	-3.42
972.659	-1.62
973.087	-5.02
973.514	-2.52
973.941	-7.32
974.369	1.78
974.796	4.18
975.223	-3.62
975.651	-4.12
976.078	4.18
976.505	0.38
976.932	-1.12
977.359	14.28
977.786	17.68
978.214	0.58
978.641	-0.12
979.068	-6.52
979.495	-7.42
979.922	-0.02
980.349	-1.02
980.776	-1.62
981.202	-0.92
981.629	3.78
982.056	7.98
982.483	-5.42
982.91	7.98
983.337	-3.72
983.763	0.68
984.19	-0.22
984.617	-4.52
985.043	-9.42
985.47	-5.42
985.897	-4.02
986.323	-4.32
986.75	4.08
987.176	-4.22
987.603	-4.12
988.029	-4.32
988.456	-7.22
988.882	3.08
989.308	-6.62
989.735	-1.02
990.161	-3.92
990.587	-3.32
991.014	1.78
991.44	-0.02
991.866	-5.02
992.292	-2.72
992.719	-7.22
993.145	1.28
993.571	-10.52
993.997	-3.12
994.423	-10.72
994.849	-6.22
995.275	-3.92
995.701	2.68
996.127	-4.62
996.553	-0.62
996.979	-2.42
997.405	-2.82
997.83	-1.32
998.256	-5.42
998.682	-7.12
999.108	-8.52
999.534	3.08
999.959	-0.82
1000.385	-3.02
1000.811	1.98
1001.236	-8.12
1001.662	-5.42
1002.087	-10.62
1002.513	-2.02
1002.938	2.18
1003.364	-0.42
1003.789	-2.32
1004.215	3.38
1004.64	-3.12
1005.066	-5.52
1005.491	5.08
1005.916	1.58
1006.342	-4.62
1006.767	-7.02
1007.192	4.68
1007.617	-2.02
1008.042	-6.12
1008.468	-11.62
1008.893	-3.92
1009.318	-7.02
1009.743	0.58
1010.168	6.08
1010.593	-5.02
1011.018	-8.42
1011.443	-3.22
1011.868	-1.02
1012.293	-5.62
1012.718	-7.22
1013.143	-2.32
1013.567	-1.92
1013.992	-2.92
1014.417	-9.82
1014.842	-1.62
1015.267	-11.12
1015.691	-2.32
1016.116	2.58
1016.541	-5.92
1016.965	3.58
1017.39	-1.72
1017.814	-2.62
1018.239	-3.12
1018.663	-8.22
1019.088	-11.22
1019.512	-4.82
1019.937	-3.22
1020.361	-5.52
1020.785	-6.82
1021.21	-1.82
1021.634	-3.32
1022.058	-4.72
1022.483	0.28
1022.907	-5.42
1023.331	-3.82
1023.755	-1.92
1024.179	-2.42
1024.604	-10.32
1025.028	-9.72
1025.452	-6.92
1025.876	-3.32
1026.3	1.78
1026.724	-10.32
1027.148	-6.12
1027.572	-5.42
1027.996	-3.02
1028.42	-1.72
1028.843	-9.72
1029.267	-9.62
1029.691	-4.22
1030.115	-4.62
1030.539	-8.42
1030.962	-4.12
1031.386	-13.52
1031.81	-6.02
1032.233	-2.42
1032.657	-2.82
1033.08	-2.62
1033.504	-1.02
1033.927	-9.12
1034.351	2.28
1034.774	-1.62
1035.198	-9.62
1035.621	-8.42
1036.045	-13.12
1036.468	0.98
1036.891	-10.22
1037.315	-11.92
1037.738	-13.92
1038.161	-5.22
1038.584	-8.32
1039.008	-3.52
1039.431	-6.52
1039.854	-5.82
1040.277	-9.12
1040.7	-12.92
1041.123	-4.02
1041.546	-9.52
1041.969	-8.72
1042.392	-5.12
1042.815	-5.42
1043.238	0.58
1043.661	-3.52
1044.084	-7.82
1044.507	-5.52
1044.93	-6.12
1045.352	-6.82
1045.775	-2.12
1046.198	-0.12
1046.621	-3.72
1047.043	-4.02
1047.466	7.58
1047.889	-8.72
1048.311	-10.12
1048.734	-5.02
1049.156	-5.62
1049.579	-4.02
1050.001	-1.62
1050.424	3.88
1050.846	-5.32
1051.269	3.18
1051.691	-7.82
1052.113	-2.92
1052.536	-2.32
1052.958	-0.62
1053.38	0.08
1053.802	-8.32
1054.225	-1.82
1054.647	-5.72
1055.069	-6.72
1055.491	-4.22
1055.913	-10.42
1056.335	-2.92
1056.757	-6.92
1057.179	-3.52
1057.601	-4.72
1058.023	-6.52
1058.445	-1.62
1058.867	-7.72
1059.289	-3.42
1059.711	-11.92
1060.133	-6.72
1060.555	-8.62
1060.976	-7.82
1061.398	-4.42
1061.82	-6.52
1062.241	-3.02
1062.663	-4.22
1063.085	-6.82
1063.506	-2.92
1063.928	-6.82
1064.35	-3.12
1064.771	-8.12
1065.193	-0.02
1065.614	-11.92
1066.035	-1.92
1066.457	-4.32
1066.878	-2.72
1067.3	-6.22
1067.721	-6.12
1068.142	-4.22
1068.564	-0.02
1068.985	-7.52
1069.406	-7.02
1069.827	-5.22
1070.248	-0.22
1070.67	-6.52
1071.091	-9.62
1071.512	-10.22
1071.933	-9.72
1072.354	-9.12
1072.775	-9.02
1073.196	-6.62
1073.617	-5.92
1074.038	-14.82
1074.459	-12.12
1074.88	-8.92
1075.3	-2.62
1075.721	-7.62
1076.142	-2.62
1076.563	-3.62
1076.983	-14.42
1077.404	-7.92
1077.825	-9.32
1078.246	-5.92
1078.666	-15.02
1079.087	-7.42
1079.507	0.38
1079.928	-1.72
1080.348	-1.52
1080.769	-6.52
1081.189	1.68
1081.61	0.08
1082.03	-7.02
1082.451	-10.32
1082.871	-12.32
1083.291	-3.92
1083.711	-7.12
1084.132	-4.22
1084.552	-6.52
1084.972	2.18
1085.392	-10.42
1085.813	-11.82
1086.233	-8.22
1086.653	-8.32
1087.073	-4.82
1087.493	-5.82
1087.913	-10.52
1088.333	-12.22
1088.753	-7.92
1089.173	0.18
1089.593	-3.02
1090.013	-1.32
1090.433	-1.42
1090.852	-2.92
1091.272	-6.62
1091.692	-4.42
1092.112	-2.42
1092.531	-6.92
1092.951	-14.02
1093.371	-7.62
1093.79	-1.42
1094.21	-3.62
1094.63	-1.72
1095.049	-3.82
1095.469	-4.52
1095.888	-7.52
1096.308	1.18
1096.727	-2.52
1097.146	-11.62
1097.566	-3.82
1097.985	-4.32
1098.405	1.58
1098.824	-11.42
1099.243	-4.52
1099.662	-4.82
1100.082	-9.42
1100.501	-2.12
1100.92	-5.12
1101.339	-4.52
1101.758	-11.12
