Data from 20171114-ORNL-Ar_H_NY_Subt18_08-05-26-141.txt Node
Date: Tue Nov 14 08:05:26 EST 2017
User: Ender
Spectrometer: HR+D1039
Trigger mode: 0
Integration Time (sec): 2.730000E-2
Scans to average: 10
Electric dark correction enabled: true
Nonlinearity correction enabled: false
Boxcar width: 0
XAxis mode: Wavelengths
Number of Pixels in Spectrum: 2048
>>>>>Begin Spectral Data<<<<<
187.836	0.67
188.309	0.67
188.782	0.67
189.255	2.57
189.728	6.27
190.201	4.47
190.674	1.77
191.147	-0.23
191.619	-10.23
192.092	1.57
192.565	4.97
193.038	-2.83
193.511	4.07
193.984	-3.53
194.456	-9.12
194.929	-0.02
195.402	-3.03
195.874	2.57
196.347	-3.63
196.82	-3.62
197.292	0.67
197.765	-4.83
198.237	-4.52
198.71	-3.13
199.182	-3.73
199.655	-1.53
200.127	6.87
200.6	1.17
201.072	-8.03
201.544	-9.43
202.017	-1.33
202.489	6.37
202.961	-4.02
203.433	-10.03
203.906	-4.02
204.378	-9.52
204.85	-5.23
205.322	-9.03
205.794	-1.13
206.266	-5.12
206.739	-9.53
207.211	5.17
207.683	-4.02
208.155	-3.73
208.627	-6.73
209.099	-5.62
209.57	-7.92
210.042	-4.03
210.514	-1.92
210.986	1.38
211.458	-6.03
211.93	-6.43
212.402	1.67
212.873	-3.13
213.345	-11.83
213.817	-12.33
214.288	-3.63
214.76	-13.23
215.232	-3.33
215.703	-1.73
216.175	-6.12
216.646	-5.43
217.118	-2.03
217.589	-2.02
218.061	-6.43
218.532	-5.33
219.004	1.07
219.475	-6.73
219.946	-3.43
220.418	-4.33
220.889	3.17
221.36	2.08
221.832	-0.43
222.303	-8.93
222.774	-5.73
223.245	-10.83
223.717	-15.73
224.188	-4.62
224.659	-7.83
225.13	-5.52
225.601	0.37
226.072	-2.52
226.543	-5.03
227.014	4.47
227.485	-3.43
227.956	-4.33
228.427	-0.73
228.898	-1.02
229.369	0.87
229.839	3.27
230.31	-9.83
230.781	0.57
231.252	-1.03
231.722	-5.33
232.193	-2.92
232.664	-2.93
233.135	-1.73
233.605	0.27
234.076	-7.73
234.546	0.57
235.017	1.57
235.487	2.67
235.958	0.67
236.428	0.97
236.899	1.98
237.369	-1.73
237.84	0.17
238.31	7.57
238.78	1.98
239.251	-1.92
239.721	4.67
240.191	-2.83
240.662	2.17
241.132	-6.43
241.602	-1.33
242.072	2.17
242.542	5.17
243.013	-1.83
243.483	0.07
243.953	0.98
244.423	-2.62
244.893	0.47
245.363	-1.63
245.833	-5.73
246.303	0.07
246.773	4.67
247.243	5.27
247.712	-1.03
248.182	13.27
248.652	8.87
249.122	-7.03
249.592	11.17
250.061	18.38
250.531	31.48
251.001	11.98
251.471	21.47
251.94	21.47
252.41	9.67
252.879	5.38
253.349	16.37
253.818	5.47
254.288	4.88
254.757	3.17
255.227	5.98
255.696	6.07
256.166	4.77
256.635	10.77
257.105	10.58
257.574	0.37
258.043	6.17
258.513	10.47
258.982	9.77
259.451	10.47
259.92	22.17
260.389	10.98
260.859	17.57
261.328	15.48
261.797	12.88
262.266	12.17
262.735	12.67
263.204	3.67
263.673	0.47
264.142	3.88
264.611	0.57
265.08	0.27
265.549	-0.33
266.018	6.27
266.487	-2.93
266.955	1.17
267.424	1.98
267.893	11.27
268.362	7.08
268.83	6.77
269.299	8.98
269.768	8.27
270.236	8.67
270.705	6.57
271.174	6.77
271.642	11.67
272.111	11.88
272.579	20.27
273.048	27.07
273.516	27.27
273.985	28.38
274.453	22.97
274.922	18.57
275.39	20.67
275.858	6.88
276.327	14.38
276.795	19.17
277.263	12.17
277.731	27.17
278.2	53.57
278.668	58.07
279.136	54.47
279.604	25.77
280.072	16.67
280.54	13.57
281.008	9.97
281.477	12.27
281.945	16.67
282.413	16.27
282.881	14.88
283.348	8.38
283.816	16.17
284.284	18.67
284.752	19.67
285.22	11.98
285.688	15.87
286.156	21.48
286.623	43.67
287.091	53.88
287.559	24.88
288.026	23.98
288.494	17.88
288.962	6.57
289.429	13.77
289.897	21.17
290.364	18.47
290.832	19.27
291.3	19.48
291.767	18.77
292.234	20.27
292.702	12.48
293.169	22.17
293.637	25.07
294.104	26.97
294.571	14.47
295.039	11.87
295.506	16.17
295.973	23.77
296.44	19.57
296.908	20.17
297.375	22.97
297.842	20.17
298.309	18.77
298.776	12.17
299.243	27.17
299.71	13.37
300.177	17.77
300.644	22.77
301.111	19.67
301.578	28.77
302.045	22.17
302.512	24.38
302.979	28.67
303.446	23.87
303.913	18.08
304.379	19.38
304.846	28.17
305.313	25.07
305.78	22.97
306.246	27.27
306.713	26.17
307.18	27.98
307.646	31.87
308.113	34.47
308.579	29.87
309.046	32.48
309.512	24.67
309.979	19.97
310.445	31.17
310.912	31.27
311.378	36.27
311.845	31.98
312.311	35.47
312.777	34.77
313.244	32.67
313.71	30.17
314.176	32.77
314.642	30.27
315.109	37.38
315.575	35.98
316.041	42.48
316.507	29.17
316.973	43.87
317.439	39.07
317.905	34.77
318.371	37.47
318.837	32.27
319.303	38.57
319.769	35.48
320.235	35.47
320.701	33.97
321.167	40.37
321.633	40.67
322.099	44.77
322.564	47.88
323.03	46.17
323.496	41.98
323.962	43.67
324.427	42.77
324.893	44.17
325.359	41.27
325.824	44.07
326.29	38.57
326.755	41.47
327.221	38.97
327.686	37.17
328.152	49.98
328.617	45.07
329.083	46.37
329.548	49.27
330.014	47.48
330.479	42.47
330.944	51.27
331.41	41.07
331.875	49.38
332.34	46.98
332.805	44.27
333.271	52.17
333.736	44.88
334.201	51.38
334.666	57.17
335.131	64.87
335.596	55.47
336.061	56.67
336.526	43.17
336.991	54.58
337.456	56.77
337.921	54.77
338.386	47.57
338.851	49.47
339.316	45.67
339.781	45.17
340.246	56.07
340.711	52.77
341.175	53.17
341.64	36.88
342.105	46.07
342.569	60.07
343.034	60.07
343.499	55.57
343.963	55.98
344.428	63.17
344.893	66.57
345.357	64.57
345.822	60.07
346.286	67.27
346.751	72.98
347.215	75.38
347.679	78.77
348.144	97.07
348.608	91.77
349.073	68.77
349.537	83.17
350.001	83.77
350.465	93.27
350.93	82.47
351.394	85.67
351.858	69.88
352.322	88.17
352.786	85.38
353.25	106.77
353.715	113.17
354.179	105.67
354.643	126.58
355.107	126.17
355.571	111.17
356.035	109.88
356.498	127.57
356.962	129.67
357.426	129.57
357.89	116.27
358.354	96.97
358.818	78.47
359.281	84.88
359.745	77.88
360.209	78.88
360.673	80.48
361.136	86.48
361.6	87.07
362.064	87.77
362.527	88.87
362.991	93.38
363.454	88.27
363.918	79.27
364.381	72.97
364.845	82.47
365.308	85.17
365.772	83.77
366.235	90.47
366.698	88.87
367.162	92.97
367.625	90.67
368.088	87.97
368.552	86.17
369.015	86.57
369.478	94.67
369.941	98.77
370.404	90.37
370.867	100.47
371.331	110.07
371.794	118.87
372.257	112.88
372.72	125.57
373.183	115.07
373.646	105.88
374.109	104.88
374.572	112.07
375.035	108.37
375.497	113.67
375.96	106.17
376.423	109.67
376.886	113.48
377.349	113.57
377.811	105.57
378.274	104.98
378.737	106.67
379.199	110.48
379.662	111.47
380.125	118.17
380.587	119.48
381.05	125.17
381.512	127.97
381.975	133.77
382.437	134.27
382.9	120.37
383.362	132.57
383.825	146.58
384.287	151.27
384.75	140.47
385.212	142.97
385.674	144.07
386.136	141.17
386.599	121.87
387.061	125.38
387.523	128.47
387.985	129.37
388.447	149.87
388.91	148.07
389.372	160.38
389.834	151.57
390.296	142.67
390.758	155.47
391.22	164.97
391.682	216.98
392.144	290.68
392.606	224.38
393.068	162.88
393.529	173.57
393.991	154.88
394.453	149.57
394.915	158.47
395.377	191.48
395.838	211.37
396.3	152.47
396.762	143.08
397.224	142.47
397.685	129.97
398.147	132.38
398.608	133.98
399.07	126.88
399.531	136.98
399.993	141.27
400.454	155.57
400.916	143.47
401.377	143.88
401.839	152.87
402.3	151.47
402.762	168.38
403.223	183.67
403.684	170.37
404.145	157.87
404.607	161.88
405.068	157.97
405.529	175.77
405.99	189.27
406.451	172.57
406.913	179.57
407.374	163.07
407.835	160.77
408.296	169.67
408.757	168.07
409.218	183.67
409.679	176.08
410.14	175.17
410.601	184.27
411.062	183.57
411.522	190.07
411.983	179.97
412.444	180.38
412.905	180.48
413.366	182.38
413.826	195.38
414.287	216.18
414.748	259.07
415.208	247.88
415.669	210.97
416.13	202.38
416.59	204.38
417.051	210.17
417.511	213.97
417.972	237.08
418.432	243.87
418.893	284.07
419.353	252.97
419.814	200.57
420.274	176.37
420.734	182.97
421.195	198.67
421.655	200.17
422.115	191.67
422.576	194.67
423.036	197.08
423.496	208.08
423.956	217.58
424.416	233.07
424.876	270.67
425.336	262.97
425.797	263.38
426.257	257.77
426.717	240.38
427.177	228.57
427.637	227.17
428.097	231.27
428.556	242.37
429.016	265.87
429.476	258.38
429.936	270.08
430.396	280.87
430.856	290.47
431.315	320.07
431.775	347.07
432.235	381.77
432.694	353.67
433.154	354.27
433.614	392.57
434.073	337.77
434.533	284.38
434.993	268.98
435.452	278.17
435.912	292.97
436.371	289.28
436.83	286.67
437.29	269.07
437.749	245.87
438.209	244.17
438.668	274.27
439.127	285.98
439.587	265.17
440.046	250.57
440.505	267.17
440.964	289.47
441.424	322.38
441.883	304.97
442.342	271.17
442.801	222.27
443.26	220.37
443.719	222.77
444.178	223.48
444.637	215.58
445.096	219.97
445.555	220.27
446.014	222.27
446.473	220.27
446.932	233.17
447.391	226.07
447.849	228.38
448.308	214.27
448.767	220.27
449.226	236.47
449.685	237.27
450.143	252.48
450.602	234.17
451.061	231.77
451.519	229.97
451.978	231.27
452.436	234.77
452.895	237.38
453.353	253.88
453.812	237.08
454.27	236.98
454.729	242.17
455.187	240.98
455.646	244.17
456.104	241.68
456.562	256.77
457.021	260.57
457.479	268.17
457.937	277.67
458.395	268.67
458.854	251.48
459.312	262.18
459.77	276.27
460.228	258.77
460.686	241.27
461.144	249.07
461.602	244.17
462.06	241.88
462.518	248.88
462.976	246.47
463.434	254.87
463.892	267.87
464.35	278.88
464.808	288.98
465.266	269.87
465.724	268.38
466.181	271.27
466.639	272.57
467.097	289.27
467.555	298.87
468.012	303.67
468.47	311.18
468.928	332.77
469.385	338.58
469.843	346.27
470.3	354.58
470.758	365.48
471.215	380.48
471.673	410.57
472.13	404.27
472.588	412.18
473.045	378.47
473.503	377.58
473.96	400.87
474.417	408.07
474.875	429.77
475.332	477.07
475.789	471.08
476.246	472.67
476.704	488.38
477.161	514.68
477.618	524.37
478.075	566.38
478.532	611.98
478.989	694.37
479.446	813.17
479.903	772.17
480.36	819.57
480.817	867.47
481.274	969.48
481.731	1073.27
482.188	1172.47
482.645	1316.77
483.102	1416.77
483.558	1549.37
484.015	1600.67
484.472	1571.87
484.929	1526.77
485.385	1475.67
485.842	1434.38
486.299	1374.67
486.755	1308.38
487.212	1097.27
487.668	926.88
488.125	859.87
488.582	786.47
489.038	749.77
489.494	717.38
489.951	701.98
490.407	669.47
490.864	646.97
491.32	644.68
491.776	640.98
492.233	648.47
492.689	609.98
493.145	601.47
493.602	598.57
494.058	619.67
494.514	621.17
494.97	643.47
495.426	653.37
495.882	630.77
496.338	622.27
496.794	638.57
497.251	629.27
497.707	643.08
498.163	641.98
498.618	650.38
499.074	665.27
499.53	679.77
499.986	684.07
500.442	659.38
500.898	631.77
501.354	631.97
501.809	635.77
502.265	640.57
502.721	656.17
503.177	675.28
503.632	661.17
504.088	669.77
504.543	715.08
504.999	707.18
505.455	660.17
505.91	637.37
506.366	635.27
506.821	629.27
507.277	632.57
507.732	630.88
508.187	624.27
508.643	632.07
509.098	643.18
509.553	654.47
510.009	674.38
510.464	673.98
510.919	693.27
511.375	701.67
511.83	709.38
512.285	722.67
512.74	769.87
513.195	789.07
513.65	773.58
514.105	769.77
514.56	772.27
515.015	795.47
515.47	810.87
515.925	802.38
516.38	786.87
516.835	800.07
517.29	793.58
517.745	780.97
518.2	768.88
518.655	756.07
519.109	747.08
519.564	729.97
520.019	734.67
520.474	725.78
520.928	724.58
521.383	722.67
521.838	719.98
522.292	718.37
522.747	714.37
523.201	705.77
523.656	689.07
524.11	696.08
524.565	690.48
525.019	688.47
525.474	703.67
525.928	702.08
526.382	695.98
526.837	695.07
527.291	700.27
527.745	699.88
528.2	695.67
528.654	696.27
529.108	687.67
529.562	698.57
530.016	698.17
530.47	686.98
530.925	691.07
531.379	699.77
531.833	703.47
532.287	703.97
532.741	708.28
533.195	701.88
533.649	720.07
534.103	730.68
534.556	715.17
535.01	712.47
535.464	714.27
535.918	720.88
536.372	719.88
536.826	724.97
537.279	713.77
537.733	712.37
538.187	709.48
538.64	724.77
539.094	731.98
539.548	724.58
540.001	730.38
540.455	720.27
540.908	734.67
541.362	739.07
541.815	748.57
542.269	755.88
542.722	754.17
543.175	773.48
543.629	762.77
544.082	782.07
544.536	779.77
544.989	777.67
545.442	791.77
545.895	784.88
546.349	782.08
546.802	793.97
547.255	805.67
547.708	800.68
548.161	806.97
548.614	818.88
549.067	834.77
549.52	822.48
549.973	805.07
550.426	801.97
550.879	790.07
551.332	792.27
551.785	800.77
552.238	802.67
552.691	814.78
553.144	814.57
553.596	843.47
554.049	859.48
554.502	894.77
554.955	910.47
555.407	911.17
555.86	899.57
556.313	892.87
556.765	876.17
557.218	878.27
557.67	881.07
558.123	881.47
558.576	879.57
559.028	876.88
559.48	887.77
559.933	867.27
560.385	836.07
560.838	802.57
561.29	778.67
561.742	774.88
562.195	765.48
562.647	755.88
563.099	771.57
563.551	767.77
564.004	773.27
564.456	769.38
564.908	759.27
565.36	744.17
565.812	731.97
566.264	728.88
566.716	732.78
567.168	708.67
567.62	720.97
568.072	701.57
568.524	688.97
568.976	686.57
569.428	672.07
569.88	667.27
570.332	673.88
570.784	677.27
571.235	683.58
571.687	690.68
572.139	689.07
572.59	697.77
573.042	707.07
573.494	709.38
573.945	702.97
574.397	690.87
574.849	682.17
575.3	676.07
575.752	679.87
576.203	677.17
576.655	684.47
577.106	665.37
577.557	655.88
578.009	658.47
578.46	659.17
578.912	656.47
579.363	671.27
579.814	664.07
580.265	655.97
580.717	667.77
581.168	670.67
581.619	670.28
582.07	678.38
582.521	673.47
582.972	660.47
583.423	662.08
583.875	676.98
584.326	693.47
584.777	737.38
585.227	800.07
585.678	905.67
586.129	973.88
586.58	1041.47
587.031	1126.28
587.482	1282.47
587.933	1454.97
588.384	1276.58
588.834	949.37
589.285	794.67
589.736	774.27
590.186	753.27
590.637	757.17
591.088	729.17
591.538	720.07
591.989	725.77
592.439	718.38
592.89	706.67
593.34	703.48
593.791	697.38
594.241	691.67
594.692	696.27
595.142	697.57
595.593	692.07
596.043	685.97
596.493	694.77
596.943	701.88
597.394	713.87
597.844	703.07
598.294	714.78
598.744	730.37
599.195	750.87
599.645	792.27
600.095	826.08
600.545	903.38
600.995	950.67
601.445	989.27
601.895	1067.28
602.345	1114.18
602.795	1091.07
603.245	1045.67
603.695	1000.17
604.145	939.37
604.594	891.08
605.044	833.77
605.494	774.27
605.944	740.37
606.393	724.97
606.843	714.77
607.293	718.38
607.743	719.98
608.192	726.57
608.642	732.57
609.091	743.58
609.541	749.37
609.99	751.97
610.44	749.08
610.889	699.97
611.339	684.17
611.788	662.47
612.238	688.88
612.687	695.57
613.136	693.77
613.586	715.27
614.035	712.97
614.484	728.77
614.933	733.37
615.383	731.98
615.832	718.17
616.281	700.97
616.73	665.27
617.179	649.27
617.628	636.67
618.077	622.27
618.526	608.47
618.975	599.47
619.424	597.47
619.873	594.17
620.322	598.37
620.771	595.77
621.22	588.97
621.669	577.58
622.118	575.38
622.567	559.88
623.015	551.67
623.464	551.27
623.913	545.47
624.361	537.77
624.81	537.48
625.259	531.28
625.707	537.67
626.156	538.67
626.604	547.77
627.053	536.57
627.501	539.67
627.95	546.47
628.398	557.17
628.847	546.97
629.295	553.57
629.744	559.58
630.192	552.27
630.64	555.27
631.089	543.38
631.537	550.98
631.985	567.48
632.433	573.57
632.881	580.47
633.33	625.77
633.778	619.48
634.226	545.58
634.674	547.08
635.122	562.17
635.57	579.57
636.018	607.07
636.466	567.48
636.914	535.07
637.362	560.58
637.81	551.08
638.258	558.78
638.705	565.87
639.153	581.87
639.601	593.77
640.049	615.88
640.497	648.17
640.944	665.97
641.392	623.48
641.84	593.47
642.287	568.57
642.735	554.67
643.182	551.08
643.63	547.87
644.078	545.97
644.525	570.27
644.973	578.87
645.42	590.17
645.867	601.18
646.315	607.28
646.762	636.88
647.21	661.08
647.657	693.17
648.104	729.37
648.551	748.87
648.999	800.98
649.446	888.27
649.893	971.67
650.34	1109.08
650.787	1336.58
651.234	1651.88
651.682	2140.88
652.129	2947.27
652.576	4199.88
653.023	6221.88
653.47	8574.38
653.917	10759.27
654.363	12501.68
654.81	13879.98
655.257	13226.18
655.704	8658.58
656.151	5092.07
656.598	3289.88
657.044	2342.97
657.491	1798.07
657.938	1431.77
658.385	1202.67
658.831	1045.67
659.278	923.77
659.724	819.17
660.171	752.67
660.618	701.98
661.064	668.67
661.511	635.57
661.957	620.97
662.404	619.17
662.85	622.17
663.296	596.98
663.743	537.27
664.189	520.07
664.635	510.57
665.082	501.87
665.528	506.08
665.974	498.98
666.42	494.77
666.867	481.98
667.313	471.77
667.759	460.27
668.205	457.67
668.651	458.47
669.097	456.88
669.543	473.07
669.989	450.57
670.435	429.58
670.881	416.97
671.327	432.27
671.773	440.38
672.219	462.07
672.665	515.27
673.11	549.77
673.556	596.87
674.002	642.48
674.448	621.17
674.893	528.98
675.339	451.67
675.785	415.37
676.23	407.67
676.676	371.87
677.122	359.08
677.567	354.27
678.013	352.27
678.458	337.68
678.904	334.58
679.349	325.68
679.794	334.98
680.24	338.88
680.685	330.87
681.131	328.67
681.576	329.07
682.021	333.87
682.466	335.77
682.912	330.77
683.357	332.87
683.802	364.08
684.247	382.67
684.692	436.67
685.137	467.37
685.583	517.17
686.028	535.88
686.473	495.17
686.918	424.57
687.363	397.38
687.807	374.38
688.252	347.17
688.697	345.27
689.142	327.98
689.587	309.77
690.032	304.07
690.477	326.38
690.921	331.47
691.366	356.57
691.811	382.27
692.255	413.57
692.7	439.77
693.145	471.17
693.589	649.58
694.034	1050.07
694.478	1447.88
694.923	1651.38
695.367	2172.88
695.812	1147.47
696.256	476.88
696.701	362.08
697.145	328.27
697.59	316.27
698.034	312.97
698.478	314.58
698.922	307.97
699.367	308.18
699.811	320.98
700.255	334.08
700.699	364.77
701.143	404.88
701.588	440.67
702.032	483.68
702.476	479.78
702.92	463.17
703.364	471.38
703.808	588.57
704.252	956.57
704.696	1365.78
705.14	1590.38
705.584	2037.38
706.027	1008.88
706.471	500.77
706.915	377.88
707.359	335.37
707.803	299.57
708.246	293.47
708.69	296.97
709.134	305.98
709.577	299.87
710.021	297.38
710.465	280.77
710.908	280.17
711.352	277.27
711.795	286.17
712.239	327.18
712.682	361.97
713.126	392.38
713.569	442.57
714.012	346.98
714.456	310.08
714.899	278.87
715.342	267.58
715.786	249.37
716.229	245.67
716.672	235.37
717.115	236.68
717.558	239.17
718.002	241.47
718.445	254.18
718.888	265.88
719.331	278.67
719.774	290.48
720.217	284.48
720.66	273.38
721.103	253.67
721.546	234.67
721.989	233.47
722.432	221.18
722.874	219.67
723.317	218.87
723.76	224.07
724.203	235.57
724.645	303.18
725.088	404.97
725.531	537.08
725.974	609.97
726.416	522.27
726.859	293.47
727.301	236.07
727.744	223.58
728.187	219.08
728.629	220.07
729.071	223.37
729.514	243.67
729.956	252.88
730.399	264.67
730.841	272.08
731.283	263.08
731.726	253.78
732.168	245.17
732.61	251.57
733.053	265.78
733.495	290.38
733.937	329.67
734.379	374.57
734.821	412.48
735.263	502.47
735.705	768.27
736.148	1462.07
736.59	2403.57
737.032	2924.07
737.474	2370.77
737.916	769.07
738.357	406.57
738.799	309.27
739.241	287.77
739.683	266.47
740.125	278.07
740.567	280.48
741.008	297.17
741.45	293.07
741.892	304.37
742.334	318.78
742.775	344.97
743.217	322.88
743.658	256.67
744.1	238.67
744.542	253.87
744.983	289.87
745.425	319.67
745.866	330.48
746.307	262.57
746.749	261.68
747.19	302.38
747.632	415.38
748.073	799.38
748.514	1716.97
748.956	2669.78
749.397	3351.97
749.838	2777.38
750.279	2823.97
750.72	1427.17
751.162	516.27
751.603	295.97
752.044	241.67
752.485	199.87
752.926	197.38
753.367	192.67
753.808	188.07
754.249	182.07
754.69	173.98
755.131	165.88
755.572	173.38
756.013	176.27
756.453	176.27
756.894	176.58
757.335	184.58
757.776	189.97
758.216	183.57
758.657	186.58
759.098	197.57
759.538	210.87
759.979	248.27
760.42	342.68
760.86	644.37
761.301	1650.47
761.741	4070.97
762.182	6131.88
762.622	4351.18
763.063	1236.48
763.503	511.17
763.943	317.97
764.384	309.88
764.824	384.58
765.264	420.77
765.705	294.38
766.145	200.27
766.585	180.87
767.025	166.27
767.465	176.67
767.906	223.98
768.346	295.67
768.786	322.77
769.226	239.37
769.666	294.38
770.106	568.67
770.546	1425.47
770.986	2507.07
771.426	2265.57
771.866	751.38
772.306	306.18
772.745	197.27
773.185	162.07
773.625	157.47
774.065	154.88
774.505	178.77
774.944	277.38
775.384	614.97
775.824	1133.08
776.263	1125.28
776.703	472.88
777.142	199.98
777.582	146.17
778.021	132.57
778.461	134.48
778.9	132.88
779.34	128.08
779.779	112.27
780.219	110.38
780.658	106.27
781.097	104.67
781.537	113.07
781.976	99.07
782.415	98.67
782.855	97.57
783.294	98.77
783.733	102.57
784.172	102.57
784.611	97.27
785.05	102.97
785.489	104.48
785.928	112.17
786.367	113.07
786.806	110.97
787.245	114.27
787.684	124.47
788.123	142.67
788.562	129.88
789.001	114.98
789.44	113.48
789.879	115.37
790.317	111.97
790.756	116.67
791.195	121.17
791.634	134.17
792.072	184.58
792.511	333.67
792.95	915.38
793.388	2009.18
793.827	1853.87
794.265	643.57
794.704	270.77
795.142	169.27
795.581	140.97
796.019	127.38
796.458	123.27
796.896	118.48
797.334	124.57
797.773	139.17
798.211	198.87
798.649	403.38
799.087	943.78
799.526	1501.57
799.964	1872.98
800.402	1917.47
800.84	714.27
801.278	283.18
801.716	175.67
802.154	139.77
802.592	141.27
803.03	128.98
803.468	121.67
803.906	134.67
804.344	138.27
804.782	134.98
805.22	123.37
805.658	121.97
806.096	137.58
806.533	151.57
806.971	162.87
807.409	208.07
807.847	290.08
808.284	604.47
808.722	1711.57
809.16	3095.98
809.597	2876.07
810.035	5039.68
810.472	5554.68
810.91	1976.88
811.347	736.78
811.785	377.67
812.222	241.97
812.66	185.88
813.097	153.57
813.535	129.97
813.972	119.38
814.409	113.47
814.846	99.98
815.284	101.77
815.721	96.07
816.158	103.08
816.595	110.48
817.032	163.87
817.47	185.87
817.907	166.77
818.344	142.27
818.781	107.08
819.218	91.27
819.655	113.67
820.092	176.57
820.529	197.57
820.966	169.27
821.403	121.07
821.839	97.27
822.276	100.38
822.713	120.17
823.15	127.38
823.587	112.77
824.023	138.97
824.46	273.17
824.897	827.27
825.333	1283.88
825.77	554.38
826.206	215.67
826.643	123.67
827.08	100.38
827.516	76.27
827.953	72.97
828.389	81.17
828.825	65.07
829.262	62.87
829.698	61.57
830.135	51.07
830.571	55.17
831.007	64.57
831.443	60.67
831.88	62.58
832.316	57.67
832.752	58.17
833.188	63.67
833.624	67.48
834.06	67.38
834.497	63.07
834.933	73.88
835.369	70.57
835.805	65.27
836.241	74.47
836.677	74.67
837.112	82.07
837.548	94.77
837.984	127.77
838.42	187.28
838.856	450.48
839.292	1399.98
839.727	2169.18
840.163	1009.58
840.599	849.68
841.034	1889.17
841.47	2019.87
841.906	733.78
842.341	313.87
842.777	209.28
843.212	291.77
843.648	286.57
844.083	138.27
844.519	94.58
844.954	71.38
845.39	57.57
845.825	53.38
846.261	58.27
846.696	51.17
847.131	49.48
847.566	56.47
848.002	45.07
848.437	47.98
848.872	59.38
849.307	61.48
849.742	85.67
850.177	162.88
850.613	512.08
851.048	842.97
851.483	368.47
851.918	140.47
852.353	82.17
852.788	58.97
853.223	53.87
853.657	46.77
854.092	41.48
854.527	41.87
854.962	43.57
855.397	38.67
855.832	46.77
856.266	36.58
856.701	38.67
857.136	33.88
857.57	41.98
858.005	49.17
858.44	55.88
858.874	42.98
859.309	44.98
859.743	36.67
860.178	41.77
860.612	36.97
861.047	46.07
861.481	62.38
861.915	71.58
862.35	47.07
862.784	33.07
863.218	36.88
863.653	31.27
864.087	40.57
864.521	54.27
864.955	63.98
865.39	148.77
865.824	164.67
866.258	111.58
866.692	159.38
867.126	162.27
867.56	97.87
867.994	45.17
868.428	41.88
868.862	40.67
869.296	52.48
869.73	55.07
870.164	49.57
870.598	46.08
871.031	40.77
871.465	30.77
871.899	35.48
872.333	20.58
872.766	25.98
873.2	19.07
873.634	25.77
874.067	26.07
874.501	22.87
874.935	32.37
875.368	37.57
875.802	24.57
876.235	27.87
876.669	20.07
877.102	19.88
877.535	21.48
877.969	21.98
878.402	25.67
878.836	17.07
879.269	24.77
879.702	21.47
880.135	15.77
880.569	19.77
881.002	19.08
881.435	23.77
881.868	18.67
882.301	18.17
882.734	17.67
883.167	20.07
883.601	20.38
884.034	24.87
884.467	13.58
884.899	17.47
885.332	17.67
885.765	22.38
886.198	14.97
886.631	14.47
887.064	15.17
887.497	24.67
887.929	22.77
888.362	13.17
888.795	9.47
889.228	15.38
889.66	17.17
890.093	16.67
890.526	17.57
890.958	14.48
891.391	20.88
891.823	23.67
892.256	16.57
892.688	10.47
893.121	11.17
893.553	9.27
893.985	19.97
894.418	14.17
894.85	16.17
895.282	15.07
895.715	12.47
896.147	16.08
896.579	13.27
897.011	12.08
897.444	13.98
897.876	15.08
898.308	13.07
898.74	17.67
899.172	11.67
899.604	23.08
900.036	18.67
900.468	13.27
900.9	11.57
901.332	19.87
901.764	18.77
902.196	18.77
902.628	18.17
903.06	12.37
903.491	23.97
903.923	18.88
904.355	16.58
904.787	19.77
905.218	17.98
905.65	21.77
906.082	16.77
906.513	15.37
906.945	11.27
907.376	15.67
907.808	25.77
908.239	16.08
908.671	19.17
909.102	19.48
909.534	27.08
909.965	39.57
910.397	88.77
910.828	298.17
911.259	450.78
911.691	206.27
912.122	100.27
912.553	54.88
912.984	34.08
913.415	26.08
913.847	23.67
914.278	14.27
914.709	12.97
915.14	20.98
915.571	18.17
916.002	13.27
916.433	16.88
916.864	14.77
917.295	11.97
917.726	20.07
918.157	21.17
918.587	35.88
919.018	17.98
919.449	24.17
919.88	21.17
920.311	31.57
920.741	44.97
921.172	155.77
921.603	146.67
922.033	73.07
922.464	36.27
922.895	20.87
923.325	18.98
923.756	12.57
924.186	16.67
924.617	19.48
925.047	38.27
925.478	51.77
925.908	41.77
926.338	22.38
926.769	13.67
927.199	19.38
927.629	8.77
928.06	23.38
928.49	16.67
928.92	15.07
929.35	12.48
929.78	11.17
930.21	4.87
930.641	9.07
931.071	11.67
931.501	10.27
931.931	8.08
932.361	2.77
932.791	-2.53
933.221	6.07
933.651	6.88
934.08	16.77
934.51	29.17
934.94	8.57
935.37	4.67
935.8	7.87
936.229	11.77
936.659	8.37
937.089	-4.12
937.519	13.57
937.948	17.87
938.378	16.38
938.807	3.87
939.237	0.48
939.666	2.98
940.096	-4.53
940.525	7.17
940.955	6.98
941.384	2.88
941.814	-0.83
942.243	-3.12
942.672	6.17
943.102	1.27
943.531	-2.23
943.96	3.88
944.39	4.47
944.819	1.47
945.248	2.27
945.677	4.07
946.106	10.17
946.535	11.37
946.964	2.77
947.393	4.27
947.822	1.38
948.251	2.37
948.68	5.48
949.109	5.77
949.538	6.48
949.967	-0.62
950.396	-2.63
950.825	1.17
951.254	2.38
951.682	-4.43
952.111	2.98
952.54	5.88
952.969	-8.23
953.397	-5.13
953.826	2.07
954.254	-5.12
954.683	6.07
955.112	0.07
955.54	1.67
955.969	-1.23
956.397	1.38
956.826	-3.12
957.254	7.27
957.682	-0.83
958.111	3.07
958.539	-2.23
958.967	3.27
959.396	-4.63
959.824	-3.92
960.252	-4.73
960.68	-7.33
961.109	-3.93
961.537	-3.83
961.965	-1.13
962.393	-3.83
962.821	-0.42
963.249	-0.23
963.677	0.27
964.105	2.97
964.533	36.08
964.961	36.37
965.389	21.88
965.817	9.47
966.245	3.17
966.672	-4.23
967.1	-2.83
967.528	0.27
967.956	-2.02
968.383	3.27
968.811	0.88
969.239	-0.93
969.666	-8.23
970.094	5.48
970.522	5.88
970.949	-2.93
971.377	-6.52
971.804	-3.83
972.232	-3.73
972.659	-1.43
973.087	-8.53
973.514	2.07
973.941	-0.43
974.369	-0.13
974.796	3.38
975.223	-0.93
975.651	0.98
976.078	6.77
976.505	-5.13
976.932	1.17
977.359	12.07
977.786	20.17
978.214	3.97
978.641	-2.63
979.068	-6.03
979.495	-4.13
979.922	-2.33
980.349	5.38
980.776	-0.73
981.202	-1.43
981.629	5.17
982.056	2.37
982.483	-3.02
982.91	-5.23
983.337	-3.73
983.763	7.17
984.19	-2.23
984.617	-1.83
985.043	-5.33
985.47	2.17
985.897	1.57
986.323	-5.33
986.75	1.08
987.176	1.87
987.603	-4.03
988.029	-0.83
988.456	-4.53
988.882	0.38
989.308	-6.13
989.735	-1.93
990.161	3.47
990.587	-5.13
991.014	-0.93
991.44	11.57
991.866	0.38
992.292	-2.12
992.719	-5.73
993.145	-1.73
993.571	-5.62
993.997	-1.33
994.423	-1.73
994.849	-6.63
995.275	-3.42
995.701	-4.03
996.127	2.67
996.553	0.98
996.979	0.88
997.405	-1.02
997.83	-4.03
998.256	-6.23
998.682	-2.12
999.108	-6.43
999.534	4.07
999.959	-5.53
1000.385	-8.53
1000.811	1.37
1001.236	-8.03
1001.662	-6.23
1002.087	-8.42
1002.513	-2.33
1002.938	0.27
1003.364	-4.33
1003.789	0.48
1004.215	5.48
1004.64	-0.93
1005.066	-1.52
1005.491	-3.12
1005.916	-7.03
1006.342	-0.83
1006.767	-4.33
1007.192	11.98
1007.617	-1.13
1008.042	-2.62
1008.468	-9.33
1008.893	1.17
1009.318	-3.83
1009.743	1.87
1010.168	1.07
1010.593	4.17
1011.018	-11.23
1011.443	-4.83
1011.868	5.67
1012.293	-3.52
1012.718	-8.42
1013.143	-3.23
1013.567	1.27
1013.992	-2.73
1014.417	-12.73
1014.842	-0.93
1015.267	-3.83
1015.691	2.07
1016.116	2.87
1016.541	-0.93
1016.965	1.37
1017.39	3.77
1017.814	1.08
1018.239	0.27
1018.663	-4.43
1019.088	-9.53
1019.512	-4.33
1019.937	1.47
1020.361	-5.03
1020.785	-7.93
1021.21	-3.62
1021.634	-3.52
1022.058	-7.23
1022.483	3.17
1022.907	-10.03
1023.331	-2.23
1023.755	1.57
1024.179	-2.03
1024.604	-7.73
1025.028	-4.83
1025.452	-2.63
1025.876	-5.43
1026.3	0.47
1026.724	-9.93
1027.148	-7.93
1027.572	-6.02
1027.996	-5.03
1028.42	0.07
1028.843	-4.73
1029.267	-4.83
1029.691	0.27
1030.115	-4.93
1030.539	-10.13
1030.962	-7.23
1031.386	-12.33
1031.81	-3.52
1032.233	5.48
1032.657	-5.12
1033.08	3.38
1033.504	0.77
1033.927	-3.62
1034.351	-2.73
1034.774	-3.73
1035.198	2.38
1035.621	-4.23
1036.045	-7.13
1036.468	-2.03
1036.891	-14.23
1037.315	-4.83
1037.738	-10.93
1038.161	-1.23
1038.584	-9.33
1039.008	-6.23
1039.431	-5.12
1039.854	0.67
1040.277	-13.52
1040.7	-11.52
1041.123	2.37
1041.546	-5.73
1041.969	-4.52
1042.392	-9.53
1042.815	-3.13
1043.238	3.47
1043.661	3.37
1044.084	-4.02
1044.507	-9.62
1044.93	-6.73
1045.352	-9.23
1045.775	1.17
1046.198	-1.43
1046.621	-2.12
1047.043	-2.73
1047.466	6.67
1047.889	-5.43
1048.311	-10.52
1048.734	-0.23
1049.156	2.07
1049.579	-2.23
1050.001	-4.62
1050.424	-3.03
1050.846	-3.83
1051.269	-3.62
1051.691	-8.12
1052.113	-9.03
1052.536	0.57
1052.958	-2.53
1053.38	-8.03
1053.802	-11.43
1054.225	1.97
1054.647	-7.93
1055.069	-7.03
1055.491	-1.23
1055.913	-10.73
1056.335	-1.13
1056.757	-0.62
1057.179	-8.03
1057.601	-8.93
1058.023	-8.73
1058.445	-2.23
1058.867	0.57
1059.289	-6.43
1059.711	-6.62
1060.133	-4.03
1060.555	-8.63
1060.976	-9.73
1061.398	-2.03
1061.82	-12.93
1062.241	-4.93
1062.663	-11.13
1063.085	-10.73
1063.506	-3.42
1063.928	-5.53
1064.35	2.57
1064.771	-10.93
1065.193	-4.23
1065.614	-9.73
1066.035	-3.73
1066.457	-5.73
1066.878	0.17
1067.3	-4.43
1067.721	-2.23
1068.142	-11.73
1068.564	-4.33
1068.985	-6.33
1069.406	-8.62
1069.827	-4.62
1070.248	-5.83
1070.67	-3.73
1071.091	-6.83
1071.512	1.37
1071.933	-10.43
1072.354	-7.62
1072.775	-7.62
1073.196	-12.23
1073.617	-3.53
1074.038	-4.23
1074.459	-7.83
1074.88	-14.83
1075.3	1.67
1075.721	-4.13
1076.142	-0.23
1076.563	-1.93
1076.983	-8.93
1077.404	-6.73
1077.825	-13.23
1078.246	-8.23
1078.666	-9.63
1079.087	-6.52
1079.507	-7.13
1079.928	-5.93
1080.348	3.67
1080.769	-7.73
1081.189	-1.12
1081.61	-4.52
1082.03	-5.73
1082.451	-6.23
1082.871	-8.62
1083.291	-7.93
1083.711	-10.83
1084.132	-7.73
1084.552	-2.33
1084.972	0.57
1085.392	-10.03
1085.813	-9.12
1086.233	-11.53
1086.653	-8.93
1087.073	-5.62
1087.493	-7.43
1087.913	-10.63
1088.333	-0.73
1088.753	-5.83
1089.173	-0.83
1089.593	-5.92
1090.013	-3.53
1090.433	-3.93
1090.852	-8.03
1091.272	-3.03
1091.692	2.97
1092.112	-5.62
1092.531	-14.13
1092.951	-12.52
1093.371	-0.03
1093.79	-0.33
1094.21	-3.62
1094.63	-8.93
1095.049	-7.93
1095.469	-1.83
1095.888	-5.93
1096.308	-4.73
1096.727	4.48
1097.146	-7.52
1097.566	-3.02
1097.985	-6.03
1098.405	-0.73
1098.824	-5.12
1099.243	-5.33
1099.662	-7.13
1100.082	-0.73
1100.501	-4.23
1100.92	-7.13
1101.339	-6.33
1101.758	-3.12
