Data from 20171114-ORNL-Ar_H_NY_Subt18_08-04-55-293.txt Node
Date: Tue Nov 14 08:04:55 EST 2017
User: Ender
Spectrometer: HR+D1039
Trigger mode: 0
Integration Time (sec): 2.730000E-2
Scans to average: 10
Electric dark correction enabled: true
Nonlinearity correction enabled: false
Boxcar width: 0
XAxis mode: Wavelengths
Number of Pixels in Spectrum: 2048
>>>>>Begin Spectral Data<<<<<
187.836	-1.51
188.309	-1.51
188.782	-1.51
189.255	-6.01
189.728	1.29
190.201	4.09
190.674	-2.31
191.147	0.79
191.619	-8.71
192.092	0.49
192.565	2.59
193.038	1.99
193.511	2.69
193.984	4.29
194.456	0.19
194.929	1.39
195.402	-2.71
195.874	1.49
196.347	-3.81
196.82	-5.01
197.292	3.19
197.765	-1.01
198.237	-6.51
198.71	-1.21
199.182	-5.71
199.655	4.49
200.127	4.49
200.6	-4.01
201.072	-1.01
201.544	-1.91
202.017	1.59
202.489	5.89
202.961	-1.31
203.433	-1.51
203.906	-4.81
204.378	-6.51
204.85	-3.71
205.322	-6.11
205.794	-4.51
206.266	-0.51
206.739	-8.61
207.211	0.99
207.683	-6.01
208.155	-4.01
208.627	-7.41
209.099	-4.01
209.57	-7.91
210.042	-1.91
210.514	0.29
210.986	2.59
211.458	-11.41
211.93	3.39
212.402	2.09
212.873	-8.51
213.345	-11.21
213.817	-15.11
214.288	-7.91
214.76	-10.31
215.232	-6.31
215.703	-3.11
216.175	-7.21
216.646	-3.81
217.118	-6.41
217.589	-2.81
218.061	-0.11
218.532	-0.51
219.004	-3.21
219.475	-3.91
219.946	3.99
220.418	-3.91
220.889	4.39
221.36	0.39
221.832	0.99
222.303	-10.51
222.774	0.39
223.245	-9.61
223.717	-9.01
224.188	-1.21
224.659	-11.51
225.13	-7.21
225.601	0.89
226.072	-0.21
226.543	3.59
227.014	-7.11
227.485	-1.31
227.956	-7.71
228.427	-3.01
228.898	6.19
229.369	0.99
229.839	0.29
230.31	-7.31
230.781	4.99
231.252	-4.61
231.722	-1.91
232.193	1.39
232.664	1.89
233.135	1.09
233.605	4.89
234.076	-4.01
234.546	2.99
235.017	4.09
235.487	-1.11
235.958	-1.91
236.428	2.59
236.899	5.39
237.369	3.59
237.84	0.19
238.31	10.69
238.78	7.69
239.251	-0.61
239.721	4.39
240.191	7.49
240.662	4.09
241.132	4.69
241.602	0.39
242.072	4.69
242.542	7.39
243.013	3.89
243.483	4.79
243.953	6.29
244.423	4.39
244.893	3.19
245.363	0.59
245.833	2.79
246.303	3.79
246.773	7.79
247.243	7.89
247.712	5.59
248.182	10.49
248.652	15.39
249.122	2.99
249.592	17.49
250.061	21.89
250.531	35.29
251.001	19.09
251.471	23.39
251.94	16.99
252.41	10.29
252.879	3.79
253.349	11.29
253.818	13.19
254.288	-0.31
254.757	11.39
255.227	2.09
255.696	6.79
256.166	5.79
256.635	7.79
257.105	11.49
257.574	9.19
258.043	9.09
258.513	10.29
258.982	16.99
259.451	11.39
259.92	13.89
260.389	10.79
260.859	19.39
261.328	16.89
261.797	13.19
262.266	8.89
262.735	14.69
263.204	7.59
263.673	3.59
264.142	7.39
264.611	1.59
265.08	-0.51
265.549	7.29
266.018	4.79
266.487	-4.41
266.955	5.49
267.424	7.59
267.893	7.69
268.362	3.99
268.83	4.39
269.299	14.69
269.768	13.59
270.236	7.99
270.705	10.39
271.174	5.89
271.642	15.49
272.111	15.99
272.579	21.49
273.048	25.29
273.516	34.39
273.985	34.09
274.453	26.59
274.922	21.19
275.39	13.59
275.858	4.49
276.327	10.39
276.795	25.89
277.263	10.09
277.731	37.89
278.2	59.59
278.668	59.89
279.136	51.29
279.604	19.69
280.072	22.49
280.54	14.59
281.008	14.09
281.477	17.39
281.945	13.29
282.413	15.29
282.881	16.49
283.348	8.59
283.816	19.59
284.284	12.29
284.752	21.99
285.22	23.39
285.688	20.19
286.156	23.59
286.623	53.79
287.091	53.39
287.559	34.69
288.026	19.09
288.494	18.89
288.962	6.39
289.429	12.69
289.897	16.59
290.364	17.09
290.832	25.79
291.3	17.89
291.767	19.09
292.234	18.39
292.702	14.49
293.169	14.29
293.637	29.59
294.104	23.19
294.571	11.19
295.039	11.29
295.506	15.99
295.973	17.39
296.44	14.19
296.908	16.99
297.375	16.39
297.842	21.29
298.309	16.59
298.776	21.29
299.243	27.29
299.71	20.59
300.177	19.59
300.644	24.49
301.111	25.09
301.578	26.89
302.045	18.99
302.512	22.99
302.979	25.29
303.446	21.69
303.913	22.79
304.379	24.39
304.846	31.69
305.313	34.29
305.78	27.39
306.246	25.09
306.713	34.39
307.18	33.19
307.646	30.29
308.113	33.49
308.579	26.19
309.046	25.99
309.512	29.39
309.979	28.19
310.445	29.89
310.912	34.19
311.378	35.39
311.845	29.59
312.311	32.79
312.777	34.49
313.244	31.39
313.71	39.99
314.176	36.29
314.642	38.09
315.109	33.29
315.575	37.69
316.041	38.39
316.507	37.59
316.973	40.39
317.439	37.39
317.905	37.29
318.371	38.29
318.837	36.69
319.303	30.59
319.769	33.59
320.235	35.39
320.701	35.79
321.167	42.19
321.633	40.79
322.099	45.59
322.564	46.89
323.03	43.79
323.496	37.29
323.962	41.49
324.427	39.99
324.893	40.19
325.359	41.49
325.824	40.59
326.29	32.79
326.755	44.19
327.221	39.99
327.686	39.09
328.152	45.99
328.617	43.79
329.083	52.59
329.548	51.89
330.014	49.39
330.479	40.19
330.944	46.79
331.41	48.79
331.875	45.49
332.34	45.79
332.805	47.29
333.271	52.59
333.736	42.99
334.201	57.29
334.666	51.49
335.131	52.89
335.596	51.39
336.061	49.59
336.526	42.59
336.991	53.39
337.456	63.99
337.921	52.19
338.386	53.19
338.851	45.19
339.316	47.49
339.781	49.29
340.246	57.29
340.711	53.09
341.175	50.89
341.64	47.09
342.105	52.89
342.569	51.79
343.034	60.89
343.499	59.79
343.963	53.89
344.428	63.49
344.893	67.19
345.357	62.79
345.822	64.09
346.286	68.09
346.751	78.99
347.215	66.89
347.679	78.39
348.144	98.19
348.608	80.69
349.073	71.09
349.537	71.79
350.001	77.99
350.465	87.19
350.93	86.19
351.394	84.29
351.858	72.69
352.322	90.49
352.786	86.09
353.25	102.69
353.715	102.09
354.179	99.79
354.643	123.89
355.107	124.99
355.571	112.69
356.035	111.29
356.498	117.29
356.962	119.59
357.426	134.69
357.89	115.39
358.354	87.09
358.818	82.59
359.281	83.99
359.745	83.89
360.209	79.79
360.673	82.19
361.136	86.29
361.6	88.59
362.064	82.69
362.527	81.59
362.991	90.69
363.454	78.29
363.918	77.19
364.381	82.29
364.845	83.09
365.308	84.69
365.772	89.99
366.235	80.69
366.698	79.89
367.162	91.69
367.625	88.49
368.088	91.09
368.552	95.09
369.015	90.99
369.478	98.49
369.941	96.79
370.404	92.99
370.867	101.39
371.331	112.89
371.794	114.29
372.257	113.19
372.72	116.39
373.183	108.99
373.646	105.09
374.109	102.59
374.572	104.69
375.035	103.69
375.497	105.39
375.96	108.19
376.423	105.59
376.886	108.59
377.349	106.89
377.811	98.89
378.274	107.99
378.737	105.39
379.199	108.69
379.662	109.89
380.125	123.79
380.587	117.79
381.05	120.99
381.512	129.39
381.975	135.99
382.437	127.39
382.9	119.99
383.362	134.29
383.825	142.59
384.287	139.59
384.75	138.89
385.212	132.99
385.674	135.99
386.136	139.59
386.599	117.89
387.061	126.29
387.523	121.99
387.985	130.19
388.447	141.69
388.91	139.19
389.372	149.79
389.834	151.59
390.296	135.29
390.758	154.59
391.22	162.39
391.682	204.89
392.144	287.29
392.606	232.79
393.068	161.29
393.529	163.49
393.991	149.89
394.453	142.69
394.915	159.19
395.377	190.19
395.838	212.39
396.3	159.19
396.762	133.69
397.224	132.59
397.685	127.89
398.147	138.79
398.608	121.09
399.07	132.09
399.531	128.99
399.993	142.59
400.454	145.39
400.916	142.19
401.377	143.79
401.839	146.09
402.3	148.59
402.762	165.09
403.223	176.19
403.684	160.99
404.145	157.59
404.607	153.49
405.068	167.09
405.529	171.99
405.99	184.39
406.451	170.89
406.913	165.09
407.374	159.19
407.835	155.89
408.296	161.69
408.757	166.89
409.218	180.69
409.679	168.69
410.14	173.19
410.601	175.09
411.062	186.59
411.522	184.09
411.983	179.39
412.444	168.69
412.905	173.69
413.366	170.99
413.826	185.49
414.287	208.59
414.748	244.59
415.208	235.29
415.669	205.29
416.13	199.09
416.59	192.59
417.051	206.49
417.511	211.59
417.972	227.69
418.432	235.39
418.893	273.89
419.353	242.79
419.814	193.89
420.274	178.09
420.734	182.99
421.195	191.19
421.655	193.59
422.115	186.29
422.576	185.29
423.036	191.89
423.496	200.29
423.956	198.09
424.416	221.49
424.876	265.99
425.336	250.69
425.797	251.29
426.257	246.29
426.717	232.09
427.177	222.59
427.637	220.29
428.097	227.89
428.556	236.09
429.016	262.39
429.476	261.89
429.936	266.89
430.396	264.99
430.856	282.19
431.315	301.39
431.775	339.39
432.235	370.89
432.694	341.19
433.154	345.59
433.614	374.29
434.073	317.49
434.533	276.89
434.993	268.89
435.452	269.59
435.912	291.19
436.371	283.89
436.83	275.89
437.29	257.39
437.749	236.99
438.209	239.49
438.668	267.09
439.127	279.29
439.587	260.19
440.046	245.59
440.505	252.89
440.964	269.09
441.424	313.19
441.883	301.79
442.342	239.39
442.801	214.89
443.26	204.29
443.719	202.09
444.178	213.89
444.637	207.99
445.096	218.29
445.555	212.79
446.014	219.19
446.473	210.39
446.932	221.19
447.391	224.29
447.849	221.99
448.308	209.79
448.767	212.09
449.226	226.19
449.685	222.19
450.143	238.99
450.602	226.49
451.061	220.99
451.519	220.49
451.978	229.09
452.436	231.39
452.895	228.49
453.353	245.99
453.812	229.99
454.27	232.89
454.729	233.29
455.187	226.19
455.646	232.49
456.104	239.29
456.562	249.99
457.021	260.19
457.479	252.49
457.937	255.89
458.395	252.89
458.854	232.79
459.312	248.19
459.77	257.49
460.228	249.49
460.686	232.99
461.144	239.99
461.602	235.89
462.06	234.49
462.518	247.89
462.976	240.09
463.434	251.29
463.892	247.79
464.35	274.19
464.808	279.19
465.266	253.79
465.724	254.79
466.181	268.79
466.639	258.99
467.097	282.19
467.555	293.29
468.012	287.59
468.47	302.49
468.928	314.49
469.385	340.49
469.843	340.49
470.3	336.19
470.758	349.39
471.215	366.49
471.673	395.49
472.13	389.79
472.588	397.29
473.045	355.29
473.503	355.99
473.96	387.29
474.417	392.69
474.875	415.59
475.332	451.49
475.789	443.69
476.246	458.89
476.704	471.09
477.161	487.79
477.618	502.59
478.075	549.29
478.532	583.29
478.989	669.99
479.446	774.49
479.903	746.09
480.36	784.69
480.817	831.59
481.274	933.59
481.731	1040.69
482.188	1134.99
482.645	1264.39
483.102	1368.19
483.558	1498.99
484.015	1562.79
484.472	1543.49
484.929	1473.49
485.385	1434.09
485.842	1397.19
486.299	1336.99
486.755	1267.39
487.212	1052.99
487.668	893.99
488.125	827.99
488.582	756.99
489.038	721.39
489.494	687.09
489.951	659.69
490.407	644.49
490.864	619.49
491.32	620.09
491.776	622.89
492.233	624.99
492.689	599.69
493.145	586.69
493.602	571.69
494.058	587.09
494.514	595.39
494.97	614.39
495.426	622.49
495.882	603.39
496.338	598.99
496.794	602.89
497.251	599.49
497.707	620.49
498.163	617.29
498.618	618.29
499.074	629.39
499.53	651.49
499.986	639.99
500.442	636.29
500.898	609.19
501.354	602.89
501.809	613.49
502.265	624.29
502.721	635.09
503.177	637.79
503.632	630.99
504.088	645.09
504.543	679.69
504.999	683.19
505.455	620.29
505.91	604.49
506.366	620.29
506.821	604.59
507.277	604.79
507.732	601.09
508.187	595.39
508.643	612.89
509.098	611.19
509.553	629.59
510.009	643.49
510.464	647.69
510.919	661.69
511.375	665.59
511.83	676.89
512.285	692.89
512.74	726.09
513.195	757.19
513.65	749.39
514.105	745.89
514.56	749.59
515.015	770.89
515.47	786.09
515.925	770.79
516.38	764.19
516.835	761.09
517.29	752.09
517.745	758.39
518.2	736.89
518.655	717.99
519.109	711.69
519.564	710.69
520.019	698.09
520.474	706.29
520.928	696.19
521.383	698.19
521.838	684.29
522.292	683.79
522.747	681.99
523.201	674.69
523.656	662.89
524.11	659.99
524.565	666.49
525.019	658.39
525.474	670.19
525.928	672.49
526.382	666.99
526.837	669.19
527.291	667.79
527.745	664.69
528.2	663.69
528.654	657.59
529.108	659.09
529.562	662.99
530.016	673.99
530.47	662.29
530.925	667.89
531.379	667.79
531.833	681.99
532.287	676.59
532.741	678.29
533.195	675.79
533.649	685.39
534.103	692.99
534.556	683.49
535.01	679.49
535.464	689.39
535.918	688.79
536.372	681.39
536.826	686.09
537.279	679.29
537.733	683.99
538.187	682.49
538.64	677.19
539.094	692.19
539.548	691.99
540.001	691.59
540.455	695.99
540.908	696.89
541.362	703.89
541.815	712.59
542.269	719.49
542.722	724.69
543.175	737.59
543.629	740.09
544.082	750.19
544.536	744.49
544.989	746.99
545.442	742.39
545.895	752.09
546.349	747.79
546.802	747.79
547.255	755.29
547.708	773.59
548.161	775.39
548.614	782.89
549.067	789.29
549.52	784.09
549.973	776.69
550.426	767.79
550.879	759.09
551.332	768.79
551.785	768.59
552.238	763.39
552.691	771.89
553.144	787.79
553.596	794.39
554.049	803.89
554.502	848.39
554.955	860.19
555.407	861.49
555.86	853.29
556.313	844.39
556.765	845.09
557.218	839.59
557.67	843.19
558.123	834.39
558.576	832.99
559.028	824.39
559.48	829.49
559.933	827.29
560.385	793.59
560.838	762.39
561.29	741.39
561.742	745.09
562.195	719.09
562.647	717.89
563.099	725.69
563.551	732.39
564.004	739.59
564.456	724.09
564.908	720.39
565.36	705.09
565.812	688.79
566.264	687.49
566.716	682.89
567.168	671.29
567.62	680.39
568.072	661.39
568.524	648.19
568.976	647.39
569.428	630.39
569.88	638.29
570.332	636.89
570.784	646.49
571.235	649.59
571.687	653.89
572.139	663.89
572.59	672.59
573.042	667.99
573.494	662.39
573.945	657.49
574.397	649.39
574.849	648.69
575.3	651.39
575.752	643.19
576.203	636.59
576.655	646.59
577.106	631.29
577.557	614.19
578.009	631.69
578.46	627.09
578.912	621.79
579.363	617.79
579.814	624.29
580.265	627.09
580.717	620.99
581.168	624.89
581.619	638.29
582.07	633.09
582.521	623.29
582.972	628.69
583.423	630.19
583.875	635.49
584.326	647.29
584.777	698.99
585.227	775.99
585.678	863.79
586.129	943.59
586.58	1022.99
587.031	1091.69
587.482	1247.09
587.933	1429.39
588.384	1248.49
588.834	915.49
589.285	747.39
589.736	734.99
590.186	726.89
590.637	709.99
591.088	690.39
591.538	686.09
591.989	679.29
592.439	674.89
592.89	677.39
593.34	656.49
593.791	659.39
594.241	654.29
594.692	659.49
595.142	651.29
595.593	645.69
596.043	656.19
596.493	664.09
596.943	668.19
597.394	668.19
597.844	660.49
598.294	669.59
598.744	696.39
599.195	719.89
599.645	766.89
600.095	785.09
600.545	846.19
600.995	878.99
601.445	951.19
601.895	1006.69
602.345	1045.09
602.795	1029.79
603.245	993.29
603.695	936.29
604.145	877.49
604.594	850.39
605.044	799.89
605.494	730.09
605.944	702.29
606.393	683.99
606.843	678.89
607.293	683.39
607.743	679.19
608.192	678.29
608.642	707.59
609.091	702.79
609.541	706.99
609.99	713.79
610.44	716.69
610.889	654.69
611.339	642.79
611.788	637.19
612.238	633.39
612.687	658.19
613.136	656.49
613.586	675.09
614.035	680.39
614.484	696.89
614.933	691.19
615.383	684.69
615.832	690.49
616.281	670.29
616.73	626.29
617.179	607.39
617.628	594.19
618.077	580.59
618.526	577.49
618.975	573.29
619.424	556.59
619.873	555.89
620.322	571.59
620.771	561.99
621.22	551.09
621.669	552.59
622.118	540.29
622.567	533.69
623.015	524.29
623.464	521.19
623.913	507.89
624.361	505.39
624.81	501.89
625.259	497.69
625.707	510.99
626.156	510.59
626.604	516.19
627.053	513.89
627.501	515.49
627.95	521.69
628.398	531.39
628.847	515.09
629.295	529.09
629.744	524.69
630.192	520.79
630.64	515.69
631.089	511.59
631.537	515.99
631.985	534.49
632.433	543.29
632.881	551.49
633.33	599.79
633.778	575.49
634.226	522.09
634.674	518.69
635.122	514.39
635.57	536.09
636.018	563.69
636.466	534.69
636.914	505.19
637.362	511.89
637.81	524.89
638.258	514.19
638.705	519.29
639.153	550.39
639.601	554.69
640.049	582.39
640.497	606.99
640.944	630.59
641.392	581.89
641.84	550.89
642.287	529.09
642.735	515.99
643.182	520.59
643.63	520.09
644.078	520.89
644.525	534.09
644.973	540.39
645.42	550.69
645.867	566.89
646.315	583.89
646.762	598.49
647.21	626.69
647.657	646.49
648.104	684.79
648.551	696.89
648.999	750.69
649.446	820.89
649.893	912.79
650.34	1040.89
650.787	1250.39
651.234	1544.79
651.682	2006.39
652.129	2752.69
652.576	3942.59
653.023	5885.79
653.47	8105.99
653.917	10235.09
654.363	11964.89
654.81	13351.89
655.257	12663.09
655.704	8239.59
656.151	4854.39
656.598	3139.29
657.044	2216.19
657.491	1702.89
657.938	1360.19
658.385	1139.49
658.831	980.69
659.278	877.09
659.724	773.19
660.171	717.89
660.618	647.69
661.064	624.89
661.511	608.79
661.957	580.79
662.404	576.09
662.85	585.29
663.296	561.99
663.743	503.59
664.189	491.19
664.635	484.09
665.082	474.19
665.528	469.69
665.974	465.19
666.42	463.59
666.867	453.39
667.313	443.19
667.759	435.89
668.205	426.89
668.651	440.59
669.097	438.19
669.543	456.29
669.989	427.09
670.435	397.99
670.881	406.59
671.327	409.99
671.773	414.59
672.219	429.69
672.665	482.99
673.11	520.19
673.556	560.19
674.002	596.99
674.448	593.49
674.893	496.69
675.339	423.99
675.785	391.09
676.23	373.69
676.676	344.89
677.122	344.99
677.567	329.19
678.013	326.59
678.458	317.29
678.904	319.69
679.349	308.69
679.794	320.69
680.24	309.99
680.685	316.89
681.131	302.99
681.576	309.39
682.021	315.59
682.466	306.09
682.912	314.29
683.357	311.79
683.802	337.29
684.247	367.19
684.692	396.49
685.137	446.49
685.583	473.69
686.028	511.19
686.473	468.29
686.918	404.29
687.363	364.79
687.807	351.39
688.252	331.89
688.697	309.79
689.142	300.79
689.587	292.39
690.032	286.59
690.477	300.79
690.921	315.69
691.366	335.29
691.811	353.59
692.255	383.09
692.7	405.49
693.145	443.59
693.589	602.19
694.034	975.89
694.478	1350.69
694.923	1556.59
695.367	2049.59
695.812	1066.89
696.256	437.89
696.701	334.59
697.145	301.99
697.59	294.29
698.034	286.29
698.478	288.29
698.922	291.59
699.367	289.79
699.811	305.09
700.255	319.99
700.699	340.69
701.143	378.89
701.588	421.79
702.032	464.79
702.476	459.79
702.92	434.19
703.364	428.59
703.808	553.29
704.252	889.09
704.696	1262.89
705.14	1492.49
705.584	1914.79
706.027	951.89
706.471	459.49
706.915	355.49
707.359	310.89
707.803	285.89
708.246	278.39
708.69	274.39
709.134	276.89
709.577	274.49
710.021	276.59
710.465	266.79
710.908	262.89
711.352	255.69
711.795	278.29
712.239	298.89
712.682	338.29
713.126	365.89
713.569	419.09
714.012	328.29
714.456	291.59
714.899	265.29
715.342	247.19
715.786	233.09
716.229	229.39
716.672	220.69
717.115	224.29
717.558	217.79
718.002	222.69
718.445	224.19
718.888	251.59
719.331	256.89
719.774	276.29
720.217	269.89
720.66	246.69
721.103	229.99
721.546	219.49
721.989	218.29
722.432	205.69
722.874	212.39
723.317	198.59
723.76	206.69
724.203	226.79
724.645	279.59
725.088	392.79
725.531	507.59
725.974	568.29
726.416	484.19
726.859	269.39
727.301	215.89
727.744	210.29
728.187	206.79
728.629	219.39
729.071	204.49
729.514	229.69
729.956	238.69
730.399	244.39
730.841	245.29
731.283	237.69
731.726	235.69
732.168	229.69
732.61	234.19
733.053	248.29
733.495	270.79
733.937	303.99
734.379	351.49
734.821	381.49
735.263	469.39
735.705	708.39
736.148	1350.89
736.59	2263.59
737.032	2750.59
737.474	2224.29
737.916	718.99
738.357	384.59
738.799	283.99
739.241	256.79
739.683	249.89
740.125	255.49
740.567	269.79
741.008	281.49
741.45	281.99
741.892	275.49
742.334	303.19
742.775	319.99
743.217	301.99
743.658	232.49
744.1	221.59
744.542	227.29
744.983	266.99
745.425	304.19
745.866	304.49
746.307	249.99
746.749	245.69
747.19	288.39
747.632	394.79
748.073	744.69
748.514	1587.89
748.956	2515.19
749.397	3146.09
749.838	2607.19
750.279	2663.09
750.72	1332.39
751.162	476.69
751.603	278.59
752.044	223.69
752.485	187.39
752.926	176.09
753.367	177.39
753.808	164.39
754.249	164.39
754.69	169.99
755.131	155.59
755.572	164.79
756.013	158.09
756.453	162.89
756.894	163.09
757.335	166.39
757.776	171.49
758.216	166.79
758.657	176.49
759.098	175.69
759.538	201.29
759.979	230.39
760.42	322.79
760.86	585.29
761.301	1541.39
761.741	3808.59
762.182	5812.79
762.622	4076.59
763.063	1162.39
763.503	482.89
763.943	303.89
764.384	297.39
764.824	360.09
765.264	393.79
765.705	270.89
766.145	178.09
766.585	167.39
767.025	163.79
767.465	167.19
767.906	213.99
768.346	278.09
768.786	305.49
769.226	228.29
769.666	280.39
770.106	525.89
770.546	1324.79
770.986	2345.19
771.426	2138.79
771.866	702.19
772.306	277.59
772.745	179.59
773.185	148.39
773.625	147.49
774.065	147.69
774.505	171.49
774.944	262.99
775.384	591.69
775.824	1115.49
776.263	1112.19
776.703	455.09
777.142	200.09
777.582	141.39
778.021	129.19
778.461	124.49
778.9	124.59
779.34	115.99
779.779	108.39
780.219	100.99
780.658	94.39
781.097	97.19
781.537	100.09
781.976	106.79
782.415	94.19
782.855	88.59
783.294	91.39
783.733	93.69
784.172	95.49
784.611	83.19
785.05	93.49
785.489	93.69
785.928	104.29
786.367	102.79
786.806	100.79
787.245	114.19
787.684	120.59
788.123	140.69
788.562	117.19
789.001	112.39
789.44	108.59
789.879	104.69
790.317	102.89
790.756	109.99
791.195	112.39
791.634	131.49
792.072	181.29
792.511	301.59
792.95	851.39
793.388	1885.99
793.827	1750.79
794.265	597.29
794.704	248.89
795.142	158.39
795.581	135.49
796.019	119.19
796.458	110.79
796.896	111.09
797.334	112.49
797.773	142.19
798.211	184.79
798.649	373.99
799.087	879.19
799.526	1391.89
799.964	1780.09
800.402	1834.59
800.84	667.09
801.278	265.99
801.716	161.49
802.154	131.09
802.592	123.29
803.03	125.49
803.468	118.99
803.906	125.29
804.344	129.69
804.782	121.79
805.22	114.89
805.658	112.39
806.096	128.89
806.533	139.89
806.971	151.89
807.409	187.39
807.847	269.09
808.284	562.89
808.722	1600.89
809.16	2932.89
809.597	2699.39
810.035	4743.79
810.472	5264.89
810.91	1866.69
811.347	704.59
811.785	364.09
812.222	226.19
812.66	179.19
813.097	147.99
813.535	130.39
813.972	113.29
814.409	106.39
814.846	96.19
815.284	95.09
815.721	93.99
816.158	94.79
816.595	103.99
817.032	156.39
817.47	178.99
817.907	138.29
818.344	126.59
818.781	106.49
819.218	86.89
819.655	106.29
820.092	165.19
820.529	202.99
820.966	157.19
821.403	119.69
821.839	95.19
822.276	88.19
822.713	108.49
823.15	116.59
823.587	102.89
824.023	125.49
824.46	256.79
824.897	767.99
825.333	1231.39
825.77	510.69
826.206	196.89
826.643	122.79
827.08	91.69
827.516	66.19
827.953	64.49
828.389	68.89
828.825	62.49
829.262	59.49
829.698	53.89
830.135	54.39
830.571	57.29
831.007	54.69
831.443	50.09
831.88	52.79
832.316	59.59
832.752	56.39
833.188	62.69
833.624	57.69
834.06	61.69
834.497	60.49
834.933	60.49
835.369	59.49
835.805	57.19
836.241	63.39
836.677	59.69
837.112	77.19
837.548	88.09
837.984	117.29
838.42	167.59
838.856	415.79
839.292	1311.29
839.727	2076.29
840.163	949.09
840.599	792.99
841.034	1776.49
841.47	1918.09
841.906	697.19
842.341	297.39
842.777	205.19
843.212	288.39
843.648	283.99
844.083	143.59
844.519	87.29
844.954	63.89
845.39	50.69
845.825	47.59
846.261	51.59
846.696	51.39
847.131	49.59
847.566	53.79
848.002	41.19
848.437	45.09
848.872	54.59
849.307	53.19
849.742	79.29
850.177	153.59
850.613	479.39
851.048	784.19
851.483	346.69
851.918	134.19
852.353	73.19
852.788	52.39
853.223	47.69
853.657	46.69
854.092	43.29
854.527	39.59
854.962	33.09
855.397	38.09
855.832	44.89
856.266	36.29
856.701	35.59
857.136	39.59
857.57	36.09
858.005	44.99
858.44	54.39
858.874	41.09
859.309	48.89
859.743	36.39
860.178	40.29
860.612	35.29
861.047	48.19
861.481	61.29
861.915	59.29
862.35	47.19
862.784	27.79
863.218	37.39
863.653	24.19
864.087	42.49
864.521	50.79
864.955	56.49
865.39	132.89
865.824	148.29
866.258	102.29
866.692	140.79
867.126	160.29
867.56	96.59
867.994	51.19
868.428	35.39
868.862	42.89
869.296	51.49
869.73	51.69
870.164	46.29
870.598	38.19
871.031	35.09
871.465	24.39
871.899	33.69
872.333	16.49
872.766	24.89
873.2	21.49
873.634	27.09
874.067	24.79
874.501	17.09
874.935	39.39
875.368	31.39
875.802	23.89
876.235	24.59
876.669	19.89
877.102	21.09
877.535	21.29
877.969	24.49
878.402	19.19
878.836	14.59
879.269	20.79
879.702	28.69
880.135	15.89
880.569	23.69
881.002	21.59
881.435	17.09
881.868	15.19
882.301	23.29
882.734	17.39
883.167	14.79
883.601	15.59
884.034	19.59
884.467	5.99
884.899	18.19
885.332	13.79
885.765	13.39
886.198	15.69
886.631	16.79
887.064	16.19
887.497	19.09
887.929	21.49
888.362	17.09
888.795	9.79
889.228	16.59
889.66	12.19
890.093	12.99
890.526	17.29
890.958	18.29
891.391	18.49
891.823	17.79
892.256	12.29
892.688	12.09
893.121	16.49
893.553	17.69
893.985	18.69
894.418	15.39
894.85	5.19
895.282	15.49
895.715	17.29
896.147	12.09
896.579	13.29
897.011	11.39
897.444	11.59
897.876	10.39
898.308	15.09
898.74	18.49
899.172	10.19
899.604	19.99
900.036	18.79
900.468	12.39
900.9	9.79
901.332	18.19
901.764	9.19
902.196	19.79
902.628	16.69
903.06	16.89
903.491	23.69
903.923	23.89
904.355	17.69
904.787	21.79
905.218	19.99
905.65	19.89
906.082	11.09
906.513	7.39
906.945	17.79
907.376	8.69
907.808	19.09
908.239	21.19
908.671	18.49
909.102	19.29
909.534	17.99
909.965	33.19
910.397	79.29
910.828	277.59
911.259	434.39
911.691	198.59
912.122	94.39
912.553	43.19
912.984	31.59
913.415	19.89
913.847	19.39
914.278	12.29
914.709	14.29
915.14	12.59
915.571	17.59
916.002	7.29
916.433	15.69
916.864	13.39
917.295	17.19
917.726	17.59
918.157	18.19
918.587	28.99
919.018	16.69
919.449	23.89
919.88	15.79
920.311	31.19
920.741	42.19
921.172	149.79
921.603	137.99
922.033	62.39
922.464	42.49
922.895	13.09
923.325	18.89
923.756	16.59
924.186	12.79
924.617	23.09
925.047	33.19
925.478	42.99
925.908	36.19
926.338	23.99
926.769	15.29
927.199	18.49
927.629	10.29
928.06	14.79
928.49	14.09
928.92	19.29
929.35	10.19
929.78	9.79
930.21	6.49
930.641	6.49
931.071	12.69
931.501	4.59
931.931	3.29
932.361	7.09
932.791	3.39
933.221	7.69
933.651	4.79
934.08	18.69
934.51	29.89
934.94	9.09
935.37	6.79
935.8	11.69
936.229	3.59
936.659	11.59
937.089	0.99
937.519	9.39
937.948	17.09
938.378	11.39
938.807	1.69
939.237	2.19
939.666	12.09
940.096	-7.51
940.525	6.89
940.955	-0.91
941.384	4.79
941.814	-2.11
942.243	1.89
942.672	3.59
943.102	-3.51
943.531	3.49
943.96	6.19
944.39	4.59
944.819	-3.41
945.248	-1.61
945.677	0.29
946.106	8.89
946.535	-0.21
946.964	-1.61
947.393	4.99
947.822	-3.11
948.251	-4.11
948.68	6.39
949.109	11.39
949.538	-3.81
949.967	0.39
950.396	-0.51
950.825	3.09
951.254	-0.31
951.682	-4.31
952.111	2.69
952.54	6.29
952.969	-1.71
953.397	-1.21
953.826	-1.41
954.254	-4.11
954.683	-0.31
955.112	-1.21
955.54	4.29
955.969	5.69
956.397	0.29
956.826	-6.41
957.254	1.29
957.682	0.89
958.111	4.49
958.539	0.39
958.967	3.09
959.396	-4.31
959.824	0.99
960.252	-3.71
960.68	-1.01
961.109	-3.01
961.537	-3.61
961.965	1.19
962.393	-6.71
962.821	-4.71
963.249	-0.01
963.677	7.29
964.105	7.59
964.533	43.39
964.961	35.29
965.389	15.49
965.817	7.99
966.245	2.29
966.672	1.89
967.1	-8.31
967.528	-0.21
967.956	2.49
968.383	-1.51
968.811	-3.31
969.239	6.09
969.666	-1.81
970.094	4.19
970.522	1.09
970.949	-8.71
971.377	-1.71
971.804	0.99
972.232	0.39
972.659	-0.41
973.087	-1.01
973.514	-4.61
973.941	-5.71
974.369	0.59
974.796	2.79
975.223	5.59
975.651	-1.41
976.078	2.89
976.505	-4.11
976.932	5.29
977.359	13.79
977.786	13.99
978.214	2.39
978.641	-4.31
979.068	0.89
979.495	-6.81
979.922	2.49
980.349	-3.41
980.776	5.09
981.202	-2.91
981.629	2.29
982.056	2.89
982.483	-0.91
982.91	3.59
983.337	-8.01
983.763	5.99
984.19	-7.71
984.617	-6.31
985.043	-4.21
985.47	-3.01
985.897	-4.31
986.323	-5.31
986.75	1.99
987.176	0.69
987.603	-0.81
988.029	0.99
988.456	0.39
988.882	5.99
989.308	-7.81
989.735	-1.21
990.161	0.39
990.587	-4.11
991.014	-4.71
991.44	3.89
991.866	-3.41
992.292	-4.61
992.719	-1.51
993.145	0.89
993.571	-8.41
993.997	2.09
994.423	-7.71
994.849	-8.31
995.275	3.99
995.701	1.79
996.127	-6.01
996.553	-0.71
996.979	-4.31
997.405	-5.21
997.83	-7.51
998.256	-6.11
998.682	-3.51
999.108	-7.21
999.534	-3.91
999.959	-3.31
1000.385	-3.91
1000.811	1.49
1001.236	-6.91
1001.662	-2.01
1002.087	-5.41
1002.513	3.19
1002.938	5.89
1003.364	-0.41
1003.789	2.69
1004.215	4.79
1004.64	-5.01
1005.066	-1.51
1005.491	1.49
1005.916	-3.81
1006.342	-5.51
1006.767	-3.61
1007.192	7.89
1007.617	-3.31
1008.042	-4.81
1008.468	-2.81
1008.893	-3.31
1009.318	-2.11
1009.743	-1.71
1010.168	3.59
1010.593	4.19
1011.018	-11.81
1011.443	0.29
1011.868	-0.11
1012.293	-5.11
1012.718	-5.81
1013.143	2.59
1013.567	3.29
1013.992	-0.31
1014.417	-10.41
1014.842	-0.91
1015.267	-7.01
1015.691	-6.71
1016.116	0.39
1016.541	-1.51
1016.965	4.99
1017.39	2.99
1017.814	-1.71
1018.239	-1.71
1018.663	-7.31
1019.088	-1.11
1019.512	-4.61
1019.937	3.99
1020.361	-9.61
1020.785	-8.01
1021.21	-1.71
1021.634	0.99
1022.058	2.79
1022.483	0.69
1022.907	-1.51
1023.331	-6.61
1023.755	-6.61
1024.179	-4.81
1024.604	-11.21
1025.028	-9.81
1025.452	-8.01
1025.876	-2.41
1026.3	1.89
1026.724	-3.71
1027.148	-1.11
1027.572	-10.91
1027.996	0.09
1028.42	4.79
1028.843	-2.01
1029.267	-5.61
1029.691	-0.91
1030.115	-9.31
1030.539	-7.41
1030.962	-3.81
1031.386	-11.11
1031.81	-1.61
1032.233	0.09
1032.657	4.79
1033.08	-0.41
1033.504	-2.71
1033.927	-6.71
1034.351	-1.71
1034.774	-7.31
1035.198	-1.71
1035.621	-9.11
1036.045	-4.11
1036.468	1.29
1036.891	-8.51
1037.315	-8.61
1037.738	-12.11
1038.161	1.89
1038.584	-7.21
1039.008	-7.01
1039.431	-6.21
1039.854	1.29
1040.277	-12.31
1040.7	-7.41
1041.123	1.19
1041.546	-5.71
1041.969	0.39
1042.392	-1.81
1042.815	6.39
1043.238	-0.31
1043.661	3.59
1044.084	-7.81
1044.507	0.69
1044.93	-0.61
1045.352	-10.91
1045.775	-2.01
1046.198	-5.81
1046.621	5.69
1047.043	-2.41
1047.466	6.99
1047.889	-7.91
1048.311	-8.11
1048.734	-3.61
1049.156	-3.31
1049.579	1.39
1050.001	-4.31
1050.424	3.39
1050.846	-3.01
1051.269	-4.91
1051.691	-0.41
1052.113	-0.21
1052.536	2.39
1052.958	-1.81
1053.38	-7.71
1053.802	-8.81
1054.225	-1.11
1054.647	-10.01
1055.069	0.99
1055.491	2.19
1055.913	-12.91
1056.335	-1.51
1056.757	-6.71
1057.179	-9.61
1057.601	-5.01
1058.023	-0.01
1058.445	-4.11
1058.867	-6.31
1059.289	-1.01
1059.711	-5.31
1060.133	-3.31
1060.555	-4.51
1060.976	-8.21
1061.398	-9.01
1061.82	-8.21
1062.241	-7.11
1062.663	-11.41
1063.085	-7.51
1063.506	3.59
1063.928	-7.21
1064.35	-3.81
1064.771	-9.71
1065.193	-2.31
1065.614	-7.31
1066.035	-1.61
1066.457	-1.41
1066.878	0.59
1067.3	-7.01
1067.721	-7.91
1068.142	-10.41
1068.564	-0.91
1068.985	-1.11
1069.406	-4.81
1069.827	-0.81
1070.248	-0.01
1070.67	-9.41
1071.091	-4.21
1071.512	-2.11
1071.933	-6.71
1072.354	-11.61
1072.775	-4.61
1073.196	-3.91
1073.617	-0.31
1074.038	-2.51
1074.459	-2.51
1074.88	-4.91
1075.3	-2.61
1075.721	0.49
1076.142	3.09
1076.563	-0.51
1076.983	-6.61
1077.404	-8.41
1077.825	-7.11
1078.246	-3.11
1078.666	-7.51
1079.087	-3.01
1079.507	-10.11
1079.928	0.99
1080.348	-2.71
1080.769	-6.71
1081.189	-2.01
1081.61	-2.81
1082.03	-5.51
1082.451	-2.31
1082.871	-6.11
1083.291	-9.31
1083.711	-11.51
1084.132	-7.81
1084.552	-6.51
1084.972	2.09
1085.392	-11.21
1085.813	-11.31
1086.233	-2.31
1086.653	-4.61
1087.073	3.79
1087.493	-6.81
1087.913	-5.61
1088.333	-5.81
1088.753	-3.91
1089.173	4.89
1089.593	-3.91
1090.013	-0.01
1090.433	-1.41
1090.852	-2.71
1091.272	-2.61
1091.692	0.69
1092.112	-1.51
1092.531	-6.21
1092.951	-4.81
1093.371	-2.81
1093.79	-0.91
1094.21	-3.41
1094.63	-2.21
1095.049	-5.71
1095.469	-5.31
1095.888	1.79
1096.308	-3.31
1096.727	5.39
1097.146	-8.91
1097.566	3.09
1097.985	-4.71
1098.405	-4.81
1098.824	-8.51
1099.243	-7.61
1099.662	-6.51
1100.082	-1.71
1100.501	-2.01
1100.92	-10.41
1101.339	-3.51
1101.758	-4.71
