Data from 20171114-ORNL-Ar_H_NY_Subt18_08-07-06-321.txt Node
Date: Tue Nov 14 08:07:06 EST 2017
User: Ender
Spectrometer: HR+D1039
Trigger mode: 0
Integration Time (sec): 2.730000E-2
Scans to average: 10
Electric dark correction enabled: true
Nonlinearity correction enabled: false
Boxcar width: 0
XAxis mode: Wavelengths
Number of Pixels in Spectrum: 2048
>>>>>Begin Spectral Data<<<<<
187.836	-7.81
188.309	-7.81
188.782	-7.81
189.255	3.69
189.728	-5.81
190.201	5.09
190.674	4.19
191.147	5.49
191.619	2.39
192.092	-0.41
192.565	1.99
193.038	-3.51
193.511	-1.81
193.984	-0.01
194.456	-5.31
194.929	5.89
195.402	-2.41
195.874	-1.61
196.347	1.89
196.82	-5.21
197.292	0.39
197.765	2.89
198.237	-5.41
198.71	6.49
199.182	-6.81
199.655	-0.41
200.127	-1.21
200.6	-4.01
201.072	-12.21
201.544	-8.71
202.017	-3.01
202.489	-2.71
202.961	-4.61
203.433	-6.31
203.906	-7.21
204.378	-10.61
204.85	-6.31
205.322	-11.61
205.794	-5.71
206.266	-2.91
206.739	-6.11
207.211	4.69
207.683	-10.01
208.155	-1.81
208.627	-6.21
209.099	-8.51
209.57	-7.91
210.042	-6.41
210.514	1.59
210.986	-9.41
211.458	-6.11
211.93	-5.21
212.402	-3.91
212.873	-10.11
213.345	-11.81
213.817	-14.91
214.288	-6.31
214.76	-12.21
215.232	-6.11
215.703	-3.91
216.175	-3.31
216.646	-5.21
217.118	-7.41
217.589	-5.51
218.061	-2.81
218.532	-6.01
219.004	-2.81
219.475	-4.11
219.946	-0.31
220.418	-7.41
220.889	-0.51
221.36	2.19
221.832	-9.51
222.303	-8.51
222.774	-2.91
223.245	-10.41
223.717	-5.41
224.188	-3.81
224.659	-9.11
225.13	-5.31
225.601	-5.11
226.072	5.49
226.543	-0.81
227.014	-2.41
227.485	-2.21
227.956	-7.91
228.427	-4.91
228.898	-3.71
229.369	-2.51
229.839	-7.41
230.31	-13.21
230.781	-4.01
231.252	-9.91
231.722	1.09
232.193	-3.31
232.664	2.39
233.135	-7.21
233.605	-5.51
234.076	-8.01
234.546	-0.31
235.017	0.49
235.487	-5.31
235.958	-5.51
236.428	-5.01
236.899	-3.71
237.369	-6.01
237.84	-3.81
238.31	-1.51
238.78	-3.01
239.251	-9.21
239.721	-4.91
240.191	-4.41
240.662	-5.91
241.132	-0.71
241.602	-5.41
242.072	-0.41
242.542	-1.31
243.013	-4.31
243.483	-2.71
243.953	-1.21
244.423	-3.61
244.893	-10.21
245.363	2.19
245.833	-5.11
246.303	-6.41
246.773	-0.71
247.243	-0.11
247.712	-5.71
248.182	-4.81
248.652	4.79
249.122	-11.01
249.592	-5.41
250.061	-2.11
250.531	9.29
251.001	-7.51
251.471	2.79
251.94	6.69
252.41	-1.11
252.879	-6.71
253.349	5.39
253.818	6.39
254.288	-3.61
254.757	-1.01
255.227	-8.61
255.696	-3.41
256.166	2.99
256.635	1.39
257.105	-1.21
257.574	-2.71
258.043	-2.31
258.513	-7.11
258.982	5.29
259.451	-6.01
259.92	-2.91
260.389	-0.61
260.859	0.79
261.328	-0.11
261.797	-1.01
262.266	-0.91
262.735	9.19
263.204	2.99
263.673	0.59
264.142	5.19
264.611	-6.51
265.08	-0.81
265.549	-5.41
266.018	0.99
266.487	-5.31
266.955	-7.01
267.424	-0.01
267.893	1.39
268.362	3.69
268.83	-2.41
269.299	9.09
269.768	5.39
270.236	-0.81
270.705	2.59
271.174	-1.21
271.642	4.79
272.111	2.09
272.579	7.49
273.048	1.79
273.516	2.69
273.985	4.89
274.453	5.09
274.922	12.19
275.39	3.19
275.858	-3.41
276.327	1.29
276.795	6.39
277.263	4.69
277.731	9.29
278.2	0.69
278.668	2.49
279.136	7.89
279.604	3.39
280.072	5.79
280.54	11.29
281.008	1.59
281.477	6.19
281.945	7.49
282.413	2.99
282.881	2.89
283.348	3.59
283.816	5.29
284.284	6.69
284.752	10.79
285.22	11.79
285.688	8.19
286.156	7.69
286.623	12.39
287.091	3.49
287.559	5.99
288.026	3.99
288.494	6.29
288.962	-1.01
289.429	7.59
289.897	9.39
290.364	12.79
290.832	11.79
291.3	8.19
291.767	12.39
292.234	10.59
292.702	2.09
293.169	6.69
293.637	25.29
294.104	9.59
294.571	-2.71
295.039	2.89
295.506	7.39
295.973	9.09
296.44	4.69
296.908	9.19
297.375	5.89
297.842	10.09
298.309	7.49
298.776	7.19
299.243	9.69
299.71	5.89
300.177	15.49
300.644	11.69
301.111	12.49
301.578	15.19
302.045	12.29
302.512	16.69
302.979	18.79
303.446	13.49
303.913	15.49
304.379	11.19
304.846	21.49
305.313	18.89
305.78	14.19
306.246	15.99
306.713	20.49
307.18	15.19
307.646	16.99
308.113	22.79
308.579	16.49
309.046	19.79
309.512	18.59
309.979	11.79
310.445	24.99
310.912	23.09
311.378	26.29
311.845	22.59
312.311	21.79
312.777	24.99
313.244	19.49
313.71	32.59
314.176	24.39
314.642	17.39
315.109	18.79
315.575	28.59
316.041	29.79
316.507	20.59
316.973	31.19
317.439	26.99
317.905	23.19
318.371	32.29
318.837	29.39
319.303	27.49
319.769	24.09
320.235	22.49
320.701	28.49
321.167	22.39
321.633	19.49
322.099	29.59
322.564	33.59
323.03	35.89
323.496	26.49
323.962	33.99
324.427	25.69
324.893	33.89
325.359	32.29
325.824	29.99
326.29	30.69
326.755	31.79
327.221	37.09
327.686	29.89
328.152	43.49
328.617	33.89
329.083	43.89
329.548	40.79
330.014	37.69
330.479	37.29
330.944	33.69
331.41	37.99
331.875	38.89
332.34	34.39
332.805	32.69
333.271	36.89
333.736	31.69
334.201	37.39
334.666	42.89
335.131	45.99
335.596	47.89
336.061	40.19
336.526	33.99
336.991	36.09
337.456	47.99
337.921	39.89
338.386	31.79
338.851	41.49
339.316	44.59
339.781	36.99
340.246	41.69
340.711	34.89
341.175	43.19
341.64	35.19
342.105	45.69
342.569	50.99
343.034	51.49
343.499	48.79
343.963	43.09
344.428	49.59
344.893	53.89
345.357	51.69
345.822	54.69
346.286	54.39
346.751	58.39
347.215	55.69
347.679	61.59
348.144	85.69
348.608	68.19
349.073	56.59
349.537	57.89
350.001	67.99
350.465	71.49
350.93	65.49
351.394	70.89
351.858	57.89
352.322	68.89
352.786	65.59
353.25	80.89
353.715	90.19
354.179	84.99
354.643	94.49
355.107	100.59
355.571	80.99
356.035	84.29
356.498	90.99
356.962	93.29
357.426	99.59
357.89	94.39
358.354	82.29
358.818	68.99
359.281	73.29
359.745	66.49
360.209	64.19
360.673	59.99
361.136	69.39
361.6	79.29
362.064	73.69
362.527	76.19
362.991	83.59
363.454	75.69
363.918	66.99
364.381	68.89
364.845	74.29
365.308	82.29
365.772	77.89
366.235	78.29
366.698	76.99
367.162	78.09
367.625	71.89
368.088	75.19
368.552	82.89
369.015	74.89
369.478	83.79
369.941	88.59
370.404	80.39
370.867	93.09
371.331	92.19
371.794	91.39
372.257	86.29
372.72	96.79
373.183	84.99
373.646	77.89
374.109	88.09
374.572	90.99
375.035	96.89
375.497	94.69
375.96	95.99
376.423	98.09
376.886	100.89
377.349	95.79
377.811	95.89
378.274	98.89
378.737	96.99
379.199	102.09
379.662	103.59
380.125	109.59
380.587	92.89
381.05	96.09
381.512	111.09
381.975	115.39
382.437	109.59
382.9	107.99
383.362	114.19
383.825	120.99
384.287	119.49
384.75	110.29
385.212	115.89
385.674	120.19
386.136	123.19
386.599	113.19
387.061	107.89
387.523	115.39
387.985	116.89
388.447	122.59
388.91	119.39
389.372	122.79
389.834	123.79
390.296	119.99
390.758	126.69
391.22	132.39
391.682	139.19
392.144	149.59
392.606	137.99
393.068	133.69
393.529	144.99
393.991	129.69
394.453	127.59
394.915	126.49
395.377	126.19
395.838	123.39
396.3	128.59
396.762	137.49
397.224	127.29
397.685	127.19
398.147	128.49
398.608	122.99
399.07	121.99
399.531	140.99
399.993	148.79
400.454	149.09
400.916	142.59
401.377	138.09
401.839	142.39
402.3	144.99
402.762	169.49
403.223	171.59
403.684	159.19
404.145	153.19
404.607	151.19
405.068	159.79
405.529	161.79
405.99	175.09
406.451	167.29
406.913	169.79
407.374	159.19
407.835	153.89
408.296	162.19
408.757	165.59
409.218	181.79
409.679	173.39
410.14	166.09
410.601	173.09
411.062	172.69
411.522	180.69
411.983	176.89
412.444	165.39
412.905	182.59
413.366	187.29
413.826	198.89
414.287	217.19
414.748	259.99
415.208	251.69
415.669	211.49
416.13	220.99
416.59	209.39
417.051	216.59
417.511	225.69
417.972	239.89
418.432	257.79
418.893	288.89
419.353	258.99
419.814	201.89
420.274	185.59
420.734	180.39
421.195	194.09
421.655	192.19
422.115	193.49
422.576	201.49
423.036	198.09
423.496	212.79
423.956	215.09
424.416	234.69
424.876	270.39
425.336	265.69
425.797	258.69
426.257	254.59
426.717	234.99
427.177	227.59
427.637	221.09
428.097	231.29
428.556	241.79
429.016	268.49
429.476	253.69
429.936	269.39
430.396	278.39
430.856	285.39
431.315	306.39
431.775	333.89
432.235	364.89
432.694	338.99
433.154	348.79
433.614	384.69
434.073	332.39
434.533	283.99
434.993	266.49
435.452	276.19
435.912	288.49
436.371	275.49
436.83	280.29
437.29	265.29
437.749	251.49
438.209	252.39
438.668	270.49
439.127	284.39
439.587	265.39
440.046	258.49
440.505	263.99
440.964	276.49
441.424	317.59
441.883	308.69
442.342	264.69
442.801	232.09
443.26	237.99
443.719	227.59
444.178	224.69
444.637	208.49
445.096	234.39
445.555	230.39
446.014	234.19
446.473	237.09
446.932	240.09
447.391	231.89
447.849	238.59
448.308	225.79
448.767	231.29
449.226	247.59
449.685	246.59
450.143	257.19
450.602	250.79
451.061	238.29
451.519	249.09
451.978	234.59
452.436	248.89
452.895	244.59
453.353	261.49
453.812	243.19
454.27	246.09
454.729	242.99
455.187	249.09
455.646	249.09
456.104	255.19
456.562	273.39
457.021	276.29
457.479	269.49
457.937	280.79
458.395	269.69
458.854	270.29
459.312	263.19
459.77	286.89
460.228	262.49
460.686	254.19
461.144	255.89
461.602	249.79
462.06	256.29
462.518	274.79
462.976	265.89
463.434	272.09
463.892	277.69
464.35	286.79
464.808	303.59
465.266	272.39
465.724	281.69
466.181	283.49
466.639	284.89
467.097	314.29
467.555	312.39
468.012	315.79
468.47	321.49
468.928	342.39
469.385	354.09
469.843	373.89
470.3	355.49
470.758	376.19
471.215	398.79
471.673	420.19
472.13	415.59
472.588	437.59
473.045	389.19
473.503	398.59
473.96	419.99
474.417	418.59
474.875	446.29
475.332	478.79
475.789	469.69
476.246	485.79
476.704	504.19
477.161	525.19
477.618	539.39
478.075	581.69
478.532	622.79
478.989	691.99
479.446	804.29
479.903	774.09
480.36	800.89
480.817	850.79
481.274	947.29
481.731	1031.09
482.188	1118.59
482.645	1234.19
483.102	1336.89
483.558	1444.79
484.015	1484.09
484.472	1453.79
484.929	1411.59
485.385	1378.19
485.842	1346.19
486.299	1304.59
486.755	1244.09
487.212	1085.79
487.668	914.09
488.125	847.79
488.582	781.39
489.038	751.39
489.494	728.29
489.951	696.49
490.407	687.69
490.864	655.09
491.32	664.69
491.776	670.59
492.233	669.99
492.689	646.49
493.145	627.99
493.602	619.99
494.058	634.79
494.514	639.79
494.97	664.89
495.426	669.99
495.882	644.29
496.338	635.19
496.794	640.79
497.251	640.69
497.707	660.09
498.163	657.79
498.618	674.09
499.074	666.59
499.53	692.99
499.986	697.89
500.442	660.19
500.898	644.09
501.354	639.59
501.809	639.39
502.265	640.79
502.721	661.49
503.177	667.29
503.632	665.49
504.088	671.29
504.543	697.19
504.999	715.99
505.455	690.49
505.91	663.29
506.366	661.29
506.821	663.59
507.277	657.59
507.732	661.19
508.187	653.79
508.643	669.49
509.098	673.29
509.553	692.09
510.009	699.09
510.464	699.49
510.919	723.29
511.375	720.29
511.83	743.19
512.285	760.19
512.74	787.49
513.195	818.89
513.65	801.59
514.105	797.69
514.56	794.89
515.015	818.49
515.47	832.19
515.925	815.69
516.38	819.29
516.835	826.69
517.29	815.69
517.745	815.69
518.2	797.99
518.655	781.09
519.109	775.29
519.564	763.29
520.019	768.19
520.474	760.19
520.928	756.19
521.383	762.79
521.838	741.59
522.292	743.19
522.747	749.39
523.201	738.79
523.656	729.89
524.11	724.69
524.565	725.79
525.019	726.19
525.474	729.49
525.928	726.49
526.382	734.19
526.837	731.29
527.291	748.89
527.745	737.99
528.2	731.19
528.654	721.19
529.108	724.09
529.562	721.59
530.016	724.29
530.47	726.79
530.925	726.29
531.379	730.29
531.833	730.29
532.287	741.09
532.741	735.39
533.195	744.59
533.649	739.19
534.103	749.09
534.556	739.89
535.01	741.89
535.464	737.69
535.918	754.89
536.372	760.49
536.826	755.69
537.279	738.59
537.733	751.19
538.187	747.99
538.64	739.99
539.094	759.99
539.548	772.09
540.001	755.89
540.455	761.29
540.908	760.69
541.362	767.29
541.815	779.99
542.269	796.39
542.722	791.89
543.175	814.99
543.629	811.89
544.082	826.29
544.536	824.59
544.989	815.69
545.442	825.09
545.895	822.19
546.349	825.39
546.802	837.29
547.255	838.89
547.708	849.09
548.161	860.09
548.614	859.49
549.067	879.09
549.52	862.59
549.973	856.39
550.426	846.29
550.879	833.49
551.332	840.19
551.785	851.39
552.238	841.19
552.691	858.89
553.144	879.29
553.596	882.19
554.049	908.49
554.502	941.39
554.955	960.19
555.407	950.19
555.86	942.19
556.313	935.79
556.765	929.59
557.218	921.59
557.67	927.09
558.123	920.49
558.576	917.49
559.028	916.59
559.48	942.19
559.933	914.69
560.385	887.79
560.838	859.99
561.29	827.59
561.742	837.49
562.195	811.39
562.647	808.09
563.099	816.59
563.551	811.59
564.004	831.29
564.456	805.99
564.908	796.79
565.36	778.39
565.812	760.79
566.264	748.29
566.716	755.79
567.168	729.09
567.62	738.19
568.072	727.29
568.524	721.19
568.976	727.09
569.428	715.09
569.88	711.19
570.332	722.69
570.784	722.69
571.235	720.59
571.687	730.89
572.139	736.39
572.59	744.99
573.042	750.19
573.494	744.99
573.945	738.29
574.397	721.29
574.849	725.59
575.3	730.59
575.752	725.09
576.203	712.99
576.655	729.09
577.106	705.19
577.557	693.39
578.009	705.09
578.46	699.89
578.912	696.49
579.363	708.19
579.814	703.59
580.265	697.79
580.717	692.59
581.168	698.69
581.619	707.29
582.07	714.39
582.521	705.39
582.972	709.49
583.423	708.99
583.875	707.49
584.326	713.99
584.777	730.89
585.227	749.19
585.678	756.89
586.129	772.29
586.58	793.19
587.031	821.49
587.482	843.49
587.933	872.59
588.384	842.79
588.834	827.19
589.285	799.49
589.736	816.09
590.186	809.19
590.637	805.49
591.088	775.89
591.538	769.09
591.989	758.29
592.439	755.89
592.89	754.19
593.34	735.29
593.791	740.19
594.241	735.69
594.692	726.59
595.142	728.09
595.593	722.39
596.043	723.39
596.493	734.79
596.943	740.39
597.394	747.69
597.844	738.89
598.294	760.89
598.744	788.49
599.195	812.49
599.645	854.99
600.095	899.19
600.545	960.19
600.995	1009.89
601.445	1071.09
601.895	1134.69
602.345	1178.49
602.795	1165.19
603.245	1111.69
603.695	1050.89
604.145	1008.09
604.594	949.19
605.044	902.09
605.494	841.29
605.944	795.59
606.393	777.09
606.843	755.39
607.293	769.59
607.743	758.19
608.192	769.29
608.642	778.59
609.091	779.29
609.541	781.99
609.99	786.09
610.44	793.09
610.889	746.49
611.339	720.89
611.788	702.39
612.238	717.29
612.687	732.29
613.136	727.59
613.586	737.99
614.035	726.19
614.484	735.69
614.933	735.39
615.383	740.69
615.832	733.09
616.281	730.29
616.73	695.59
617.179	680.29
617.628	663.09
618.077	654.99
618.526	647.89
618.975	636.19
619.424	637.19
619.873	636.79
620.322	647.59
620.771	627.79
621.22	622.59
621.669	617.39
622.118	613.59
622.567	601.39
623.015	588.79
623.464	588.09
623.913	577.09
624.361	567.99
624.81	570.79
625.259	569.29
625.707	577.59
626.156	584.19
626.604	589.49
627.053	581.99
627.501	580.49
627.95	582.29
628.398	606.79
628.847	595.39
629.295	601.39
629.744	603.29
630.192	593.99
630.64	581.49
631.089	568.59
631.537	567.69
631.985	553.49
632.433	554.59
632.881	533.09
633.33	557.89
633.778	543.69
634.226	543.39
634.674	560.99
635.122	556.69
635.57	568.69
636.018	575.99
636.466	581.79
636.914	576.89
637.362	593.09
637.81	589.59
638.258	601.09
638.705	608.49
639.153	632.49
639.601	644.19
640.049	662.09
640.497	701.39
640.944	719.79
641.392	670.39
641.84	631.59
642.287	597.99
642.735	578.69
643.182	580.39
643.63	577.39
644.078	577.79
644.525	595.39
644.973	591.69
645.42	607.99
645.867	630.59
646.315	647.79
646.762	677.89
647.21	705.59
647.657	725.59
648.104	752.69
648.551	764.49
648.999	827.69
649.446	913.09
649.893	993.49
650.34	1130.29
650.787	1330.09
651.234	1631.89
651.682	2133.39
652.129	2895.09
652.576	4099.99
653.023	5971.89
653.47	8080.69
653.917	9991.39
654.363	11515.89
654.81	12779.69
655.257	12093.69
655.704	8008.39
656.151	4825.29
656.598	3161.49
657.044	2279.59
657.491	1771.49
657.938	1437.29
658.385	1212.29
658.831	1056.89
659.278	949.69
659.724	837.99
660.171	782.29
660.618	717.79
661.064	691.69
661.511	674.29
661.957	663.69
662.404	647.89
662.85	657.79
663.296	634.09
663.743	573.99
664.189	543.99
664.635	555.19
665.082	542.09
665.528	537.89
665.974	531.09
666.42	517.89
666.867	511.79
667.313	503.09
667.759	481.59
668.205	466.99
668.651	464.49
669.097	454.19
669.543	457.79
669.989	455.69
670.435	458.19
670.881	458.89
671.327	465.99
671.773	483.59
672.219	513.09
672.665	567.29
673.11	607.79
673.556	654.09
674.002	694.89
674.448	686.99
674.893	573.19
675.339	499.99
675.785	451.79
676.23	437.09
676.676	409.39
677.122	404.69
677.567	386.49
678.013	387.29
678.458	376.39
678.904	365.59
679.349	361.19
679.794	368.69
680.24	364.59
680.685	361.59
681.131	361.49
681.576	363.29
682.021	367.19
682.466	362.89
682.912	361.59
683.357	375.09
683.802	393.89
684.247	432.19
684.692	477.99
685.137	512.39
685.583	557.19
686.028	594.09
686.473	532.99
686.918	463.99
687.363	435.09
687.807	408.49
688.252	387.59
688.697	372.99
689.142	352.39
689.587	343.69
690.032	344.79
690.477	363.99
690.921	359.39
691.366	395.29
691.811	423.29
692.255	454.19
692.7	476.29
693.145	528.29
693.589	741.59
694.034	1180.89
694.478	1621.89
694.923	1820.59
695.367	2362.29
695.812	1252.29
696.256	519.09
696.701	383.59
697.145	359.19
697.59	342.69
698.034	335.09
698.478	333.69
698.922	331.09
699.367	331.19
699.811	336.89
700.255	366.39
700.699	396.69
701.143	445.79
701.588	489.99
702.032	522.99
702.476	546.79
702.92	507.69
703.364	512.59
703.808	678.39
704.252	1090.79
704.696	1537.09
705.14	1756.39
705.584	2221.99
706.027	1112.49
706.471	544.89
706.915	405.69
707.359	370.49
707.803	336.19
708.246	325.69
708.69	323.49
709.134	324.49
709.577	325.09
710.021	322.19
710.465	314.59
710.908	309.39
711.352	308.29
711.795	327.59
712.239	369.49
712.682	407.59
713.126	431.59
713.569	477.59
714.012	374.69
714.456	311.59
714.899	293.09
715.342	289.19
715.786	268.39
716.229	264.99
716.672	267.79
717.115	266.89
717.558	265.29
718.002	252.99
718.445	269.69
718.888	290.29
719.331	299.29
719.774	312.79
720.217	320.19
720.66	290.89
721.103	280.19
721.546	254.89
721.989	258.59
722.432	237.79
722.874	242.09
723.317	236.09
723.76	245.69
724.203	273.09
724.645	323.49
725.088	457.49
725.531	590.89
725.974	667.19
726.416	560.59
726.859	315.69
727.301	258.79
727.744	245.59
728.187	245.29
728.629	242.29
729.071	256.79
729.514	270.59
729.956	283.59
730.399	288.59
730.841	292.89
731.283	290.79
731.726	287.59
732.168	270.19
732.61	280.09
733.053	296.09
733.495	323.39
733.937	368.89
734.379	413.19
734.821	452.29
735.263	573.19
735.705	885.09
736.148	1675.49
736.59	2735.19
737.032	3229.49
737.474	2595.89
737.916	843.59
738.357	450.49
738.799	337.69
739.241	314.19
739.683	294.79
740.125	306.69
740.567	310.39
741.008	319.89
741.45	330.69
741.892	327.69
742.334	370.09
742.775	382.19
743.217	363.09
743.658	277.99
744.1	267.69
744.542	278.09
744.983	332.49
745.425	363.99
745.866	361.09
746.307	292.49
746.749	285.69
747.19	335.69
747.632	478.89
748.073	932.39
748.514	1966.69
748.956	3004.59
749.397	3779.19
749.838	3130.69
750.279	3120.49
750.72	1567.99
751.162	571.49
751.603	334.39
752.044	264.89
752.485	227.19
752.926	215.79
753.367	210.19
753.808	205.39
754.249	201.89
754.69	192.99
755.131	191.99
755.572	188.39
756.013	191.39
756.453	186.09
756.894	197.39
757.335	196.39
757.776	211.09
758.216	202.69
758.657	202.59
759.098	213.89
759.538	236.79
759.979	280.89
760.42	386.89
760.86	751.59
761.301	1958.29
761.741	4693.89
762.182	6756.39
762.622	4776.49
763.063	1387.99
763.503	565.09
763.943	341.29
764.384	278.69
764.824	248.79
765.264	228.49
765.705	218.29
766.145	186.69
766.585	176.49
767.025	176.69
767.465	169.59
767.906	184.59
768.346	195.19
768.786	197.19
769.226	222.99
769.666	314.79
770.106	655.89
770.546	1634.89
770.986	2774.19
771.426	2470.69
771.866	829.39
772.306	335.09
772.745	215.79
773.185	169.09
773.625	166.89
774.065	152.19
774.505	169.29
774.944	208.39
775.384	362.39
775.824	606.89
776.263	581.79
776.703	287.89
777.142	164.89
777.582	135.39
778.021	129.19
778.461	130.29
778.9	123.29
779.34	127.39
779.779	119.99
780.219	105.79
780.658	109.29
781.097	118.69
781.537	116.49
781.976	104.39
782.415	111.09
782.855	109.69
783.294	105.49
783.733	114.89
784.172	106.59
784.611	105.09
785.05	116.99
785.489	119.09
785.928	121.39
786.367	127.49
786.806	122.29
787.245	129.09
787.684	132.99
788.123	152.79
788.562	141.59
789.001	132.99
789.44	122.09
789.879	127.69
790.317	121.09
790.756	133.19
791.195	130.99
791.634	151.39
792.072	209.39
792.511	378.79
792.95	1054.49
793.388	2223.89
793.827	1992.19
794.265	694.09
794.704	294.29
795.142	189.99
795.581	155.19
796.019	146.49
796.458	137.99
796.896	127.89
797.334	138.99
797.773	163.39
798.211	232.29
798.649	470.49
799.087	1072.59
799.526	1669.19
799.964	2122.89
800.402	2102.29
800.84	797.69
801.278	318.79
801.716	195.09
802.154	160.19
802.592	154.79
803.03	143.39
803.468	141.99
803.906	145.19
804.344	156.09
804.782	148.19
805.22	141.39
805.658	137.19
806.096	155.79
806.533	171.69
806.971	182.69
807.409	227.39
807.847	328.19
808.284	707.69
808.722	1974.99
809.16	3448.59
809.597	3333.09
810.035	5732.99
810.472	6056.49
810.91	2212.39
811.347	838.09
811.785	427.09
812.222	267.39
812.66	203.89
813.097	171.69
813.535	145.09
813.972	139.59
814.409	127.79
814.846	116.59
815.284	109.09
815.721	105.49
816.158	109.69
816.595	113.29
817.032	162.09
817.47	184.99
817.907	145.69
818.344	101.79
818.781	99.89
819.218	95.09
819.655	126.09
820.092	195.89
820.529	221.29
820.966	179.89
821.403	128.39
821.839	105.59
822.276	103.09
822.713	127.29
823.15	137.79
823.587	126.09
824.023	156.59
824.46	317.39
824.897	957.49
825.333	1419.59
825.77	611.99
826.206	247.69
826.643	147.69
827.08	111.29
827.516	87.59
827.953	82.39
828.389	83.89
828.825	73.49
829.262	71.79
829.698	67.59
830.135	65.09
830.571	61.69
831.007	61.39
831.443	65.39
831.88	58.09
832.316	61.59
832.752	64.39
833.188	69.49
833.624	67.69
834.06	71.49
834.497	64.59
834.933	73.09
835.369	74.59
835.805	72.29
836.241	75.29
836.677	77.39
837.112	91.19
837.548	112.69
837.984	138.99
838.42	212.69
838.856	528.49
839.292	1599.29
839.727	2425.69
840.163	1130.09
840.599	983.49
841.034	2133.79
841.47	2232.39
841.906	821.99
842.341	347.09
842.777	207.59
843.212	205.59
843.648	187.39
844.083	117.99
844.519	81.19
844.954	73.19
845.39	61.99
845.825	58.59
846.261	54.79
846.696	58.99
847.131	56.49
847.566	55.29
848.002	57.99
848.437	58.79
848.872	55.79
849.307	61.89
849.742	86.39
850.177	196.89
850.613	581.29
851.048	911.69
851.483	393.19
851.918	158.49
852.353	85.59
852.788	53.99
853.223	54.99
853.657	50.29
854.092	54.09
854.527	45.29
854.962	48.59
855.397	47.79
855.832	53.49
856.266	40.19
856.701	40.79
857.136	38.29
857.57	40.69
858.005	57.39
858.44	56.89
858.874	46.09
859.309	53.39
859.743	41.09
860.178	41.89
860.612	44.49
861.047	54.19
861.481	71.69
861.915	73.29
862.35	51.39
862.784	36.69
863.218	38.69
863.653	35.09
864.087	52.09
864.521	56.19
864.955	74.39
865.39	160.79
865.824	186.39
866.258	126.49
866.692	180.09
867.126	191.89
867.56	112.89
867.994	64.69
868.428	44.69
868.862	55.59
869.296	59.19
869.73	65.59
870.164	47.59
870.598	51.39
871.031	38.49
871.465	31.89
871.899	35.59
872.333	26.39
872.766	23.39
873.2	24.69
873.634	33.89
874.067	27.19
874.501	29.29
874.935	29.39
875.368	31.19
875.802	25.99
876.235	26.49
876.669	19.29
877.102	14.09
877.535	23.69
877.969	25.59
878.402	28.49
878.836	17.69
879.269	24.89
879.702	20.39
880.135	21.39
880.569	15.99
881.002	24.79
881.435	21.39
881.868	20.19
882.301	25.39
882.734	15.79
883.167	28.09
883.601	9.89
884.034	23.29
884.467	16.89
884.899	18.89
885.332	17.29
885.765	9.89
886.198	17.69
886.631	13.19
887.064	16.99
887.497	22.19
887.929	24.39
888.362	18.59
888.795	9.39
889.228	12.39
889.66	19.99
890.093	15.79
890.526	16.29
890.958	16.19
891.391	19.29
891.823	20.49
892.256	16.39
892.688	13.09
893.121	14.09
893.553	12.29
893.985	25.79
894.418	22.89
894.85	13.89
895.282	10.89
895.715	14.49
896.147	17.79
896.579	12.89
897.011	11.29
897.444	18.49
897.876	18.49
898.308	15.09
898.74	12.49
899.172	12.79
899.604	19.59
900.036	21.69
900.468	14.29
900.9	15.69
901.332	22.39
901.764	15.29
902.196	18.29
902.628	22.69
903.06	24.79
903.491	31.49
903.923	20.79
904.355	24.09
904.787	24.99
905.218	24.19
905.65	20.49
906.082	12.49
906.513	18.19
906.945	14.39
907.376	12.79
907.808	17.89
908.239	19.99
908.671	24.89
909.102	19.89
909.534	23.09
909.965	48.79
910.397	103.49
910.828	324.59
911.259	490.89
911.691	229.39
912.122	115.49
912.553	56.39
912.984	33.09
913.415	31.89
913.847	24.79
914.278	18.79
914.709	17.29
915.14	20.39
915.571	16.39
916.002	9.49
916.433	11.59
916.864	17.09
917.295	13.89
917.726	21.29
918.157	15.19
918.587	33.49
919.018	24.09
919.449	20.79
919.88	24.29
920.311	32.39
920.741	48.59
921.172	174.09
921.603	156.19
922.033	69.99
922.464	44.09
922.895	22.99
923.325	16.39
923.756	11.59
924.186	12.39
924.617	20.89
925.047	27.89
925.478	23.59
925.908	20.99
926.338	12.99
926.769	13.89
927.199	17.49
927.629	9.59
928.06	12.09
928.49	4.59
928.92	13.39
929.35	7.59
929.78	8.49
930.21	3.89
930.641	11.59
931.071	10.39
931.501	4.49
931.931	6.69
932.361	9.79
932.791	9.49
933.221	7.59
933.651	6.59
934.08	14.39
934.51	26.39
934.94	7.19
935.37	15.39
935.8	8.89
936.229	5.59
936.659	4.09
937.089	5.69
937.519	21.49
937.948	22.29
938.378	19.59
938.807	4.49
939.237	9.49
939.666	6.19
940.096	-10.01
940.525	3.79
940.955	-0.01
941.384	7.69
941.814	-5.21
942.243	3.19
942.672	0.69
943.102	-6.91
943.531	0.79
943.96	3.39
944.39	6.49
944.819	-4.51
945.248	4.79
945.677	-2.01
946.106	5.79
946.535	1.59
946.964	0.29
947.393	3.29
947.822	2.39
948.251	-3.21
948.68	3.79
949.109	5.09
949.538	6.39
949.967	3.09
950.396	-5.51
950.825	1.79
951.254	-3.51
951.682	-6.11
952.111	1.09
952.54	6.29
952.969	-3.11
953.397	-4.61
953.826	5.59
954.254	-1.41
954.683	3.39
955.112	0.59
955.54	2.09
955.969	0.89
956.397	-2.51
956.826	0.99
957.254	3.19
957.682	0.29
958.111	4.59
958.539	-5.51
958.967	-0.21
959.396	-5.21
959.824	0.79
960.252	-2.51
960.68	-6.61
961.109	-7.11
961.537	-6.81
961.965	-5.51
962.393	4.59
962.821	-5.11
963.249	-1.61
963.677	5.59
964.105	2.69
964.533	45.39
964.961	41.99
965.389	25.59
965.817	8.09
966.245	0.29
966.672	0.29
967.1	-9.21
967.528	-1.61
967.956	-3.01
968.383	-0.81
968.811	-0.41
969.239	-2.21
969.666	-9.01
970.094	0.09
970.522	-0.81
970.949	1.99
971.377	-4.41
971.804	-1.91
972.232	-5.51
972.659	-1.41
973.087	-6.91
973.514	-9.41
973.941	-7.81
974.369	3.99
974.796	6.89
975.223	-0.21
975.651	-2.11
976.078	1.49
976.505	-3.11
976.932	-0.91
977.359	15.59
977.786	17.99
978.214	-1.51
978.641	-0.11
979.068	0.59
979.495	-1.41
979.922	-3.11
980.349	-1.01
980.776	3.99
981.202	-3.81
981.629	8.89
982.056	6.69
982.483	-3.31
982.91	5.69
983.337	-1.41
983.763	7.79
984.19	-5.41
984.617	-0.01
985.043	-8.21
985.47	-3.71
985.897	-3.01
986.323	-1.61
986.75	2.49
987.176	-1.41
987.603	-0.71
988.029	-0.51
988.456	-1.91
988.882	-0.51
989.308	-5.71
989.735	-2.61
990.161	-1.81
990.587	-5.61
991.014	-3.51
991.44	6.09
991.866	-4.01
992.292	-0.01
992.719	-3.21
993.145	0.89
993.571	-5.31
993.997	0.69
994.423	-2.21
994.849	-1.41
995.275	1.59
995.701	1.49
996.127	1.39
996.553	-2.41
996.979	-2.61
997.405	-6.31
997.83	-1.31
998.256	-4.11
998.682	-1.11
999.108	-10.61
999.534	-1.21
999.959	-6.31
1000.385	-6.91
1000.811	0.39
1001.236	-10.21
1001.662	-7.41
1002.087	-12.81
1002.513	-6.01
1002.938	1.89
1003.364	-5.41
1003.789	0.39
1004.215	-0.71
1004.64	-1.41
1005.066	-0.61
1005.491	0.29
1005.916	-1.21
1006.342	-1.21
1006.767	-0.91
1007.192	7.29
1007.617	-6.01
1008.042	-6.61
1008.468	-5.51
1008.893	-4.41
1009.318	-6.21
1009.743	-11.71
1010.168	3.79
1010.593	-1.71
1011.018	-5.21
1011.443	2.59
1011.868	-1.11
1012.293	0.79
1012.718	-5.41
1013.143	-0.21
1013.567	-1.81
1013.992	3.99
1014.417	-16.81
1014.842	1.79
1015.267	-0.51
1015.691	-5.11
1016.116	0.79
1016.541	4.29
1016.965	-1.51
1017.39	0.39
1017.814	-0.71
1018.239	-5.31
1018.663	-2.81
1019.088	-13.81
1019.512	-7.91
1019.937	-3.31
1020.361	-8.01
1020.785	-9.91
1021.21	-6.61
1021.634	-4.21
1022.058	-4.91
1022.483	2.29
1022.907	-6.51
1023.331	-7.51
1023.755	2.39
1024.179	-3.81
1024.604	-7.81
1025.028	-2.71
1025.452	-4.11
1025.876	-4.41
1026.3	0.19
1026.724	-14.41
1027.148	-5.21
1027.572	-10.41
1027.996	-3.71
1028.42	4.79
1028.843	-4.41
1029.267	0.09
1029.691	-2.91
1030.115	-8.31
1030.539	-10.21
1030.962	-6.61
1031.386	-9.31
1031.81	-4.71
1032.233	-6.21
1032.657	-7.11
1033.08	0.39
1033.504	-1.81
1033.927	-3.91
1034.351	-6.11
1034.774	-6.21
1035.198	-5.81
1035.621	-11.71
1036.045	-9.71
1036.468	-5.31
1036.891	-5.41
1037.315	-10.81
1037.738	-0.61
1038.161	-2.71
1038.584	-4.01
1039.008	-0.51
1039.431	-6.91
1039.854	1.59
1040.277	-11.61
1040.7	-10.31
1041.123	-0.41
1041.546	-8.21
1041.969	0.49
1042.392	-5.21
1042.815	-6.81
1043.238	-3.51
1043.661	-1.91
1044.084	-6.01
1044.507	-10.41
1044.93	-9.61
1045.352	-7.01
1045.775	-6.61
1046.198	2.79
1046.621	-3.61
1047.043	4.29
1047.466	4.89
1047.889	-1.61
1048.311	-8.21
1048.734	-1.91
1049.156	-6.71
1049.579	-3.61
1050.001	-9.11
1050.424	-0.41
1050.846	-3.41
1051.269	1.99
1051.691	-7.51
1052.113	-2.61
1052.536	-4.21
1052.958	-5.91
1053.38	-1.71
1053.802	-7.21
1054.225	-1.01
1054.647	-8.91
1055.069	-2.21
1055.491	0.49
1055.913	-6.81
1056.335	-5.61
1056.757	-5.61
1057.179	-6.21
1057.601	-3.41
1058.023	-6.51
1058.445	-10.11
1058.867	-7.51
1059.289	-5.11
1059.711	-4.81
1060.133	-5.11
1060.555	-7.01
1060.976	-6.11
1061.398	-6.01
1061.82	-6.21
1062.241	-9.71
1062.663	-8.71
1063.085	-8.11
1063.506	-1.61
1063.928	-7.61
1064.35	-8.41
1064.771	-9.41
1065.193	-3.31
1065.614	-9.51
1066.035	-3.91
1066.457	-5.41
1066.878	-1.41
1067.3	-3.81
1067.721	-7.11
1068.142	-6.21
1068.564	-7.21
1068.985	-1.31
1069.406	-2.31
1069.827	-8.61
1070.248	-1.11
1070.67	-2.11
1071.091	-3.91
1071.512	-6.51
1071.933	-5.41
1072.354	-7.01
1072.775	0.39
1073.196	-3.81
1073.617	0.19
1074.038	-8.51
1074.459	-10.11
1074.88	-9.11
1075.3	-2.11
1075.721	-7.61
1076.142	-5.11
1076.563	-3.11
1076.983	-15.01
1077.404	-6.91
1077.825	-7.51
1078.246	-0.41
1078.666	-11.81
1079.087	-8.61
1079.507	-6.21
1079.928	-2.31
1080.348	-1.01
1080.769	-7.81
1081.189	1.89
1081.61	-1.01
1082.03	-6.11
1082.451	-11.41
1082.871	-4.81
1083.291	-6.71
1083.711	-9.51
1084.132	-0.81
1084.552	-4.71
1084.972	-8.11
1085.392	-5.91
1085.813	-6.51
1086.233	-10.11
1086.653	-11.41
1087.073	0.59
1087.493	-6.21
1087.913	-7.81
1088.333	-9.61
1088.753	-2.11
1089.173	-3.81
1089.593	-5.81
1090.013	4.69
1090.433	-4.21
1090.852	-1.21
1091.272	-1.81
1091.692	-5.41
1092.112	-6.21
1092.531	-10.91
1092.951	-14.41
1093.371	-7.21
1093.79	2.29
1094.21	-10.01
1094.63	-4.61
1095.049	-11.61
1095.469	-1.91
1095.888	-5.01
1096.308	1.29
1096.727	0.89
1097.146	-1.21
1097.566	-0.81
1097.985	-7.61
1098.405	-4.01
1098.824	-7.91
1099.243	-5.51
1099.662	-6.81
1100.082	0.09
1100.501	-4.61
1100.92	-5.61
1101.339	-0.71
1101.758	-5.61
