Data from 20171114-ORNL-Ar_H_NY_Subt18_08-07-35-529.txt Node
Date: Tue Nov 14 08:07:35 EST 2017
User: Ender
Spectrometer: HR+D1039
Trigger mode: 0
Integration Time (sec): 2.730000E-2
Scans to average: 10
Electric dark correction enabled: true
Nonlinearity correction enabled: false
Boxcar width: 0
XAxis mode: Wavelengths
Number of Pixels in Spectrum: 2048
>>>>>Begin Spectral Data<<<<<
187.836	-7.72
188.309	-7.72
188.782	-7.72
189.255	1.78
189.728	2.58
190.201	7.18
190.674	3.18
191.147	1.38
191.619	-6.32
192.092	3.68
192.565	6.88
193.038	-3.42
193.511	-1.12
193.984	-2.42
194.456	-0.92
194.929	0.88
195.402	-4.62
195.874	-1.02
196.347	-1.62
196.82	-4.62
197.292	4.88
197.765	1.78
198.237	-5.52
198.71	-0.82
199.182	-3.72
199.655	-0.22
200.127	6.68
200.6	-2.12
201.072	-6.72
201.544	-6.02
202.017	-3.12
202.489	-2.02
202.961	-3.62
203.433	-4.62
203.906	-8.82
204.378	-10.22
204.85	-12.22
205.322	-7.42
205.794	-6.42
206.266	-5.72
206.739	-11.22
207.211	7.58
207.683	-3.92
208.155	-7.22
208.627	-1.92
209.099	-6.62
209.57	-7.72
210.042	-7.62
210.514	-5.92
210.986	-6.22
211.458	-12.72
211.93	0.68
212.402	1.18
212.873	-8.72
213.345	-13.02
213.817	-17.62
214.288	-6.32
214.76	-11.42
215.232	-3.22
215.703	-5.22
216.175	-5.02
216.646	-10.32
217.118	-7.72
217.589	-7.72
218.061	-3.92
218.532	-10.52
219.004	-2.22
219.475	-12.52
219.946	-1.02
220.418	-4.02
220.889	0.78
221.36	0.08
221.832	-5.82
222.303	-6.42
222.774	2.58
223.245	-10.12
223.717	-4.12
224.188	-4.92
224.659	-14.12
225.13	-6.12
225.601	-5.02
226.072	-7.52
226.543	-3.52
227.014	-2.92
227.485	-2.72
227.956	-4.32
228.427	-3.72
228.898	-0.02
229.369	-3.22
229.839	-3.62
230.31	-8.42
230.781	-3.12
231.252	-6.02
231.722	-4.02
232.193	-3.42
232.664	-0.92
233.135	-6.02
233.605	-0.22
234.076	-9.72
234.546	-0.32
235.017	1.08
235.487	2.28
235.958	-4.62
236.428	-3.12
236.899	-0.62
237.369	9.28
237.84	-5.12
238.31	2.78
238.78	-4.52
239.251	-3.82
239.721	-1.32
240.191	2.48
240.662	-5.82
241.132	-1.92
241.602	-6.92
242.072	-1.12
242.542	-3.42
243.013	-2.02
243.483	-0.42
243.953	2.98
244.423	-3.62
244.893	-5.32
245.363	1.48
245.833	3.38
246.303	-4.62
246.773	4.48
247.243	0.78
247.712	3.98
248.182	4.68
248.652	7.08
249.122	-6.32
249.592	9.08
250.061	11.28
250.531	31.18
251.001	10.88
251.471	15.88
251.94	10.48
252.41	2.38
252.879	0.88
253.349	7.38
253.818	-1.32
254.288	-6.12
254.757	6.08
255.227	-2.72
255.696	-0.22
256.166	1.48
256.635	2.68
257.105	5.38
257.574	3.58
258.043	5.28
258.513	2.08
258.982	18.98
259.451	8.18
259.92	3.48
260.389	5.48
260.859	11.18
261.328	4.68
261.797	7.58
262.266	4.48
262.735	5.48
263.204	4.38
263.673	-2.22
264.142	2.48
264.611	-7.72
265.08	-5.22
265.549	-2.72
266.018	-2.12
266.487	-6.72
266.955	-5.02
267.424	2.08
267.893	3.08
268.362	5.58
268.83	2.08
269.299	7.98
269.768	-2.52
270.236	2.88
270.705	-3.42
271.174	7.38
271.642	-2.72
272.111	1.78
272.579	12.38
273.048	17.88
273.516	23.98
273.985	26.48
274.453	17.58
274.922	11.08
275.39	6.48
275.858	-2.02
276.327	7.98
276.795	12.48
277.263	2.58
277.731	24.08
278.2	50.38
278.668	50.48
279.136	35.28
279.604	10.58
280.072	13.68
280.54	5.38
281.008	5.28
281.477	11.88
281.945	5.38
282.413	8.68
282.881	7.58
283.348	3.58
283.816	12.78
284.284	11.88
284.752	17.68
285.22	7.58
285.688	10.58
286.156	15.38
286.623	43.28
287.091	44.18
287.559	25.08
288.026	13.28
288.494	16.58
288.962	-0.92
289.429	1.48
289.897	7.98
290.364	4.88
290.832	10.78
291.3	10.08
291.767	13.38
292.234	14.68
292.702	12.38
293.169	11.18
293.637	13.98
294.104	14.98
294.571	6.28
295.039	10.08
295.506	14.08
295.973	14.48
296.44	11.58
296.908	14.28
297.375	7.58
297.842	12.38
298.309	15.48
298.776	8.28
299.243	15.78
299.71	10.68
300.177	18.98
300.644	16.58
301.111	17.08
301.578	14.48
302.045	9.58
302.512	14.08
302.979	21.38
303.446	13.98
303.913	20.08
304.379	14.98
304.846	17.38
305.313	18.48
305.78	15.58
306.246	16.08
306.713	21.58
307.18	21.48
307.646	15.18
308.113	21.58
308.579	15.98
309.046	18.08
309.512	17.08
309.979	6.08
310.445	21.28
310.912	22.08
311.378	24.28
311.845	18.78
312.311	24.98
312.777	23.28
313.244	23.98
313.71	32.78
314.176	19.98
314.642	20.38
315.109	20.58
315.575	27.08
316.041	29.08
316.507	28.18
316.973	31.58
317.439	30.58
317.905	27.68
318.371	26.88
318.837	22.48
319.303	21.68
319.769	27.18
320.235	28.38
320.701	25.68
321.167	28.68
321.633	27.08
322.099	37.18
322.564	40.28
323.03	33.18
323.496	29.58
323.962	32.68
324.427	30.18
324.893	31.48
325.359	31.18
325.824	27.68
326.29	25.98
326.755	31.28
327.221	35.18
327.686	33.58
328.152	39.18
328.617	34.08
329.083	36.68
329.548	40.78
330.014	43.28
330.479	29.98
330.944	41.08
331.41	34.18
331.875	32.38
332.34	33.88
332.805	29.98
333.271	38.58
333.736	35.48
334.201	39.28
334.666	36.28
335.131	43.18
335.596	38.48
336.061	38.78
336.526	32.48
336.991	36.08
337.456	41.58
337.921	39.78
338.386	35.58
338.851	40.78
339.316	42.98
339.781	38.68
340.246	45.48
340.711	40.28
341.175	38.78
341.64	32.48
342.105	45.48
342.569	46.98
343.034	44.58
343.499	47.38
343.963	44.48
344.428	51.38
344.893	52.18
345.357	50.88
345.822	54.98
346.286	55.18
346.751	56.38
347.215	52.78
347.679	65.08
348.144	80.38
348.608	66.38
349.073	51.78
349.537	57.68
350.001	64.88
350.465	73.38
350.93	70.58
351.394	73.38
351.858	62.38
352.322	73.78
352.786	67.88
353.25	77.58
353.715	89.28
354.179	80.78
354.643	100.28
355.107	102.68
355.571	90.08
356.035	87.58
356.498	100.78
356.962	101.08
357.426	110.48
357.89	97.48
358.354	77.88
358.818	71.08
359.281	65.78
359.745	64.98
360.209	65.38
360.673	65.78
361.136	64.28
361.6	74.68
362.064	77.48
362.527	65.78
362.991	79.28
363.454	66.98
363.918	62.18
364.381	70.68
364.845	74.08
365.308	69.58
365.772	73.98
366.235	74.08
366.698	75.68
367.162	72.98
367.625	74.48
368.088	81.08
368.552	76.78
369.015	80.38
369.478	88.68
369.941	87.08
370.404	86.58
370.867	93.38
371.331	95.28
371.794	100.38
372.257	95.78
372.72	108.68
373.183	104.88
373.646	93.98
374.109	93.98
374.572	94.68
375.035	94.98
375.497	87.48
375.96	94.68
376.423	91.98
376.886	101.88
377.349	96.98
377.811	88.68
378.274	93.48
378.737	97.98
379.199	98.48
379.662	98.68
380.125	101.18
380.587	101.18
381.05	106.68
381.512	122.18
381.975	117.98
382.437	108.28
382.9	114.68
383.362	118.28
383.825	130.58
384.287	133.18
384.75	131.48
385.212	123.88
385.674	128.28
386.136	126.98
386.599	115.98
387.061	120.18
387.523	110.88
387.985	117.98
388.447	135.18
388.91	137.88
389.372	143.88
389.834	135.98
390.296	126.38
390.758	143.38
391.22	152.38
391.682	194.78
392.144	278.98
392.606	219.38
393.068	149.18
393.529	158.38
393.991	137.08
394.453	136.28
394.915	142.78
395.377	171.08
395.838	200.98
396.3	141.88
396.762	126.78
397.224	115.98
397.685	111.78
398.147	112.48
398.608	119.18
399.07	120.28
399.531	125.08
399.993	126.58
400.454	134.58
400.916	132.78
401.377	128.48
401.839	138.78
402.3	132.88
402.762	153.88
403.223	166.28
403.684	158.48
404.145	153.68
404.607	144.08
405.068	155.98
405.529	153.58
405.99	167.18
406.451	161.78
406.913	154.58
407.374	155.88
407.835	151.68
408.296	155.08
408.757	160.08
409.218	167.78
409.679	166.28
410.14	165.48
410.601	160.58
411.062	161.88
411.522	182.08
411.983	175.48
412.444	161.08
412.905	165.28
413.366	168.68
413.826	180.38
414.287	196.68
414.748	238.18
415.208	232.18
415.669	194.08
416.13	193.78
416.59	189.88
417.051	195.88
417.511	200.08
417.972	215.68
418.432	229.48
418.893	264.48
419.353	232.68
419.814	177.08
420.274	174.78
420.734	167.38
421.195	187.08
421.655	187.08
422.115	179.08
422.576	181.78
423.036	181.58
423.496	192.08
423.956	198.48
424.416	211.38
424.876	242.68
425.336	231.98
425.797	252.48
426.257	229.48
426.717	218.28
427.177	217.38
427.637	208.48
428.097	223.48
428.556	229.78
429.016	252.68
429.476	244.48
429.936	259.48
430.396	254.98
430.856	271.98
431.315	301.48
431.775	328.08
432.235	352.38
432.694	330.48
433.154	334.58
433.614	367.98
434.073	314.98
434.533	273.58
434.993	252.88
435.452	266.38
435.912	273.58
436.371	267.98
436.83	264.38
437.29	253.78
437.749	242.58
438.209	232.78
438.668	252.48
439.127	265.78
439.587	244.18
440.046	230.28
440.505	235.88
440.964	252.78
441.424	296.08
441.883	287.88
442.342	245.88
442.801	210.28
443.26	208.88
443.719	208.18
444.178	203.08
444.637	197.48
445.096	206.38
445.555	210.48
446.014	214.48
446.473	206.78
446.932	221.18
447.391	207.88
447.849	206.78
448.308	201.98
448.767	203.78
449.226	220.88
449.685	227.18
450.143	235.38
450.602	224.38
451.061	216.08
451.519	217.78
451.978	220.98
452.436	217.58
452.895	227.78
453.353	232.78
453.812	227.58
454.27	227.38
454.729	223.38
455.187	222.98
455.646	225.48
456.104	231.08
456.562	242.28
457.021	247.38
457.479	239.78
457.937	260.48
458.395	244.68
458.854	234.68
459.312	240.58
459.77	257.98
460.228	242.58
460.686	221.68
461.144	230.88
461.602	227.08
462.06	225.28
462.518	235.28
462.976	239.88
463.434	250.58
463.892	249.28
464.35	259.08
464.808	266.58
465.266	248.18
465.724	257.08
466.181	260.78
466.639	252.58
467.097	268.38
467.555	286.38
468.012	286.78
468.47	284.28
468.928	312.48
469.385	324.08
469.843	322.58
470.3	333.38
470.758	337.58
471.215	362.18
471.673	379.88
472.13	377.18
472.588	389.28
473.045	353.48
473.503	356.08
473.96	367.28
474.417	378.98
474.875	404.28
475.332	450.28
475.789	437.58
476.246	441.08
476.704	460.88
477.161	477.78
477.618	496.78
478.075	533.28
478.532	584.78
478.989	644.98
479.446	758.88
479.903	734.38
480.36	769.68
480.817	818.78
481.274	926.08
481.731	1028.88
482.188	1109.18
482.645	1249.28
483.102	1336.88
483.558	1475.88
484.015	1526.58
484.472	1497.88
484.929	1446.48
485.385	1402.48
485.842	1372.58
486.299	1306.38
486.755	1245.18
487.212	1041.38
487.668	881.28
488.125	826.68
488.582	747.68
489.038	710.58
489.494	676.38
489.951	655.68
490.407	629.88
490.864	627.78
491.32	602.68
491.776	616.08
492.233	616.08
492.689	578.18
493.145	567.48
493.602	569.28
494.058	582.48
494.514	584.38
494.97	601.88
495.426	619.48
495.882	599.08
496.338	573.48
496.794	590.08
497.251	592.88
497.707	599.98
498.163	601.38
498.618	602.18
499.074	616.48
499.53	641.58
499.986	640.08
500.442	622.58
500.898	597.38
501.354	588.38
501.809	609.68
502.265	618.18
502.721	633.18
503.177	640.48
503.632	632.78
504.088	651.98
504.543	683.58
504.999	676.78
505.455	620.28
505.91	605.88
506.366	600.98
506.821	599.98
507.277	595.78
507.732	597.38
508.187	594.98
508.643	609.08
509.098	606.88
509.553	622.78
510.009	636.48
510.464	640.38
510.919	663.48
511.375	665.88
511.83	667.58
512.285	682.48
512.74	726.88
513.195	746.88
513.65	728.48
514.105	729.78
514.56	740.18
515.015	766.48
515.47	780.58
515.925	751.88
516.38	753.78
516.835	755.18
517.29	746.58
517.745	747.48
518.2	728.58
518.655	700.28
519.109	706.98
519.564	704.38
520.019	703.18
520.474	688.08
520.928	695.98
521.383	699.08
521.838	688.38
522.292	682.08
522.747	672.18
523.201	677.08
523.656	661.38
524.11	654.58
524.565	669.18
525.019	657.68
525.474	673.58
525.928	671.08
526.382	664.48
526.837	670.18
527.291	673.88
527.745	661.98
528.2	663.78
528.654	660.68
529.108	653.18
529.562	670.38
530.016	663.28
530.47	661.48
530.925	666.38
531.379	672.58
531.833	679.58
532.287	678.28
532.741	667.28
533.195	671.88
533.649	680.48
534.103	684.88
534.556	672.58
535.01	676.28
535.464	678.68
535.918	700.18
536.372	693.28
536.826	689.68
537.279	664.78
537.733	688.28
538.187	686.48
538.64	688.48
539.094	698.48
539.548	699.58
540.001	692.98
540.455	696.68
540.908	698.08
541.362	708.88
541.815	719.48
542.269	727.58
542.722	729.78
543.175	745.08
543.629	740.58
544.082	764.28
544.536	756.88
544.989	758.78
545.442	760.28
545.895	755.08
546.349	763.18
546.802	763.18
547.255	754.88
547.708	772.38
548.161	785.98
548.614	787.78
549.067	795.58
549.52	783.58
549.973	783.78
550.426	774.38
550.879	758.98
551.332	758.58
551.785	767.58
552.238	773.08
552.691	783.98
553.144	800.78
553.596	815.48
554.049	828.38
554.502	863.58
554.955	874.48
555.407	876.98
555.86	861.08
556.313	855.38
556.765	844.48
557.218	844.48
557.67	850.28
558.123	843.28
558.576	835.58
559.028	840.28
559.48	848.08
559.933	824.58
560.385	809.08
560.838	780.78
561.29	762.78
561.742	753.18
562.195	738.38
562.647	737.58
563.099	744.88
563.551	741.38
564.004	760.18
564.456	747.68
564.908	738.58
565.36	720.18
565.812	703.88
566.264	705.78
566.716	703.48
567.168	693.28
567.62	695.68
568.072	676.68
568.524	670.38
568.976	669.78
569.428	651.78
569.88	656.28
570.332	658.28
570.784	657.38
571.235	656.78
571.687	669.98
572.139	680.78
572.59	690.78
573.042	680.78
573.494	685.28
573.945	671.78
574.397	660.18
574.849	667.18
575.3	663.88
575.752	648.78
576.203	647.68
576.655	669.28
577.106	644.38
577.557	643.88
578.009	650.88
578.46	637.18
578.912	638.68
579.363	643.18
579.814	645.68
580.265	636.78
580.717	650.08
581.168	645.78
581.619	650.48
582.07	647.28
582.521	661.68
582.972	647.18
583.423	652.38
583.875	654.08
584.326	681.68
584.777	730.18
585.227	805.08
585.678	891.38
586.129	988.18
586.58	1058.48
587.031	1138.18
587.482	1290.98
587.933	1471.28
588.384	1275.48
588.834	951.48
589.285	780.08
589.736	767.08
590.186	750.08
590.637	740.38
591.088	719.88
591.538	716.58
591.989	706.18
592.439	709.98
592.89	698.38
593.34	688.68
593.791	695.58
594.241	688.68
594.692	693.28
595.142	682.18
595.593	672.98
596.043	683.58
596.493	692.98
596.943	700.48
597.394	704.78
597.844	701.28
598.294	712.68
598.744	727.38
599.195	745.28
599.645	796.68
600.095	841.28
600.545	882.88
600.995	936.78
601.445	1000.28
601.895	1052.48
602.345	1106.88
602.795	1074.68
603.245	1030.48
603.695	975.48
604.145	921.58
604.594	876.48
605.044	829.48
605.494	779.58
605.944	723.18
606.393	718.48
606.843	697.68
607.293	718.08
607.743	708.08
608.192	723.38
608.642	744.28
609.091	739.48
609.541	752.38
609.99	739.78
610.44	745.58
610.889	699.48
611.339	681.38
611.788	663.38
612.238	678.68
612.687	701.38
613.136	707.28
613.586	719.58
614.035	730.28
614.484	743.98
614.933	741.28
615.383	738.18
615.832	714.18
616.281	715.58
616.73	676.48
617.179	640.78
617.628	634.58
618.077	607.68
618.526	614.58
618.975	603.18
619.424	593.58
619.873	601.58
620.322	599.38
620.771	583.88
621.22	585.18
621.669	573.98
622.118	566.58
622.567	570.88
623.015	559.98
623.464	554.38
623.913	540.98
624.361	544.78
624.81	531.58
625.259	528.98
625.707	546.98
626.156	543.18
626.604	548.38
627.053	543.28
627.501	552.68
627.95	545.48
628.398	559.28
628.847	553.38
629.295	544.18
629.744	555.18
630.192	557.38
630.64	553.58
631.089	546.98
631.537	562.18
631.985	586.08
632.433	580.68
632.881	588.08
633.33	636.58
633.778	634.48
634.226	558.18
634.674	561.28
635.122	559.38
635.57	571.18
636.018	614.88
636.466	566.68
636.914	549.48
637.362	548.48
637.81	556.38
638.258	556.48
638.705	559.98
639.153	592.58
639.601	601.78
640.049	617.48
640.497	651.48
640.944	675.68
641.392	627.08
641.84	592.98
642.287	572.48
642.735	551.68
643.182	564.78
643.63	564.78
644.078	553.58
644.525	579.68
644.973	590.28
645.42	596.58
645.867	599.88
646.315	631.08
646.762	644.98
647.21	674.78
647.657	702.68
648.104	729.18
648.551	757.08
648.999	821.08
649.446	886.18
649.893	982.18
650.34	1138.88
650.787	1375.88
651.234	1693.88
651.682	2225.08
652.129	3093.68
652.576	4450.18
653.023	6559.38
653.47	8981.08
653.917	11146.08
654.363	12822.08
654.81	14126.08
655.257	13499.58
655.704	8796.28
656.151	5186.08
656.598	3348.98
657.044	2370.58
657.491	1828.48
657.938	1452.48
658.385	1226.68
658.831	1049.18
659.278	938.58
659.724	834.08
660.171	771.18
660.618	704.08
661.064	672.68
661.511	644.78
661.957	640.98
662.404	624.38
662.85	635.58
663.296	606.58
663.743	551.58
664.189	522.48
664.635	521.98
665.082	513.98
665.528	516.68
665.974	503.58
666.42	501.18
666.867	487.18
667.313	479.48
667.759	473.88
668.205	464.38
668.651	481.18
669.097	472.98
669.543	494.08
669.989	459.88
670.435	435.78
670.881	442.68
671.327	434.98
671.773	454.88
672.219	481.68
672.665	530.48
673.11	560.98
673.556	604.18
674.002	650.18
674.448	631.78
674.893	535.68
675.339	468.18
675.785	428.88
676.23	406.28
676.676	384.38
677.122	377.38
677.567	362.18
678.013	354.98
678.458	359.88
678.904	350.98
679.349	338.58
679.794	331.58
680.24	345.38
680.685	344.38
681.131	338.78
681.576	349.68
682.021	340.98
682.466	341.08
682.912	338.88
683.357	346.28
683.802	374.78
684.247	403.48
684.692	440.18
685.137	477.08
685.583	527.28
686.028	544.78
686.473	491.78
686.918	429.68
687.363	398.58
687.807	378.98
688.252	353.08
688.697	346.18
689.142	330.98
689.587	318.48
690.032	319.18
690.477	328.08
690.921	342.08
691.366	375.68
691.811	393.28
692.255	420.18
692.7	441.58
693.145	492.08
693.589	684.78
694.034	1108.98
694.478	1500.28
694.923	1663.48
695.367	2171.58
695.812	1157.88
696.256	481.78
696.701	357.88
697.145	340.48
697.59	327.58
698.034	315.78
698.478	324.88
698.922	322.18
699.367	317.28
699.811	330.38
700.255	341.58
700.699	383.48
701.143	415.68
701.588	461.88
702.032	508.98
702.476	492.78
702.92	477.08
703.364	484.68
703.808	629.18
704.252	1031.38
704.696	1413.58
705.14	1611.28
705.584	2066.98
706.027	1030.48
706.471	507.88
706.915	386.58
707.359	331.98
707.803	316.88
708.246	297.18
708.69	309.98
709.134	304.48
709.577	302.38
710.021	306.08
710.465	300.28
710.908	290.58
711.352	289.48
711.795	304.08
712.239	336.58
712.682	380.38
713.126	401.38
713.569	453.48
714.012	358.28
714.456	317.28
714.899	288.58
715.342	265.88
715.786	249.48
716.229	246.58
716.672	242.28
717.115	236.48
717.558	247.48
718.002	240.88
718.445	257.18
718.888	280.78
719.331	284.18
719.774	297.88
720.217	291.38
720.66	273.78
721.103	255.68
721.546	248.18
721.989	239.88
722.432	218.08
722.874	227.08
723.317	215.18
723.76	226.78
724.203	250.38
724.645	315.68
725.088	434.68
725.531	557.08
725.974	620.78
726.416	530.08
726.859	296.98
727.301	232.58
727.744	233.18
728.187	227.68
728.629	228.18
729.071	235.08
729.514	251.38
729.956	265.88
730.399	277.48
730.841	275.38
731.283	262.18
731.726	257.88
732.168	256.88
732.61	260.48
733.053	273.58
733.495	302.98
733.937	350.58
734.379	382.88
734.821	424.88
735.263	527.38
735.705	822.38
736.148	1567.08
736.59	2517.38
737.032	2925.08
737.474	2383.58
737.916	781.08
738.357	425.38
738.799	315.18
739.241	290.58
739.683	272.18
740.125	278.98
740.567	292.58
741.008	307.18
741.45	303.58
741.892	315.68
742.334	340.18
742.775	349.08
743.217	323.78
743.658	260.08
744.1	246.38
744.542	254.38
744.983	301.78
745.425	328.98
745.866	335.48
746.307	278.48
746.749	273.28
747.19	327.08
747.632	447.38
748.073	883.28
748.514	1830.78
748.956	2770.28
749.397	3483.68
749.838	2885.48
750.279	2844.68
750.72	1436.18
751.162	533.48
751.603	302.98
752.044	247.18
752.485	212.78
752.926	202.28
753.367	192.68
753.808	185.58
754.249	185.58
754.69	183.98
755.131	180.68
755.572	172.58
756.013	177.38
756.453	183.88
756.894	180.08
757.335	185.78
757.776	196.48
758.216	185.38
758.657	185.78
759.098	197.88
759.538	219.48
759.979	266.28
760.42	370.68
760.86	688.88
761.301	1809.78
761.741	4349.08
762.182	6181.18
762.622	4341.28
763.063	1272.28
763.503	524.18
763.943	344.88
764.384	327.28
764.824	401.28
765.264	427.98
765.705	306.88
766.145	205.88
766.585	181.28
767.025	172.48
767.465	178.58
767.906	240.78
768.346	307.88
768.786	334.08
769.226	257.08
769.666	317.38
770.106	613.68
770.546	1523.88
770.986	2568.88
771.426	2276.68
771.866	772.68
772.306	316.88
772.745	207.68
773.185	169.58
773.625	167.48
774.065	159.18
774.505	200.38
774.944	312.08
775.384	689.88
775.824	1230.48
776.263	1177.38
776.703	501.88
777.142	216.78
777.582	155.48
778.021	137.68
778.461	135.18
778.9	137.98
779.34	131.88
779.779	113.78
780.219	109.38
780.658	108.38
781.097	114.48
781.537	114.28
781.976	101.88
782.415	104.78
782.855	104.08
783.294	98.38
783.733	105.88
784.172	108.78
784.611	96.98
785.05	104.88
785.489	106.28
785.928	113.48
786.367	120.58
786.806	113.18
787.245	118.58
787.684	132.38
788.123	142.88
788.562	134.98
789.001	122.38
789.44	120.78
789.879	120.68
790.317	112.58
790.756	127.08
791.195	128.98
791.634	142.48
792.072	195.98
792.511	355.98
792.95	994.28
793.388	2086.58
793.827	1870.18
794.265	661.98
794.704	272.58
795.142	182.28
795.581	145.88
796.019	127.68
796.458	129.08
796.896	116.08
797.334	133.98
797.773	150.58
798.211	218.68
798.649	436.48
799.087	999.28
799.526	1561.68
799.964	1957.78
800.402	1930.58
800.84	727.48
801.278	291.08
801.716	171.78
802.154	148.28
802.592	147.38
803.03	136.48
803.468	131.38
803.906	136.58
804.344	146.68
804.782	134.88
805.22	124.48
805.658	127.18
806.096	138.58
806.533	155.88
806.971	170.58
807.409	211.28
807.847	309.78
808.284	650.38
808.722	1845.88
809.16	3203.68
809.597	3062.48
810.035	5292.58
810.472	5521.78
810.91	2012.88
811.347	764.78
811.785	390.28
812.222	243.78
812.66	189.08
813.097	157.38
813.535	140.28
813.972	124.78
814.409	115.58
814.846	105.68
815.284	106.88
815.721	99.58
816.158	110.28
816.595	117.68
817.032	172.48
817.47	192.48
817.907	159.78
818.344	148.78
818.781	107.58
819.218	95.08
819.655	119.68
820.092	182.98
820.529	207.58
820.966	168.08
821.403	133.18
821.839	109.98
822.276	98.28
822.713	114.88
823.15	130.78
823.587	111.08
824.023	143.98
824.46	295.58
824.897	878.98
825.333	1295.28
825.77	560.78
826.206	222.68
826.643	134.98
827.08	102.48
827.516	81.28
827.953	80.28
828.389	74.68
828.825	59.88
829.262	63.88
829.698	63.78
830.135	63.98
830.571	64.78
831.007	60.08
831.443	58.68
831.88	64.98
832.316	59.58
832.752	57.88
833.188	64.08
833.624	62.58
834.06	65.08
834.497	66.28
834.933	64.58
835.369	74.78
835.805	68.88
836.241	74.88
836.677	73.18
837.112	86.18
837.548	101.08
837.984	130.48
838.42	201.88
838.856	486.08
839.292	1486.48
839.727	2213.08
840.163	1041.28
840.599	911.18
841.034	1982.68
841.47	2036.48
841.906	745.78
842.341	326.18
842.777	224.18
843.212	318.08
843.648	304.68
844.083	152.68
844.519	85.78
844.954	72.98
845.39	49.28
845.825	58.58
846.261	58.58
846.696	58.38
847.131	50.08
847.566	50.38
848.002	48.58
848.437	53.68
848.872	57.78
849.307	52.68
849.742	84.08
850.177	177.98
850.613	549.18
851.048	848.58
851.483	365.48
851.918	152.38
852.353	80.08
852.788	58.28
853.223	59.98
853.657	49.48
854.092	40.78
854.527	42.48
854.962	40.38
855.397	40.18
855.832	44.48
856.266	42.48
856.701	38.78
857.136	39.18
857.57	41.18
858.005	50.28
858.44	56.08
858.874	41.28
859.309	51.18
859.743	36.98
860.178	45.98
860.612	36.58
861.047	48.18
861.481	60.18
861.915	65.78
862.35	46.78
862.784	28.28
863.218	29.68
863.653	33.98
864.087	53.38
864.521	49.78
864.955	63.08
865.39	154.48
865.824	175.88
866.258	111.18
866.692	157.18
867.126	165.18
867.56	93.18
867.994	47.88
868.428	28.88
868.862	41.48
869.296	47.08
869.73	50.78
870.164	48.88
870.598	45.08
871.031	37.78
871.465	28.48
871.899	33.58
872.333	25.48
872.766	25.18
873.2	26.38
873.634	26.98
874.067	22.18
874.501	21.18
874.935	39.08
875.368	25.38
875.802	23.08
876.235	23.88
876.669	22.88
877.102	19.88
877.535	23.38
877.969	17.78
878.402	24.98
878.836	18.68
879.269	23.08
879.702	23.48
880.135	16.88
880.569	20.58
881.002	31.48
881.435	22.48
881.868	15.48
882.301	21.38
882.734	14.88
883.167	19.78
883.601	18.38
884.034	24.28
884.467	20.28
884.899	20.48
885.332	15.88
885.765	16.68
886.198	20.38
886.631	18.98
887.064	14.78
887.497	9.18
887.929	24.98
888.362	13.68
888.795	17.58
889.228	17.38
889.66	21.28
890.093	20.18
890.526	11.78
890.958	18.28
891.391	16.78
891.823	24.98
892.256	16.48
892.688	12.08
893.121	12.58
893.553	12.88
893.985	21.58
894.418	21.48
894.85	12.68
895.282	16.08
895.715	16.28
896.147	19.08
896.579	13.38
897.011	12.18
897.444	17.18
897.876	11.68
898.308	18.18
898.74	6.38
899.172	11.08
899.604	27.18
900.036	19.98
900.468	13.08
900.9	12.88
901.332	20.18
901.764	13.78
902.196	19.58
902.628	11.78
903.06	11.48
903.491	21.78
903.923	19.88
904.355	17.58
904.787	23.48
905.218	25.58
905.65	21.68
906.082	18.88
906.513	8.88
906.945	22.18
907.376	15.28
907.808	14.48
908.239	20.88
908.671	21.28
909.102	21.98
909.534	24.38
909.965	41.48
910.397	85.58
910.828	303.28
911.259	461.38
911.691	210.88
912.122	100.88
912.553	53.08
912.984	30.48
913.415	27.18
913.847	21.68
914.278	17.58
914.709	14.78
915.14	16.38
915.571	17.48
916.002	11.48
916.433	18.58
916.864	15.38
917.295	14.58
917.726	18.18
918.157	13.18
918.587	23.28
919.018	16.68
919.449	18.28
919.88	23.78
920.311	32.68
920.741	45.48
921.172	171.98
921.603	149.28
922.033	71.88
922.464	42.98
922.895	17.48
923.325	23.28
923.756	12.38
924.186	13.88
924.617	27.88
925.047	43.28
925.478	52.88
925.908	44.58
926.338	24.28
926.769	20.38
927.199	16.58
927.629	12.38
928.06	13.58
928.49	11.28
928.92	14.58
929.35	11.68
929.78	11.78
930.21	7.28
930.641	7.18
931.071	4.48
931.501	5.78
931.931	9.08
932.361	4.68
932.791	2.98
933.221	4.48
933.651	5.78
934.08	12.38
934.51	30.48
934.94	6.48
935.37	8.68
935.8	12.48
936.229	5.28
936.659	12.68
937.089	0.38
937.519	16.38
937.948	25.58
938.378	16.58
938.807	7.48
939.237	3.58
939.666	11.38
940.096	-6.62
940.525	5.18
940.955	1.78
941.384	4.98
941.814	-5.42
942.243	1.28
942.672	-2.42
943.102	1.98
943.531	5.38
943.96	0.28
944.39	-0.02
944.819	0.88
945.248	0.78
945.677	-4.32
946.106	1.68
946.535	1.88
946.964	0.68
947.393	-0.42
947.822	2.58
948.251	-0.02
948.68	-3.52
949.109	7.08
949.538	5.88
949.967	-2.92
950.396	-0.82
950.825	-3.32
951.254	-0.12
951.682	-10.12
952.111	-1.42
952.54	11.28
952.969	-6.02
953.397	-7.12
953.826	0.48
954.254	-8.22
954.683	-6.92
955.112	-1.22
955.54	-1.62
955.969	0.08
956.397	0.48
956.826	-8.62
957.254	-4.72
957.682	-2.12
958.111	0.18
958.539	2.68
958.967	0.28
959.396	-6.72
959.824	0.18
960.252	-3.92
960.68	-6.12
961.109	-3.82
961.537	-3.92
961.965	-0.62
962.393	-1.22
962.821	-0.12
963.249	-1.82
963.677	6.88
964.105	2.48
964.533	47.18
964.961	43.18
965.389	17.78
965.817	2.38
966.245	-2.22
966.672	-0.92
967.1	-10.12
967.528	-4.82
967.956	-11.52
968.383	6.68
968.811	3.28
969.239	0.48
969.666	-7.22
970.094	-2.02
970.522	-1.82
970.949	-1.92
971.377	-10.22
971.804	-2.22
972.232	-4.42
972.659	-10.92
973.087	-8.42
973.514	-0.62
973.941	-0.72
974.369	2.58
974.796	0.88
975.223	0.68
975.651	-9.22
976.078	0.48
976.505	0.58
976.932	0.38
977.359	12.38
977.786	15.68
978.214	0.98
978.641	-0.02
979.068	-4.12
979.495	-8.92
979.922	-4.32
980.349	-6.92
980.776	2.88
981.202	-3.72
981.629	2.68
982.056	2.68
982.483	-5.32
982.91	-0.22
983.337	-11.52
983.763	4.68
984.19	-11.52
984.617	2.68
985.043	-8.02
985.47	-6.52
985.897	-7.82
986.323	-11.32
986.75	-1.32
987.176	-2.42
987.603	-2.32
988.029	1.48
988.456	-2.12
988.882	4.78
989.308	-11.42
989.735	-4.82
990.161	0.18
990.587	-5.42
991.014	-1.82
991.44	1.48
991.866	-5.22
992.292	-3.02
992.719	-5.22
993.145	-6.62
993.571	-7.52
993.997	-3.92
994.423	-1.82
994.849	-6.92
995.275	-1.62
995.701	3.68
996.127	-6.32
996.553	0.68
996.979	-4.92
997.405	0.88
997.83	-4.62
998.256	-3.32
998.682	-9.02
999.108	-3.02
999.534	-3.62
999.959	-2.22
1000.385	0.88
1000.811	-2.52
1001.236	-12.62
1001.662	-10.72
1002.087	-5.12
1002.513	-0.02
1002.938	3.88
1003.364	-4.62
1003.789	-3.82
1004.215	1.08
1004.64	-2.42
1005.066	-5.62
1005.491	-3.52
1005.916	-3.72
1006.342	-5.92
1006.767	-4.42
1007.192	-0.32
1007.617	-9.32
1008.042	-8.52
1008.468	-6.12
1008.893	-4.62
1009.318	-2.42
1009.743	-2.12
1010.168	1.88
1010.593	-0.42
1011.018	-6.52
1011.443	-2.12
1011.868	-4.92
1012.293	-4.02
1012.718	-10.42
1013.143	-3.62
1013.567	-4.12
1013.992	-0.22
1014.417	-10.52
1014.842	-2.22
1015.267	-8.12
1015.691	-3.02
1016.116	5.28
1016.541	1.18
1016.965	-1.42
1017.39	2.58
1017.814	-1.22
1018.239	-3.82
1018.663	-8.02
1019.088	-14.72
1019.512	-1.72
1019.937	1.58
1020.361	-6.22
1020.785	-10.82
1021.21	-6.42
1021.634	2.28
1022.058	-2.82
1022.483	1.68
1022.907	-2.92
1023.331	-3.52
1023.755	-4.42
1024.179	-0.52
1024.604	-9.72
1025.028	-8.02
1025.452	-8.62
1025.876	-8.82
1026.3	-3.22
1026.724	-11.82
1027.148	-8.72
1027.572	-10.72
1027.996	-5.22
1028.42	-7.32
1028.843	-5.32
1029.267	-3.52
1029.691	2.98
1030.115	-5.82
1030.539	-7.12
1030.962	-12.32
1031.386	-14.62
1031.81	-1.92
1032.233	0.18
1032.657	-4.42
1033.08	-6.92
1033.504	-4.52
1033.927	-7.42
1034.351	-1.12
1034.774	-4.62
1035.198	-1.82
1035.621	-8.22
1036.045	-4.52
1036.468	-5.82
1036.891	-10.22
1037.315	-9.12
1037.738	-10.62
1038.161	-2.02
1038.584	-8.42
1039.008	-8.82
1039.431	-4.62
1039.854	-6.62
1040.277	-13.32
1040.7	-14.22
1041.123	-1.72
1041.546	-6.92
1041.969	-5.02
1042.392	-8.32
1042.815	-2.22
1043.238	1.18
1043.661	4.48
1044.084	-5.92
1044.507	-11.72
1044.93	-3.72
1045.352	-6.32
1045.775	1.98
1046.198	-0.62
1046.621	-0.42
1047.043	-4.72
1047.466	2.38
1047.889	-7.82
1048.311	-3.82
1048.734	-1.82
1049.156	-3.52
1049.579	-1.72
1050.001	-6.92
1050.424	-4.02
1050.846	-5.92
1051.269	-4.72
1051.691	-9.82
1052.113	-5.82
1052.536	-6.82
1052.958	-3.42
1053.38	-5.52
1053.802	-9.92
1054.225	-0.42
1054.647	-8.42
1055.069	-3.82
1055.491	-1.92
1055.913	-9.92
1056.335	-5.42
1056.757	-8.82
1057.179	-15.42
1057.601	-7.62
1058.023	-5.42
1058.445	-7.22
1058.867	-7.62
1059.289	-7.22
1059.711	-6.02
1060.133	-2.82
1060.555	-13.72
1060.976	-7.62
1061.398	-12.12
1061.82	-10.42
1062.241	-10.62
1062.663	-8.82
1063.085	-7.52
1063.506	-3.62
1063.928	-10.22
1064.35	-6.82
1064.771	-12.72
1065.193	-8.62
1065.614	-11.22
1066.035	-4.12
1066.457	-7.22
1066.878	-1.02
1067.3	-8.12
1067.721	-7.62
1068.142	-5.82
1068.564	-10.62
1068.985	-7.52
1069.406	-4.72
1069.827	-4.22
1070.248	-2.52
1070.67	-9.52
1071.091	-5.62
1071.512	-0.62
1071.933	-10.72
1072.354	-5.62
1072.775	-8.12
1073.196	-7.42
1073.617	-0.92
1074.038	-4.52
1074.459	-11.62
1074.88	-11.12
1075.3	-3.72
1075.721	-13.72
1076.142	-4.92
1076.563	3.28
1076.983	-11.92
1077.404	-6.92
1077.825	-8.72
1078.246	-6.32
1078.666	-13.52
1079.087	-7.12
1079.507	-8.02
1079.928	0.68
1080.348	-2.02
1080.769	-2.82
1081.189	0.08
1081.61	-0.72
1082.03	-10.62
1082.451	-7.02
1082.871	-3.62
1083.291	-13.52
1083.711	-6.02
1084.132	-5.52
1084.552	1.08
1084.972	-0.22
1085.392	-13.42
1085.813	-12.32
1086.233	-12.72
1086.653	-7.72
1087.073	-6.32
1087.493	-5.82
1087.913	-11.82
1088.333	-5.02
1088.753	-11.12
1089.173	0.98
1089.593	-1.92
1090.013	1.28
1090.433	-1.42
1090.852	-1.72
1091.272	-2.32
1091.692	-8.52
1092.112	-8.52
1092.531	-10.62
1092.951	-14.82
1093.371	-3.12
1093.79	0.68
1094.21	-7.02
1094.63	-7.62
1095.049	-7.42
1095.469	-4.22
1095.888	-8.32
1096.308	6.98
1096.727	1.88
1097.146	-10.52
1097.566	-6.62
1097.985	-0.82
1098.405	-5.52
1098.824	-6.72
1099.243	-5.42
1099.662	-6.42
1100.082	-5.12
1100.501	-3.32
1100.92	-4.12
1101.339	-8.42
1101.758	-8.62
