Data from 20171114-ORNL-Ar_H_NY_Subt18_08-08-28-760.txt Node
Date: Tue Nov 14 08:08:28 EST 2017
User: Ender
Spectrometer: HR+D1039
Trigger mode: 0
Integration Time (sec): 2.730000E-2
Scans to average: 10
Electric dark correction enabled: true
Nonlinearity correction enabled: false
Boxcar width: 0
XAxis mode: Wavelengths
Number of Pixels in Spectrum: 2048
>>>>>Begin Spectral Data<<<<<
187.836	-3.74
188.309	-3.74
188.782	-3.74
189.255	-1.94
189.728	0.86
190.201	-0.14
190.674	3.16
191.147	1.06
191.619	-10.14
192.092	2.96
192.565	7.96
193.038	-0.34
193.511	-2.24
193.984	1.46
194.456	-3.94
194.929	3.56
195.402	-0.64
195.874	2.16
196.347	-0.54
196.82	-6.34
197.292	6.66
197.765	-4.14
198.237	-5.74
198.71	0.46
199.182	-1.14
199.655	3.46
200.127	2.26
200.6	-1.54
201.072	-2.24
201.544	-1.74
202.017	3.36
202.489	1.06
202.961	-4.04
203.433	0.76
203.906	-6.44
204.378	-6.84
204.85	-8.34
205.322	-7.64
205.794	-5.14
206.266	-8.04
206.739	-8.64
207.211	-7.44
207.683	-9.64
208.155	-8.14
208.627	-4.74
209.099	-5.34
209.57	-11.44
210.042	0.06
210.514	-3.54
210.986	-1.94
211.458	-11.54
211.93	-2.14
212.402	-3.54
212.873	-4.04
213.345	-7.54
213.817	-13.34
214.288	-3.34
214.76	-15.34
215.232	-3.84
215.703	-0.64
216.175	-1.94
216.646	-2.24
217.118	-4.74
217.589	-5.24
218.061	-4.24
218.532	-10.94
219.004	-6.84
219.475	-2.84
219.946	-6.64
220.418	-3.84
220.889	5.86
221.36	-2.24
221.832	-4.54
222.303	-11.24
222.774	-4.44
223.245	-5.54
223.717	-3.34
224.188	-7.84
224.659	-8.64
225.13	-6.54
225.601	-4.94
226.072	-9.64
226.543	-0.34
227.014	-1.24
227.485	1.16
227.956	-7.84
228.427	-7.14
228.898	-3.14
229.369	3.76
229.839	-6.64
230.31	-4.14
230.781	-1.94
231.252	-1.34
231.722	-7.44
232.193	-5.84
232.664	-7.74
233.135	-2.44
233.605	-3.14
234.076	-10.54
234.546	0.16
235.017	-1.94
235.487	-4.34
235.958	-3.24
236.428	-6.54
236.899	-7.84
237.369	-0.74
237.84	-8.04
238.31	6.26
238.78	-0.44
239.251	-4.94
239.721	-3.94
240.191	-3.84
240.662	-12.34
241.132	-4.04
241.602	-4.44
242.072	-9.94
242.542	4.26
243.013	-7.14
243.483	0.56
243.953	2.56
244.423	-3.84
244.893	-7.14
245.363	-1.44
245.833	-0.74
246.303	-6.34
246.773	3.76
247.243	1.16
247.712	1.36
248.182	5.86
248.652	1.16
249.122	-5.74
249.592	5.96
250.061	5.26
250.531	9.46
251.001	-1.74
251.471	5.86
251.94	9.46
252.41	-6.84
252.879	-3.14
253.349	7.16
253.818	4.66
254.288	1.46
254.757	1.76
255.227	-3.14
255.696	-0.94
256.166	-1.14
256.635	2.56
257.105	7.06
257.574	2.16
258.043	-0.14
258.513	-1.94
258.982	1.46
259.451	-1.24
259.92	1.96
260.389	3.56
260.859	8.76
261.328	0.06
261.797	3.86
262.266	-2.64
262.735	4.86
263.204	3.16
263.673	-2.34
264.142	-0.84
264.611	-4.24
265.08	-7.24
265.549	-2.94
266.018	-2.74
266.487	-1.54
266.955	-0.24
267.424	-2.74
267.893	8.46
268.362	-2.34
268.83	1.56
269.299	8.16
269.768	-3.14
270.236	-0.64
270.705	-3.74
271.174	3.56
271.642	1.46
272.111	3.06
272.579	10.66
273.048	7.56
273.516	4.46
273.985	7.86
274.453	5.36
274.922	11.46
275.39	4.06
275.858	0.16
276.327	5.96
276.795	12.96
277.263	3.66
277.731	11.56
278.2	13.56
278.668	16.06
279.136	20.36
279.604	11.86
280.072	11.66
280.54	9.36
281.008	4.06
281.477	10.06
281.945	8.26
282.413	8.16
282.881	16.56
283.348	7.26
283.816	6.46
284.284	10.36
284.752	19.56
285.22	9.26
285.688	14.66
286.156	14.26
286.623	21.46
287.091	15.06
287.559	13.86
288.026	12.46
288.494	14.96
288.962	7.06
289.429	4.06
289.897	14.06
290.364	6.26
290.832	13.16
291.3	9.16
291.767	18.16
292.234	15.96
292.702	10.76
293.169	12.66
293.637	16.36
294.104	20.16
294.571	5.26
295.039	9.96
295.506	9.96
295.973	19.26
296.44	17.36
296.908	15.46
297.375	16.86
297.842	9.36
298.309	13.96
298.776	8.86
299.243	16.76
299.71	5.96
300.177	18.56
300.644	18.06
301.111	15.76
301.578	22.76
302.045	7.86
302.512	22.46
302.979	21.06
303.446	20.56
303.913	13.16
304.379	17.76
304.846	27.76
305.313	21.16
305.78	20.86
306.246	21.46
306.713	21.66
307.18	19.56
307.646	24.26
308.113	20.56
308.579	20.16
309.046	20.96
309.512	19.16
309.979	14.56
310.445	18.26
310.912	26.96
311.378	24.56
311.845	24.06
312.311	32.66
312.777	27.96
313.244	28.46
313.71	31.56
314.176	25.86
314.642	25.96
315.109	24.86
315.575	26.06
316.041	34.06
316.507	28.06
316.973	31.36
317.439	25.16
317.905	33.66
318.371	36.96
318.837	28.66
319.303	31.46
319.769	32.56
320.235	30.56
320.701	27.66
321.167	31.86
321.633	26.56
322.099	28.46
322.564	37.36
323.03	37.26
323.496	39.96
323.962	34.16
324.427	30.66
324.893	38.46
325.359	33.66
325.824	34.36
326.29	34.36
326.755	36.76
327.221	37.56
327.686	38.66
328.152	45.36
328.617	40.66
329.083	46.36
329.548	47.06
330.014	42.36
330.479	34.46
330.944	41.06
331.41	38.06
331.875	41.06
332.34	39.26
332.805	34.96
333.271	38.76
333.736	34.56
334.201	45.56
334.666	53.06
335.131	55.06
335.596	46.76
336.061	48.66
336.526	37.36
336.991	50.16
337.456	50.56
337.921	46.66
338.386	37.56
338.851	40.26
339.316	46.66
339.781	43.36
340.246	47.26
340.711	45.76
341.175	53.76
341.64	36.36
342.105	48.76
342.569	51.46
343.034	54.86
343.499	53.26
343.963	52.36
344.428	59.46
344.893	60.96
345.357	59.66
345.822	53.46
346.286	64.26
346.751	65.16
347.215	66.96
347.679	74.86
348.144	91.06
348.608	76.56
349.073	62.36
349.537	74.66
350.001	81.96
350.465	91.76
350.93	84.86
351.394	79.36
351.858	65.96
352.322	75.36
352.786	85.26
353.25	103.16
353.715	111.46
354.179	97.46
354.643	127.56
355.107	118.56
355.571	104.46
356.035	97.36
356.498	113.26
356.962	119.26
357.426	127.36
357.89	116.36
358.354	88.06
358.818	81.16
359.281	76.06
359.745	78.46
360.209	75.76
360.673	73.46
361.136	75.56
361.6	81.36
362.064	81.86
362.527	75.26
362.991	91.56
363.454	77.16
363.918	72.26
364.381	82.66
364.845	87.96
365.308	89.46
365.772	83.16
366.235	90.66
366.698	84.66
367.162	86.46
367.625	83.76
368.088	89.06
368.552	87.46
369.015	88.96
369.478	95.66
369.941	99.06
370.404	98.76
370.867	92.26
371.331	103.56
371.794	113.46
372.257	100.06
372.72	101.46
373.183	104.76
373.646	95.46
374.109	99.36
374.572	104.36
375.035	105.86
375.497	104.46
375.96	96.06
376.423	102.46
376.886	115.36
377.349	106.46
377.811	103.56
378.274	107.06
378.737	104.46
379.199	108.96
379.662	110.96
380.125	112.36
380.587	105.16
381.05	102.66
381.512	117.76
381.975	117.96
382.437	112.56
382.9	122.06
383.362	123.36
383.825	137.96
384.287	128.96
384.75	121.36
385.212	126.76
385.674	127.86
386.136	135.76
386.599	121.36
387.061	125.66
387.523	123.86
387.985	134.46
388.447	134.86
388.91	122.46
389.372	131.26
389.834	137.36
390.296	132.06
390.758	132.86
391.22	138.56
391.682	161.96
392.144	192.56
392.606	165.16
393.068	150.56
393.529	153.66
393.991	146.76
394.453	142.36
394.915	140.36
395.377	154.16
395.838	161.56
396.3	148.46
396.762	143.16
397.224	143.16
397.685	129.96
398.147	127.86
398.608	139.96
399.07	139.86
399.531	140.46
399.993	156.36
400.454	155.56
400.916	151.56
401.377	155.36
401.839	159.86
402.3	152.06
402.762	171.26
403.223	181.36
403.684	174.56
404.145	163.06
404.607	161.26
405.068	167.66
405.529	173.56
405.99	185.16
406.451	179.06
406.913	178.26
407.374	167.86
407.835	165.46
408.296	171.26
408.757	170.66
409.218	195.66
409.679	179.56
410.14	170.36
410.601	179.96
411.062	189.86
411.522	179.06
411.983	181.16
412.444	181.06
412.905	187.36
413.366	192.56
413.826	201.56
414.287	227.66
414.748	272.96
415.208	257.66
415.669	222.46
416.13	219.26
416.59	214.56
417.051	218.66
417.511	226.26
417.972	249.06
418.432	252.86
418.893	303.06
419.353	270.26
419.814	208.26
420.274	190.96
420.734	189.76
421.195	215.56
421.655	209.56
422.115	205.06
422.576	207.66
423.036	206.86
423.496	215.56
423.956	221.06
424.416	246.36
424.876	273.16
425.336	271.86
425.797	275.86
426.257	271.66
426.717	247.66
427.177	233.06
427.637	234.96
428.097	239.46
428.556	251.26
429.016	278.76
429.476	272.36
429.936	285.06
430.396	282.76
430.856	297.06
431.315	324.16
431.775	361.86
432.235	391.56
432.694	360.36
433.154	376.36
433.614	405.76
434.073	345.26
434.533	287.86
434.993	277.36
435.452	292.46
435.912	300.56
436.371	296.36
436.83	284.76
437.29	276.06
437.749	259.76
438.209	259.36
438.668	278.46
439.127	297.56
439.587	271.96
440.046	257.06
440.505	272.16
440.964	293.86
441.424	343.06
441.883	326.86
442.342	275.66
442.801	235.66
443.26	233.16
443.719	236.96
444.178	229.66
444.637	224.96
445.096	238.56
445.555	226.96
446.014	234.66
446.473	243.86
446.932	245.56
447.391	238.56
447.849	239.16
448.308	239.66
448.767	241.26
449.226	243.76
449.685	252.06
450.143	263.46
450.602	249.26
451.061	238.56
451.519	246.36
451.978	242.66
452.436	243.86
452.895	251.56
453.353	259.86
453.812	252.26
454.27	249.56
454.729	254.56
455.187	252.26
455.646	254.56
456.104	267.56
456.562	268.46
457.021	281.86
457.479	275.76
457.937	283.46
458.395	272.86
458.854	266.66
459.312	263.36
459.77	285.86
460.228	273.26
460.686	260.16
461.144	266.76
461.602	261.36
462.06	255.46
462.518	266.96
462.976	262.76
463.434	270.86
463.892	273.96
464.35	289.66
464.808	297.86
465.266	279.06
465.724	290.16
466.181	284.96
466.639	289.66
467.097	302.96
467.555	309.36
468.012	322.86
468.47	326.66
468.928	345.16
469.385	360.16
469.843	367.46
470.3	358.86
470.758	385.86
471.215	404.96
471.673	428.36
472.13	431.96
472.588	441.06
473.045	384.76
473.503	399.96
473.96	418.76
474.417	423.86
474.875	451.66
475.332	497.86
475.789	487.26
476.246	486.86
476.704	508.56
477.161	545.86
477.618	542.86
478.075	572.96
478.532	639.76
478.989	700.96
479.446	824.06
479.903	794.06
480.36	826.66
480.817	869.86
481.274	955.56
481.731	1056.96
482.188	1132.26
482.645	1257.86
483.102	1343.96
483.558	1465.26
484.015	1505.76
484.472	1474.76
484.929	1440.26
485.385	1398.36
485.842	1366.16
486.299	1322.76
486.755	1289.36
487.212	1088.16
487.668	919.06
488.125	865.36
488.582	783.56
489.038	760.36
489.494	732.56
489.951	700.56
490.407	684.66
490.864	662.56
491.32	660.86
491.776	667.36
492.233	671.36
492.689	641.26
493.145	634.56
493.602	621.26
494.058	637.26
494.514	637.66
494.97	652.26
495.426	675.36
495.882	642.56
496.338	633.56
496.794	642.86
497.251	636.76
497.707	642.76
498.163	652.66
498.618	662.66
499.074	655.76
499.53	705.06
499.986	699.56
500.442	674.86
500.898	641.16
501.354	644.16
501.809	647.86
502.265	642.06
502.721	659.46
503.177	668.16
503.632	681.76
504.088	682.56
504.543	705.66
504.999	727.76
505.455	686.86
505.91	657.46
506.366	656.46
506.821	651.96
507.277	654.96
507.732	663.86
508.187	649.46
508.643	657.76
509.098	661.06
509.553	691.06
510.009	691.26
510.464	700.36
510.919	716.46
511.375	731.86
511.83	741.06
512.285	752.26
512.74	789.86
513.195	812.06
513.65	798.36
514.105	792.66
514.56	789.76
515.015	811.36
515.47	827.76
515.925	806.56
516.38	816.06
516.835	816.76
517.29	803.66
517.745	806.56
518.2	799.46
518.655	777.06
519.109	777.46
519.564	768.76
520.019	755.06
520.474	754.76
520.928	762.36
521.383	745.96
521.838	735.56
522.292	742.46
522.747	744.56
523.201	734.16
523.656	729.76
524.11	726.36
524.565	721.66
525.019	720.36
525.474	729.76
525.928	727.76
526.382	726.66
526.837	724.06
527.291	729.16
527.745	731.56
528.2	717.36
528.654	723.66
529.108	715.36
529.562	714.96
530.016	718.26
530.47	712.96
530.925	709.76
531.379	724.16
531.833	724.26
532.287	723.96
532.741	731.46
533.195	735.76
533.649	726.26
534.103	740.36
534.556	733.36
535.01	739.16
535.464	736.56
535.918	740.16
536.372	739.76
536.826	740.66
537.279	728.46
537.733	737.76
538.187	731.96
538.64	732.36
539.094	747.06
539.548	753.66
540.001	751.16
540.455	743.46
540.908	754.56
541.362	765.66
541.815	766.56
542.269	788.16
542.722	790.16
543.175	792.96
543.629	794.16
544.082	826.16
544.536	819.96
544.989	814.76
545.442	829.86
545.895	828.26
546.349	818.36
546.802	822.96
547.255	826.46
547.708	835.46
548.161	858.26
548.614	860.36
549.067	867.36
549.52	852.56
549.973	841.66
550.426	838.06
550.879	824.86
551.332	840.26
551.785	839.56
552.238	846.16
552.691	845.96
553.144	873.26
553.596	874.76
554.049	900.06
554.502	931.06
554.955	941.96
555.407	947.06
555.86	938.06
556.313	919.16
556.765	915.06
557.218	916.36
557.67	908.16
558.123	916.56
558.576	904.66
559.028	908.36
559.48	919.16
559.933	903.06
560.385	871.46
560.838	842.86
561.29	817.46
561.742	811.36
562.195	790.96
562.647	796.96
563.099	804.26
563.551	795.56
564.004	822.66
564.456	794.66
564.908	783.96
565.36	772.66
565.812	755.26
566.264	748.36
566.716	746.46
567.168	733.86
567.62	735.86
568.072	731.76
568.524	718.26
568.976	714.76
569.428	698.66
569.88	706.76
570.332	718.36
570.784	719.46
571.235	716.46
571.687	729.36
572.139	733.36
572.59	737.46
573.042	739.66
573.494	739.26
573.945	726.36
574.397	715.86
574.849	723.76
575.3	709.86
575.752	710.86
576.203	709.06
576.655	713.36
577.106	699.36
577.557	696.66
578.009	695.96
578.46	695.76
578.912	694.16
579.363	682.26
579.814	692.46
580.265	699.46
580.717	700.96
581.168	700.46
581.619	702.86
582.07	721.16
582.521	700.26
582.972	696.86
583.423	701.16
583.875	702.06
584.326	717.76
584.777	734.66
585.227	770.36
585.678	801.66
586.129	830.16
586.58	866.06
587.031	889.16
587.482	938.16
587.933	1002.96
588.384	947.16
588.834	865.66
589.285	812.76
589.736	803.86
590.186	797.76
590.637	794.06
591.088	771.56
591.538	768.96
591.989	761.16
592.439	758.86
592.89	748.76
593.34	736.16
593.791	728.96
594.241	723.96
594.692	731.26
595.142	726.66
595.593	724.56
596.043	728.36
596.493	732.56
596.943	729.26
597.394	750.16
597.844	753.36
598.294	756.16
598.744	785.26
599.195	810.36
599.645	848.76
600.095	893.56
600.545	955.46
600.995	999.66
601.445	1071.96
601.895	1138.76
602.345	1167.16
602.795	1150.86
603.245	1109.56
603.695	1051.36
604.145	1004.06
604.594	954.86
605.044	897.56
605.494	833.16
605.944	784.26
606.393	772.96
606.843	759.06
607.293	755.66
607.743	766.96
608.192	762.16
608.642	797.66
609.091	800.46
609.541	798.46
609.99	792.76
610.44	785.06
610.889	748.46
611.339	720.36
611.788	715.06
612.238	714.56
612.687	725.16
613.136	726.46
613.586	742.26
614.035	734.46
614.484	746.76
614.933	741.26
615.383	747.76
615.832	745.26
616.281	724.56
616.73	692.56
617.179	675.46
617.628	668.06
618.077	660.46
618.526	640.26
618.975	631.36
619.424	647.56
619.873	634.16
620.322	637.96
620.771	624.46
621.22	626.66
621.669	617.76
622.118	608.76
622.567	602.76
623.015	593.56
623.464	588.56
623.913	586.76
624.361	569.16
624.81	568.16
625.259	579.16
625.707	568.56
626.156	576.66
626.604	588.06
627.053	578.36
627.501	576.26
627.95	594.26
628.398	602.76
628.847	589.46
629.295	590.66
629.744	594.86
630.192	585.36
630.64	585.06
631.089	576.46
631.537	568.96
631.985	558.66
632.433	565.96
632.881	556.56
633.33	574.46
633.778	562.26
634.226	557.16
634.674	566.96
635.122	565.26
635.57	579.16
636.018	596.06
636.466	582.86
636.914	578.76
637.362	592.46
637.81	600.16
638.258	603.36
638.705	609.26
639.153	630.56
639.601	636.56
640.049	677.56
640.497	699.86
640.944	719.06
641.392	675.16
641.84	640.36
642.287	597.76
642.735	592.26
643.182	585.76
643.63	581.86
644.078	585.66
644.525	597.76
644.973	608.96
645.42	607.26
645.867	648.16
646.315	656.16
646.762	683.56
647.21	712.76
647.657	727.96
648.104	759.76
648.551	787.76
648.999	847.76
649.446	929.36
649.893	1007.76
650.34	1169.66
650.787	1372.36
651.234	1700.46
651.682	2203.26
652.129	3003.56
652.576	4248.06
653.023	6202.46
653.47	8399.56
653.917	10375.76
654.363	11864.96
654.81	13030.16
655.257	12325.66
655.704	8213.86
656.151	4954.06
656.598	3246.86
657.044	2320.76
657.491	1806.26
657.938	1450.76
658.385	1220.16
658.831	1076.86
659.278	959.26
659.724	842.16
660.171	802.56
660.618	732.46
661.064	704.06
661.511	677.96
661.957	670.06
662.404	657.26
662.85	667.56
663.296	640.16
663.743	569.66
664.189	559.36
664.635	552.96
665.082	545.56
665.528	550.66
665.974	535.76
666.42	527.06
666.867	519.86
667.313	498.26
667.759	481.76
668.205	474.16
668.651	468.96
669.097	474.46
669.543	468.16
669.989	454.06
670.435	463.66
670.881	468.26
671.327	471.36
671.773	483.36
672.219	515.26
672.665	575.36
673.11	610.16
673.556	656.16
674.002	691.76
674.448	683.56
674.893	574.26
675.339	503.26
675.785	462.76
676.23	445.46
676.676	405.86
677.122	398.66
677.567	392.46
678.013	384.86
678.458	382.96
678.904	378.96
679.349	367.46
679.794	374.76
680.24	365.56
680.685	370.36
681.131	366.76
681.576	366.96
682.021	368.46
682.466	367.86
682.912	361.66
683.357	374.06
683.802	405.06
684.247	447.16
684.692	477.16
685.137	524.66
685.583	564.56
686.028	592.86
686.473	548.86
686.918	470.26
687.363	435.66
687.807	412.66
688.252	387.46
688.697	367.86
689.142	349.36
689.587	348.26
690.032	342.26
690.477	364.96
690.921	372.96
691.366	404.66
691.811	423.36
692.255	451.06
692.7	479.06
693.145	523.76
693.589	752.56
694.034	1216.86
694.478	1625.96
694.923	1804.96
695.367	2351.26
695.812	1248.36
696.256	524.96
696.701	387.46
697.145	362.96
697.59	341.16
698.034	335.06
698.478	343.76
698.922	339.26
699.367	343.46
699.811	352.36
700.255	365.46
700.699	397.86
701.143	441.86
701.588	494.96
702.032	528.66
702.476	533.36
702.92	515.06
703.364	521.06
703.808	689.66
704.252	1121.36
704.696	1535.06
705.14	1744.66
705.584	2199.96
706.027	1120.56
706.471	553.66
706.915	417.86
707.359	365.86
707.803	340.66
708.246	331.46
708.69	331.16
709.134	329.66
709.577	324.16
710.021	322.66
710.465	321.86
710.908	317.26
711.352	316.06
711.795	317.26
712.239	372.66
712.682	407.66
713.126	426.96
713.569	477.76
714.012	382.06
714.456	320.16
714.899	311.96
715.342	288.76
715.786	268.66
716.229	267.86
716.672	268.46
717.115	261.26
717.558	262.96
718.002	264.96
718.445	278.06
718.888	299.36
719.331	308.26
719.774	322.96
720.217	315.16
720.66	300.16
721.103	284.86
721.546	268.16
721.989	267.46
722.432	250.16
722.874	250.66
723.317	240.06
723.76	250.56
724.203	268.06
724.645	333.86
725.088	473.56
725.531	600.96
725.974	665.06
726.416	575.16
726.859	323.36
727.301	267.66
727.744	243.96
728.187	241.66
728.629	251.56
729.071	254.56
729.514	277.66
729.956	284.86
730.399	297.96
730.841	304.86
731.283	290.46
731.726	279.26
732.168	269.96
732.61	288.26
733.053	303.66
733.495	337.06
733.937	368.06
734.379	416.46
734.821	460.96
735.263	578.96
735.705	899.66
736.148	1706.36
736.59	2739.66
737.032	3167.76
737.474	2604.56
737.916	864.46
738.357	449.86
738.799	345.86
739.241	311.76
739.683	296.76
740.125	304.86
740.567	317.16
741.008	333.16
741.45	333.66
741.892	337.36
742.334	372.36
742.775	378.46
743.217	369.46
743.658	287.86
744.1	268.66
744.542	276.46
744.983	332.26
745.425	359.26
745.866	359.06
746.307	298.96
746.749	297.06
747.19	351.96
747.632	499.16
748.073	970.46
748.514	2013.86
748.956	2989.76
749.397	3788.56
749.838	3153.06
750.279	3068.76
750.72	1571.16
751.162	588.86
751.603	337.96
752.044	261.26
752.485	230.26
752.926	223.26
753.367	207.56
753.808	204.96
754.249	200.26
754.69	186.36
755.131	194.56
755.572	190.56
756.013	184.06
756.453	192.76
756.894	199.46
757.335	203.86
757.776	210.16
758.216	206.86
758.657	207.36
759.098	210.16
759.538	241.16
759.979	275.06
760.42	401.76
760.86	774.26
761.301	2013.56
761.741	4757.66
762.182	6638.96
762.622	4695.36
763.063	1397.26
763.503	574.06
763.943	350.36
764.384	302.86
764.824	300.36
765.264	289.96
765.705	239.96
766.145	192.76
766.585	189.46
767.025	180.36
767.465	175.46
767.906	206.46
768.346	237.06
768.786	247.96
769.226	237.36
769.666	330.56
770.106	687.56
770.546	1684.46
770.986	2767.26
771.426	2440.96
771.866	832.96
772.306	343.86
772.745	213.06
773.185	181.66
773.625	171.36
774.065	168.96
774.505	176.96
774.944	237.96
775.384	442.06
775.824	730.06
776.263	692.86
776.703	329.56
777.142	183.36
777.582	147.56
778.021	128.66
778.461	135.06
778.9	128.56
779.34	132.26
779.779	119.96
780.219	118.26
780.658	111.46
781.097	116.46
781.537	117.66
781.976	108.86
782.415	109.66
782.855	105.36
783.294	107.06
783.733	110.66
784.172	110.96
784.611	107.96
785.05	107.16
785.489	121.36
785.928	118.76
786.367	127.36
786.806	121.06
787.245	136.96
787.684	137.26
788.123	151.46
788.562	145.36
789.001	124.16
789.44	127.46
789.879	122.36
790.317	122.66
790.756	138.26
791.195	140.06
791.634	157.06
792.072	213.46
792.511	399.66
792.95	1094.46
793.388	2206.76
793.827	1978.86
794.265	705.26
794.704	301.06
795.142	191.76
795.581	157.56
796.019	144.46
796.458	134.26
796.896	126.86
797.334	135.16
797.773	159.86
798.211	232.76
798.649	485.76
799.087	1099.36
799.526	1705.66
799.964	2129.96
800.402	2060.66
800.84	803.46
801.278	318.96
801.716	188.06
802.154	160.16
802.592	151.46
803.03	145.96
803.468	140.16
803.906	148.06
804.344	159.96
804.782	148.06
805.22	143.86
805.658	136.26
806.096	154.76
806.533	162.86
806.971	191.56
807.409	229.46
807.847	347.76
808.284	733.86
808.722	2015.46
809.16	3452.96
809.597	3368.86
810.035	5752.46
810.472	5910.36
810.91	2188.86
811.347	844.26
811.785	427.56
812.222	278.86
812.66	209.96
813.097	173.06
813.535	147.56
813.972	141.56
814.409	120.76
814.846	115.16
815.284	115.26
815.721	107.96
816.158	107.66
816.595	114.56
817.032	163.36
817.47	192.56
817.907	134.36
818.344	113.26
818.781	104.76
819.218	100.26
819.655	129.56
820.092	199.36
820.529	225.46
820.966	188.06
821.403	130.16
821.839	109.26
822.276	100.66
822.713	121.46
823.15	140.06
823.587	127.06
824.023	159.96
824.46	332.26
824.897	963.76
825.333	1401.06
825.77	605.86
826.206	244.16
826.643	145.46
827.08	107.16
827.516	84.46
827.953	80.26
828.389	84.66
828.825	78.36
829.262	68.96
829.698	71.36
830.135	69.66
830.571	67.86
831.007	63.46
831.443	65.46
831.88	60.36
832.316	60.36
832.752	71.26
833.188	62.16
833.624	63.06
834.06	69.26
834.497	75.46
834.933	72.86
835.369	72.26
835.805	66.06
836.241	77.36
836.677	84.96
837.112	92.06
837.548	111.76
837.984	137.46
838.42	217.06
838.856	544.76
839.292	1625.46
839.727	2366.86
840.163	1128.36
840.599	1006.26
841.034	2140.86
841.47	2182.76
841.906	803.66
842.341	359.16
842.777	215.06
843.212	225.46
843.648	213.26
844.083	120.56
844.519	90.16
844.954	72.16
845.39	58.86
845.825	56.06
846.261	59.66
846.696	45.06
847.131	50.76
847.566	61.46
848.002	52.86
848.437	52.46
848.872	60.66
849.307	68.36
849.742	94.86
850.177	190.06
850.613	604.86
851.048	914.86
851.483	397.16
851.918	161.36
852.353	84.66
852.788	59.96
853.223	50.76
853.657	58.66
854.092	46.66
854.527	43.26
854.962	39.16
855.397	49.36
855.832	50.16
856.266	43.66
856.701	44.16
857.136	42.06
857.57	42.56
858.005	51.56
858.44	56.06
858.874	44.96
859.309	55.86
859.743	43.36
860.178	47.36
860.612	45.86
861.047	59.16
861.481	65.76
861.915	64.26
862.35	54.26
862.784	34.66
863.218	41.16
863.653	37.06
864.087	50.76
864.521	55.56
864.955	71.96
865.39	160.26
865.824	194.36
866.258	125.46
866.692	175.86
867.126	188.36
867.56	115.36
867.994	58.66
868.428	32.16
868.862	47.76
869.296	58.36
869.73	58.06
870.164	48.26
870.598	48.16
871.031	39.06
871.465	34.86
871.899	30.76
872.333	23.96
872.766	26.06
873.2	26.56
873.634	26.56
874.067	25.16
874.501	21.96
874.935	36.06
875.368	29.86
875.802	28.36
876.235	26.46
876.669	19.06
877.102	19.86
877.535	28.76
877.969	23.06
878.402	23.96
878.836	14.56
879.269	26.86
879.702	27.56
880.135	24.26
880.569	30.36
881.002	20.46
881.435	18.66
881.868	17.76
882.301	28.26
882.734	11.86
883.167	25.76
883.601	19.56
884.034	18.86
884.467	12.56
884.899	14.76
885.332	15.66
885.765	9.96
886.198	18.56
886.631	15.96
887.064	15.66
887.497	18.76
887.929	23.96
888.362	21.46
888.795	13.56
889.228	18.16
889.66	17.56
890.093	18.86
890.526	19.26
890.958	21.46
891.391	19.66
891.823	18.96
892.256	19.76
892.688	14.26
893.121	18.76
893.553	11.26
893.985	21.56
894.418	19.86
894.85	10.96
895.282	15.86
895.715	18.16
896.147	17.16
896.579	10.86
897.011	12.96
897.444	16.86
897.876	11.96
898.308	14.66
898.74	16.46
899.172	13.06
899.604	22.46
900.036	22.76
900.468	17.86
900.9	13.36
901.332	15.06
901.764	11.66
902.196	17.26
902.628	18.06
903.06	19.36
903.491	25.36
903.923	25.66
904.355	20.96
904.787	23.16
905.218	21.76
905.65	20.66
906.082	9.76
906.513	10.36
906.945	13.86
907.376	14.66
907.808	21.46
908.239	18.96
908.671	19.06
909.102	24.16
909.534	23.86
909.965	45.76
910.397	98.76
910.828	327.16
911.259	481.46
911.691	223.06
912.122	107.16
912.553	54.76
912.984	34.06
913.415	23.66
913.847	22.96
914.278	7.26
914.709	12.96
915.14	19.86
915.571	16.66
916.002	16.76
916.433	22.36
916.864	13.66
917.295	16.76
917.726	16.76
918.157	14.96
918.587	25.26
919.018	20.96
919.449	20.26
919.88	26.66
920.311	27.46
920.741	54.56
921.172	175.26
921.603	150.56
922.033	70.56
922.464	44.46
922.895	23.86
923.325	19.66
923.756	18.66
924.186	13.56
924.617	16.46
925.047	26.16
925.478	27.26
925.908	29.56
926.338	10.76
926.769	15.86
927.199	18.16
927.629	9.46
928.06	9.36
928.49	13.76
928.92	11.36
929.35	10.36
929.78	9.66
930.21	2.96
930.641	7.16
931.071	6.96
931.501	5.76
931.931	6.76
932.361	3.96
932.791	6.06
933.221	-1.24
933.651	3.56
934.08	17.46
934.51	30.86
934.94	10.66
935.37	8.86
935.8	12.26
936.229	5.96
936.659	10.26
937.089	3.26
937.519	11.96
937.948	22.26
938.378	16.06
938.807	6.96
939.237	3.16
939.666	8.66
940.096	-4.84
940.525	0.46
940.955	-4.04
941.384	-1.94
941.814	-5.04
942.243	-2.14
942.672	1.96
943.102	-3.84
943.531	-3.24
943.96	3.46
944.39	3.56
944.819	0.76
945.248	0.86
945.677	-3.54
946.106	5.56
946.535	1.46
946.964	-2.84
947.393	2.06
947.822	-2.44
948.251	-5.94
948.68	7.36
949.109	-0.94
949.538	4.56
949.967	-2.54
950.396	1.86
950.825	-3.34
951.254	1.66
951.682	-9.24
952.111	1.26
952.54	0.96
952.969	-2.14
953.397	-5.84
953.826	5.36
954.254	-5.04
954.683	-3.74
955.112	-1.94
955.54	8.66
955.969	-3.04
956.397	0.16
956.826	-0.04
957.254	3.16
957.682	0.96
958.111	4.06
958.539	1.96
958.967	5.06
959.396	0.86
959.824	-1.24
960.252	0.36
960.68	-3.14
961.109	-2.74
961.537	-2.34
961.965	-1.14
962.393	-1.54
962.821	-4.14
963.249	-7.04
963.677	-0.34
964.105	-2.94
964.533	41.96
964.961	39.26
965.389	10.46
965.817	5.36
966.245	4.16
966.672	4.06
967.1	-4.44
967.528	1.76
967.956	-1.74
968.383	1.36
968.811	-5.44
969.239	-5.54
969.666	-6.04
970.094	2.46
970.522	-0.94
970.949	-4.14
971.377	-4.34
971.804	-4.34
972.232	-2.64
972.659	-9.34
973.087	-7.54
973.514	-5.04
973.941	-4.84
974.369	5.26
974.796	6.06
975.223	-0.54
975.651	-1.54
976.078	3.46
976.505	-3.24
976.932	5.96
977.359	13.76
977.786	17.56
978.214	2.86
978.641	-6.94
979.068	-1.84
979.495	-6.44
979.922	-5.04
980.349	-1.24
980.776	7.56
981.202	-8.34
981.629	2.96
982.056	3.86
982.483	-2.14
982.91	-0.84
983.337	-4.04
983.763	2.06
984.19	-3.84
984.617	-6.64
985.043	-10.14
985.47	-3.24
985.897	1.16
986.323	-1.94
986.75	-2.44
987.176	-2.44
987.603	-0.34
988.029	1.36
988.456	-6.04
988.882	0.16
989.308	-4.34
989.735	-6.54
990.161	0.16
990.587	-5.54
991.014	1.26
991.44	5.76
991.866	-0.04
992.292	-5.64
992.719	-6.14
993.145	7.16
993.571	-11.24
993.997	-9.94
994.423	-4.74
994.849	-5.04
995.275	4.06
995.701	-1.84
996.127	-3.24
996.553	-1.54
996.979	-3.54
997.405	-7.14
997.83	-5.24
998.256	-2.64
998.682	-10.04
999.108	-8.24
999.534	-1.04
999.959	-5.84
1000.385	-3.04
1000.811	1.66
1001.236	-9.34
1001.662	-6.54
1002.087	-8.24
1002.513	1.86
1002.938	0.26
1003.364	-5.94
1003.789	-6.64
1004.215	1.26
1004.64	-2.84
1005.066	-2.54
1005.491	-0.64
1005.916	0.96
1006.342	-4.94
1006.767	-5.24
1007.192	3.46
1007.617	-3.24
1008.042	-9.24
1008.468	-8.24
1008.893	-7.54
1009.318	-1.84
1009.743	-3.34
1010.168	1.86
1010.593	6.56
1011.018	-7.14
1011.443	-2.34
1011.868	-0.94
1012.293	-9.34
1012.718	-10.84
1013.143	3.26
1013.567	-1.74
1013.992	-2.04
1014.417	-10.14
1014.842	-1.04
1015.267	-6.44
1015.691	-3.64
1016.116	11.96
1016.541	-2.74
1016.965	-0.14
1017.39	0.26
1017.814	-1.64
1018.239	-0.94
1018.663	-11.24
1019.088	-6.54
1019.512	-6.94
1019.937	-1.94
1020.361	-8.84
1020.785	-9.64
1021.21	-6.34
1021.634	-4.94
1022.058	-8.24
1022.483	0.96
1022.907	-7.94
1023.331	-0.54
1023.755	-0.34
1024.179	-0.54
1024.604	-4.44
1025.028	-6.44
1025.452	-4.94
1025.876	-6.04
1026.3	0.96
1026.724	-16.04
1027.148	-7.24
1027.572	-3.24
1027.996	-4.24
1028.42	-4.44
1028.843	-8.54
1029.267	-9.14
1029.691	-2.34
1030.115	-4.94
1030.539	-10.34
1030.962	-2.94
1031.386	-13.74
1031.81	-8.14
1032.233	-7.84
1032.657	-0.34
1033.08	0.46
1033.504	-6.84
1033.927	-3.84
1034.351	-3.74
1034.774	-9.34
1035.198	-4.04
1035.621	-10.44
1036.045	-5.54
1036.468	1.26
1036.891	-12.34
1037.315	-9.54
1037.738	-12.54
1038.161	-4.64
1038.584	-10.24
1039.008	-3.74
1039.431	-4.04
1039.854	-0.04
1040.277	-5.54
1040.7	-9.74
1041.123	0.46
1041.546	-10.44
1041.969	-5.54
1042.392	-6.84
1042.815	-1.94
1043.238	-0.64
1043.661	1.76
1044.084	-3.64
1044.507	-6.14
1044.93	-10.44
1045.352	-7.24
1045.775	-2.84
1046.198	-5.14
1046.621	2.56
1047.043	-0.34
1047.466	4.06
1047.889	-4.14
1048.311	-3.44
1048.734	-9.44
1049.156	-5.64
1049.579	-3.84
1050.001	-6.04
1050.424	-2.74
1050.846	-3.24
1051.269	-5.34
1051.691	-11.44
1052.113	-5.64
1052.536	1.46
1052.958	-4.64
1053.38	-6.44
1053.802	-13.74
1054.225	-2.54
1054.647	-11.84
1055.069	-11.64
1055.491	-3.04
1055.913	-11.14
1056.335	-0.74
1056.757	-8.94
1057.179	-2.44
1057.601	-8.04
1058.023	-2.24
1058.445	-0.74
1058.867	-4.14
1059.289	-4.94
1059.711	-6.54
1060.133	-5.54
1060.555	-7.04
1060.976	-3.24
1061.398	-6.94
1061.82	-9.44
1062.241	-9.74
1062.663	-9.54
1063.085	-7.24
1063.506	6.26
1063.928	-4.84
1064.35	0.86
1064.771	-6.94
1065.193	0.76
1065.614	-9.04
1066.035	-3.54
1066.457	-4.64
1066.878	3.26
1067.3	-7.04
1067.721	-10.14
1068.142	-13.44
1068.564	0.26
1068.985	-9.74
1069.406	-1.04
1069.827	-3.04
1070.248	0.76
1070.67	-12.44
1071.091	-4.94
1071.512	-4.74
1071.933	-7.84
1072.354	0.36
1072.775	-3.24
1073.196	-9.24
1073.617	-6.24
1074.038	-10.04
1074.459	-4.94
1074.88	-6.64
1075.3	0.66
1075.721	-4.54
1076.142	0.56
1076.563	-3.84
1076.983	-15.04
1077.404	-6.04
1077.825	-10.44
1078.246	-9.14
1078.666	-16.14
1079.087	-7.94
1079.507	-10.44
1079.928	-3.04
1080.348	2.26
1080.769	-8.04
1081.189	0.26
1081.61	-8.64
1082.03	-3.84
1082.451	-8.74
1082.871	-11.94
1083.291	-5.44
1083.711	-10.34
1084.132	-8.64
1084.552	-6.04
1084.972	-2.94
1085.392	-6.54
1085.813	-10.84
1086.233	-8.94
1086.653	-6.24
1087.073	-2.04
1087.493	-7.04
1087.913	-5.34
1088.333	-8.94
1088.753	-2.14
1089.173	6.36
1089.593	-3.84
1090.013	-2.24
1090.433	-1.14
1090.852	-5.34
1091.272	-4.84
1091.692	-7.44
1092.112	-4.34
1092.531	-13.34
1092.951	-13.74
1093.371	-1.94
1093.79	5.56
1094.21	-11.14
1094.63	-4.54
1095.049	-11.84
1095.469	-3.14
1095.888	-4.44
1096.308	0.26
1096.727	3.46
1097.146	-6.04
1097.566	0.16
1097.985	-7.94
1098.405	-7.44
1098.824	-7.14
1099.243	-12.34
1099.662	-4.64
1100.082	-5.94
1100.501	-5.64
1100.92	-8.64
1101.339	-3.64
1101.758	-3.34
