Data from 20171114-ORNL-Ar_H_NY_Subt18_08-08-16-476.txt Node
Date: Tue Nov 14 08:08:16 EST 2017
User: Ender
Spectrometer: HR+D1039
Trigger mode: 0
Integration Time (sec): 2.730000E-2
Scans to average: 10
Electric dark correction enabled: true
Nonlinearity correction enabled: false
Boxcar width: 0
XAxis mode: Wavelengths
Number of Pixels in Spectrum: 2048
>>>>>Begin Spectral Data<<<<<
187.836	-5.09
188.309	-5.09
188.782	-5.09
189.255	1.91
189.728	-4.29
190.201	4.21
190.674	2.41
191.147	4.91
191.619	-8.19
192.092	6.11
192.565	2.81
193.038	1.71
193.511	-2.59
193.984	-0.29
194.456	-0.69
194.929	-1.29
195.402	-1.49
195.874	-0.19
196.347	-1.19
196.82	-7.59
197.292	-0.09
197.765	1.21
198.237	-11.19
198.71	0.41
199.182	-2.09
199.655	3.41
200.127	7.91
200.6	-7.89
201.072	-1.19
201.544	-5.49
202.017	-5.39
202.489	-0.19
202.961	0.91
203.433	-5.29
203.906	-12.19
204.378	-11.09
204.85	-5.59
205.322	-6.79
205.794	-5.99
206.266	-8.69
206.739	-9.49
207.211	-0.69
207.683	-10.99
208.155	-9.79
208.627	-10.49
209.099	-2.39
209.57	-4.79
210.042	0.01
210.514	-4.29
210.986	-2.59
211.458	-6.29
211.93	-6.19
212.402	-2.39
212.873	-12.49
213.345	-6.49
213.817	-15.89
214.288	-4.69
214.76	-8.99
215.232	-3.29
215.703	-9.99
216.175	-5.89
216.646	-5.49
217.118	-5.19
217.589	-0.29
218.061	-5.29
218.532	-6.99
219.004	-1.99
219.475	-7.29
219.946	0.91
220.418	-8.49
220.889	-2.09
221.36	-2.09
221.832	-7.89
222.303	-5.09
222.774	0.71
223.245	-9.69
223.717	-8.39
224.188	-8.29
224.659	-9.39
225.13	-3.19
225.601	-6.69
226.072	-0.59
226.543	-1.99
227.014	-3.79
227.485	-4.19
227.956	-8.69
228.427	-1.39
228.898	1.41
229.369	2.81
229.839	-2.79
230.31	-8.59
230.781	1.01
231.252	-5.59
231.722	-3.79
232.193	-4.99
232.664	1.41
233.135	2.81
233.605	-3.99
234.076	-2.69
234.546	1.21
235.017	1.01
235.487	-4.79
235.958	0.31
236.428	-4.09
236.899	7.81
237.369	1.91
237.84	-1.29
238.31	7.21
238.78	2.01
239.251	2.01
239.721	1.51
240.191	3.31
240.662	-2.59
241.132	-2.09
241.602	-2.79
242.072	1.61
242.542	12.11
243.013	-3.39
243.483	5.31
243.953	1.71
244.423	-0.99
244.893	-4.49
245.363	1.11
245.833	0.01
246.303	1.31
246.773	1.41
247.243	6.01
247.712	4.81
248.182	11.11
248.652	5.81
249.122	0.31
249.592	9.11
250.061	18.61
250.531	32.81
251.001	14.21
251.471	18.01
251.94	18.01
252.41	5.01
252.879	-1.49
253.349	10.81
253.818	9.31
254.288	3.41
254.757	7.61
255.227	-0.29
255.696	4.11
256.166	4.71
256.635	10.21
257.105	12.21
257.574	7.21
258.043	3.51
258.513	6.81
258.982	16.71
259.451	5.71
259.92	15.21
260.389	8.71
260.859	13.11
261.328	15.61
261.797	19.51
262.266	1.11
262.735	7.21
263.204	3.91
263.673	-2.69
264.142	3.31
264.611	-1.89
265.08	1.01
265.549	-0.29
266.018	5.01
266.487	1.31
266.955	-1.79
267.424	-1.09
267.893	7.61
268.362	-1.19
268.83	2.71
269.299	9.81
269.768	5.31
270.236	6.41
270.705	1.91
271.174	4.81
271.642	6.11
272.111	11.31
272.579	12.01
273.048	22.21
273.516	24.71
273.985	24.11
274.453	21.31
274.922	17.51
275.39	11.91
275.858	0.81
276.327	10.51
276.795	20.11
277.263	0.41
277.731	29.91
278.2	47.71
278.668	54.41
279.136	40.31
279.604	17.41
280.072	12.61
280.54	4.41
281.008	11.71
281.477	7.41
281.945	10.21
282.413	6.41
282.881	12.21
283.348	6.71
283.816	16.41
284.284	15.21
284.752	12.21
285.22	9.81
285.688	11.71
286.156	17.01
286.623	45.01
287.091	49.21
287.559	27.81
288.026	11.01
288.494	12.01
288.962	4.41
289.429	10.31
289.897	17.71
290.364	17.71
290.832	18.51
291.3	15.31
291.767	16.81
292.234	17.31
292.702	17.11
293.169	19.61
293.637	21.01
294.104	15.01
294.571	7.51
295.039	14.61
295.506	12.51
295.973	16.21
296.44	15.31
296.908	11.81
297.375	20.01
297.842	17.61
298.309	17.21
298.776	6.81
299.243	19.21
299.71	9.31
300.177	19.71
300.644	23.51
301.111	21.21
301.578	23.31
302.045	14.01
302.512	22.31
302.979	25.71
303.446	18.21
303.913	18.61
304.379	15.51
304.846	21.71
305.313	25.61
305.78	15.91
306.246	27.21
306.713	22.31
307.18	24.11
307.646	24.71
308.113	30.91
308.579	17.51
309.046	19.81
309.512	21.41
309.979	11.81
310.445	25.31
310.912	27.91
311.378	30.71
311.845	25.51
312.311	31.31
312.777	31.91
313.244	31.71
313.71	33.71
314.176	30.51
314.642	29.21
315.109	33.11
315.575	39.01
316.041	38.61
316.507	28.01
316.973	35.01
317.439	29.61
317.905	35.31
318.371	33.51
318.837	31.31
319.303	32.31
319.769	33.61
320.235	31.61
320.701	38.11
321.167	37.91
321.633	37.91
322.099	44.51
322.564	48.01
323.03	40.91
323.496	33.41
323.962	34.31
324.427	37.41
324.893	39.11
325.359	37.11
325.824	30.51
326.29	33.91
326.755	40.21
327.221	38.91
327.686	42.21
328.152	41.71
328.617	40.21
329.083	40.01
329.548	49.61
330.014	43.91
330.479	39.11
330.944	43.61
331.41	45.81
331.875	38.21
332.34	43.21
332.805	43.41
333.271	51.61
333.736	51.91
334.201	49.71
334.666	46.01
335.131	53.61
335.596	50.91
336.061	51.71
336.526	44.81
336.991	47.21
337.456	56.91
337.921	50.11
338.386	44.31
338.851	49.11
339.316	43.01
339.781	44.31
340.246	52.81
340.711	45.61
341.175	49.51
341.64	46.21
342.105	50.41
342.569	47.81
343.034	48.21
343.499	57.71
343.963	48.71
344.428	65.41
344.893	56.91
345.357	58.11
345.822	53.01
346.286	64.51
346.751	71.41
347.215	59.51
347.679	77.71
348.144	98.21
348.608	81.31
349.073	68.71
349.537	68.51
350.001	80.81
350.465	88.31
350.93	76.41
351.394	85.71
351.858	68.41
352.322	82.71
352.786	86.21
353.25	98.61
353.715	114.11
354.179	105.81
354.643	116.11
355.107	126.31
355.571	114.31
356.035	101.51
356.498	124.31
356.962	129.11
357.426	133.51
357.89	108.61
358.354	93.51
358.818	83.11
359.281	83.41
359.745	80.91
360.209	76.11
360.673	74.01
361.136	81.31
361.6	81.11
362.064	87.11
362.527	81.31
362.991	92.61
363.454	83.71
363.918	80.11
364.381	83.71
364.845	82.71
365.308	88.01
365.772	79.31
366.235	83.21
366.698	79.51
367.162	85.61
367.625	90.21
368.088	84.51
368.552	94.21
369.015	80.61
369.478	95.61
369.941	105.81
370.404	95.61
370.867	105.21
371.331	110.81
371.794	121.51
372.257	107.71
372.72	123.91
373.183	114.21
373.646	103.61
374.109	104.51
374.572	106.61
375.035	108.71
375.497	108.61
375.96	101.91
376.423	102.21
376.886	112.31
377.349	107.21
377.811	100.61
378.274	98.91
378.737	113.51
379.199	109.81
379.662	111.01
380.125	121.21
380.587	110.81
381.05	128.31
381.512	128.41
381.975	136.81
382.437	132.11
382.9	127.81
383.362	137.21
383.825	146.81
384.287	150.01
384.75	147.21
385.212	151.41
385.674	141.71
386.136	136.21
386.599	126.11
387.061	133.61
387.523	134.01
387.985	143.31
388.447	152.61
388.91	147.91
389.372	166.71
389.834	153.91
390.296	152.81
390.758	157.31
391.22	171.01
391.682	228.81
392.144	312.21
392.606	234.71
393.068	174.91
393.529	171.61
393.991	159.61
394.453	151.01
394.915	158.51
395.377	200.61
395.838	218.71
396.3	156.91
396.762	144.11
397.224	142.61
397.685	137.11
398.147	126.71
398.608	133.81
399.07	130.81
399.531	139.31
399.993	144.91
400.454	159.81
400.916	149.01
401.377	146.61
401.839	155.11
402.3	159.51
402.762	169.61
403.223	184.91
403.684	172.71
404.145	156.61
404.607	169.61
405.068	169.01
405.529	168.91
405.99	197.01
406.451	185.71
406.913	173.81
407.374	167.11
407.835	167.11
408.296	174.71
408.757	167.51
409.218	190.71
409.679	177.91
410.14	177.81
410.601	182.51
411.062	187.91
411.522	196.91
411.983	198.01
412.444	181.41
412.905	184.61
413.366	182.21
413.826	194.01
414.287	219.61
414.748	262.01
415.208	251.11
415.669	218.31
416.13	217.31
416.59	206.81
417.051	213.71
417.511	227.01
417.972	244.71
418.432	252.21
418.893	290.21
419.353	255.91
419.814	204.41
420.274	188.61
420.734	184.71
421.195	205.41
421.655	199.91
422.115	200.01
422.576	201.21
423.036	204.71
423.496	209.11
423.956	220.91
424.416	236.21
424.876	272.01
425.336	268.11
425.797	268.11
426.257	259.71
426.717	246.61
427.177	242.51
427.637	230.11
428.097	241.21
428.556	253.21
429.016	280.21
429.476	270.41
429.936	283.61
430.396	281.71
430.856	306.81
431.315	327.21
431.775	357.31
432.235	394.61
432.694	369.21
433.154	373.81
433.614	414.11
434.073	353.61
434.533	292.01
434.993	281.21
435.452	293.61
435.912	300.91
436.371	297.51
436.83	292.31
437.29	276.01
437.749	257.71
438.209	246.41
438.668	285.31
439.127	300.01
439.587	276.81
440.046	255.91
440.505	269.21
440.964	288.41
441.424	337.11
441.883	316.91
442.342	269.01
442.801	226.91
443.26	227.51
443.719	228.31
444.178	228.01
444.637	220.11
445.096	228.91
445.555	227.61
446.014	227.81
446.473	230.31
446.932	238.71
447.391	227.41
447.849	232.71
448.308	226.31
448.767	224.41
449.226	237.41
449.685	244.81
450.143	243.01
450.602	243.81
451.061	230.41
451.519	239.01
451.978	233.41
452.436	243.71
452.895	246.11
453.353	258.11
453.812	242.11
454.27	248.61
454.729	248.11
455.187	244.21
455.646	248.71
456.104	251.11
456.562	265.91
457.021	271.51
457.479	263.11
457.937	275.21
458.395	268.21
458.854	252.01
459.312	262.81
459.77	278.21
460.228	261.91
460.686	244.01
461.144	247.11
461.602	251.61
462.06	247.41
462.518	263.61
462.976	262.31
463.434	263.51
463.892	270.41
464.35	275.41
464.808	292.31
465.266	268.71
465.724	270.31
466.181	280.11
466.639	274.91
467.097	302.21
467.555	303.91
468.012	306.01
468.47	316.41
468.928	338.31
469.385	346.01
469.843	350.21
470.3	351.61
470.758	371.21
471.215	396.21
471.673	414.41
472.13	411.81
472.588	425.91
473.045	375.01
473.503	388.01
473.96	399.41
474.417	413.51
474.875	441.51
475.332	485.11
475.789	474.41
476.246	476.01
476.704	484.31
477.161	526.31
477.618	535.11
478.075	575.71
478.532	626.71
478.989	708.31
479.446	825.21
479.903	788.51
480.36	828.61
480.817	880.71
481.274	979.11
481.731	1087.01
482.188	1175.11
482.645	1324.61
483.102	1429.61
483.558	1576.71
484.015	1622.71
484.472	1600.71
484.929	1534.31
485.385	1494.01
485.842	1444.81
486.299	1387.81
486.755	1325.41
487.212	1114.51
487.668	937.81
488.125	862.81
488.582	792.31
489.038	747.61
489.494	717.01
489.951	696.01
490.407	673.21
490.864	652.01
491.32	659.01
491.776	651.71
492.233	657.21
492.689	619.91
493.145	613.21
493.602	609.21
494.058	620.21
494.514	631.31
494.97	646.11
495.426	657.41
495.882	622.91
496.338	621.41
496.794	626.31
497.251	634.91
497.707	633.81
498.163	646.51
498.618	641.91
499.074	645.81
499.53	683.81
499.986	671.21
500.442	666.41
500.898	631.11
501.354	627.91
501.809	651.71
502.265	655.31
502.721	679.01
503.177	686.31
503.632	679.51
504.088	692.11
504.543	710.31
504.999	725.51
505.455	657.61
505.91	636.91
506.366	641.91
506.821	637.21
507.277	621.71
507.732	634.41
508.187	634.41
508.643	640.21
509.098	644.51
509.553	656.61
510.009	668.81
510.464	662.01
510.919	684.51
511.375	693.41
511.83	713.01
512.285	736.41
512.74	766.81
513.195	789.31
513.65	776.21
514.105	780.91
514.56	772.21
515.015	796.71
515.47	811.11
515.925	801.31
516.38	802.91
516.835	804.31
517.29	785.71
517.745	777.11
518.2	769.71
518.655	758.91
519.109	742.71
519.564	742.51
520.019	734.51
520.474	733.81
520.928	725.21
521.383	717.21
521.838	714.21
522.292	719.31
522.747	726.81
523.201	707.51
523.656	699.31
524.11	705.11
524.565	699.11
525.019	698.31
525.474	702.91
525.928	711.31
526.382	703.91
526.837	705.01
527.291	708.31
527.745	702.01
528.2	700.01
528.654	691.31
529.108	691.71
529.562	692.91
530.016	696.31
530.47	702.41
530.925	703.91
531.379	696.31
531.833	704.71
532.287	708.51
532.741	704.31
533.195	703.21
533.649	710.21
534.103	719.31
534.556	710.31
535.01	718.41
535.464	717.01
535.918	725.21
536.372	723.21
536.826	722.11
537.279	717.11
537.733	713.61
538.187	722.41
538.64	710.71
539.094	731.81
539.548	732.71
540.001	723.71
540.455	725.11
540.908	740.11
541.362	744.61
541.815	758.31
542.269	766.41
542.722	761.51
543.175	775.81
543.629	767.71
544.082	790.71
544.536	805.51
544.989	794.21
545.442	800.41
545.895	801.11
546.349	799.91
546.802	793.21
547.255	813.81
547.708	811.61
548.161	816.21
548.614	827.11
549.067	832.31
549.52	825.51
549.973	814.91
550.426	804.11
550.879	795.81
551.332	813.81
551.785	802.51
552.238	817.21
552.691	822.71
553.144	837.21
553.596	856.51
554.049	878.61
554.502	904.91
554.955	917.51
555.407	911.81
555.86	901.61
556.313	899.21
556.765	889.51
557.218	900.41
557.67	895.71
558.123	871.81
558.576	890.51
559.028	879.31
559.48	890.81
559.933	887.61
560.385	854.51
560.838	814.01
561.29	796.41
561.742	794.51
562.195	775.91
562.647	780.31
563.099	781.41
563.551	782.71
564.004	788.81
564.456	777.91
564.908	770.01
565.36	750.31
565.812	746.51
566.264	730.11
566.716	734.11
567.168	719.41
567.62	735.41
568.072	713.31
568.524	707.41
568.976	689.11
569.428	675.51
569.88	685.31
570.332	694.11
570.784	689.61
571.235	687.41
571.687	694.91
572.139	700.71
572.59	725.41
573.042	722.71
573.494	718.41
573.945	719.11
574.397	697.21
574.849	685.41
575.3	694.11
575.752	698.61
576.203	676.81
576.655	689.41
577.106	683.11
577.557	672.31
578.009	683.91
578.46	671.71
578.912	671.11
579.363	675.41
579.814	669.91
580.265	677.31
580.717	675.41
581.168	670.41
581.619	690.91
582.07	690.81
582.521	672.31
582.972	674.51
583.423	681.61
583.875	700.41
584.326	718.11
584.777	766.41
585.227	844.51
585.678	931.11
586.129	1026.91
586.58	1097.41
587.031	1188.01
587.482	1337.41
587.933	1531.61
588.384	1326.41
588.834	992.21
589.285	817.51
589.736	787.21
590.186	789.81
590.637	780.51
591.088	758.21
591.538	746.61
591.989	734.61
592.439	740.11
592.89	734.71
593.34	727.51
593.791	724.71
594.241	719.81
594.692	718.11
595.142	715.71
595.593	713.91
596.043	721.31
596.493	724.71
596.943	730.51
597.394	734.51
597.844	726.11
598.294	735.41
598.744	759.51
599.195	792.81
599.645	842.11
600.095	876.21
600.545	930.11
600.995	978.71
601.445	1038.31
601.895	1097.11
602.345	1155.41
602.795	1135.41
603.245	1083.81
603.695	1023.81
604.145	980.81
604.594	926.71
605.044	867.01
605.494	801.21
605.944	761.91
606.393	754.31
606.843	745.01
607.293	751.11
607.743	745.71
608.192	749.41
608.642	772.71
609.091	773.01
609.541	781.41
609.99	775.21
610.44	784.51
610.889	743.11
611.339	713.71
611.788	697.11
612.238	708.11
612.687	723.81
613.136	730.71
613.586	758.61
614.035	751.01
614.484	770.41
614.933	775.41
615.383	760.51
615.832	754.61
616.281	739.01
616.73	703.41
617.179	682.71
617.628	666.81
618.077	640.71
618.526	637.41
618.975	621.61
619.424	627.11
619.873	617.31
620.322	618.71
620.771	618.61
621.22	618.41
621.669	609.51
622.118	598.11
622.567	586.41
623.015	570.41
623.464	585.01
623.913	571.21
624.361	559.61
624.81	554.81
625.259	560.91
625.707	567.01
626.156	564.31
626.604	574.51
627.053	579.01
627.501	576.11
627.95	578.31
628.398	588.41
628.847	577.91
629.295	575.11
629.744	577.91
630.192	575.51
630.64	580.61
631.089	579.01
631.537	597.11
631.985	593.91
632.433	613.21
632.881	615.81
633.33	674.61
633.778	654.11
634.226	578.11
634.674	586.81
635.122	598.81
635.57	611.71
636.018	643.51
636.466	586.91
636.914	568.31
637.362	581.51
637.81	588.21
638.258	584.81
638.705	603.21
639.153	627.91
639.601	637.41
640.049	656.81
640.497	686.01
640.944	707.41
641.392	651.01
641.84	626.51
642.287	599.71
642.735	578.91
643.182	584.21
643.63	584.71
644.078	587.31
644.525	612.41
644.973	616.21
645.42	615.41
645.867	637.41
646.315	653.31
646.762	678.81
647.21	709.91
647.657	738.81
648.104	769.71
648.551	794.81
648.999	864.61
649.446	940.21
649.893	1029.61
650.34	1201.51
650.787	1438.41
651.234	1799.31
651.682	2343.51
652.129	3226.71
652.576	4651.91
653.023	6836.21
653.47	9362.51
653.917	11589.01
654.363	13304.01
654.81	14565.11
655.257	13901.71
655.704	9107.21
656.151	5372.31
656.598	3487.71
657.044	2469.01
657.491	1913.51
657.938	1510.31
658.385	1255.71
658.831	1106.91
659.278	988.01
659.724	868.31
660.171	805.11
660.618	737.61
661.064	700.31
661.511	680.01
661.957	671.01
662.404	659.51
662.85	662.71
663.296	637.31
663.743	573.31
664.189	549.41
664.635	539.11
665.082	533.21
665.528	539.71
665.974	530.31
666.42	527.21
666.867	512.91
667.313	502.31
667.759	495.31
668.205	484.81
668.651	497.71
669.097	500.61
669.543	513.21
669.989	476.91
670.435	451.41
670.881	459.91
671.327	459.41
671.773	480.31
672.219	503.51
672.665	547.61
673.11	599.31
673.556	644.51
674.002	679.31
674.448	653.61
674.893	549.41
675.339	486.31
675.785	447.61
676.23	429.01
676.676	403.31
677.122	390.31
677.567	378.01
678.013	373.21
678.458	370.21
678.904	372.11
679.349	357.41
679.794	365.81
680.24	367.91
680.685	354.21
681.131	353.81
681.576	365.01
682.021	358.91
682.466	356.61
682.912	348.01
683.357	355.11
683.802	381.91
684.247	425.31
684.692	471.81
685.137	500.81
685.583	544.71
686.028	576.41
686.473	522.11
686.918	455.01
687.363	424.81
687.807	397.31
688.252	376.41
688.697	361.21
689.142	340.11
689.587	340.91
690.032	334.61
690.477	350.21
690.921	360.01
691.366	388.11
691.811	404.01
692.255	436.81
692.7	471.51
693.145	526.01
693.589	731.51
694.034	1166.91
694.478	1573.31
694.923	1738.01
695.367	2263.61
695.812	1206.81
696.256	505.41
696.701	380.31
697.145	348.91
697.59	339.61
698.034	334.11
698.478	327.91
698.922	329.31
699.367	331.31
699.811	346.91
700.255	365.31
700.699	392.51
701.143	433.41
701.588	498.41
702.032	528.11
702.476	526.41
702.92	498.41
703.364	510.21
703.808	662.91
704.252	1087.91
704.696	1478.61
705.14	1688.01
705.584	2136.41
706.027	1088.01
706.471	530.91
706.915	396.61
707.359	354.31
707.803	315.71
708.246	321.21
708.69	320.61
709.134	329.01
709.577	315.11
710.021	320.11
710.465	312.81
710.908	301.61
711.352	306.11
711.795	326.21
712.239	359.01
712.682	398.81
713.126	426.01
713.569	467.91
714.012	377.41
714.456	327.01
714.899	294.41
715.342	281.31
715.786	261.31
716.229	258.01
716.672	256.41
717.115	247.91
717.558	259.01
718.002	260.21
718.445	268.01
718.888	293.81
719.331	301.71
719.774	317.41
720.217	315.51
720.66	284.21
721.103	274.81
721.546	258.31
721.989	257.31
722.432	235.51
722.874	249.11
723.317	237.51
723.76	241.21
724.203	266.21
724.645	322.81
725.088	458.01
725.531	577.51
725.974	653.61
726.416	552.11
726.859	303.21
727.301	245.91
727.744	239.21
728.187	235.71
728.629	241.31
729.071	247.71
729.514	263.71
729.956	277.01
730.399	294.81
730.841	290.71
731.283	277.71
731.726	274.41
732.168	273.01
732.61	265.81
733.053	290.61
733.495	319.21
733.937	356.81
734.379	403.21
734.821	449.71
735.263	563.11
735.705	879.51
736.148	1658.31
736.59	2630.71
737.032	3047.21
737.474	2496.11
737.916	816.51
738.357	432.61
738.799	325.21
739.241	308.01
739.683	288.71
740.125	304.11
740.567	306.41
741.008	313.41
741.45	319.81
741.892	318.31
742.334	360.41
742.775	368.91
743.217	338.81
743.658	274.81
744.1	258.51
744.542	271.61
744.983	320.51
745.425	346.51
745.866	347.71
746.307	286.51
746.749	291.31
747.19	331.91
747.632	472.51
748.073	931.41
748.514	1931.21
748.956	2911.61
749.397	3661.31
749.838	3010.81
750.279	2964.51
750.72	1503.31
751.162	551.71
751.603	331.01
752.044	253.41
752.485	223.11
752.926	210.31
753.367	207.31
753.808	197.21
754.249	190.51
754.69	186.61
755.131	185.51
755.572	185.81
756.013	190.21
756.453	184.81
756.894	194.51
757.335	190.21
757.776	191.81
758.216	199.31
758.657	201.41
759.098	209.61
759.538	231.11
759.979	278.11
760.42	392.01
760.86	741.01
761.301	1934.91
761.741	4572.01
762.182	6381.91
762.622	4501.61
763.063	1331.71
763.503	551.01
763.943	357.91
764.384	352.41
764.824	412.61
765.264	449.71
765.705	312.91
766.145	211.41
766.585	187.91
767.025	190.01
767.465	191.81
767.906	260.21
768.346	338.61
768.786	354.41
769.226	269.41
769.666	331.31
770.106	645.11
770.546	1625.31
770.986	2684.81
771.426	2364.61
771.866	793.21
772.306	343.41
772.745	216.61
773.185	174.01
773.625	171.61
774.065	170.61
774.505	203.91
774.944	322.81
775.384	711.31
775.824	1241.31
776.263	1203.11
776.703	515.91
777.142	222.41
777.582	160.81
778.021	136.91
778.461	142.71
778.9	144.61
779.34	129.11
779.779	119.51
780.219	109.01
780.658	113.61
781.097	121.31
781.537	113.01
781.976	112.61
782.415	108.81
782.855	105.91
783.294	107.31
783.733	112.61
784.172	105.01
784.611	102.21
785.05	108.31
785.489	111.01
785.928	123.21
786.367	124.11
786.806	113.81
787.245	136.11
787.684	145.91
788.123	150.01
788.562	136.01
789.001	126.21
789.44	118.01
789.879	119.81
790.317	125.11
790.756	131.21
791.195	127.21
791.634	146.71
792.072	213.81
792.511	381.21
792.95	1074.91
793.388	2165.41
793.827	1928.41
794.265	688.11
794.704	289.11
795.142	185.71
795.581	157.61
796.019	134.11
796.458	132.71
796.896	128.11
797.334	139.01
797.773	160.01
798.211	223.21
798.649	466.71
799.087	1043.71
799.526	1633.51
799.964	2062.71
800.402	1994.41
800.84	763.51
801.278	308.51
801.716	190.51
802.154	150.11
802.592	143.41
803.03	144.71
803.468	131.91
803.906	150.21
804.344	154.31
804.782	140.21
805.22	139.01
805.658	132.21
806.096	148.11
806.533	158.51
806.971	173.91
807.409	214.71
807.847	330.51
808.284	695.51
808.722	1946.91
809.16	3323.51
809.597	3229.61
810.035	5519.31
810.472	5696.51
810.91	2084.71
811.347	798.71
811.785	408.21
812.222	259.81
812.66	197.21
813.097	164.81
813.535	143.51
813.972	127.71
814.409	117.91
814.846	113.41
815.284	111.31
815.721	100.51
816.158	111.51
816.595	123.31
817.032	180.81
817.47	206.71
817.907	161.11
818.344	158.81
818.781	117.91
819.218	102.11
819.655	127.31
820.092	190.01
820.529	213.81
820.966	178.31
821.403	131.51
821.839	113.61
822.276	101.71
822.713	124.01
823.15	141.51
823.587	121.01
824.023	154.91
824.46	314.41
824.897	928.91
825.333	1346.01
825.77	576.91
826.206	233.71
826.643	137.11
827.08	106.81
827.516	84.11
827.953	78.61
828.389	75.71
828.825	76.01
829.262	70.11
829.698	64.81
830.135	59.41
830.571	59.91
831.007	64.71
831.443	66.61
831.88	62.21
832.316	63.91
832.752	64.51
833.188	64.31
833.624	71.01
834.06	66.31
834.497	70.11
834.933	70.81
835.369	69.71
835.805	65.31
836.241	80.21
836.677	80.91
837.112	87.41
837.548	105.91
837.984	131.11
838.42	211.41
838.856	515.41
839.292	1562.71
839.727	2291.91
840.163	1067.11
840.599	963.91
841.034	2076.91
841.47	2109.11
841.906	775.31
842.341	335.11
842.777	240.31
843.212	319.71
843.648	309.81
844.083	152.91
844.519	100.81
844.954	78.91
845.39	59.01
845.825	55.81
846.261	50.71
846.696	57.21
847.131	56.81
847.566	54.91
848.002	49.51
848.437	57.41
848.872	64.31
849.307	56.61
849.742	84.01
850.177	190.31
850.613	570.31
851.048	878.91
851.483	382.81
851.918	153.51
852.353	93.11
852.788	63.71
853.223	62.21
853.657	56.31
854.092	47.01
854.527	42.31
854.962	44.81
855.397	44.41
855.832	55.71
856.266	44.51
856.701	41.41
857.136	38.41
857.57	36.81
858.005	46.11
858.44	62.21
858.874	45.81
859.309	54.21
859.743	32.81
860.178	46.91
860.612	42.81
861.047	48.11
861.481	69.31
861.915	67.11
862.35	44.81
862.784	32.81
863.218	41.91
863.653	34.41
864.087	43.21
864.521	62.01
864.955	72.41
865.39	161.51
865.824	175.31
866.258	115.01
866.692	166.11
867.126	175.21
867.56	100.31
867.994	50.21
868.428	42.21
868.862	50.61
869.296	55.81
869.73	53.81
870.164	49.01
870.598	49.01
871.031	37.31
871.465	31.91
871.899	27.41
872.333	24.71
872.766	28.01
873.2	21.51
873.634	31.91
874.067	30.31
874.501	26.71
874.935	39.61
875.368	26.51
875.802	21.21
876.235	19.61
876.669	31.51
877.102	19.01
877.535	29.51
877.969	25.41
878.402	26.11
878.836	18.51
879.269	22.11
879.702	28.01
880.135	19.11
880.569	25.51
881.002	29.71
881.435	21.31
881.868	15.41
882.301	19.81
882.734	17.21
883.167	19.31
883.601	17.11
884.034	19.51
884.467	13.11
884.899	13.51
885.332	15.81
885.765	9.71
886.198	15.31
886.631	19.91
887.064	17.61
887.497	21.81
887.929	23.51
888.362	15.61
888.795	14.31
889.228	20.51
889.66	20.41
890.093	17.11
890.526	11.81
890.958	11.51
891.391	13.21
891.823	20.11
892.256	15.81
892.688	14.01
893.121	13.41
893.553	12.21
893.985	23.01
894.418	17.91
894.85	10.81
895.282	16.01
895.715	10.81
896.147	18.01
896.579	14.31
897.011	11.81
897.444	22.21
897.876	13.21
898.308	16.71
898.74	19.21
899.172	11.31
899.604	19.21
900.036	24.11
900.468	12.41
900.9	12.51
901.332	12.51
901.764	12.61
902.196	17.21
902.628	14.41
903.06	16.91
903.491	26.41
903.923	22.91
904.355	19.71
904.787	29.81
905.218	17.21
905.65	18.91
906.082	13.71
906.513	12.81
906.945	15.81
907.376	10.51
907.808	21.11
908.239	15.81
908.671	23.11
909.102	22.31
909.534	21.51
909.965	52.11
910.397	89.31
910.828	323.01
911.259	473.01
911.691	218.71
912.122	109.81
912.553	51.61
912.984	37.31
913.415	28.81
913.847	20.91
914.278	15.91
914.709	18.61
915.14	16.31
915.571	17.31
916.002	5.11
916.433	18.81
916.864	12.81
917.295	11.91
917.726	22.31
918.157	22.41
918.587	31.91
919.018	28.81
919.449	19.61
919.88	25.61
920.311	31.41
920.741	52.41
921.172	167.21
921.603	152.61
922.033	68.71
922.464	49.21
922.895	22.31
923.325	25.71
923.756	18.71
924.186	14.31
924.617	28.41
925.047	40.51
925.478	58.91
925.908	42.81
926.338	25.21
926.769	17.51
927.199	22.41
927.629	5.61
928.06	17.61
928.49	18.11
928.92	10.71
929.35	11.71
929.78	15.21
930.21	7.11
930.641	5.31
931.071	7.21
931.501	5.81
931.931	5.41
932.361	4.41
932.791	4.61
933.221	3.21
933.651	1.01
934.08	12.51
934.51	32.21
934.94	9.51
935.37	8.01
935.8	5.91
936.229	2.51
936.659	6.11
937.089	1.91
937.519	16.71
937.948	21.91
938.378	21.51
938.807	0.51
939.237	0.21
939.666	8.21
940.096	-2.99
940.525	-4.29
940.955	0.01
941.384	2.01
941.814	-3.79
942.243	2.01
942.672	3.81
943.102	-1.29
943.531	3.61
943.96	3.21
944.39	1.61
944.819	0.21
945.248	2.61
945.677	1.31
946.106	-2.09
946.535	3.71
946.964	3.61
947.393	2.91
947.822	-3.79
948.251	-4.79
948.68	2.11
949.109	2.81
949.538	0.61
949.967	-1.99
950.396	4.91
950.825	1.61
951.254	8.31
951.682	0.11
952.111	0.71
952.54	3.21
952.969	-8.89
953.397	-8.49
953.826	-0.59
954.254	-4.19
954.683	3.51
955.112	2.51
955.54	0.11
955.969	1.51
956.397	-0.49
956.826	-7.39
957.254	1.91
957.682	5.11
958.111	5.11
958.539	-3.29
958.967	4.21
959.396	-0.59
959.824	-2.49
960.252	4.81
960.68	-5.59
961.109	-4.29
961.537	-6.89
961.965	-6.09
962.393	0.71
962.821	-2.69
963.249	-1.39
963.677	9.81
964.105	7.21
964.533	41.41
964.961	38.51
965.389	20.01
965.817	5.61
966.245	0.31
966.672	4.01
967.1	-3.59
967.528	4.81
967.956	-8.09
968.383	-0.09
968.811	-4.69
969.239	-0.39
969.666	-6.49
970.094	-3.19
970.522	2.61
970.949	4.01
971.377	-3.69
971.804	-0.09
972.232	1.71
972.659	-3.59
973.087	-0.69
973.514	-0.69
973.941	-9.89
974.369	-0.39
974.796	0.41
975.223	-0.09
975.651	-13.79
976.078	0.61
976.505	0.51
976.932	5.81
977.359	14.31
977.786	10.21
978.214	2.61
978.641	-1.89
979.068	-5.89
979.495	-7.19
979.922	-3.69
980.349	-4.69
980.776	4.11
981.202	4.61
981.629	-0.69
982.056	5.81
982.483	-4.59
982.91	3.41
983.337	-6.79
983.763	0.51
984.19	-7.39
984.617	-4.29
985.043	-3.79
985.47	-2.29
985.897	-5.19
986.323	-9.49
986.75	-0.89
987.176	-2.99
987.603	0.51
988.029	-0.59
988.456	-5.49
988.882	4.01
989.308	-8.69
989.735	-6.29
990.161	0.61
990.587	0.01
991.014	-1.99
991.44	1.81
991.866	-6.39
992.292	-11.79
992.719	-0.39
993.145	-1.29
993.571	-12.29
993.997	-7.79
994.423	-1.89
994.849	-2.69
995.275	6.91
995.701	-2.79
996.127	-3.19
996.553	-2.59
996.979	-5.19
997.405	-1.09
997.83	-6.59
998.256	-4.79
998.682	-6.59
999.108	-8.99
999.534	-2.09
999.959	-4.59
1000.385	-6.89
1000.811	-2.49
1001.236	-9.99
1001.662	-9.39
1002.087	-5.49
1002.513	-3.89
1002.938	4.01
1003.364	-1.59
1003.789	-1.99
1004.215	-2.19
1004.64	1.31
1005.066	0.91
1005.491	2.31
1005.916	-0.29
1006.342	-4.79
1006.767	-6.29
1007.192	5.61
1007.617	-7.39
1008.042	-6.59
1008.468	-7.59
1008.893	-5.19
1009.318	-8.59
1009.743	-7.29
1010.168	0.11
1010.593	-1.09
1011.018	-11.69
1011.443	-3.29
1011.868	-1.29
1012.293	-6.09
1012.718	-0.69
1013.143	-3.29
1013.567	1.11
1013.992	-5.79
1014.417	-9.99
1014.842	3.21
1015.267	-5.89
1015.691	-7.39
1016.116	5.21
1016.541	-4.39
1016.965	3.31
1017.39	2.61
1017.814	2.11
1018.239	-3.19
1018.663	-8.19
1019.088	-11.59
1019.512	-3.19
1019.937	-0.09
1020.361	-5.19
1020.785	-13.19
1021.21	-4.29
1021.634	-0.39
1022.058	-5.69
1022.483	1.61
1022.907	-8.09
1023.331	-7.29
1023.755	-3.49
1024.179	-2.39
1024.604	-6.09
1025.028	-1.39
1025.452	-5.49
1025.876	-3.39
1026.3	-6.59
1026.724	-9.79
1027.148	-6.79
1027.572	-12.19
1027.996	-4.29
1028.42	-2.09
1028.843	-4.69
1029.267	-7.49
1029.691	-2.79
1030.115	-9.99
1030.539	-8.39
1030.962	-8.59
1031.386	-12.29
1031.81	-4.09
1032.233	2.91
1032.657	-1.59
1033.08	-2.99
1033.504	-5.39
1033.927	-6.69
1034.351	-0.69
1034.774	-4.39
1035.198	0.81
1035.621	-15.59
1036.045	-13.79
1036.468	-5.39
1036.891	-6.99
1037.315	-8.89
1037.738	-12.89
1038.161	-3.99
1038.584	-2.39
1039.008	-7.39
1039.431	-3.59
1039.854	-7.09
1040.277	-4.49
1040.7	-9.69
1041.123	-3.99
1041.546	-8.29
1041.969	-4.59
1042.392	-11.39
1042.815	-4.59
1043.238	1.01
1043.661	-2.59
1044.084	-5.99
1044.507	-2.29
1044.93	-5.49
1045.352	-10.79
1045.775	-3.39
1046.198	-6.39
1046.621	-7.69
1047.043	-3.09
1047.466	3.81
1047.889	-8.99
1048.311	-7.79
1048.734	-4.19
1049.156	1.21
1049.579	-4.59
1050.001	-5.19
1050.424	0.21
1050.846	-5.29
1051.269	-7.99
1051.691	-5.89
1052.113	-3.29
1052.536	-5.19
1052.958	-9.99
1053.38	-7.69
1053.802	-7.09
1054.225	-2.69
1054.647	-11.39
1055.069	-4.29
1055.491	0.71
1055.913	-10.19
1056.335	-0.59
1056.757	-6.99
1057.179	-3.19
1057.601	-3.19
1058.023	-6.29
1058.445	-4.59
1058.867	-4.79
1059.289	-2.59
1059.711	-10.69
1060.133	-3.99
1060.555	-2.59
1060.976	-6.39
1061.398	-2.59
1061.82	-5.79
1062.241	-2.59
1062.663	-6.39
1063.085	-4.09
1063.506	-4.49
1063.928	-2.59
1064.35	-8.79
1064.771	-13.49
1065.193	-7.39
1065.614	-12.09
1066.035	-5.99
1066.457	1.81
1066.878	1.31
1067.3	-8.89
1067.721	-5.19
1068.142	-8.59
1068.564	-3.09
1068.985	-10.59
1069.406	-4.49
1069.827	-6.39
1070.248	2.51
1070.67	-9.89
1071.091	-8.89
1071.512	-6.49
1071.933	-8.99
1072.354	-13.19
1072.775	-8.89
1073.196	-7.59
1073.617	-5.79
1074.038	-5.29
1074.459	-10.69
1074.88	-11.59
1075.3	-0.69
1075.721	-11.69
1076.142	-3.89
1076.563	-6.49
1076.983	-13.79
1077.404	-6.09
1077.825	-11.09
1078.246	-5.09
1078.666	-13.79
1079.087	-4.79
1079.507	-7.89
1079.928	-3.99
1080.348	-3.19
1080.769	-8.79
1081.189	-2.69
1081.61	-1.99
1082.03	-9.29
1082.451	-7.69
1082.871	-9.29
1083.291	-12.19
1083.711	-8.59
1084.132	-7.39
1084.552	-6.79
1084.972	3.11
1085.392	-6.89
1085.813	-7.19
1086.233	-7.49
1086.653	-7.29
1087.073	-2.09
1087.493	-7.89
1087.913	-6.19
1088.333	-11.39
1088.753	-4.49
1089.173	3.41
1089.593	-2.19
1090.013	-6.69
1090.433	3.91
1090.852	-5.09
1091.272	0.51
1091.692	-5.99
1092.112	-5.09
1092.531	-8.79
1092.951	-9.39
1093.371	2.51
1093.79	0.51
1094.21	-7.39
1094.63	-6.39
1095.049	-2.69
1095.469	-6.29
1095.888	-4.19
1096.308	-3.29
1096.727	3.71
1097.146	-5.79
1097.566	-6.19
1097.985	-2.19
1098.405	-6.09
1098.824	-3.89
1099.243	-8.59
1099.662	-11.09
1100.082	-5.29
1100.501	-3.89
1100.92	-14.29
1101.339	-6.49
1101.758	-6.59
