Data from 20171114-ORNL-Ar_H_NY_Subt18_08-05-22-317.txt Node
Date: Tue Nov 14 08:05:22 EST 2017
User: Ender
Spectrometer: HR+D1039
Trigger mode: 0
Integration Time (sec): 2.730000E-2
Scans to average: 10
Electric dark correction enabled: true
Nonlinearity correction enabled: false
Boxcar width: 0
XAxis mode: Wavelengths
Number of Pixels in Spectrum: 2048
>>>>>Begin Spectral Data<<<<<
187.836	-2.88
188.309	-2.88
188.782	-2.88
189.255	3.42
189.728	-1.58
190.201	4.02
190.674	1.42
191.147	-0.38
191.619	-5.48
192.092	2.32
192.565	4.82
193.038	-1.68
193.511	0.92
193.984	4.92
194.456	-3.88
194.929	-1.98
195.402	-3.28
195.874	-0.68
196.347	2.12
196.82	-7.68
197.292	9.32
197.765	-1.48
198.237	-3.18
198.71	-0.48
199.182	-2.38
199.655	6.32
200.127	5.32
200.6	-1.98
201.072	-3.68
201.544	-7.08
202.017	-2.38
202.489	5.62
202.961	-1.48
203.433	-0.88
203.906	-5.78
204.378	-0.38
204.85	3.32
205.322	-0.78
205.794	0.32
206.266	0.72
206.739	-8.88
207.211	1.92
207.683	-8.68
208.155	-7.98
208.627	-8.08
209.099	-5.58
209.57	-9.38
210.042	-2.88
210.514	-7.28
210.986	0.52
211.458	-8.68
211.93	-0.58
212.402	-0.18
212.873	-6.48
213.345	-16.18
213.817	-4.48
214.288	-1.68
214.76	-10.68
215.232	-5.58
215.703	-5.98
216.175	-5.78
216.646	-1.68
217.118	-0.68
217.589	-0.78
218.061	-4.08
218.532	-5.08
219.004	0.92
219.475	-0.68
219.946	-3.88
220.418	-3.88
220.889	0.42
221.36	0.22
221.832	-1.38
222.303	-1.28
222.774	3.22
223.245	-10.88
223.717	-7.18
224.188	-3.88
224.659	-9.08
225.13	-6.28
225.601	4.92
226.072	2.82
226.543	-2.48
227.014	-0.68
227.485	-1.08
227.956	-8.38
228.427	-3.48
228.898	3.42
229.369	3.52
229.839	1.42
230.31	-6.08
230.781	4.32
231.252	-1.28
231.722	-6.38
232.193	-0.18
232.664	-0.48
233.135	2.22
233.605	-2.58
234.076	-4.68
234.546	1.72
235.017	2.42
235.487	3.42
235.958	0.92
236.428	-0.98
236.899	4.82
237.369	6.52
237.84	1.22
238.31	5.42
238.78	2.22
239.251	3.62
239.721	7.12
240.191	-1.88
240.662	-2.38
241.132	1.32
241.602	1.02
242.072	6.22
242.542	10.42
243.013	-0.48
243.483	1.52
243.953	5.22
244.423	-4.68
244.893	-0.58
245.363	4.02
245.833	1.92
246.303	0.82
246.773	9.42
247.243	8.82
247.712	9.72
248.182	10.02
248.652	10.12
249.122	0.82
249.592	13.12
250.061	23.32
250.531	31.62
251.001	20.12
251.471	20.62
251.94	23.12
252.41	7.52
252.879	-1.38
253.349	15.12
253.818	10.22
254.288	4.42
254.757	5.42
255.227	1.02
255.696	5.92
256.166	9.12
256.635	5.52
257.105	10.42
257.574	7.12
258.043	5.42
258.513	14.52
258.982	13.02
259.451	14.72
259.92	15.12
260.389	16.72
260.859	19.02
261.328	11.52
261.797	18.92
262.266	10.62
262.735	8.72
263.204	1.22
263.673	2.52
264.142	5.92
264.611	4.32
265.08	2.62
265.549	1.62
266.018	8.32
266.487	-1.58
266.955	0.22
267.424	3.72
267.893	6.32
268.362	2.42
268.83	12.52
269.299	15.92
269.768	6.42
270.236	8.02
270.705	2.32
271.174	8.32
271.642	5.42
272.111	11.02
272.579	13.32
273.048	31.82
273.516	23.12
273.985	28.12
274.453	21.62
274.922	17.22
275.39	17.32
275.858	4.42
276.327	16.12
276.795	17.42
277.263	16.52
277.731	25.62
278.2	52.62
278.668	64.62
279.136	53.32
279.604	26.32
280.072	14.12
280.54	10.92
281.008	9.62
281.477	21.92
281.945	16.22
282.413	20.52
282.881	16.02
283.348	6.02
283.816	17.02
284.284	17.02
284.752	18.62
285.22	18.72
285.688	20.22
286.156	23.82
286.623	50.82
287.091	51.72
287.559	35.62
288.026	23.12
288.494	22.42
288.962	13.12
289.429	12.62
289.897	17.02
290.364	9.82
290.832	17.82
291.3	19.32
291.767	18.82
292.234	24.42
292.702	23.52
293.169	22.62
293.637	18.92
294.104	18.42
294.571	13.02
295.039	10.62
295.506	18.82
295.973	17.42
296.44	13.62
296.908	18.32
297.375	18.42
297.842	24.52
298.309	17.32
298.776	14.32
299.243	17.82
299.71	8.22
300.177	29.32
300.644	28.72
301.111	20.32
301.578	28.42
302.045	14.52
302.512	20.52
302.979	28.52
303.446	27.82
303.913	17.42
304.379	16.72
304.846	31.22
305.313	22.62
305.78	23.32
306.246	24.72
306.713	31.42
307.18	23.92
307.646	27.32
308.113	28.92
308.579	23.12
309.046	30.52
309.512	28.12
309.979	24.12
310.445	32.12
310.912	25.72
311.378	31.72
311.845	24.22
312.311	30.02
312.777	31.42
313.244	29.52
313.71	39.72
314.176	34.22
314.642	32.92
315.109	30.72
315.575	34.02
316.041	37.42
316.507	35.32
316.973	40.22
317.439	35.12
317.905	43.72
318.371	34.82
318.837	32.52
319.303	31.22
319.769	34.42
320.235	34.22
320.701	36.62
321.167	44.12
321.633	38.82
322.099	40.32
322.564	47.62
323.03	49.02
323.496	42.62
323.962	41.82
324.427	37.32
324.893	41.32
325.359	41.02
325.824	41.52
326.29	41.12
326.755	45.52
327.221	42.32
327.686	46.02
328.152	48.52
328.617	41.12
329.083	43.92
329.548	52.02
330.014	47.42
330.479	40.32
330.944	51.22
331.41	41.62
331.875	49.32
332.34	40.92
332.805	42.22
333.271	46.72
333.736	50.72
334.201	50.62
334.666	48.72
335.131	55.32
335.596	57.32
336.061	52.22
336.526	41.42
336.991	51.02
337.456	58.62
337.921	48.32
338.386	46.12
338.851	48.62
339.316	47.62
339.781	47.22
340.246	57.52
340.711	54.02
341.175	57.32
341.64	45.42
342.105	56.42
342.569	55.32
343.034	62.72
343.499	57.72
343.963	51.62
344.428	63.32
344.893	61.02
345.357	63.22
345.822	58.52
346.286	66.42
346.751	76.92
347.215	59.32
347.679	77.72
348.144	104.22
348.608	83.92
349.073	67.92
349.537	72.32
350.001	86.12
350.465	93.72
350.93	82.82
351.394	85.42
351.858	79.22
352.322	89.92
352.786	88.52
353.25	98.92
353.715	118.62
354.179	103.22
354.643	125.22
355.107	126.52
355.571	109.82
356.035	105.72
356.498	113.22
356.962	122.72
357.426	134.22
357.89	113.42
358.354	92.72
358.818	85.02
359.281	78.42
359.745	77.62
360.209	78.42
360.673	73.32
361.136	79.12
361.6	83.82
362.064	89.42
362.527	89.32
362.991	93.12
363.454	72.72
363.918	80.82
364.381	83.02
364.845	87.42
365.308	85.42
365.772	86.12
366.235	82.12
366.698	82.22
367.162	85.42
367.625	85.82
368.088	89.12
368.552	87.32
369.015	92.52
369.478	94.42
369.941	94.12
370.404	97.12
370.867	106.42
371.331	111.42
371.794	108.82
372.257	112.52
372.72	111.82
373.183	106.92
373.646	102.92
374.109	107.32
374.572	108.32
375.035	102.52
375.497	112.42
375.96	104.62
376.423	111.92
376.886	108.12
377.349	109.82
377.811	99.32
378.274	109.82
378.737	106.22
379.199	109.42
379.662	112.92
380.125	122.32
380.587	119.52
381.05	125.72
381.512	124.32
381.975	137.82
382.437	130.62
382.9	130.12
383.362	129.42
383.825	141.02
384.287	144.82
384.75	146.52
385.212	138.12
385.674	139.22
386.136	133.72
386.599	119.22
387.061	123.62
387.523	124.72
387.985	134.92
388.447	145.42
388.91	132.82
389.372	152.72
389.834	154.72
390.296	150.72
390.758	151.52
391.22	161.22
391.682	213.52
392.144	299.72
392.606	230.82
393.068	163.82
393.529	166.12
393.991	151.62
394.453	148.62
394.915	158.02
395.377	191.22
395.838	214.12
396.3	157.82
396.762	139.82
397.224	130.52
397.685	128.72
398.147	130.32
398.608	125.32
399.07	125.12
399.531	131.22
399.993	138.52
400.454	153.02
400.916	138.12
401.377	144.12
401.839	147.02
402.3	151.22
402.762	162.62
403.223	181.82
403.684	166.02
404.145	156.22
404.607	159.72
405.068	161.92
405.529	169.42
405.99	179.72
406.451	174.52
406.913	170.62
407.374	160.92
407.835	161.82
408.296	161.02
408.757	171.72
409.218	188.82
409.679	170.92
410.14	172.82
410.601	170.52
411.062	176.12
411.522	186.42
411.983	186.72
412.444	176.42
412.905	177.92
413.366	174.12
413.826	186.92
414.287	212.22
414.748	256.42
415.208	238.72
415.669	212.62
416.13	200.72
416.59	192.22
417.051	207.82
417.511	214.22
417.972	226.22
418.432	248.02
418.893	275.62
419.353	238.42
419.814	194.32
420.274	184.12
420.734	176.22
421.195	191.82
421.655	190.12
422.115	190.92
422.576	182.72
423.036	196.42
423.496	202.62
423.956	211.02
424.416	224.22
424.876	257.12
425.336	256.32
425.797	258.32
426.257	254.92
426.717	233.62
427.177	229.42
427.637	213.32
428.097	231.92
428.556	249.82
429.016	265.52
429.476	263.82
429.936	270.02
430.396	280.12
430.856	296.82
431.315	310.32
431.775	346.72
432.235	377.02
432.694	344.22
433.154	363.92
433.614	379.72
434.073	334.12
434.533	276.92
434.993	269.32
435.452	277.82
435.912	284.82
436.371	282.72
436.83	282.32
437.29	269.82
437.749	244.62
438.209	243.62
438.668	270.22
439.127	281.62
439.587	259.92
440.046	244.62
440.505	252.42
440.964	274.52
441.424	311.02
441.883	302.02
442.342	252.72
442.801	218.92
443.26	213.52
443.719	212.52
444.178	214.12
444.637	209.92
445.096	217.42
445.555	219.62
446.014	210.62
446.473	215.82
446.932	226.42
447.391	218.82
447.849	224.02
448.308	212.62
448.767	215.72
449.226	231.72
449.685	236.92
450.143	249.12
450.602	233.62
451.061	224.62
451.519	231.42
451.978	226.62
452.436	232.22
452.895	232.32
453.353	245.32
453.812	231.92
454.27	231.22
454.729	231.42
455.187	238.72
455.646	239.02
456.104	242.82
456.562	246.12
457.021	261.42
457.479	253.72
457.937	261.82
458.395	255.42
458.854	242.12
459.312	253.02
459.77	266.22
460.228	249.72
460.686	234.12
461.144	246.42
461.602	231.72
462.06	232.22
462.518	242.82
462.976	249.52
463.434	247.52
463.892	262.32
464.35	262.82
464.808	288.52
465.266	258.12
465.724	262.42
466.181	265.52
466.639	265.82
467.097	282.22
467.555	285.22
468.012	293.82
468.47	302.12
468.928	317.12
469.385	330.52
469.843	336.92
470.3	348.02
470.758	352.52
471.215	374.12
471.673	399.42
472.13	398.92
472.588	407.42
473.045	363.12
473.503	370.52
473.96	384.72
474.417	391.12
474.875	425.12
475.332	472.42
475.789	451.42
476.246	462.72
476.704	478.82
477.161	505.32
477.618	519.92
478.075	548.12
478.532	604.92
478.989	679.02
479.446	794.82
479.903	765.52
480.36	795.52
480.817	846.12
481.274	962.92
481.731	1064.62
482.188	1169.62
482.645	1294.02
483.102	1394.12
483.558	1545.02
484.015	1591.82
484.472	1577.32
484.929	1514.82
485.385	1473.82
485.842	1431.42
486.299	1337.32
486.755	1289.32
487.212	1080.82
487.668	918.92
488.125	843.42
488.582	772.02
489.038	732.12
489.494	707.42
489.951	676.92
490.407	652.32
490.864	630.02
491.32	637.52
491.776	629.62
492.233	635.72
492.689	600.22
493.145	600.22
493.602	589.82
494.058	598.82
494.514	612.72
494.97	631.92
495.426	638.22
495.882	604.42
496.338	607.02
496.794	619.82
497.251	611.92
497.707	629.92
498.163	627.02
498.618	640.12
499.074	640.12
499.53	667.52
499.986	664.92
500.442	647.62
500.898	627.02
501.354	607.22
501.809	611.02
502.265	629.52
502.721	649.72
503.177	661.42
503.632	650.92
504.088	659.02
504.543	696.42
504.999	705.52
505.455	649.72
505.91	619.22
506.366	614.72
506.821	604.42
507.277	618.92
507.732	617.32
508.187	629.62
508.643	619.62
509.098	613.82
509.553	636.12
510.009	640.62
510.464	651.12
510.919	680.62
511.375	681.62
511.83	692.52
512.285	709.72
512.74	739.82
513.195	767.22
513.65	751.32
514.105	754.62
514.56	753.22
515.015	779.62
515.47	793.32
515.925	778.42
516.38	773.82
516.835	771.72
517.29	775.62
517.745	761.62
518.2	742.92
518.655	732.22
519.109	724.02
519.564	731.12
520.019	714.82
520.474	715.72
520.928	707.12
521.383	708.72
521.838	693.32
522.292	697.42
522.747	690.82
523.201	684.42
523.656	672.72
524.11	671.02
524.565	672.02
525.019	668.92
525.474	684.82
525.928	688.82
526.382	674.52
526.837	677.82
527.291	689.72
527.745	684.02
528.2	673.12
528.654	672.82
529.108	671.12
529.562	673.72
530.016	670.12
530.47	665.82
530.925	674.12
531.379	685.62
531.833	690.92
532.287	685.42
532.741	687.42
533.195	685.12
533.649	701.52
534.103	709.72
534.556	686.62
535.01	693.72
535.464	702.92
535.918	707.42
536.372	709.52
536.826	700.22
537.279	688.12
537.733	698.32
538.187	697.32
538.64	693.62
539.094	708.02
539.548	707.52
540.001	702.02
540.455	712.62
540.908	711.52
541.362	723.02
541.815	729.42
542.269	728.22
542.722	741.02
543.175	750.82
543.629	748.52
544.082	767.72
544.536	764.72
544.989	751.72
545.442	774.12
545.895	775.92
546.349	767.12
546.802	765.12
547.255	768.52
547.708	774.92
548.161	788.72
548.614	793.72
549.067	796.12
549.52	786.42
549.973	796.32
550.426	780.92
550.879	772.42
551.332	762.62
551.785	780.02
552.238	778.92
552.691	793.72
553.144	804.62
553.596	827.32
554.049	837.02
554.502	857.82
554.955	886.22
555.407	875.02
555.86	885.32
556.313	867.32
556.765	852.02
557.218	865.22
557.67	860.02
558.123	849.92
558.576	848.22
559.028	860.92
559.48	849.62
559.933	844.52
560.385	807.42
560.838	772.22
561.29	755.02
561.742	753.32
562.195	739.62
562.647	739.92
563.099	740.32
563.551	752.32
564.004	770.82
564.456	747.52
564.908	739.92
565.36	723.92
565.812	713.62
566.264	698.52
566.716	690.52
567.168	694.12
567.62	689.92
568.072	679.92
568.524	675.52
568.976	661.62
569.428	647.22
569.88	645.92
570.332	657.52
570.784	653.62
571.235	657.62
571.687	661.42
572.139	677.22
572.59	687.42
573.042	680.02
573.494	684.82
573.945	682.82
574.397	664.52
574.849	663.92
575.3	667.22
575.752	663.62
576.203	661.42
576.655	661.92
577.106	654.42
577.557	651.92
578.009	648.12
578.46	637.92
578.912	631.72
579.363	647.92
579.814	646.22
580.265	645.02
580.717	644.82
581.168	644.02
581.619	647.72
582.07	652.62
582.521	649.02
582.972	641.32
583.423	653.72
583.875	642.62
584.326	685.82
584.777	719.32
585.227	797.12
585.678	893.02
586.129	981.12
586.58	1042.62
587.031	1134.82
587.482	1301.42
587.933	1487.52
588.384	1275.02
588.834	946.62
589.285	778.22
589.736	758.92
590.186	739.02
590.637	734.62
591.088	710.82
591.538	710.02
591.989	696.52
592.439	695.82
592.89	689.12
593.34	685.92
593.791	671.62
594.241	671.62
594.692	675.72
595.142	672.82
595.593	657.62
596.043	668.62
596.493	694.42
596.943	687.82
597.394	688.92
597.844	680.72
598.294	699.72
598.744	722.72
599.195	739.22
599.645	779.22
600.095	815.82
600.545	865.02
600.995	920.62
601.445	971.32
601.895	1031.52
602.345	1082.22
602.795	1051.62
603.245	1019.72
603.695	961.72
604.145	912.42
604.594	871.12
605.044	818.12
605.494	767.32
605.944	726.92
606.393	711.22
606.843	695.22
607.293	701.72
607.743	696.82
608.192	704.72
608.642	718.22
609.091	726.62
609.541	736.32
609.99	736.72
610.44	731.52
610.889	677.62
611.339	661.82
611.788	660.42
612.238	674.12
612.687	693.72
613.136	684.72
613.586	707.12
614.035	704.92
614.484	725.62
614.933	715.82
615.383	712.12
615.832	700.82
616.281	690.62
616.73	651.52
617.179	639.82
617.628	622.32
618.077	606.02
618.526	593.82
618.975	590.62
619.424	582.82
619.873	590.72
620.322	583.62
620.771	577.72
621.22	564.82
621.669	559.32
622.118	553.32
622.567	557.82
623.015	538.72
623.464	541.02
623.913	532.52
624.361	525.12
624.81	521.52
625.259	521.12
625.707	525.02
626.156	512.22
626.604	534.32
627.053	525.12
627.501	537.72
627.95	526.82
628.398	546.02
628.847	537.02
629.295	540.42
629.744	541.02
630.192	528.12
630.64	523.72
631.089	530.62
631.537	540.32
631.985	556.22
632.433	559.62
632.881	580.32
633.33	619.02
633.778	603.42
634.226	533.62
634.674	542.02
635.122	539.82
635.57	561.82
636.018	583.22
636.466	543.92
636.914	528.02
637.362	540.32
637.81	542.92
638.258	543.92
638.705	550.02
639.153	566.92
639.601	579.72
640.049	604.32
640.497	630.82
640.944	657.12
641.392	598.22
641.84	575.02
642.287	551.12
642.735	534.72
643.182	538.22
643.63	546.42
644.078	542.92
644.525	557.22
644.973	571.72
645.42	559.42
645.867	579.42
646.315	599.82
646.762	626.22
647.21	641.82
647.657	664.12
648.104	716.92
648.551	725.42
648.999	791.42
649.446	865.82
649.893	952.22
650.34	1088.82
650.787	1318.52
651.234	1624.92
651.682	2124.32
652.129	2917.82
652.576	4177.42
653.023	6239.32
653.47	8571.42
653.917	10752.32
654.363	12557.52
654.81	13930.32
655.257	13268.12
655.704	8680.52
656.151	5087.82
656.598	3289.32
657.044	2314.42
657.491	1767.52
657.938	1422.62
658.385	1176.42
658.831	1008.02
659.278	913.22
659.724	805.12
660.171	752.32
660.618	691.12
661.064	650.52
661.511	621.72
661.957	609.42
662.404	600.72
662.85	611.32
663.296	579.02
663.743	526.92
664.189	507.92
664.635	499.12
665.082	492.22
665.528	490.52
665.974	481.42
666.42	475.82
666.867	472.52
667.313	459.72
667.759	449.12
668.205	449.02
668.651	455.32
669.097	455.12
669.543	476.42
669.989	444.02
670.435	412.22
670.881	410.22
671.327	416.12
671.773	436.22
672.219	450.62
672.665	489.62
673.11	542.42
673.556	585.42
674.002	625.32
674.448	613.62
674.893	513.82
675.339	443.22
675.785	410.12
676.23	377.52
676.676	360.02
677.122	353.02
677.567	347.62
678.013	342.42
678.458	334.72
678.904	336.22
679.349	323.82
679.794	322.82
680.24	326.52
680.685	323.02
681.131	320.82
681.576	320.82
682.021	325.92
682.466	322.82
682.912	322.92
683.357	328.52
683.802	352.42
684.247	379.52
684.692	423.52
685.137	452.92
685.583	487.72
686.028	518.62
686.473	480.62
686.918	414.02
687.363	384.12
687.807	360.12
688.252	339.12
688.697	336.42
689.142	303.32
689.587	310.32
690.032	301.42
690.477	316.22
690.921	319.72
691.366	358.82
691.811	371.02
692.255	399.92
692.7	428.82
693.145	458.32
693.589	638.62
694.034	1015.42
694.478	1400.12
694.923	1611.42
695.367	2118.72
695.812	1110.82
696.256	463.12
696.701	348.52
697.145	314.22
697.59	305.42
698.034	295.22
698.478	308.12
698.922	300.72
699.367	303.32
699.811	315.82
700.255	325.92
700.699	356.12
701.143	393.72
701.588	435.62
702.032	468.62
702.476	460.22
702.92	452.42
703.364	451.72
703.808	580.12
704.252	934.22
704.696	1326.62
705.14	1535.62
705.584	1979.82
706.027	979.92
706.471	483.82
706.915	368.12
707.359	324.22
707.803	292.02
708.246	287.52
708.69	287.22
709.134	292.02
709.577	286.62
710.021	291.72
710.465	284.72
710.908	271.52
711.352	270.82
711.795	292.12
712.239	324.72
712.682	356.52
713.126	381.62
713.569	440.02
714.012	341.12
714.456	300.72
714.899	275.92
715.342	254.82
715.786	231.62
716.229	242.82
716.672	232.22
717.115	227.52
717.558	231.62
718.002	227.82
718.445	249.12
718.888	265.32
719.331	262.32
719.774	289.62
720.217	278.22
720.66	265.82
721.103	240.02
721.546	232.12
721.989	227.92
722.432	219.52
722.874	218.22
723.317	211.22
723.76	222.32
724.203	242.02
724.645	287.42
725.088	403.62
725.531	519.12
725.974	586.82
726.416	509.02
726.859	278.72
727.301	222.62
727.744	218.32
728.187	216.52
728.629	222.02
729.071	224.72
729.514	237.52
729.956	249.52
730.399	259.52
730.841	264.42
731.283	249.12
731.726	242.42
732.168	242.12
732.61	247.42
733.053	266.22
733.495	283.32
733.937	322.32
734.379	367.42
734.821	396.62
735.263	489.82
735.705	750.02
736.148	1406.72
736.59	2329.12
737.032	2817.72
737.474	2301.92
737.916	737.72
738.357	389.32
738.799	298.72
739.241	270.02
739.683	263.42
740.125	270.32
740.567	268.22
741.008	286.52
741.45	287.32
741.892	283.82
742.334	314.42
742.775	331.92
743.217	308.82
743.658	250.32
744.1	234.02
744.542	241.62
744.983	281.82
745.425	317.52
745.866	314.32
746.307	260.12
746.749	255.22
747.19	294.02
747.632	404.22
748.073	771.32
748.514	1653.22
748.956	2588.52
749.397	3237.32
749.838	2708.52
750.279	2732.72
750.72	1370.42
751.162	498.32
751.603	289.32
752.044	224.72
752.485	198.22
752.926	196.72
753.367	187.52
753.808	176.52
754.249	177.12
754.69	167.72
755.131	163.92
755.572	164.52
756.013	162.22
756.453	171.72
756.894	169.92
757.335	181.82
757.776	187.72
758.216	184.62
758.657	177.42
759.098	188.62
759.538	206.12
759.979	243.72
760.42	345.42
760.86	627.72
761.301	1620.32
761.741	3969.52
762.182	5977.02
762.622	4206.22
763.063	1201.62
763.503	497.82
763.943	323.72
764.384	314.02
764.824	380.32
765.264	415.62
765.705	297.42
766.145	197.52
766.585	169.52
767.025	163.62
767.465	170.62
767.906	228.02
768.346	300.22
768.786	326.12
769.226	236.52
769.666	285.72
770.106	544.52
770.546	1382.22
770.986	2429.12
771.426	2183.42
771.866	721.52
772.306	303.42
772.745	193.32
773.185	156.72
773.625	156.42
774.065	154.12
774.505	179.72
774.944	288.42
775.384	643.92
775.824	1200.32
776.263	1188.02
776.703	490.02
777.142	203.82
777.582	150.72
778.021	131.02
778.461	129.62
778.9	130.32
779.34	123.02
779.779	112.02
780.219	104.02
780.658	98.92
781.097	94.42
781.537	105.02
781.976	95.92
782.415	98.32
782.855	93.92
783.294	92.92
783.733	99.52
784.172	102.72
784.611	91.52
785.05	99.62
785.489	104.92
785.928	104.12
786.367	117.72
786.806	107.52
787.245	121.62
787.684	124.82
788.123	138.12
788.562	114.12
789.001	117.12
789.44	110.72
789.879	111.22
790.317	107.92
790.756	114.52
791.195	116.42
791.634	131.82
792.072	178.02
792.511	321.22
792.95	895.22
793.388	1955.82
793.827	1809.82
794.265	625.32
794.704	257.62
795.142	170.22
795.581	140.42
796.019	123.92
796.458	118.42
796.896	107.52
797.334	121.12
797.773	141.22
798.211	188.92
798.649	384.62
799.087	913.32
799.526	1440.92
799.964	1817.92
800.402	1872.42
800.84	697.42
801.278	271.72
801.716	163.62
802.154	141.22
802.592	127.92
803.03	118.52
803.468	124.12
803.906	132.32
804.344	138.82
804.782	125.02
805.22	120.22
805.658	115.62
806.096	141.62
806.533	142.72
806.971	160.52
807.409	199.82
807.847	280.62
808.284	578.02
808.722	1668.62
809.16	2992.92
809.597	2805.72
810.035	4912.82
810.472	5380.32
810.91	1928.02
811.347	730.02
811.785	369.82
812.222	230.92
812.66	178.02
813.097	153.02
813.535	125.72
813.972	114.72
814.409	108.32
814.846	103.82
815.284	99.62
815.721	96.62
816.158	96.62
816.595	111.82
817.032	169.62
817.47	181.62
817.907	163.42
818.344	142.52
818.781	106.42
819.218	88.72
819.655	108.72
820.092	169.52
820.529	194.62
820.966	162.82
821.403	129.52
821.839	99.82
822.276	94.02
822.713	108.02
823.15	118.42
823.587	98.52
824.023	126.82
824.46	265.92
824.897	805.82
825.333	1246.72
825.77	537.12
826.206	210.22
826.643	119.42
827.08	95.82
827.516	74.42
827.953	64.62
828.389	74.92
828.825	60.02
829.262	56.82
829.698	58.32
830.135	61.12
830.571	55.52
831.007	57.52
831.443	57.72
831.88	58.32
832.316	56.22
832.752	57.72
833.188	54.32
833.624	60.02
834.06	59.32
834.497	59.12
834.933	64.92
835.369	64.92
835.805	63.22
836.241	74.42
836.677	76.82
837.112	82.62
837.548	91.52
837.984	122.92
838.42	181.82
838.856	441.82
839.292	1352.12
839.727	2144.52
840.163	982.52
840.599	819.82
841.034	1828.92
841.47	1962.02
841.906	710.22
842.341	300.92
842.777	213.32
843.212	296.22
843.648	296.52
844.083	151.32
844.519	91.12
844.954	65.42
845.39	55.12
845.825	52.82
846.261	46.42
846.696	50.32
847.131	48.62
847.566	49.92
848.002	49.72
848.437	52.32
848.872	56.62
849.307	50.82
849.742	77.42
850.177	156.92
850.613	488.82
851.048	804.22
851.483	346.42
851.918	136.92
852.353	86.12
852.788	52.02
853.223	54.22
853.657	46.42
854.092	48.32
854.527	41.72
854.962	37.52
855.397	39.52
855.832	48.12
856.266	42.12
856.701	33.22
857.136	38.62
857.57	43.32
858.005	45.12
858.44	49.62
858.874	36.52
859.309	55.82
859.743	38.12
860.178	45.22
860.612	40.82
861.047	47.82
861.481	59.52
861.915	69.52
862.35	48.82
862.784	31.02
863.218	38.82
863.653	29.32
864.087	35.82
864.521	49.02
864.955	63.42
865.39	145.32
865.824	164.12
866.258	103.42
866.692	150.22
867.126	156.82
867.56	99.02
867.994	49.42
868.428	37.22
868.862	44.02
869.296	50.12
869.73	52.32
870.164	48.72
870.598	38.02
871.031	27.22
871.465	24.52
871.899	26.52
872.333	21.32
872.766	21.82
873.2	22.12
873.634	25.62
874.067	23.92
874.501	23.02
874.935	28.62
875.368	35.62
875.802	31.62
876.235	21.92
876.669	23.42
877.102	19.32
877.535	26.22
877.969	22.92
878.402	21.52
878.836	19.12
879.269	23.22
879.702	16.52
880.135	20.52
880.569	22.62
881.002	28.42
881.435	17.82
881.868	18.22
882.301	24.82
882.734	14.02
883.167	24.72
883.601	18.82
884.034	17.72
884.467	20.12
884.899	14.82
885.332	10.22
885.765	8.42
886.198	13.32
886.631	17.02
887.064	18.92
887.497	20.12
887.929	18.12
888.362	13.52
888.795	13.92
889.228	17.82
889.66	23.42
890.093	20.12
890.526	11.82
890.958	18.12
891.391	10.32
891.823	25.52
892.256	17.82
892.688	15.92
893.121	14.62
893.553	15.92
893.985	22.52
894.418	21.42
894.85	12.32
895.282	13.62
895.715	15.62
896.147	15.02
896.579	11.02
897.011	13.72
897.444	14.22
897.876	20.72
898.308	17.12
898.74	19.22
899.172	10.52
899.604	19.22
900.036	20.92
900.468	8.12
900.9	8.02
901.332	19.42
901.764	10.92
902.196	15.02
902.628	13.92
903.06	12.82
903.491	27.92
903.923	29.22
904.355	18.02
904.787	22.72
905.218	17.52
905.65	17.32
906.082	11.62
906.513	13.72
906.945	13.92
907.376	12.12
907.808	18.12
908.239	18.12
908.671	15.22
909.102	18.52
909.534	24.42
909.965	39.42
910.397	85.22
910.828	285.02
911.259	439.72
911.691	195.52
912.122	93.62
912.553	54.02
912.984	37.02
913.415	25.42
913.847	23.02
914.278	12.82
914.709	11.52
915.14	16.52
915.571	19.92
916.002	12.72
916.433	14.32
916.864	16.42
917.295	9.72
917.726	19.32
918.157	16.72
918.587	25.52
919.018	21.32
919.449	14.72
919.88	22.92
920.311	28.82
920.741	48.92
921.172	147.42
921.603	140.82
922.033	65.62
922.464	40.42
922.895	18.42
923.325	19.32
923.756	16.52
924.186	15.42
924.617	24.22
925.047	42.92
925.478	53.62
925.908	47.72
926.338	19.12
926.769	19.92
927.199	22.72
927.629	12.32
928.06	15.72
928.49	12.42
928.92	16.22
929.35	7.02
929.78	9.02
930.21	1.92
930.641	5.82
931.071	10.22
931.501	-0.58
931.931	11.42
932.361	3.82
932.791	2.32
933.221	6.42
933.651	2.72
934.08	21.22
934.51	23.32
934.94	8.92
935.37	9.12
935.8	11.12
936.229	13.72
936.659	12.72
937.089	2.12
937.519	13.32
937.948	21.12
938.378	12.12
938.807	4.92
939.237	4.52
939.666	6.32
940.096	-6.18
940.525	-0.98
940.955	3.82
941.384	1.92
941.814	-3.18
942.243	2.22
942.672	4.42
943.102	2.72
943.531	-4.58
943.96	1.72
944.39	-1.68
944.819	-0.18
945.248	11.12
945.677	-0.18
946.106	0.92
946.535	5.12
946.964	0.52
947.393	3.62
947.822	-0.68
948.251	-3.38
948.68	-1.78
949.109	5.82
949.538	5.82
949.967	3.42
950.396	0.22
950.825	0.52
951.254	0.02
951.682	-8.38
952.111	4.12
952.54	5.22
952.969	2.12
953.397	-8.28
953.826	0.82
954.254	-2.98
954.683	2.32
955.112	-2.58
955.54	-4.68
955.969	-0.98
956.397	-1.98
956.826	-2.68
957.254	3.22
957.682	0.42
958.111	5.22
958.539	3.42
958.967	3.22
959.396	-2.98
959.824	1.72
960.252	-0.68
960.68	-5.18
961.109	-0.88
961.537	-1.58
961.965	-3.88
962.393	3.42
962.821	-4.38
963.249	1.72
963.677	8.92
964.105	0.22
964.533	43.22
964.961	42.32
965.389	14.82
965.817	6.02
966.245	-0.18
966.672	0.52
967.1	-4.38
967.528	-1.38
967.956	-3.28
968.383	-0.78
968.811	-8.58
969.239	-0.58
969.666	-6.28
970.094	0.72
970.522	-3.18
970.949	-3.68
971.377	-6.28
971.804	-1.58
972.232	-1.58
972.659	-5.28
973.087	-3.28
973.514	-7.78
973.941	2.22
974.369	-0.38
974.796	2.32
975.223	0.82
975.651	0.62
976.078	9.52
976.505	0.62
976.932	5.32
977.359	18.32
977.786	16.12
978.214	4.52
978.641	-3.28
979.068	-1.38
979.495	-4.38
979.922	0.02
980.349	-1.38
980.776	3.72
981.202	0.62
981.629	3.32
982.056	5.12
982.483	-1.58
982.91	3.82
983.337	-9.58
983.763	-0.18
984.19	-2.48
984.617	1.72
985.043	-10.98
985.47	3.22
985.897	-3.58
986.323	-1.98
986.75	8.32
987.176	2.52
987.603	-3.78
988.029	2.72
988.456	-1.68
988.882	-3.28
989.308	-8.68
989.735	-2.08
990.161	3.02
990.587	-8.18
991.014	-2.58
991.44	7.42
991.866	-8.98
992.292	1.02
992.719	-6.58
993.145	1.42
993.571	-8.68
993.997	-5.08
994.423	-7.38
994.849	-6.98
995.275	-2.68
995.701	0.12
996.127	-3.98
996.553	5.12
996.979	-3.28
997.405	-0.98
997.83	-1.18
998.256	-4.68
998.682	-5.48
999.108	-7.38
999.534	-0.88
999.959	-0.38
1000.385	1.12
1000.811	1.12
1001.236	-10.48
1001.662	-2.98
1002.087	-9.58
1002.513	-2.88
1002.938	0.12
1003.364	-6.28
1003.789	-2.48
1004.215	5.12
1004.64	0.12
1005.066	1.42
1005.491	-0.98
1005.916	-1.98
1006.342	-2.98
1006.767	-7.48
1007.192	6.82
1007.617	-6.28
1008.042	-6.08
1008.468	-2.58
1008.893	-9.48
1009.318	-1.18
1009.743	1.92
1010.168	2.62
1010.593	0.02
1011.018	-8.48
1011.443	-0.38
1011.868	-3.58
1012.293	-6.28
1012.718	-8.08
1013.143	-2.48
1013.567	-4.88
1013.992	-1.98
1014.417	-16.08
1014.842	4.42
1015.267	-8.38
1015.691	-2.48
1016.116	-0.58
1016.541	-1.58
1016.965	3.52
1017.39	0.32
1017.814	2.52
1018.239	0.72
1018.663	-3.68
1019.088	-9.58
1019.512	-4.08
1019.937	5.82
1020.361	-9.68
1020.785	-8.58
1021.21	-4.78
1021.634	-1.48
1022.058	-0.28
1022.483	6.02
1022.907	-3.98
1023.331	-3.78
1023.755	-3.78
1024.179	-3.18
1024.604	-5.18
1025.028	-3.88
1025.452	-0.98
1025.876	-6.68
1026.3	-0.18
1026.724	-9.58
1027.148	-1.28
1027.572	-10.58
1027.996	-1.08
1028.42	1.52
1028.843	-6.78
1029.267	-2.48
1029.691	-4.88
1030.115	-5.18
1030.539	-6.68
1030.962	-2.58
1031.386	-6.78
1031.81	-1.78
1032.233	-0.68
1032.657	-2.38
1033.08	-4.88
1033.504	-2.78
1033.927	-4.48
1034.351	0.32
1034.774	-4.68
1035.198	-1.08
1035.621	-4.88
1036.045	-10.28
1036.468	-0.38
1036.891	-5.48
1037.315	-14.58
1037.738	-9.48
1038.161	-3.78
1038.584	-3.38
1039.008	-4.78
1039.431	-3.28
1039.854	-8.08
1040.277	-13.98
1040.7	-7.68
1041.123	-6.78
1041.546	-3.98
1041.969	-3.88
1042.392	-10.58
1042.815	-6.98
1043.238	2.52
1043.661	-3.18
1044.084	-7.18
1044.507	-5.08
1044.93	-11.28
1045.352	-4.68
1045.775	-1.48
1046.198	2.52
1046.621	-0.68
1047.043	0.82
1047.466	10.22
1047.889	-3.78
1048.311	-4.18
1048.734	2.22
1049.156	-2.48
1049.579	0.62
1050.001	-0.18
1050.424	6.52
1050.846	-2.58
1051.269	-4.38
1051.691	-6.98
1052.113	-7.28
1052.536	1.32
1052.958	-1.88
1053.38	-7.58
1053.802	-13.48
1054.225	-0.28
1054.647	-6.08
1055.069	-6.78
1055.491	-2.08
1055.913	-7.68
1056.335	-1.88
1056.757	-7.58
1057.179	-9.68
1057.601	-4.08
1058.023	-6.88
1058.445	1.52
1058.867	-3.58
1059.289	-0.88
1059.711	-7.68
1060.133	-2.58
1060.555	0.52
1060.976	-3.78
1061.398	-5.48
1061.82	-11.38
1062.241	-3.88
1062.663	-2.78
1063.085	-4.88
1063.506	-2.48
1063.928	-7.68
1064.35	-6.98
1064.771	-13.08
1065.193	-6.58
1065.614	-9.08
1066.035	-1.98
1066.457	-0.18
1066.878	1.42
1067.3	-5.48
1067.721	-4.98
1068.142	0.52
1068.564	-5.58
1068.985	-3.78
1069.406	-5.58
1069.827	-7.48
1070.248	-2.58
1070.67	-6.08
1071.091	-5.18
1071.512	-5.08
1071.933	-5.38
1072.354	-8.88
1072.775	-3.88
1073.196	-4.98
1073.617	-6.78
1074.038	-7.48
1074.459	0.22
1074.88	-8.38
1075.3	4.52
1075.721	-6.38
1076.142	3.12
1076.563	-3.88
1076.983	-10.68
1077.404	-7.78
1077.825	-5.38
1078.246	-0.98
1078.666	-7.78
1079.087	-4.28
1079.507	-4.88
1079.928	-1.98
1080.348	-2.68
1080.769	-9.38
1081.189	-3.48
1081.61	-3.98
1082.03	-5.48
1082.451	-7.78
1082.871	0.62
1083.291	-2.58
1083.711	-9.38
1084.132	-3.48
1084.552	-3.98
1084.972	1.32
1085.392	-7.78
1085.813	-16.38
1086.233	-6.98
1086.653	-4.08
1087.073	-2.18
1087.493	-11.48
1087.913	-8.18
1088.333	-3.48
1088.753	-2.28
1089.173	-3.18
1089.593	-6.08
1090.013	1.42
1090.433	-3.68
1090.852	-1.18
1091.272	-3.58
1091.692	-2.58
1092.112	-4.18
1092.531	-9.88
1092.951	-11.28
1093.371	-4.78
1093.79	-0.78
1094.21	-4.28
1094.63	-5.58
1095.049	-4.78
1095.469	-1.88
1095.888	-4.38
1096.308	3.12
1096.727	0.62
1097.146	-5.88
1097.566	1.72
1097.985	-0.38
1098.405	-4.48
1098.824	-12.78
1099.243	-3.28
1099.662	-12.48
1100.082	-4.78
1100.501	1.72
1100.92	-2.98
1101.339	-3.48
1101.758	-8.68
