Data from 20171114-ORNL-Ar_H_NY_Subt18_08-05-34-328.txt Node
Date: Tue Nov 14 08:05:34 EST 2017
User: Ender
Spectrometer: HR+D1039
Trigger mode: 0
Integration Time (sec): 2.730000E-2
Scans to average: 10
Electric dark correction enabled: true
Nonlinearity correction enabled: false
Boxcar width: 0
XAxis mode: Wavelengths
Number of Pixels in Spectrum: 2048
>>>>>Begin Spectral Data<<<<<
187.836	-8.54
188.309	-8.54
188.782	-8.54
189.255	2.36
189.728	-1.14
190.201	2.96
190.674	1.26
191.147	7.26
191.619	-7.24
192.092	-1.04
192.565	5.16
193.038	-0.64
193.511	0.36
193.984	2.16
194.456	-4.34
194.929	-1.24
195.402	0.66
195.874	2.06
196.347	-1.24
196.82	-3.44
197.292	3.76
197.765	8.26
198.237	-6.74
198.71	7.66
199.182	-0.54
199.655	0.76
200.127	4.66
200.6	-1.84
201.072	-3.34
201.544	-2.64
202.017	-1.64
202.489	4.26
202.961	4.16
203.433	-2.44
203.906	-7.64
204.378	-0.24
204.85	-2.94
205.322	-6.44
205.794	2.66
206.266	-3.14
206.739	-9.94
207.211	1.96
207.683	-10.24
208.155	-6.44
208.627	-7.14
209.099	-3.64
209.57	-5.14
210.042	-4.84
210.514	-3.24
210.986	-4.34
211.458	-9.54
211.93	-5.34
212.402	0.56
212.873	-8.54
213.345	-9.14
213.817	-14.34
214.288	-4.14
214.76	-9.84
215.232	-4.84
215.703	-6.44
216.175	-6.34
216.646	-2.24
217.118	-5.04
217.589	-3.74
218.061	-2.04
218.532	-7.24
219.004	-2.64
219.475	-3.84
219.946	-0.54
220.418	-1.04
220.889	-2.24
221.36	1.16
221.832	-5.14
222.303	-7.64
222.774	-2.14
223.245	-11.64
223.717	-12.54
224.188	-4.84
224.659	-6.14
225.13	-5.44
225.601	-3.94
226.072	-2.24
226.543	-6.04
227.014	-4.94
227.485	-2.14
227.956	-3.54
228.427	-0.54
228.898	3.66
229.369	8.36
229.839	-3.84
230.31	-6.64
230.781	2.76
231.252	-5.94
231.722	-1.64
232.193	-7.74
232.664	3.56
233.135	-0.34
233.605	6.56
234.076	0.66
234.546	3.96
235.017	10.66
235.487	1.96
235.958	-0.04
236.428	-3.84
236.899	2.46
237.369	2.56
237.84	3.96
238.31	4.36
238.78	1.76
239.251	5.56
239.721	1.06
240.191	5.26
240.662	-1.04
241.132	-2.34
241.602	-4.14
242.072	-0.54
242.542	5.36
243.013	-3.14
243.483	5.26
243.953	6.56
244.423	7.56
244.893	-5.94
245.363	1.46
245.833	6.96
246.303	2.16
246.773	10.86
247.243	6.96
247.712	11.16
248.182	12.96
248.652	12.26
249.122	2.66
249.592	16.76
250.061	23.46
250.531	33.06
251.001	17.46
251.471	24.96
251.94	21.86
252.41	11.16
252.879	-0.64
253.349	9.76
253.818	11.86
254.288	2.76
254.757	4.06
255.227	-0.84
255.696	4.76
256.166	12.46
256.635	11.36
257.105	9.86
257.574	13.76
258.043	14.86
258.513	4.96
258.982	21.66
259.451	5.26
259.92	12.86
260.389	13.96
260.859	13.76
261.328	16.06
261.797	20.66
262.266	8.96
262.735	8.16
263.204	7.26
263.673	4.56
264.142	2.16
264.611	3.86
265.08	1.46
265.549	2.76
266.018	6.66
266.487	-0.74
266.955	1.56
267.424	4.56
267.893	7.56
268.362	5.46
268.83	5.06
269.299	11.86
269.768	5.26
270.236	3.66
270.705	6.16
271.174	4.86
271.642	13.26
272.111	10.86
272.579	12.36
273.048	28.76
273.516	34.26
273.985	26.06
274.453	28.86
274.922	23.36
275.39	16.36
275.858	3.06
276.327	15.06
276.795	19.36
277.263	14.86
277.731	31.16
278.2	55.16
278.668	61.66
279.136	51.86
279.604	17.16
280.072	13.16
280.54	10.26
281.008	12.66
281.477	16.46
281.945	18.36
282.413	15.66
282.881	14.46
283.348	15.36
283.816	22.16
284.284	15.56
284.752	22.56
285.22	15.56
285.688	20.76
286.156	22.56
286.623	42.26
287.091	58.66
287.559	34.86
288.026	21.16
288.494	17.16
288.962	6.16
289.429	11.26
289.897	16.36
290.364	25.36
290.832	18.06
291.3	17.86
291.767	17.56
292.234	20.06
292.702	13.56
293.169	20.36
293.637	27.96
294.104	22.46
294.571	14.26
295.039	16.46
295.506	19.06
295.973	22.26
296.44	17.86
296.908	21.66
297.375	21.06
297.842	28.46
298.309	20.76
298.776	16.26
299.243	19.86
299.71	14.66
300.177	22.16
300.644	22.66
301.111	20.36
301.578	20.26
302.045	13.66
302.512	22.76
302.979	23.46
303.446	18.56
303.913	22.76
304.379	19.56
304.846	29.16
305.313	30.86
305.78	19.16
306.246	26.16
306.713	22.16
307.18	31.36
307.646	27.56
308.113	31.96
308.579	26.76
309.046	28.86
309.512	27.06
309.979	20.86
310.445	29.66
310.912	26.36
311.378	39.06
311.845	29.86
312.311	31.76
312.777	34.06
313.244	33.26
313.71	43.56
314.176	32.16
314.642	38.86
315.109	30.86
315.575	41.86
316.041	36.56
316.507	39.26
316.973	41.06
317.439	35.46
317.905	39.76
318.371	35.86
318.837	35.76
319.303	29.76
319.769	29.06
320.235	36.86
320.701	40.16
321.167	47.06
321.633	40.26
322.099	39.66
322.564	49.16
323.03	42.66
323.496	39.96
323.962	48.76
324.427	44.86
324.893	46.66
325.359	39.56
325.824	40.76
326.29	35.26
326.755	41.16
327.221	41.56
327.686	39.16
328.152	47.06
328.617	42.96
329.083	48.16
329.548	51.26
330.014	48.06
330.479	42.46
330.944	47.26
331.41	44.86
331.875	45.76
332.34	42.26
332.805	49.46
333.271	49.56
333.736	43.56
334.201	58.96
334.666	53.76
335.131	56.26
335.596	57.46
336.061	55.16
336.526	49.26
336.991	49.26
337.456	60.86
337.921	47.76
338.386	45.66
338.851	49.36
339.316	48.06
339.781	49.26
340.246	46.36
340.711	49.36
341.175	50.26
341.64	50.06
342.105	57.16
342.569	65.06
343.034	60.56
343.499	50.86
343.963	54.96
344.428	71.96
344.893	63.56
345.357	65.76
345.822	63.66
346.286	68.76
346.751	78.66
347.215	70.66
347.679	71.06
348.144	96.46
348.608	85.16
349.073	71.86
349.537	73.06
350.001	83.66
350.465	90.96
350.93	83.86
351.394	79.96
351.858	76.96
352.322	94.86
352.786	82.46
353.25	101.86
353.715	117.56
354.179	104.96
354.643	131.56
355.107	129.06
355.571	105.26
356.035	104.86
356.498	118.66
356.962	126.06
357.426	141.06
357.89	116.46
358.354	96.36
358.818	82.66
359.281	83.76
359.745	72.06
360.209	76.26
360.673	81.16
361.136	84.66
361.6	89.36
362.064	79.76
362.527	83.56
362.991	96.66
363.454	84.96
363.918	79.56
364.381	74.86
364.845	79.76
365.308	82.96
365.772	92.16
366.235	90.56
366.698	80.56
367.162	91.26
367.625	89.96
368.088	87.36
368.552	92.66
369.015	94.76
369.478	99.96
369.941	100.86
370.404	94.66
370.867	106.46
371.331	107.86
371.794	123.06
372.257	114.56
372.72	116.86
373.183	107.26
373.646	106.36
374.109	107.46
374.572	103.26
375.035	113.36
375.497	105.76
375.96	108.06
376.423	107.46
376.886	117.16
377.349	109.76
377.811	104.36
378.274	108.36
378.737	111.06
379.199	111.16
379.662	108.26
380.125	115.66
380.587	115.46
381.05	122.16
381.512	133.76
381.975	131.76
382.437	132.06
382.9	126.36
383.362	130.36
383.825	134.86
384.287	146.26
384.75	137.36
385.212	138.46
385.674	140.86
386.136	134.66
386.599	129.46
387.061	124.46
387.523	131.46
387.985	136.46
388.447	144.86
388.91	139.96
389.372	159.56
389.834	149.86
390.296	137.96
390.758	153.56
391.22	167.66
391.682	206.56
392.144	293.46
392.606	224.76
393.068	160.96
393.529	160.76
393.991	149.16
394.453	147.76
394.915	158.06
395.377	194.76
395.838	209.36
396.3	156.66
396.762	146.56
397.224	127.86
397.685	123.46
398.147	128.56
398.608	125.26
399.07	129.86
399.531	143.36
399.993	141.06
400.454	152.96
400.916	144.96
401.377	145.46
401.839	151.86
402.3	158.16
402.762	164.36
403.223	181.16
403.684	171.86
404.145	156.26
404.607	158.86
405.068	166.46
405.529	175.66
405.99	188.46
406.451	175.06
406.913	176.36
407.374	164.56
407.835	160.06
408.296	171.66
408.757	174.16
409.218	185.96
409.679	181.16
410.14	177.46
410.601	175.66
411.062	184.76
411.522	192.76
411.983	192.96
412.444	178.56
412.905	176.76
413.366	181.96
413.826	193.26
414.287	216.46
414.748	260.36
415.208	246.96
415.669	207.86
416.13	202.66
416.59	196.56
417.051	205.06
417.511	217.16
417.972	236.96
418.432	244.76
418.893	274.86
419.353	252.46
419.814	197.86
420.274	184.66
420.734	182.06
421.195	199.66
421.655	195.96
422.115	189.46
422.576	196.56
423.036	196.66
423.496	201.16
423.956	212.46
424.416	231.46
424.876	267.06
425.336	256.06
425.797	256.06
426.257	251.56
426.717	242.56
427.177	229.96
427.637	229.36
428.097	232.36
428.556	241.06
429.016	261.96
429.476	268.26
429.936	276.36
430.396	276.76
430.856	283.66
431.315	315.46
431.775	341.66
432.235	375.36
432.694	353.36
433.154	361.26
433.614	378.16
434.073	327.86
434.533	290.26
434.993	271.86
435.452	282.56
435.912	299.96
436.371	288.86
436.83	280.56
437.29	264.56
437.749	248.86
438.209	247.86
438.668	270.16
439.127	283.56
439.587	261.16
440.046	244.26
440.505	253.06
440.964	277.26
441.424	314.36
441.883	311.86
442.342	260.96
442.801	224.56
443.26	220.86
443.719	218.86
444.178	217.06
444.637	212.06
445.096	216.66
445.555	222.86
446.014	223.16
446.473	221.96
446.932	225.66
447.391	229.96
447.849	223.86
448.308	216.16
448.767	218.36
449.226	230.56
449.685	234.56
450.143	241.46
450.602	234.86
451.061	227.36
451.519	229.56
451.978	226.66
452.436	225.36
452.895	236.56
453.353	254.86
453.812	236.56
454.27	236.06
454.729	230.36
455.187	240.36
455.646	243.86
456.104	248.46
456.562	258.56
457.021	259.86
457.479	265.26
457.937	280.26
458.395	265.76
458.854	242.56
459.312	259.26
459.77	276.56
460.228	253.76
460.686	243.56
461.144	249.66
461.602	242.16
462.06	242.76
462.518	247.66
462.976	253.66
463.434	254.76
463.892	265.86
464.35	275.06
464.808	285.36
465.266	265.16
465.724	267.76
466.181	273.56
466.639	266.46
467.097	285.66
467.555	295.46
468.012	308.96
468.47	307.16
468.928	321.06
469.385	332.26
469.843	353.06
470.3	339.06
470.758	367.86
471.215	381.86
471.673	404.76
472.13	410.16
472.588	412.96
473.045	360.36
473.503	375.66
473.96	395.16
474.417	395.26
474.875	431.26
475.332	477.26
475.789	460.86
476.246	458.36
476.704	484.96
477.161	506.66
477.618	521.46
478.075	559.26
478.532	611.26
478.989	692.76
479.446	802.76
479.903	769.66
480.36	802.16
480.817	863.56
481.274	977.36
481.731	1075.46
482.188	1166.16
482.645	1299.46
483.102	1421.96
483.558	1536.36
484.015	1595.26
484.472	1566.36
484.929	1531.76
485.385	1467.36
485.842	1445.76
486.299	1370.16
486.755	1299.56
487.212	1104.06
487.668	919.86
488.125	850.06
488.582	772.76
489.038	748.66
489.494	717.26
489.951	684.56
490.407	663.26
490.864	655.26
491.32	644.16
491.776	635.96
492.233	646.66
492.689	605.46
493.145	604.66
493.602	591.86
494.058	610.26
494.514	618.46
494.97	639.76
495.426	646.56
495.882	617.46
496.338	613.96
496.794	630.36
497.251	617.96
497.707	633.46
498.163	631.06
498.618	647.36
499.074	643.86
499.53	671.66
499.986	671.06
500.442	648.36
500.898	625.16
501.354	613.86
501.809	631.56
502.265	640.76
502.721	647.86
503.177	669.66
503.632	661.06
504.088	666.06
504.543	708.56
504.999	703.26
505.455	656.76
505.91	629.26
506.366	631.56
506.821	618.86
507.277	622.16
507.732	621.76
508.187	626.56
508.643	635.26
509.098	622.86
509.553	650.06
510.009	658.06
510.464	664.66
510.919	688.46
511.375	689.96
511.83	699.66
512.285	725.86
512.74	761.96
513.195	772.46
513.65	766.66
514.105	775.46
514.56	758.76
515.015	783.06
515.47	794.36
515.925	787.66
516.38	782.96
516.835	793.66
517.29	774.36
517.745	769.36
518.2	757.56
518.655	750.36
519.109	736.76
519.564	738.76
520.019	728.06
520.474	716.06
520.928	715.46
521.383	711.06
521.838	717.16
522.292	701.36
522.747	707.66
523.201	695.26
523.656	692.96
524.11	687.26
524.565	696.76
525.019	689.26
525.474	695.26
525.928	691.76
526.382	695.36
526.837	694.96
527.291	695.26
527.745	699.46
528.2	689.26
528.654	689.36
529.108	679.16
529.562	687.26
530.016	694.36
530.47	681.26
530.925	683.76
531.379	690.66
531.833	709.76
532.287	707.96
532.741	697.96
533.195	702.06
533.649	705.56
534.103	713.06
534.556	700.06
535.01	706.56
535.464	705.96
535.918	714.06
536.372	709.96
536.826	705.76
537.279	703.86
537.733	706.16
538.187	709.06
538.64	710.26
539.094	723.36
539.548	719.16
540.001	719.66
540.455	720.36
540.908	730.96
541.362	732.66
541.815	744.86
542.269	758.06
542.722	748.16
543.175	760.26
543.629	759.26
544.082	776.16
544.536	784.66
544.989	775.86
545.442	787.06
545.895	774.36
546.349	789.76
546.802	785.86
547.255	786.96
547.708	793.26
548.161	809.26
548.614	810.26
549.067	817.16
549.52	807.86
549.973	804.66
550.426	798.06
550.879	782.26
551.332	801.36
551.785	793.06
552.238	797.06
552.691	808.96
553.144	822.36
553.596	837.96
554.049	854.36
554.502	885.56
554.955	903.26
555.407	908.16
555.86	898.26
556.313	884.66
556.765	872.36
557.218	877.56
557.67	877.36
558.123	868.16
558.576	867.66
559.028	859.96
559.48	884.16
559.933	869.46
560.385	838.76
560.838	800.86
561.29	775.56
561.742	761.76
562.195	748.46
562.647	753.16
563.099	765.46
563.551	763.06
564.004	767.26
564.456	758.66
564.908	757.56
565.36	743.06
565.812	721.56
566.264	711.46
566.716	717.26
567.168	704.66
567.62	718.06
568.072	687.76
568.524	685.86
568.976	675.76
569.428	662.66
569.88	661.96
570.332	675.56
570.784	671.16
571.235	667.86
571.687	679.66
572.139	695.76
572.59	694.36
573.042	698.26
573.494	698.76
573.945	699.66
574.397	675.46
574.849	685.36
575.3	677.76
575.752	672.36
576.203	664.46
576.655	675.66
577.106	662.86
577.557	661.26
578.009	644.46
578.46	656.26
578.912	657.36
579.363	658.86
579.814	658.66
580.265	652.76
580.717	663.56
581.168	651.46
581.619	668.36
582.07	665.76
582.521	653.66
582.972	660.26
583.423	666.66
583.875	667.76
584.326	684.06
584.777	727.86
585.227	801.46
585.678	884.76
586.129	968.26
586.58	1037.86
587.031	1128.96
587.482	1286.96
587.933	1467.66
588.384	1268.16
588.834	969.56
589.285	788.96
589.736	770.36
590.186	752.96
590.637	748.26
591.088	725.46
591.538	719.76
591.989	714.46
592.439	703.86
592.89	700.16
593.34	690.46
593.791	704.86
594.241	692.96
594.692	696.26
595.142	689.46
595.593	684.36
596.043	691.36
596.493	692.96
596.943	703.46
597.394	703.56
597.844	705.36
598.294	714.26
598.744	734.16
599.195	742.76
599.645	792.16
600.095	835.26
600.545	889.16
600.995	938.86
601.445	990.76
601.895	1063.26
602.345	1116.46
602.795	1082.66
603.245	1042.46
603.695	986.56
604.145	926.96
604.594	891.96
605.044	828.06
605.494	769.06
605.944	726.86
606.393	725.46
606.843	708.26
607.293	715.26
607.743	705.56
608.192	721.36
608.642	740.86
609.091	738.66
609.541	750.56
609.99	754.36
610.44	737.26
610.889	702.66
611.339	683.36
611.788	658.36
612.238	677.26
612.687	695.86
613.136	697.86
613.586	708.36
614.035	721.46
614.484	733.56
614.933	735.46
615.383	713.76
615.832	716.66
616.281	703.46
616.73	663.76
617.179	644.36
617.628	637.36
618.077	618.16
618.526	609.56
618.975	598.46
619.424	603.66
619.873	591.56
620.322	596.86
620.771	588.36
621.22	582.16
621.669	571.66
622.118	566.26
622.567	562.16
623.015	565.76
623.464	554.16
623.913	547.76
624.361	530.26
624.81	529.16
625.259	538.26
625.707	536.76
626.156	533.26
626.604	544.36
627.053	545.66
627.501	538.66
627.95	548.06
628.398	565.56
628.847	541.66
629.295	544.36
629.744	554.96
630.192	551.26
630.64	545.26
631.089	543.46
631.537	563.06
631.985	563.76
632.433	572.76
632.881	580.66
633.33	629.56
633.778	611.46
634.226	545.86
634.674	549.36
635.122	551.96
635.57	583.16
636.018	614.76
636.466	565.96
636.914	540.36
637.362	554.26
637.81	553.26
638.258	556.56
638.705	556.46
639.153	575.86
639.601	592.66
640.049	620.36
640.497	649.76
640.944	668.76
641.392	615.46
641.84	582.76
642.287	569.66
642.735	550.26
643.182	557.26
643.63	551.56
644.078	555.36
644.525	572.46
644.973	564.56
645.42	583.76
645.867	606.56
646.315	606.36
646.762	639.46
647.21	668.16
647.657	691.06
648.104	722.96
648.551	737.86
648.999	798.56
649.446	881.46
649.893	971.46
650.34	1124.96
650.787	1331.46
651.234	1659.86
651.682	2169.56
652.129	2965.06
652.576	4245.76
653.023	6303.36
653.47	8656.06
653.917	10898.36
654.363	12631.46
654.81	14074.46
655.257	13378.86
655.704	8741.76
656.151	5146.66
656.598	3319.06
657.044	2344.26
657.491	1795.76
657.938	1449.86
658.385	1204.96
658.831	1042.96
659.278	928.16
659.724	825.16
660.171	752.76
660.618	693.46
661.064	660.36
661.511	638.86
661.957	625.46
662.404	618.66
662.85	628.66
663.296	594.26
663.743	539.36
664.189	515.86
664.635	503.86
665.082	510.56
665.528	507.76
665.974	495.86
666.42	490.36
666.867	485.86
667.313	468.46
667.759	454.76
668.205	461.26
668.651	456.56
669.097	460.56
669.543	478.96
669.989	451.36
670.435	435.06
670.881	435.36
671.327	435.86
671.773	442.16
672.219	465.66
672.665	516.36
673.11	555.16
673.556	594.76
674.002	640.66
674.448	625.46
674.893	521.96
675.339	447.36
675.785	424.16
676.23	399.36
676.676	375.56
677.122	368.06
677.567	354.06
678.013	349.26
678.458	343.06
678.904	340.36
679.349	330.16
679.794	342.26
680.24	345.06
680.685	330.26
681.131	329.36
681.576	332.66
682.021	338.86
682.466	330.76
682.912	332.06
683.357	335.36
683.802	353.66
684.247	388.16
684.692	432.56
685.137	468.26
685.583	505.16
686.028	532.36
686.473	489.26
686.918	425.06
687.363	405.96
687.807	369.56
688.252	348.96
688.697	331.56
689.142	320.86
689.587	313.96
690.032	304.76
690.477	317.96
690.921	329.26
691.366	363.26
691.811	379.76
692.255	416.16
692.7	431.76
693.145	470.86
693.589	651.46
694.034	1046.46
694.478	1438.96
694.923	1637.76
695.367	2163.06
695.812	1125.46
696.256	475.36
696.701	349.56
697.145	326.16
697.59	316.26
698.034	297.56
698.478	312.96
698.922	306.16
699.367	309.06
699.811	325.16
700.255	336.46
700.699	360.36
701.143	405.96
701.588	445.16
702.032	489.76
702.476	487.86
702.92	455.46
703.364	459.06
703.808	589.36
704.252	961.26
704.696	1355.46
705.14	1589.36
705.584	2014.76
706.027	1017.66
706.471	490.66
706.915	379.16
707.359	324.66
707.803	300.16
708.246	290.26
708.69	292.76
709.134	299.86
709.577	296.36
710.021	300.36
710.465	285.66
710.908	278.26
711.352	279.66
711.795	295.16
712.239	329.46
712.682	362.26
713.126	387.96
713.569	440.26
714.012	350.76
714.456	309.16
714.899	285.36
715.342	258.96
715.786	243.16
716.229	250.36
716.672	237.86
717.115	229.86
717.558	240.36
718.002	237.26
718.445	246.76
718.888	270.16
719.331	280.76
719.774	296.86
720.217	287.56
720.66	267.76
721.103	254.86
721.546	239.56
721.989	234.26
722.432	224.36
722.874	218.26
723.317	217.86
723.76	224.36
724.203	244.16
724.645	298.36
725.088	417.56
725.531	536.86
725.974	610.76
726.416	518.26
726.859	289.86
727.301	234.26
727.744	220.46
728.187	226.26
728.629	226.96
729.071	231.66
729.514	242.96
729.956	258.76
730.399	268.46
730.841	270.56
731.283	256.36
731.726	251.96
732.168	243.86
732.61	245.16
733.053	268.26
733.495	291.46
733.937	323.36
734.379	372.96
734.821	419.36
735.263	503.96
735.705	773.36
736.148	1461.26
736.59	2397.76
737.032	2891.56
737.474	2356.86
737.916	760.56
738.357	400.96
738.799	302.76
739.241	281.66
739.683	264.86
740.125	278.46
740.567	281.66
741.008	302.96
741.45	295.26
741.892	292.76
742.334	326.16
742.775	338.96
743.217	323.26
743.658	247.06
744.1	239.36
744.542	246.06
744.983	289.26
745.425	321.66
745.866	325.66
746.307	267.46
746.749	264.06
747.19	301.16
747.632	424.36
748.073	805.66
748.514	1717.76
748.956	2656.56
749.397	3328.36
749.838	2788.96
750.279	2801.06
750.72	1416.46
751.162	512.76
751.603	297.06
752.044	236.56
752.485	207.66
752.926	196.06
753.367	190.86
753.808	188.06
754.249	182.36
754.69	175.76
755.131	162.16
755.572	174.46
756.013	166.76
756.453	177.46
756.894	176.16
757.335	177.96
757.776	189.36
758.216	184.56
758.657	188.06
759.098	184.76
759.538	208.16
759.979	249.76
760.42	337.66
760.86	642.06
761.301	1660.76
761.741	4100.66
762.182	6080.16
762.622	4289.16
763.063	1232.16
763.503	507.26
763.943	324.06
764.384	316.66
764.824	377.96
765.264	408.56
765.705	289.06
766.145	202.86
766.585	176.56
767.025	170.26
767.465	175.66
767.906	220.86
768.346	295.56
768.786	319.36
769.226	242.46
769.666	286.76
770.106	561.86
770.546	1415.06
770.986	2487.16
771.426	2249.76
771.866	749.96
772.306	314.96
772.745	196.96
773.185	169.06
773.625	162.86
774.065	157.86
774.505	181.16
774.944	286.56
775.384	631.56
775.824	1172.16
776.263	1157.66
776.703	481.56
777.142	214.26
777.582	145.46
778.021	129.86
778.461	131.56
778.9	128.46
779.34	124.56
779.779	114.86
780.219	107.16
780.658	104.16
781.097	100.86
781.537	106.76
781.976	100.06
782.415	99.46
782.855	95.56
783.294	100.46
783.733	99.66
784.172	102.66
784.611	89.76
785.05	101.76
785.489	108.96
785.928	115.76
786.367	118.26
786.806	111.66
787.245	121.66
787.684	130.06
788.123	144.56
788.562	129.36
789.001	126.06
789.44	113.66
789.879	111.06
790.317	109.56
790.756	115.16
791.195	115.36
791.634	130.76
792.072	188.46
792.511	324.36
792.95	925.36
793.388	2008.06
793.827	1844.26
794.265	633.66
794.704	263.06
795.142	173.16
795.581	144.56
796.019	136.36
796.458	124.16
796.896	113.26
797.334	127.96
797.773	143.86
798.211	195.76
798.649	404.66
799.087	952.26
799.526	1486.86
799.964	1868.76
800.402	1921.96
800.84	709.56
801.278	283.76
801.716	166.36
802.154	142.76
802.592	132.46
803.03	132.36
803.468	129.56
803.906	138.56
804.344	141.46
804.782	131.36
805.22	116.96
805.658	112.06
806.096	130.96
806.533	142.66
806.971	161.96
807.409	202.66
807.847	296.26
808.284	607.26
808.722	1713.06
809.16	3081.16
809.597	2884.26
810.035	5038.56
810.472	5516.46
810.91	1976.66
811.347	741.06
811.785	382.56
812.222	240.46
812.66	186.16
813.097	150.76
813.535	133.66
813.972	119.06
814.409	109.06
814.846	95.96
815.284	106.56
815.721	93.56
816.158	98.46
816.595	115.86
817.032	164.06
817.47	192.76
817.907	166.26
818.344	141.96
818.781	106.76
819.218	93.46
819.655	121.46
820.092	174.66
820.529	203.86
820.966	169.46
821.403	131.96
821.839	98.06
822.276	97.96
822.713	115.06
823.15	125.06
823.587	108.66
824.023	133.76
824.46	272.96
824.897	819.96
825.333	1275.16
825.77	542.26
826.206	215.66
826.643	123.26
827.08	92.16
827.516	74.26
827.953	70.16
828.389	81.26
828.825	70.36
829.262	61.96
829.698	58.26
830.135	59.86
830.571	57.26
831.007	62.56
831.443	61.26
831.88	60.76
832.316	58.36
832.752	57.56
833.188	63.86
833.624	57.66
834.06	64.26
834.497	68.66
834.933	66.46
835.369	73.96
835.805	69.66
836.241	70.76
836.677	76.56
837.112	85.56
837.548	94.96
837.984	119.66
838.42	180.56
838.856	449.46
839.292	1395.46
839.727	2167.76
840.163	1001.56
840.599	830.66
841.034	1887.46
841.47	2024.36
841.906	731.46
842.341	306.16
842.777	218.56
843.212	302.06
843.648	290.16
844.083	142.76
844.519	95.46
844.954	75.46
845.39	60.46
845.825	58.96
846.261	56.46
846.696	49.76
847.131	51.26
847.566	61.06
848.002	51.86
848.437	50.46
848.872	62.26
849.307	60.36
849.742	78.76
850.177	165.26
850.613	514.06
851.048	826.16
851.483	354.16
851.918	143.26
852.353	79.96
852.788	59.66
853.223	57.06
853.657	53.96
854.092	37.86
854.527	43.96
854.962	31.26
855.397	48.16
855.832	46.86
856.266	37.76
856.701	36.86
857.136	35.66
857.57	40.66
858.005	43.66
858.44	57.66
858.874	49.46
859.309	54.66
859.743	30.26
860.178	45.66
860.612	44.56
861.047	48.66
861.481	69.16
861.915	67.86
862.35	48.66
862.784	29.56
863.218	35.26
863.653	28.76
864.087	43.36
864.521	50.66
864.955	61.56
865.39	149.16
865.824	164.06
866.258	108.66
866.692	150.76
867.126	166.26
867.56	92.76
867.994	41.06
868.428	38.26
868.862	41.66
869.296	50.26
869.73	58.66
870.164	55.36
870.598	40.86
871.031	36.16
871.465	31.46
871.899	31.36
872.333	25.16
872.766	26.76
873.2	27.86
873.634	29.56
874.067	25.76
874.501	22.56
874.935	31.46
875.368	23.16
875.802	23.76
876.235	21.16
876.669	21.86
877.102	19.06
877.535	24.76
877.969	22.46
878.402	24.16
878.836	17.16
879.269	27.46
879.702	26.96
880.135	21.66
880.569	24.06
881.002	33.36
881.435	22.66
881.868	10.16
882.301	23.26
882.734	12.76
883.167	18.76
883.601	13.76
884.034	18.26
884.467	9.56
884.899	20.36
885.332	18.16
885.765	12.86
886.198	15.46
886.631	17.66
887.064	18.26
887.497	11.66
887.929	22.16
888.362	14.96
888.795	15.16
889.228	14.66
889.66	23.76
890.093	14.76
890.526	22.76
890.958	17.76
891.391	14.46
891.823	23.26
892.256	13.96
892.688	15.86
893.121	15.66
893.553	13.36
893.985	17.66
894.418	21.76
894.85	15.66
895.282	13.96
895.715	13.36
896.147	13.46
896.579	21.16
897.011	10.66
897.444	17.76
897.876	13.16
898.308	19.76
898.74	15.56
899.172	5.26
899.604	33.96
900.036	20.46
900.468	16.66
900.9	11.56
901.332	20.56
901.764	14.36
902.196	17.56
902.628	15.26
903.06	11.26
903.491	30.66
903.923	13.56
904.355	21.76
904.787	17.86
905.218	20.66
905.65	22.96
906.082	15.86
906.513	11.76
906.945	11.26
907.376	17.26
907.808	20.76
908.239	19.96
908.671	16.36
909.102	19.76
909.534	21.06
909.965	43.36
910.397	87.86
910.828	293.46
911.259	439.66
911.691	203.76
912.122	98.86
912.553	45.76
912.984	34.26
913.415	19.96
913.847	29.76
914.278	14.26
914.709	5.56
915.14	14.96
915.571	22.76
916.002	14.26
916.433	16.86
916.864	12.06
917.295	12.96
917.726	16.66
918.157	16.86
918.587	22.46
919.018	19.56
919.449	15.66
919.88	21.16
920.311	27.76
920.741	40.76
921.172	155.26
921.603	141.46
922.033	68.06
922.464	51.76
922.895	21.06
923.325	22.36
923.756	12.46
924.186	13.46
924.617	23.96
925.047	34.16
925.478	54.06
925.908	49.56
926.338	32.96
926.769	19.86
927.199	21.66
927.629	7.96
928.06	14.06
928.49	12.36
928.92	11.56
929.35	7.36
929.78	7.26
930.21	2.66
930.641	9.06
931.071	4.96
931.501	-0.64
931.931	9.36
932.361	11.26
932.791	-0.04
933.221	2.46
933.651	6.06
934.08	14.26
934.51	30.96
934.94	9.36
935.37	15.56
935.8	15.96
936.229	8.16
936.659	8.86
937.089	4.26
937.519	16.06
937.948	22.86
938.378	11.56
938.807	0.86
939.237	3.76
939.666	6.86
940.096	-5.74
940.525	2.66
940.955	-0.04
941.384	1.26
941.814	-2.04
942.243	1.66
942.672	0.16
943.102	-3.94
943.531	1.06
943.96	4.66
944.39	0.26
944.819	-3.34
945.248	-2.04
945.677	2.56
946.106	3.66
946.535	4.86
946.964	1.66
947.393	5.16
947.822	7.66
948.251	-0.44
948.68	9.76
949.109	3.26
949.538	2.36
949.967	6.56
950.396	-2.34
950.825	-1.44
951.254	-2.94
951.682	-8.94
952.111	5.06
952.54	7.96
952.969	-7.54
953.397	-8.54
953.826	-0.74
954.254	-1.64
954.683	5.06
955.112	-6.54
955.54	2.36
955.969	-1.34
956.397	5.06
956.826	-8.24
957.254	3.66
957.682	2.96
958.111	7.46
958.539	-2.94
958.967	4.96
959.396	-5.94
959.824	-2.24
960.252	1.96
960.68	-6.34
961.109	-2.34
961.537	-4.94
961.965	4.86
962.393	7.76
962.821	2.36
963.249	4.16
963.677	0.26
964.105	3.46
964.533	38.46
964.961	38.06
965.389	19.96
965.817	4.76
966.245	5.46
966.672	2.66
967.1	-4.14
967.528	1.36
967.956	-3.74
968.383	-0.64
968.811	1.06
969.239	0.66
969.666	-0.24
970.094	3.56
970.522	1.86
970.949	0.76
971.377	-5.64
971.804	-4.34
972.232	-7.14
972.659	-3.04
973.087	0.56
973.514	-2.84
973.941	-9.34
974.369	4.26
974.796	-0.04
975.223	3.66
975.651	3.36
976.078	3.86
976.505	-3.74
976.932	4.26
977.359	17.06
977.786	12.66
978.214	-0.64
978.641	0.36
979.068	-2.84
979.495	-8.64
979.922	-0.84
980.349	-3.14
980.776	6.66
981.202	1.16
981.629	7.76
982.056	8.46
982.483	-2.84
982.91	6.16
983.337	-5.04
983.763	8.26
984.19	-7.74
984.617	-4.14
985.043	-6.04
985.47	3.76
985.897	-4.64
986.323	-5.34
986.75	2.36
987.176	-1.74
987.603	2.36
988.029	-1.94
988.456	-0.34
988.882	2.16
989.308	-4.04
989.735	-3.14
990.161	5.96
990.587	-1.24
991.014	2.16
991.44	7.66
991.866	2.66
992.292	-2.04
992.719	-0.34
993.145	-1.14
993.571	-5.04
993.997	-2.64
994.423	-4.44
994.849	-7.84
995.275	-5.74
995.701	5.06
996.127	2.26
996.553	5.56
996.979	-5.04
997.405	-2.84
997.83	-5.04
998.256	-5.84
998.682	-6.04
999.108	-8.94
999.534	-3.74
999.959	-1.34
1000.385	-1.94
1000.811	-0.54
1001.236	-4.14
1001.662	-10.04
1002.087	-8.24
1002.513	-3.34
1002.938	1.16
1003.364	-3.84
1003.789	-2.34
1004.215	8.36
1004.64	-2.14
1005.066	0.86
1005.491	0.06
1005.916	-5.84
1006.342	-5.74
1006.767	-8.64
1007.192	5.36
1007.617	-6.04
1008.042	-0.14
1008.468	-4.94
1008.893	1.36
1009.318	-2.04
1009.743	-2.44
1010.168	8.56
1010.593	3.16
1011.018	-4.74
1011.443	-0.44
1011.868	-0.34
1012.293	0.56
1012.718	-6.04
1013.143	-0.94
1013.567	-2.84
1013.992	-2.34
1014.417	-10.44
1014.842	1.96
1015.267	-4.74
1015.691	0.26
1016.116	7.36
1016.541	0.46
1016.965	2.06
1017.39	-0.74
1017.814	1.96
1018.239	1.06
1018.663	-9.44
1019.088	-14.24
1019.512	-2.44
1019.937	-3.84
1020.361	-5.84
1020.785	-12.94
1021.21	-0.04
1021.634	-4.14
1022.058	0.96
1022.483	-0.14
1022.907	-3.24
1023.331	-4.74
1023.755	-6.04
1024.179	-0.44
1024.604	-9.04
1025.028	-3.74
1025.452	-7.34
1025.876	-3.04
1026.3	-0.34
1026.724	-5.74
1027.148	-6.24
1027.572	-9.94
1027.996	-1.34
1028.42	1.36
1028.843	-5.84
1029.267	2.36
1029.691	4.06
1030.115	-0.54
1030.539	-8.34
1030.962	-8.44
1031.386	-12.84
1031.81	6.76
1032.233	-4.94
1032.657	0.06
1033.08	0.56
1033.504	-3.74
1033.927	-6.34
1034.351	-3.04
1034.774	-8.04
1035.198	-2.54
1035.621	-2.04
1036.045	-5.74
1036.468	2.76
1036.891	-10.84
1037.315	-7.04
1037.738	-12.14
1038.161	1.56
1038.584	-6.44
1039.008	-6.84
1039.431	-4.34
1039.854	-4.14
1040.277	-6.44
1040.7	-13.64
1041.123	-3.04
1041.546	-12.84
1041.969	-2.44
1042.392	-9.24
1042.815	-4.64
1043.238	0.46
1043.661	0.06
1044.084	-6.64
1044.507	-5.84
1044.93	-2.34
1045.352	-7.14
1045.775	2.66
1046.198	1.76
1046.621	-3.94
1047.043	-1.34
1047.466	9.76
1047.889	-6.04
1048.311	-10.74
1048.734	-3.54
1049.156	-2.34
1049.579	0.86
1050.001	0.46
1050.424	-3.54
1050.846	-6.64
1051.269	0.86
1051.691	-4.54
1052.113	-3.34
1052.536	3.46
1052.958	-4.54
1053.38	-4.24
1053.802	-10.34
1054.225	3.06
1054.647	-2.74
1055.069	-2.54
1055.491	-0.74
1055.913	-13.14
1056.335	0.26
1056.757	-6.14
1057.179	0.86
1057.601	-2.04
1058.023	0.36
1058.445	-6.84
1058.867	-1.84
1059.289	-5.04
1059.711	-8.04
1060.133	-1.64
1060.555	-6.34
1060.976	-8.24
1061.398	-6.34
1061.82	-8.44
1062.241	-3.34
1062.663	-6.54
1063.085	-5.04
1063.506	-0.74
1063.928	-0.54
1064.35	-1.24
1064.771	-9.84
1065.193	-4.94
1065.614	-16.14
1066.035	-2.24
1066.457	-4.14
1066.878	0.06
1067.3	-9.14
1067.721	-4.94
1068.142	-5.44
1068.564	-4.64
1068.985	-6.54
1069.406	-8.34
1069.827	-2.84
1070.248	1.96
1070.67	-8.04
1071.091	-8.44
1071.512	-0.54
1071.933	-10.44
1072.354	-5.34
1072.775	-4.34
1073.196	-5.64
1073.617	-3.04
1074.038	-7.34
1074.459	-6.64
1074.88	-7.84
1075.3	-2.84
1075.721	-7.34
1076.142	0.56
1076.563	-4.14
1076.983	-13.34
1077.404	-6.74
1077.825	-15.04
1078.246	-3.04
1078.666	-12.64
1079.087	-9.24
1079.507	-8.44
1079.928	3.76
1080.348	0.76
1080.769	-4.14
1081.189	-1.34
1081.61	-6.24
1082.03	-5.14
1082.451	-3.44
1082.871	-6.44
1083.291	-4.04
1083.711	-7.74
1084.132	-2.14
1084.552	-2.64
1084.972	-4.84
1085.392	-9.74
1085.813	-8.54
1086.233	-7.64
1086.653	-8.74
1087.073	0.76
1087.493	-4.34
1087.913	-3.54
1088.333	-9.64
1088.753	-4.54
1089.173	4.86
1089.593	-4.14
1090.013	-4.34
1090.433	0.26
1090.852	-0.34
1091.272	-1.94
1091.692	-7.24
1092.112	-4.64
1092.531	-7.84
1092.951	-13.94
1093.371	-3.04
1093.79	0.96
1094.21	-5.04
1094.63	-9.44
1095.049	-1.34
1095.469	-4.24
1095.888	-2.54
1096.308	-3.74
1096.727	-3.84
1097.146	-8.24
1097.566	-4.64
1097.985	-1.44
1098.405	-0.24
1098.824	-2.04
1099.243	-2.44
1099.662	-7.84
1100.082	-1.04
1100.501	-7.24
1100.92	-4.84
1101.339	-1.24
1101.758	0.66
