Data from 20171114-ORNL-Ar_H_NY_Subt18_08-05-25-872.txt Node
Date: Tue Nov 14 08:05:25 EST 2017
User: Ender
Spectrometer: HR+D1039
Trigger mode: 0
Integration Time (sec): 2.730000E-2
Scans to average: 10
Electric dark correction enabled: true
Nonlinearity correction enabled: false
Boxcar width: 0
XAxis mode: Wavelengths
Number of Pixels in Spectrum: 2048
>>>>>Begin Spectral Data<<<<<
187.836	-8.54
188.309	-8.54
188.782	-8.54
189.255	-0.04
189.728	-3.54
190.201	5.76
190.674	1.16
191.147	2.66
191.619	-6.54
192.092	3.56
192.565	3.96
193.038	2.06
193.511	0.46
193.984	1.96
194.456	-0.54
194.929	-1.94
195.402	2.26
195.874	-2.74
196.347	-3.64
196.82	-6.34
197.292	5.66
197.765	-6.34
198.237	-8.34
198.71	0.06
199.182	-3.04
199.655	-1.34
200.127	1.56
200.6	-2.74
201.072	-6.94
201.544	-5.14
202.017	-4.64
202.489	4.86
202.961	-7.14
203.433	-1.94
203.906	-1.04
204.378	-7.84
204.85	-3.94
205.322	-6.94
205.794	-2.34
206.266	-6.34
206.739	-12.84
207.211	-5.54
207.683	-9.34
208.155	-2.64
208.627	-9.14
209.099	-5.14
209.57	-15.34
210.042	-2.94
210.514	-7.74
210.986	-2.24
211.458	-8.74
211.93	-4.74
212.402	1.16
212.873	-5.94
213.345	-6.54
213.817	-16.24
214.288	-5.34
214.76	-13.24
215.232	0.16
215.703	-1.04
216.175	-3.44
216.646	-5.04
217.118	-4.54
217.589	-3.44
218.061	2.56
218.532	0.86
219.004	-3.04
219.475	3.96
219.946	-2.24
220.418	-7.24
220.889	0.46
221.36	-3.54
221.832	-5.44
222.303	-1.14
222.774	1.86
223.245	-6.74
223.717	-0.94
224.188	-4.14
224.659	-4.14
225.13	-5.74
225.601	-4.44
226.072	-1.04
226.543	-3.34
227.014	4.56
227.485	-2.74
227.956	-2.64
228.427	1.36
228.898	2.56
229.369	4.36
229.839	-6.74
230.31	-4.84
230.781	2.56
231.252	4.56
231.722	-5.04
232.193	-0.44
232.664	-2.34
233.135	0.96
233.605	1.96
234.076	-6.84
234.546	-5.04
235.017	2.86
235.487	-2.24
235.958	-2.74
236.428	-4.24
236.899	0.16
237.369	1.96
237.84	2.46
238.31	3.66
238.78	1.66
239.251	-0.04
239.721	4.06
240.191	4.86
240.662	-0.44
241.132	-0.44
241.602	0.26
242.072	2.86
242.542	2.26
243.013	-0.04
243.483	-3.94
243.953	2.16
244.423	-4.64
244.893	0.86
245.363	1.46
245.833	6.86
246.303	-0.84
246.773	6.16
247.243	2.86
247.712	9.56
248.182	7.56
248.652	0.96
249.122	-1.64
249.592	10.06
250.061	24.26
250.531	30.56
251.001	18.96
251.471	27.06
251.94	24.56
252.41	11.06
252.879	4.46
253.349	17.06
253.818	9.06
254.288	11.56
254.757	6.06
255.227	-1.14
255.696	7.86
256.166	6.96
256.635	7.36
257.105	6.66
257.574	9.96
258.043	4.26
258.513	18.66
258.982	17.16
259.451	9.26
259.92	14.06
260.389	10.66
260.859	16.16
261.328	9.66
261.797	21.26
262.266	10.06
262.735	13.66
263.204	7.06
263.673	0.56
264.142	0.66
264.611	-3.74
265.08	5.86
265.549	-1.34
266.018	9.46
266.487	-0.64
266.955	-3.94
267.424	2.26
267.893	7.76
268.362	9.46
268.83	3.56
269.299	14.06
269.768	9.66
270.236	9.36
270.705	3.66
271.174	9.36
271.642	6.06
272.111	14.06
272.579	20.86
273.048	25.86
273.516	33.46
273.985	24.86
274.453	28.36
274.922	18.66
275.39	9.66
275.858	2.46
276.327	19.26
276.795	15.26
277.263	15.56
277.731	34.66
278.2	63.56
278.668	60.96
279.136	51.36
279.604	23.06
280.072	14.76
280.54	17.56
281.008	12.16
281.477	12.86
281.945	13.26
282.413	20.06
282.881	17.86
283.348	13.56
283.816	18.46
284.284	19.86
284.752	20.86
285.22	16.56
285.688	14.06
286.156	18.66
286.623	45.56
287.091	52.66
287.559	34.66
288.026	23.96
288.494	17.26
288.962	11.96
289.429	6.26
289.897	17.26
290.364	14.86
290.832	15.76
291.3	18.36
291.767	23.36
292.234	22.56
292.702	13.16
293.169	19.06
293.637	23.46
294.104	18.76
294.571	15.46
295.039	17.26
295.506	18.26
295.973	18.96
296.44	18.56
296.908	23.66
297.375	19.76
297.842	19.06
298.309	16.06
298.776	15.96
299.243	22.36
299.71	16.06
300.177	21.86
300.644	22.36
301.111	19.56
301.578	27.86
302.045	14.96
302.512	25.46
302.979	30.66
303.446	21.66
303.913	19.46
304.379	21.96
304.846	33.46
305.313	24.96
305.78	26.96
306.246	33.46
306.713	27.66
307.18	29.26
307.646	29.26
308.113	30.96
308.579	22.26
309.046	27.86
309.512	23.76
309.979	20.96
310.445	29.96
310.912	23.76
311.378	35.06
311.845	35.56
312.311	33.56
312.777	29.56
313.244	38.76
313.71	42.26
314.176	34.76
314.642	32.36
315.109	27.06
315.575	36.86
316.041	43.16
316.507	39.06
316.973	35.86
317.439	29.06
317.905	41.76
318.371	36.96
318.837	31.36
319.303	39.26
319.769	32.46
320.235	39.26
320.701	43.16
321.167	41.96
321.633	30.06
322.099	43.76
322.564	49.96
323.03	43.96
323.496	36.76
323.962	41.86
324.427	42.26
324.893	48.96
325.359	42.76
325.824	39.06
326.29	35.46
326.755	44.36
327.221	41.76
327.686	40.96
328.152	50.46
328.617	42.66
329.083	45.26
329.548	54.16
330.014	55.26
330.479	39.46
330.944	42.06
331.41	40.36
331.875	45.26
332.34	42.96
332.805	44.06
333.271	46.86
333.736	44.76
334.201	60.26
334.666	55.06
335.131	51.46
335.596	48.16
336.061	57.06
336.526	44.16
336.991	55.26
337.456	56.96
337.921	47.56
338.386	43.36
338.851	48.96
339.316	52.86
339.781	50.66
340.246	49.06
340.711	48.46
341.175	54.26
341.64	45.86
342.105	54.66
342.569	54.66
343.034	58.36
343.499	60.26
343.963	57.36
344.428	63.16
344.893	65.26
345.357	68.36
345.822	68.16
346.286	66.76
346.751	77.36
347.215	70.76
347.679	79.06
348.144	101.36
348.608	85.86
349.073	67.06
349.537	77.66
350.001	84.16
350.465	96.96
350.93	82.06
351.394	89.96
351.858	79.96
352.322	94.76
352.786	86.66
353.25	98.96
353.715	113.96
354.179	104.26
354.643	125.96
355.107	126.46
355.571	113.76
356.035	101.56
356.498	113.06
356.962	123.06
357.426	129.06
357.89	119.76
358.354	92.66
358.818	84.16
359.281	80.76
359.745	80.96
360.209	82.76
360.673	83.26
361.136	82.96
361.6	82.76
362.064	77.66
362.527	84.56
362.991	88.26
363.454	82.36
363.918	76.26
364.381	79.96
364.845	83.56
365.308	93.06
365.772	84.86
366.235	85.36
366.698	84.66
367.162	87.86
367.625	87.46
368.088	86.46
368.552	90.06
369.015	85.26
369.478	95.36
369.941	103.56
370.404	100.06
370.867	101.86
371.331	108.06
371.794	113.16
372.257	108.46
372.72	118.76
373.183	114.36
373.646	105.46
374.109	104.36
374.572	112.46
375.035	111.16
375.497	111.96
375.96	101.66
376.423	104.46
376.886	110.96
377.349	117.96
377.811	103.36
378.274	105.06
378.737	110.56
379.199	109.76
379.662	118.66
380.125	120.96
380.587	121.06
381.05	126.66
381.512	125.06
381.975	130.06
382.437	129.56
382.9	128.56
383.362	127.86
383.825	139.66
384.287	136.76
384.75	140.46
385.212	144.06
385.674	142.56
386.136	132.86
386.599	123.16
387.061	130.26
387.523	132.46
387.985	129.36
388.447	148.96
388.91	141.96
389.372	157.56
389.834	147.86
390.296	142.36
390.758	150.56
391.22	168.36
391.682	194.56
392.144	290.86
392.606	231.86
393.068	170.76
393.529	170.46
393.991	157.86
394.453	147.56
394.915	151.86
395.377	186.46
395.838	207.26
396.3	152.16
396.762	135.86
397.224	131.46
397.685	128.46
398.147	132.46
398.608	134.26
399.07	124.46
399.531	140.36
399.993	144.96
400.454	158.46
400.916	150.16
401.377	144.16
401.839	152.26
402.3	152.46
402.762	163.86
403.223	179.86
403.684	173.46
404.145	165.56
404.607	161.36
405.068	162.56
405.529	174.06
405.99	185.86
406.451	172.56
406.913	174.76
407.374	167.16
407.835	157.96
408.296	165.76
408.757	167.36
409.218	186.46
409.679	179.66
410.14	173.76
410.601	183.76
411.062	182.06
411.522	190.76
411.983	198.36
412.444	181.06
412.905	177.06
413.366	178.06
413.826	196.76
414.287	218.46
414.748	265.36
415.208	254.66
415.669	210.66
416.13	201.46
416.59	199.66
417.051	213.36
417.511	213.26
417.972	234.36
418.432	243.36
418.893	288.86
419.353	252.66
419.814	196.96
420.274	182.16
420.734	183.26
421.195	191.56
421.655	184.76
422.115	189.56
422.576	192.46
423.036	199.66
423.496	212.16
423.956	212.76
424.416	223.26
424.876	265.16
425.336	266.26
425.797	260.76
426.257	254.96
426.717	234.36
427.177	237.86
427.637	224.56
428.097	233.66
428.556	243.36
429.016	258.56
429.476	259.16
429.936	275.26
430.396	289.56
430.856	292.86
431.315	311.76
431.775	352.36
432.235	387.36
432.694	349.46
433.154	359.26
433.614	390.66
434.073	331.76
434.533	285.36
434.993	268.36
435.452	294.96
435.912	293.56
436.371	286.96
436.83	288.66
437.29	271.46
437.749	245.26
438.209	240.96
438.668	266.56
439.127	284.16
439.587	264.56
440.046	241.76
440.505	263.36
440.964	276.26
441.424	315.16
441.883	310.76
442.342	257.56
442.801	223.26
443.26	223.36
443.719	220.66
444.178	216.56
444.637	209.76
445.096	220.16
445.555	220.06
446.014	218.76
446.473	221.76
446.932	231.66
447.391	224.36
447.849	223.46
448.308	220.66
448.767	226.96
449.226	237.86
449.685	235.06
450.143	239.76
450.602	234.16
451.061	230.76
451.519	231.06
451.978	231.66
452.436	234.66
452.895	232.46
453.353	253.16
453.812	240.76
454.27	237.66
454.729	239.36
455.187	249.56
455.646	240.96
456.104	243.36
456.562	257.76
457.021	271.06
457.479	257.76
457.937	271.96
458.395	257.86
458.854	248.16
459.312	250.56
459.77	272.36
460.228	250.16
460.686	241.26
461.144	242.46
461.602	243.46
462.06	239.36
462.518	258.66
462.976	254.66
463.434	256.56
463.892	262.96
464.35	278.06
464.808	294.96
465.266	271.26
465.724	276.36
466.181	274.16
466.639	265.76
467.097	292.26
467.555	297.36
468.012	303.16
468.47	303.36
468.928	314.96
469.385	342.66
469.843	348.86
470.3	346.76
470.758	357.86
471.215	381.76
471.673	412.06
472.13	406.16
472.588	416.56
473.045	366.16
473.503	382.66
473.96	391.96
474.417	408.86
474.875	437.26
475.332	459.36
475.789	455.26
476.246	472.16
476.704	488.76
477.161	513.66
477.618	528.06
478.075	565.66
478.532	615.46
478.989	686.66
479.446	815.46
479.903	772.86
480.36	806.56
480.817	873.86
481.274	979.06
481.731	1079.16
482.188	1172.56
482.645	1305.66
483.102	1413.46
483.558	1544.06
484.015	1599.86
484.472	1579.56
484.929	1527.16
485.385	1487.76
485.842	1452.56
486.299	1364.26
486.755	1295.86
487.212	1099.66
487.668	931.36
488.125	851.36
488.582	787.06
489.038	746.56
489.494	708.36
489.951	692.16
490.407	666.46
490.864	644.26
491.32	639.56
491.776	641.86
492.233	654.76
492.689	619.46
493.145	602.86
493.602	598.46
494.058	615.06
494.514	614.36
494.97	628.36
495.426	648.96
495.882	623.86
496.338	626.06
496.794	631.46
497.251	623.06
497.707	643.56
498.163	645.46
498.618	647.56
499.074	651.56
499.53	680.06
499.986	683.06
500.442	644.96
500.898	632.46
501.354	623.76
501.809	635.26
502.265	639.96
502.721	665.06
503.177	671.86
503.632	662.76
504.088	680.26
504.543	717.46
504.999	708.76
505.455	651.16
505.91	636.86
506.366	631.76
506.821	635.86
507.277	628.96
507.732	623.76
508.187	624.66
508.643	627.16
509.098	624.56
509.553	655.36
510.009	670.56
510.464	669.96
510.919	697.36
511.375	707.86
511.83	708.46
512.285	723.26
512.74	764.26
513.195	786.56
513.65	780.16
514.105	774.96
514.56	772.66
515.015	800.86
515.47	809.66
515.925	795.06
516.38	794.26
516.835	792.16
517.29	787.16
517.745	778.56
518.2	765.86
518.655	753.56
519.109	750.46
519.564	752.56
520.019	732.56
520.474	730.66
520.928	726.16
521.383	725.36
521.838	718.06
522.292	715.76
522.747	713.66
523.201	705.36
523.656	679.66
524.11	696.76
524.565	690.86
525.019	689.76
525.474	702.76
525.928	702.16
526.382	694.76
526.837	696.46
527.291	697.06
527.745	702.36
528.2	694.36
528.654	695.26
529.108	691.36
529.562	696.66
530.016	688.96
530.47	689.66
530.925	681.76
531.379	692.16
531.833	702.66
532.287	702.86
532.741	710.76
533.195	694.26
533.649	709.06
534.103	719.76
534.556	714.66
535.01	717.76
535.464	708.26
535.918	726.26
536.372	717.06
536.826	715.96
537.279	711.06
537.733	712.36
538.187	708.96
538.64	720.06
539.094	721.16
539.548	732.86
540.001	722.96
540.455	723.26
540.908	726.26
541.362	733.06
541.815	742.46
542.269	755.46
542.722	761.86
543.175	767.56
543.629	766.86
544.082	775.56
544.536	790.76
544.989	780.66
545.442	783.36
545.895	775.66
546.349	782.06
546.802	791.96
547.255	782.76
547.708	800.56
548.161	818.46
548.614	805.96
549.067	818.06
549.52	818.16
549.973	802.06
550.426	804.86
550.879	794.56
551.332	789.16
551.785	797.16
552.238	808.16
552.691	814.06
553.144	821.26
553.596	844.66
554.049	854.26
554.502	899.26
554.955	918.16
555.407	911.26
555.86	903.16
556.313	893.26
556.765	874.26
557.218	884.46
557.67	888.26
558.123	875.16
558.576	866.76
559.028	873.06
559.48	883.26
559.933	867.76
560.385	827.86
560.838	800.86
561.29	769.16
561.742	769.36
562.195	744.96
562.647	750.56
563.099	774.16
563.551	761.96
564.004	777.26
564.456	772.46
564.908	743.56
565.36	743.36
565.812	728.86
566.264	720.76
566.716	712.76
567.168	701.36
567.62	719.26
568.072	695.66
568.524	686.36
568.976	677.86
569.428	664.06
569.88	666.86
570.332	671.86
570.784	676.06
571.235	680.46
571.687	676.66
572.139	690.56
572.59	708.96
573.042	706.76
573.494	708.86
573.945	699.76
574.397	677.86
574.849	690.26
575.3	689.36
575.752	677.66
576.203	674.16
576.655	674.06
577.106	662.06
577.557	659.46
578.009	661.76
578.46	657.46
578.912	659.66
579.363	654.76
579.814	658.16
580.265	658.86
580.717	657.56
581.168	665.06
581.619	661.56
582.07	675.96
582.521	667.66
582.972	657.86
583.423	670.16
583.875	667.46
584.326	696.36
584.777	724.96
585.227	808.66
585.678	877.56
586.129	975.26
586.58	1049.86
587.031	1138.66
587.482	1277.66
587.933	1466.76
588.384	1267.66
588.834	949.86
589.285	790.96
589.736	770.66
590.186	773.36
590.637	756.86
591.088	733.46
591.538	727.46
591.989	716.26
592.439	711.96
592.89	702.26
593.34	700.16
593.791	692.76
594.241	688.46
594.692	681.76
595.142	689.46
595.593	679.16
596.043	692.26
596.493	704.56
596.943	693.26
597.394	714.26
597.844	696.76
598.294	718.86
598.744	730.26
599.195	757.96
599.645	800.56
600.095	832.76
600.545	887.46
600.995	939.96
601.445	1003.36
601.895	1071.66
602.345	1099.46
602.795	1088.46
603.245	1040.36
603.695	992.26
604.145	929.26
604.594	889.16
605.044	837.06
605.494	770.96
605.944	728.16
606.393	717.36
606.843	710.46
607.293	722.76
607.743	704.56
608.192	719.96
608.642	747.46
609.091	737.86
609.541	743.76
609.99	740.06
610.44	739.16
610.889	705.16
611.339	679.66
611.788	669.96
612.238	671.66
612.687	695.56
613.136	702.86
613.586	713.06
614.035	712.96
614.484	742.26
614.933	730.96
615.383	726.06
615.832	725.16
616.281	701.86
616.73	654.76
617.179	642.66
617.628	644.26
618.077	615.26
618.526	608.76
618.975	594.86
619.424	596.36
619.873	597.56
620.322	595.36
620.771	583.56
621.22	583.36
621.669	579.06
622.118	571.36
622.567	564.16
623.015	546.66
623.464	559.56
623.913	545.16
624.361	538.76
624.81	538.86
625.259	539.56
625.707	542.86
626.156	536.36
626.604	548.36
627.053	535.26
627.501	541.26
627.95	542.36
628.398	562.66
628.847	550.16
629.295	556.26
629.744	561.66
630.192	548.56
630.64	537.76
631.089	545.96
631.537	561.46
631.985	573.26
632.433	582.16
632.881	582.26
633.33	632.26
633.778	617.86
634.226	545.96
634.674	551.86
635.122	558.76
635.57	579.26
636.018	609.36
636.466	557.76
636.914	535.46
637.362	551.66
637.81	558.46
638.258	544.66
638.705	549.26
639.153	587.66
639.601	590.86
640.049	622.56
640.497	648.46
640.944	664.96
641.392	625.66
641.84	589.26
642.287	557.96
642.735	551.16
643.182	540.26
643.63	541.26
644.078	546.96
644.525	566.66
644.973	574.56
645.42	580.06
645.867	602.16
646.315	602.76
646.762	635.66
647.21	673.16
647.657	696.26
648.104	717.26
648.551	736.66
648.999	810.96
649.446	868.56
649.893	949.56
650.34	1115.06
650.787	1335.26
651.234	1650.66
651.682	2138.16
652.129	2945.16
652.576	4214.96
653.023	6246.16
653.47	8587.06
653.917	10798.76
654.363	12529.56
654.81	13946.36
655.257	13221.46
655.704	8650.36
656.151	5083.76
656.598	3305.86
657.044	2335.66
657.491	1794.96
657.938	1439.46
658.385	1201.66
658.831	1046.96
659.278	926.26
659.724	828.36
660.171	754.26
660.618	688.06
661.064	648.66
661.511	637.26
661.957	632.06
662.404	617.96
662.85	633.16
663.296	593.26
663.743	536.66
664.189	506.86
664.635	511.26
665.082	501.56
665.528	512.96
665.974	494.36
666.42	495.16
666.867	489.36
667.313	469.16
667.759	462.26
668.205	461.46
668.651	463.76
669.097	455.36
669.543	473.76
669.989	450.76
670.435	430.96
670.881	425.76
671.327	424.66
671.773	448.26
672.219	462.46
672.665	520.46
673.11	551.56
673.556	594.16
674.002	634.06
674.448	614.26
674.893	520.76
675.339	453.76
675.785	426.76
676.23	398.46
676.676	375.96
677.122	362.96
677.567	363.46
678.013	347.86
678.458	336.56
678.904	340.46
679.349	328.36
679.794	329.26
680.24	329.76
680.685	327.16
681.131	326.76
681.576	331.16
682.021	331.96
682.466	330.46
682.912	320.26
683.357	328.46
683.802	359.36
684.247	388.16
684.692	424.76
685.137	462.26
685.583	506.76
686.028	535.46
686.473	493.36
686.918	421.56
687.363	396.86
687.807	375.86
688.252	344.86
688.697	331.76
689.142	315.16
689.587	315.96
690.032	308.26
690.477	317.46
690.921	329.46
691.366	364.66
691.811	382.36
692.255	396.86
692.7	430.36
693.145	472.06
693.589	641.06
694.034	1040.36
694.478	1426.26
694.923	1647.26
695.367	2160.76
695.812	1134.76
696.256	463.96
696.701	356.66
697.145	322.76
697.59	315.16
698.034	302.56
698.478	303.96
698.922	305.56
699.367	307.96
699.811	318.76
700.255	331.66
700.699	366.46
701.143	398.06
701.588	459.46
702.032	487.76
702.476	479.16
702.92	451.36
703.364	461.06
703.808	593.66
704.252	955.86
704.696	1357.16
705.14	1592.86
705.584	2036.46
706.027	1003.56
706.471	491.36
706.915	373.26
707.359	333.56
707.803	306.96
708.246	290.16
708.69	290.76
709.134	292.26
709.577	300.26
710.021	301.56
710.465	285.46
710.908	277.36
711.352	282.66
711.795	290.46
712.239	330.76
712.682	362.56
713.126	387.46
713.569	438.76
714.012	355.36
714.456	309.26
714.899	282.66
715.342	257.46
715.786	250.86
716.229	246.86
716.672	241.16
717.115	236.76
717.558	229.56
718.002	231.76
718.445	245.66
718.888	271.56
719.331	280.76
719.774	292.86
720.217	276.86
720.66	270.26
721.103	247.26
721.546	242.66
721.989	233.56
722.432	221.56
722.874	229.76
723.317	211.66
723.76	223.66
724.203	248.76
724.645	294.16
725.088	409.16
725.531	537.36
725.974	613.86
726.416	518.66
726.859	294.16
727.301	226.06
727.744	223.66
728.187	219.56
728.629	220.76
729.071	228.86
729.514	249.16
729.956	253.26
730.399	270.76
730.841	266.66
731.283	255.36
731.726	245.16
732.168	244.56
732.61	252.76
733.053	271.56
733.495	292.36
733.937	329.26
734.379	381.26
734.821	410.56
735.263	498.66
735.705	757.66
736.148	1454.56
736.59	2410.66
737.032	2902.56
737.474	2371.16
737.916	755.36
738.357	400.66
738.799	308.76
739.241	280.76
739.683	266.46
740.125	266.66
740.567	283.66
741.008	295.36
741.45	297.76
741.892	296.96
742.334	327.86
742.775	335.86
743.217	323.76
743.658	253.76
744.1	239.66
744.542	246.16
744.983	281.66
745.425	326.36
745.866	324.36
746.307	265.16
746.749	263.56
747.19	298.16
747.632	421.76
748.073	792.56
748.514	1709.16
748.956	2675.96
749.397	3356.56
749.838	2772.66
750.279	2819.36
750.72	1423.16
751.162	513.16
751.603	297.86
752.044	227.56
752.485	208.56
752.926	194.16
753.367	185.86
753.808	183.26
754.249	176.96
754.69	172.36
755.131	172.26
755.572	175.16
756.013	169.86
756.453	176.56
756.894	178.36
757.335	174.96
757.776	187.86
758.216	182.86
758.657	177.46
759.098	193.96
759.538	210.66
759.979	251.46
760.42	344.16
760.86	651.56
761.301	1653.46
761.741	4088.36
762.182	6117.96
762.622	4328.26
763.063	1241.06
763.503	500.66
763.943	323.56
764.384	312.36
764.824	381.56
765.264	412.66
765.705	284.26
766.145	194.06
766.585	170.06
767.025	174.96
767.465	167.66
767.906	226.46
768.346	300.66
768.786	311.96
769.226	247.96
769.666	289.96
770.106	555.86
770.546	1430.06
770.986	2482.26
771.426	2257.46
771.866	749.06
772.306	306.66
772.745	192.36
773.185	158.66
773.625	156.36
774.065	155.86
774.505	180.66
774.944	279.76
775.384	613.26
775.824	1138.16
776.263	1115.36
776.703	481.06
777.142	204.96
777.582	151.66
778.021	132.76
778.461	134.06
778.9	133.16
779.34	124.26
779.779	111.46
780.219	100.26
780.658	101.06
781.097	105.66
781.537	109.66
781.976	104.76
782.415	104.26
782.855	97.26
783.294	94.66
783.733	99.46
784.172	101.06
784.611	96.86
785.05	101.76
785.489	101.06
785.928	114.06
786.367	113.66
786.806	107.66
787.245	122.76
787.684	128.96
788.123	139.96
788.562	126.36
789.001	113.86
789.44	111.86
789.879	112.66
790.317	109.26
790.756	123.16
791.195	114.16
791.634	132.56
792.072	191.86
792.511	329.56
792.95	917.46
793.388	1996.06
793.827	1852.56
794.265	644.06
794.704	259.96
795.142	166.96
795.581	144.66
796.019	127.16
796.458	120.26
796.896	115.16
797.334	124.66
797.773	143.46
798.211	197.56
798.649	402.16
799.087	940.16
799.526	1485.06
799.964	1871.16
800.402	1898.76
800.84	713.96
801.278	279.96
801.716	179.16
802.154	143.66
802.592	130.66
803.03	128.46
803.468	133.56
803.906	131.46
804.344	144.36
804.782	128.86
805.22	119.46
805.658	118.66
806.096	129.36
806.533	140.56
806.971	164.66
807.409	197.96
807.847	281.66
808.284	599.56
808.722	1705.76
809.16	3087.16
809.597	2891.76
810.035	5058.26
810.472	5542.86
810.91	1976.46
811.347	745.06
811.785	379.76
812.222	240.26
812.66	179.06
813.097	157.36
813.535	137.36
813.972	126.56
814.409	114.26
814.846	104.16
815.284	105.06
815.721	90.26
816.158	99.16
816.595	104.06
817.032	165.76
817.47	184.86
817.907	165.86
818.344	142.56
818.781	112.86
819.218	94.76
819.655	113.16
820.092	179.96
820.529	198.46
820.966	163.56
821.403	126.16
821.839	108.06
822.276	98.86
822.713	117.46
823.15	128.66
823.587	105.06
824.023	128.96
824.46	267.76
824.897	816.36
825.333	1282.76
825.77	539.86
826.206	214.26
826.643	125.46
827.08	96.86
827.516	77.86
827.953	72.26
828.389	72.16
828.825	69.76
829.262	58.66
829.698	58.46
830.135	60.16
830.571	50.46
831.007	62.06
831.443	58.96
831.88	56.66
832.316	56.16
832.752	58.96
833.188	55.06
833.624	57.26
834.06	66.96
834.497	68.46
834.933	66.56
835.369	67.96
835.805	67.76
836.241	67.06
836.677	76.26
837.112	82.86
837.548	94.26
837.984	125.66
838.42	188.36
838.856	439.66
839.292	1378.96
839.727	2170.36
840.163	1006.56
840.599	848.06
841.034	1883.36
841.47	2013.86
841.906	738.46
842.341	311.36
842.777	210.86
843.212	291.66
843.648	285.16
844.083	141.26
844.519	95.76
844.954	76.26
845.39	55.16
845.825	53.66
846.261	54.26
846.696	54.26
847.131	45.06
847.566	53.76
848.002	52.46
848.437	53.76
848.872	61.16
849.307	60.26
849.742	74.16
850.177	162.76
850.613	505.96
851.048	828.26
851.483	359.36
851.918	141.76
852.353	84.66
852.788	59.86
853.223	54.76
853.657	48.46
854.092	40.56
854.527	40.06
854.962	37.56
855.397	41.36
855.832	44.06
856.266	36.96
856.701	36.86
857.136	36.66
857.57	39.86
858.005	42.96
858.44	61.56
858.874	43.66
859.309	50.16
859.743	41.46
860.178	47.66
860.612	40.36
861.047	48.16
861.481	66.76
861.915	64.66
862.35	49.66
862.784	32.36
863.218	38.06
863.653	33.66
864.087	38.66
864.521	51.86
864.955	62.56
865.39	141.26
865.824	162.16
866.258	105.26
866.692	155.16
867.126	169.26
867.56	102.66
867.994	53.06
868.428	35.06
868.862	49.76
869.296	53.36
869.73	57.06
870.164	47.26
870.598	46.36
871.031	34.76
871.465	26.16
871.899	29.46
872.333	17.36
872.766	29.76
873.2	20.56
873.634	31.06
874.067	28.66
874.501	24.36
874.935	29.76
875.368	27.06
875.802	24.96
876.235	20.36
876.669	24.66
877.102	16.66
877.535	25.06
877.969	22.06
878.402	21.46
878.836	12.16
879.269	22.36
879.702	24.96
880.135	20.56
880.569	23.66
881.002	25.56
881.435	20.56
881.868	16.66
882.301	20.86
882.734	14.96
883.167	24.46
883.601	18.66
884.034	19.66
884.467	16.26
884.899	17.86
885.332	20.46
885.765	16.86
886.198	23.86
886.631	13.16
887.064	19.46
887.497	13.86
887.929	22.36
888.362	16.96
888.795	9.86
889.228	17.06
889.66	17.86
890.093	15.46
890.526	10.96
890.958	19.26
891.391	16.96
891.823	17.86
892.256	16.86
892.688	14.16
893.121	16.56
893.553	9.56
893.985	25.86
894.418	17.16
894.85	9.76
895.282	13.86
895.715	17.06
896.147	11.66
896.579	9.26
897.011	17.06
897.444	20.16
897.876	13.76
898.308	16.26
898.74	9.26
899.172	9.26
899.604	24.66
900.036	17.76
900.468	16.56
900.9	10.86
901.332	12.66
901.764	10.86
902.196	17.86
902.628	12.46
903.06	19.16
903.491	26.76
903.923	20.76
904.355	20.06
904.787	23.56
905.218	20.26
905.65	19.26
906.082	6.36
906.513	13.86
906.945	16.36
907.376	9.46
907.808	24.86
908.239	14.96
908.671	18.66
909.102	21.66
909.534	28.26
909.965	41.16
910.397	90.56
910.828	291.56
911.259	453.56
911.691	203.06
912.122	98.26
912.553	47.16
912.984	27.86
913.415	24.76
913.847	26.26
914.278	17.36
914.709	11.96
915.14	15.96
915.571	18.16
916.002	15.46
916.433	21.06
916.864	14.16
917.295	7.86
917.726	18.26
918.157	12.16
918.587	29.06
919.018	18.66
919.449	23.36
919.88	19.66
920.311	31.96
920.741	39.36
921.172	150.76
921.603	137.96
922.033	66.66
922.464	45.46
922.895	23.46
923.325	14.96
923.756	8.46
924.186	15.06
924.617	21.66
925.047	42.46
925.478	53.36
925.908	43.26
926.338	22.16
926.769	17.16
927.199	22.76
927.629	10.46
928.06	14.96
928.49	13.86
928.92	13.36
929.35	12.06
929.78	13.26
930.21	3.96
930.641	15.66
931.071	9.56
931.501	2.36
931.931	10.66
932.361	8.46
932.791	3.26
933.221	2.76
933.651	4.96
934.08	12.06
934.51	27.06
934.94	6.16
935.37	8.16
935.8	7.46
936.229	10.46
936.659	12.26
937.089	0.76
937.519	8.56
937.948	20.56
938.378	11.76
938.807	3.16
939.237	9.26
939.666	11.36
940.096	0.16
940.525	4.96
940.955	0.26
941.384	2.46
941.814	-5.44
942.243	0.16
942.672	9.56
943.102	-5.54
943.531	-3.24
943.96	2.96
944.39	6.06
944.819	1.16
945.248	3.46
945.677	-4.24
946.106	8.16
946.535	11.76
946.964	1.16
947.393	3.96
947.822	-4.34
948.251	0.66
948.68	4.26
949.109	6.76
949.538	9.76
949.967	0.66
950.396	-2.04
950.825	-0.54
951.254	-0.24
951.682	-0.64
952.111	2.16
952.54	3.86
952.969	-3.94
953.397	-6.54
953.826	-5.24
954.254	-0.84
954.683	0.46
955.112	0.56
955.54	1.86
955.969	1.36
956.397	0.66
956.826	-7.04
957.254	4.16
957.682	-2.14
958.111	4.06
958.539	0.06
958.967	6.46
959.396	-6.14
959.824	-1.34
960.252	4.46
960.68	-5.94
961.109	-3.84
961.537	-5.74
961.965	-2.34
962.393	7.16
962.821	-8.24
963.249	-6.04
963.677	-1.14
964.105	4.36
964.533	48.26
964.961	35.56
965.389	19.56
965.817	1.36
966.245	-1.24
966.672	1.96
967.1	-5.94
967.528	-2.04
967.956	1.06
968.383	0.36
968.811	-7.64
969.239	1.96
969.666	-10.24
970.094	-4.24
970.522	6.06
970.949	2.76
971.377	-4.74
971.804	-0.94
972.232	0.96
972.659	-7.24
973.087	-5.94
973.514	-12.64
973.941	-1.54
974.369	7.86
974.796	-1.14
975.223	0.96
975.651	-3.74
976.078	0.46
976.505	2.96
976.932	4.16
977.359	12.76
977.786	10.36
978.214	-3.64
978.641	-4.44
979.068	-3.24
979.495	-8.04
979.922	-4.84
980.349	-9.54
980.776	4.16
981.202	1.26
981.629	1.36
982.056	4.56
982.483	-3.94
982.91	4.26
983.337	-5.24
983.763	0.36
984.19	-9.84
984.617	-4.74
985.043	-4.84
985.47	0.96
985.897	-3.04
986.323	-9.64
986.75	6.06
987.176	2.46
987.603	-1.74
988.029	-1.24
988.456	-0.04
988.882	2.46
989.308	-1.84
989.735	-3.64
990.161	-0.54
990.587	-5.74
991.014	5.16
991.44	5.56
991.866	-0.34
992.292	-9.54
992.719	-5.74
993.145	1.46
993.571	-13.24
993.997	-3.64
994.423	1.06
994.849	-6.84
995.275	0.16
995.701	-2.54
996.127	-2.84
996.553	-1.84
996.979	-7.14
997.405	-0.84
997.83	-3.64
998.256	-8.24
998.682	-7.74
999.108	-8.94
999.534	0.66
999.959	4.66
1000.385	-2.64
1000.811	1.66
1001.236	-9.54
1001.662	-7.84
1002.087	-7.34
1002.513	-2.84
1002.938	8.66
1003.364	1.36
1003.789	1.26
1004.215	-3.84
1004.64	1.16
1005.066	3.46
1005.491	-1.64
1005.916	-4.84
1006.342	-3.94
1006.767	-12.34
1007.192	0.56
1007.617	-8.84
1008.042	-7.04
1008.468	-5.74
1008.893	-5.94
1009.318	-1.84
1009.743	-5.04
1010.168	-2.24
1010.593	0.26
1011.018	-12.14
1011.443	-4.44
1011.868	-6.34
1012.293	0.46
1012.718	-6.94
1013.143	6.56
1013.567	-0.94
1013.992	-0.64
1014.417	-4.54
1014.842	3.26
1015.267	-1.54
1015.691	-0.44
1016.116	2.46
1016.541	3.16
1016.965	8.06
1017.39	-0.14
1017.814	-3.24
1018.239	-6.24
1018.663	-11.74
1019.088	-13.14
1019.512	-6.24
1019.937	-4.04
1020.361	-3.94
1020.785	-12.94
1021.21	-4.24
1021.634	-5.54
1022.058	-0.24
1022.483	2.96
1022.907	-3.54
1023.331	-7.84
1023.755	-6.44
1024.179	-5.94
1024.604	-9.44
1025.028	-9.74
1025.452	1.06
1025.876	-5.74
1026.3	0.06
1026.724	-13.34
1027.148	-6.64
1027.572	-9.64
1027.996	-3.74
1028.42	-4.84
1028.843	-8.14
1029.267	0.56
1029.691	1.16
1030.115	-9.84
1030.539	-8.24
1030.962	-3.74
1031.386	-11.14
1031.81	0.16
1032.233	-2.64
1032.657	-2.74
1033.08	-3.34
1033.504	-3.24
1033.927	-3.44
1034.351	5.66
1034.774	-9.54
1035.198	3.26
1035.621	-8.64
1036.045	-8.04
1036.468	-1.84
1036.891	-11.74
1037.315	-9.84
1037.738	-10.84
1038.161	-0.54
1038.584	-6.44
1039.008	-4.64
1039.431	-7.54
1039.854	-7.64
1040.277	-10.04
1040.7	-11.84
1041.123	1.16
1041.546	-3.04
1041.969	-2.64
1042.392	-5.44
1042.815	1.26
1043.238	3.16
1043.661	-0.14
1044.084	-4.94
1044.507	2.16
1044.93	-10.64
1045.352	-5.94
1045.775	-3.54
1046.198	-0.74
1046.621	-3.84
1047.043	-1.04
1047.466	7.36
1047.889	-1.84
1048.311	-6.34
1048.734	-8.04
1049.156	-3.24
1049.579	0.46
1050.001	-2.44
1050.424	2.36
1050.846	-10.44
1051.269	-2.54
1051.691	-9.14
1052.113	-1.44
1052.536	-4.14
1052.958	-3.24
1053.38	-5.84
1053.802	-9.64
1054.225	3.36
1054.647	-13.14
1055.069	-8.94
1055.491	-0.04
1055.913	-7.14
1056.335	-5.74
1056.757	-6.34
1057.179	-10.44
1057.601	-6.64
1058.023	-2.84
1058.445	-4.34
1058.867	-1.24
1059.289	-3.74
1059.711	-7.34
1060.133	-1.64
1060.555	-8.24
1060.976	-3.94
1061.398	-4.24
1061.82	-7.14
1062.241	-5.14
1062.663	-6.34
1063.085	-5.54
1063.506	1.16
1063.928	-4.54
1064.35	-1.54
1064.771	-13.94
1065.193	3.76
1065.614	-14.04
1066.035	-3.74
1066.457	-4.64
1066.878	-4.34
1067.3	-3.44
1067.721	-5.94
1068.142	-8.74
1068.564	-3.44
1068.985	-5.14
1069.406	-3.64
1069.827	-1.04
1070.248	4.46
1070.67	-3.74
1071.091	-1.04
1071.512	-1.54
1071.933	-4.34
1072.354	-2.34
1072.775	-7.24
1073.196	-4.24
1073.617	-7.64
1074.038	-6.84
1074.459	-6.64
1074.88	-8.04
1075.3	-2.44
1075.721	-1.74
1076.142	-3.94
1076.563	-5.14
1076.983	-16.04
1077.404	-6.14
1077.825	-13.64
1078.246	-3.44
1078.666	-7.24
1079.087	-0.54
1079.507	-4.24
1079.928	-1.54
1080.348	1.96
1080.769	-3.44
1081.189	-4.34
1081.61	-0.64
1082.03	-6.34
1082.451	-6.84
1082.871	-6.94
1083.291	-9.74
1083.711	-12.44
1084.132	-7.04
1084.552	-3.84
1084.972	0.86
1085.392	-6.84
1085.813	-12.04
1086.233	-10.64
1086.653	-4.94
1087.073	-6.24
1087.493	-13.44
1087.913	-6.54
1088.333	-5.84
1088.753	0.66
1089.173	1.76
1089.593	-5.44
1090.013	-5.84
1090.433	4.16
1090.852	-2.84
1091.272	-2.94
1091.692	-3.84
1092.112	-4.54
1092.531	-8.34
1092.951	-18.94
1093.371	-6.64
1093.79	0.16
1094.21	-6.84
1094.63	-2.74
1095.049	-2.84
1095.469	-9.24
1095.888	-5.24
1096.308	2.86
1096.727	-1.24
1097.146	-5.54
1097.566	1.36
1097.985	-8.84
1098.405	5.36
1098.824	-10.04
1099.243	-7.54
1099.662	-8.34
1100.082	-3.34
1100.501	-3.74
1100.92	-8.14
1101.339	-4.44
1101.758	-5.64
