Data from 20171114-ORNL-Ar_H_NY_Subt18_08-05-19-314.txt Node
Date: Tue Nov 14 08:05:19 EST 2017
User: Ender
Spectrometer: HR+D1039
Trigger mode: 0
Integration Time (sec): 2.730000E-2
Scans to average: 10
Electric dark correction enabled: true
Nonlinearity correction enabled: false
Boxcar width: 0
XAxis mode: Wavelengths
Number of Pixels in Spectrum: 2048
>>>>>Begin Spectral Data<<<<<
187.836	-0.09
188.309	-0.09
188.782	-0.09
189.255	0.41
189.728	-2.99
190.201	2.21
190.674	2.71
191.147	5.51
191.619	-7.59
192.092	0.91
192.565	2.71
193.038	-1.49
193.511	1.91
193.984	1.81
194.456	-0.59
194.929	-1.99
195.402	-1.39
195.874	-2.09
196.347	-1.49
196.82	-8.19
197.292	3.71
197.765	3.61
198.237	-4.39
198.71	4.11
199.182	-5.89
199.655	3.61
200.127	6.81
200.6	-0.49
201.072	4.11
201.544	-2.99
202.017	-4.29
202.489	4.11
202.961	3.11
203.433	-7.19
203.906	-7.09
204.378	-7.69
204.85	-8.39
205.322	-11.99
205.794	-3.09
206.266	-4.69
206.739	-12.99
207.211	7.41
207.683	-7.39
208.155	0.11
208.627	-6.19
209.099	0.31
209.57	-3.59
210.042	-6.29
210.514	-2.59
210.986	-1.59
211.458	-12.89
211.93	-0.99
212.402	-0.49
212.873	-8.99
213.345	-8.89
213.817	-7.19
214.288	-3.79
214.76	-10.09
215.232	-0.89
215.703	-2.69
216.175	-3.69
216.646	-2.49
217.118	-3.39
217.589	6.11
218.061	-2.69
218.532	-5.89
219.004	-4.79
219.475	-6.09
219.946	-1.69
220.418	-4.89
220.889	7.11
221.36	0.11
221.832	-4.69
222.303	-7.49
222.774	-0.69
223.245	-9.19
223.717	-1.89
224.188	-7.09
224.659	-8.79
225.13	-10.19
225.601	-5.09
226.072	-0.39
226.543	3.51
227.014	-1.49
227.485	-4.59
227.956	-1.69
228.427	-6.09
228.898	1.21
229.369	3.01
229.839	-6.99
230.31	-3.59
230.781	5.51
231.252	-0.69
231.722	-7.09
232.193	2.41
232.664	1.21
233.135	3.11
233.605	1.01
234.076	-3.29
234.546	5.11
235.017	3.21
235.487	-0.39
235.958	-1.69
236.428	-2.99
236.899	5.11
237.369	6.21
237.84	-2.89
238.31	8.71
238.78	1.51
239.251	0.11
239.721	2.31
240.191	6.41
240.662	1.21
241.132	4.91
241.602	1.21
242.072	2.41
242.542	11.71
243.013	2.11
243.483	6.41
243.953	3.01
244.423	0.21
244.893	-1.39
245.363	8.51
245.833	1.61
246.303	8.01
246.773	11.31
247.243	3.91
247.712	4.41
248.182	8.11
248.652	8.21
249.122	4.71
249.592	16.81
250.061	22.31
250.531	34.11
251.001	20.01
251.471	24.11
251.94	17.91
252.41	7.81
252.879	2.81
253.349	18.31
253.818	9.91
254.288	7.61
254.757	7.81
255.227	5.61
255.696	4.81
256.166	3.11
256.635	8.71
257.105	12.11
257.574	7.61
258.043	9.01
258.513	17.51
258.982	24.71
259.451	16.81
259.92	16.31
260.389	12.71
260.859	22.01
261.328	15.81
261.797	21.31
262.266	14.01
262.735	15.11
263.204	7.51
263.673	4.51
264.142	7.11
264.611	-4.59
265.08	4.21
265.549	-1.99
266.018	5.31
266.487	1.81
266.955	-1.39
267.424	2.71
267.893	10.81
268.362	6.71
268.83	5.21
269.299	16.51
269.768	9.61
270.236	14.01
270.705	6.91
271.174	11.81
271.642	12.81
272.111	14.11
272.579	16.51
273.048	25.61
273.516	34.91
273.985	29.91
274.453	31.51
274.922	20.41
275.39	14.61
275.858	6.11
276.327	13.21
276.795	18.81
277.263	10.51
277.731	32.21
278.2	62.81
278.668	62.31
279.136	55.21
279.604	24.31
280.072	20.41
280.54	12.61
281.008	11.71
281.477	9.31
281.945	13.71
282.413	20.21
282.881	18.51
283.348	11.91
283.816	15.41
284.284	20.61
284.752	22.11
285.22	15.31
285.688	19.91
286.156	27.11
286.623	46.21
287.091	56.91
287.559	33.11
288.026	22.81
288.494	19.11
288.962	7.51
289.429	15.51
289.897	23.41
290.364	14.01
290.832	14.41
291.3	16.91
291.767	20.21
292.234	24.61
292.702	20.21
293.169	19.01
293.637	15.21
294.104	21.31
294.571	14.31
295.039	16.81
295.506	15.61
295.973	22.91
296.44	17.11
296.908	22.21
297.375	22.21
297.842	20.61
298.309	19.21
298.776	19.01
299.243	22.91
299.71	23.11
300.177	18.11
300.644	24.61
301.111	21.71
301.578	26.71
302.045	15.51
302.512	25.81
302.979	30.11
303.446	26.31
303.913	20.41
304.379	19.81
304.846	28.71
305.313	26.41
305.78	28.01
306.246	26.71
306.713	33.21
307.18	32.61
307.646	31.01
308.113	31.61
308.579	22.01
309.046	26.81
309.512	32.41
309.979	22.41
310.445	31.41
310.912	31.31
311.378	33.41
311.845	32.91
312.311	31.11
312.777	31.91
313.244	33.51
313.71	39.41
314.176	33.41
314.642	31.31
315.109	36.31
315.575	38.51
316.041	37.91
316.507	36.41
316.973	44.81
317.439	38.21
317.905	41.81
318.371	41.81
318.837	37.51
319.303	37.51
319.769	40.51
320.235	38.21
320.701	39.51
321.167	35.41
321.633	34.71
322.099	36.51
322.564	46.91
323.03	46.91
323.496	47.11
323.962	46.11
324.427	39.01
324.893	48.61
325.359	41.61
325.824	43.21
326.29	38.41
326.755	41.91
327.221	40.61
327.686	40.61
328.152	52.41
328.617	41.81
329.083	54.61
329.548	57.31
330.014	51.61
330.479	44.51
330.944	44.51
331.41	45.51
331.875	49.51
332.34	44.61
332.805	49.91
333.271	54.11
333.736	50.31
334.201	53.31
334.666	57.01
335.131	58.91
335.596	55.61
336.061	55.51
336.526	48.01
336.991	51.51
337.456	56.31
337.921	57.81
338.386	43.31
338.851	48.81
339.316	51.41
339.781	55.91
340.246	53.31
340.711	51.01
341.175	50.11
341.64	50.41
342.105	56.61
342.569	52.71
343.034	64.71
343.499	60.11
343.963	52.71
344.428	59.71
344.893	61.21
345.357	70.61
345.822	62.51
346.286	72.71
346.751	70.71
347.215	71.21
347.679	81.61
348.144	99.71
348.608	91.41
349.073	66.51
349.537	72.71
350.001	74.91
350.465	94.21
350.93	87.71
351.394	79.41
351.858	82.21
352.322	92.01
352.786	86.81
353.25	105.31
353.715	105.51
354.179	100.11
354.643	131.31
355.107	130.81
355.571	116.31
356.035	107.31
356.498	118.51
356.962	123.61
357.426	135.81
357.89	117.91
358.354	89.61
358.818	84.91
359.281	79.31
359.745	72.91
360.209	81.21
360.673	77.11
361.136	80.41
361.6	89.81
362.064	88.61
362.527	84.91
362.991	92.51
363.454	84.81
363.918	76.71
364.381	86.11
364.845	83.11
365.308	90.51
365.772	88.01
366.235	82.91
366.698	83.41
367.162	85.61
367.625	89.21
368.088	88.41
368.552	89.71
369.015	82.51
369.478	98.51
369.941	109.91
370.404	101.21
370.867	112.31
371.331	106.31
371.794	115.11
372.257	121.61
372.72	127.71
373.183	112.91
373.646	109.51
374.109	108.81
374.572	111.11
375.035	110.01
375.497	112.41
375.96	106.81
376.423	103.41
376.886	108.81
377.349	119.01
377.811	108.41
378.274	102.61
378.737	109.61
379.199	117.11
379.662	116.71
380.125	122.71
380.587	124.31
381.05	124.91
381.512	134.61
381.975	134.21
382.437	133.31
382.9	128.91
383.362	138.21
383.825	144.21
384.287	145.21
384.75	146.81
385.212	144.41
385.674	139.71
386.136	131.21
386.599	129.41
387.061	131.01
387.523	131.01
387.985	141.21
388.447	146.81
388.91	143.41
389.372	167.11
389.834	160.01
390.296	148.21
390.758	165.31
391.22	168.51
391.682	210.91
392.144	308.51
392.606	235.41
393.068	172.41
393.529	172.91
393.991	150.61
394.453	151.91
394.915	155.81
395.377	188.71
395.838	219.71
396.3	163.31
396.762	139.01
397.224	133.91
397.685	128.61
398.147	133.11
398.608	134.71
399.07	132.41
399.531	137.61
399.993	143.91
400.454	153.91
400.916	141.11
401.377	143.71
401.839	154.51
402.3	161.41
402.762	171.51
403.223	177.91
403.684	177.71
404.145	163.81
404.607	161.41
405.068	164.81
405.529	171.21
405.99	181.61
406.451	179.61
406.913	170.41
407.374	161.91
407.835	158.01
408.296	160.81
408.757	170.31
409.218	185.91
409.679	181.81
410.14	182.71
410.601	188.31
411.062	187.81
411.522	194.71
411.983	195.91
412.444	173.91
412.905	178.01
413.366	180.71
413.826	194.71
414.287	224.11
414.748	259.41
415.208	242.51
415.669	215.41
416.13	208.21
416.59	204.01
417.051	215.41
417.511	227.01
417.972	249.01
418.432	249.21
418.893	289.61
419.353	248.81
419.814	193.51
420.274	183.11
420.734	179.61
421.195	195.91
421.655	197.21
422.115	197.81
422.576	191.91
423.036	197.01
423.496	209.51
423.956	217.71
424.416	232.31
424.876	267.61
425.336	260.41
425.797	257.01
426.257	256.81
426.717	244.31
427.177	234.21
427.637	226.11
428.097	238.41
428.556	250.91
429.016	279.81
429.476	272.11
429.936	282.81
430.396	279.51
430.856	293.31
431.315	322.01
431.775	351.61
432.235	382.81
432.694	350.91
433.154	359.91
433.614	390.71
434.073	332.11
434.533	283.31
434.993	279.71
435.452	289.91
435.912	293.71
436.371	295.41
436.83	282.41
437.29	272.81
437.749	249.81
438.209	252.51
438.668	269.01
439.127	288.21
439.587	270.21
440.046	252.11
440.505	266.61
440.964	281.61
441.424	328.11
441.883	320.61
442.342	256.11
442.801	233.51
443.26	225.41
443.719	225.31
444.178	223.11
444.637	207.81
445.096	217.21
445.555	226.91
446.014	229.51
446.473	228.71
446.932	228.51
447.391	228.61
447.849	226.01
448.308	218.51
448.767	227.91
449.226	241.21
449.685	240.91
450.143	248.61
450.602	237.21
451.061	219.41
451.519	237.91
451.978	236.81
452.436	237.91
452.895	238.81
453.353	254.51
453.812	242.21
454.27	242.11
454.729	243.11
455.187	249.61
455.646	249.71
456.104	253.31
456.562	266.11
457.021	270.61
457.479	257.91
457.937	272.51
458.395	259.71
458.854	240.31
459.312	261.71
459.77	280.81
460.228	261.41
460.686	244.61
461.144	247.71
461.602	245.61
462.06	248.51
462.518	252.41
462.976	255.71
463.434	265.51
463.892	272.61
464.35	281.71
464.808	290.31
465.266	275.91
465.724	270.71
466.181	276.01
466.639	270.01
467.097	287.31
467.555	300.21
468.012	305.91
468.47	307.91
468.928	336.31
469.385	342.21
469.843	347.31
470.3	350.11
470.758	358.31
471.215	386.01
471.673	412.01
472.13	398.71
472.588	419.41
473.045	373.91
473.503	383.31
473.96	394.01
474.417	409.21
474.875	424.51
475.332	471.81
475.789	463.21
476.246	470.71
476.704	486.61
477.161	514.21
477.618	520.31
478.075	565.61
478.532	617.81
478.989	694.81
479.446	810.01
479.903	772.01
480.36	813.11
480.817	872.71
481.274	976.31
481.731	1082.61
482.188	1184.91
482.645	1319.01
483.102	1426.91
483.558	1572.21
484.015	1623.21
484.472	1590.21
484.929	1533.71
485.385	1499.81
485.842	1453.01
486.299	1393.61
486.755	1310.01
487.212	1101.91
487.668	926.21
488.125	866.91
488.582	786.21
489.038	748.81
489.494	719.21
489.951	688.31
490.407	679.51
490.864	651.91
491.32	657.11
491.776	646.41
492.233	643.71
492.689	609.01
493.145	602.41
493.602	596.91
494.058	626.51
494.514	623.91
494.97	643.01
495.426	642.31
495.882	629.41
496.338	618.41
496.794	631.51
497.251	620.71
497.707	644.61
498.163	641.61
498.618	657.61
499.074	652.21
499.53	683.11
499.986	675.61
500.442	648.01
500.898	642.41
501.354	636.41
501.809	638.91
502.265	648.41
502.721	659.31
503.177	675.41
503.632	672.01
504.088	678.51
504.543	716.31
504.999	703.41
505.455	659.21
505.91	639.51
506.366	630.41
506.821	632.21
507.277	624.41
507.732	623.31
508.187	625.41
508.643	641.51
509.098	641.91
509.553	651.01
510.009	660.51
510.464	677.51
510.919	690.31
511.375	688.11
511.83	697.61
512.285	725.31
512.74	766.41
513.195	785.41
513.65	776.41
514.105	770.11
514.56	775.11
515.015	796.11
515.47	809.91
515.925	805.81
516.38	792.01
516.835	794.91
517.29	785.91
517.745	767.41
518.2	754.91
518.655	765.91
519.109	744.81
519.564	741.21
520.019	735.41
520.474	728.31
520.928	724.91
521.383	720.61
521.838	715.51
522.292	709.01
522.747	711.51
523.201	700.41
523.656	695.71
524.11	689.81
524.565	690.51
525.019	688.51
525.474	691.71
525.928	700.11
526.382	695.31
526.837	692.11
527.291	697.51
527.745	700.21
528.2	709.71
528.654	683.41
529.108	691.11
529.562	691.51
530.016	686.61
530.47	686.01
530.925	690.41
531.379	704.71
531.833	711.41
532.287	695.71
532.741	712.01
533.195	710.81
533.649	709.91
534.103	719.61
534.556	707.31
535.01	712.61
535.464	704.31
535.918	727.11
536.372	721.31
536.826	712.11
537.279	706.61
537.733	711.21
538.187	723.11
538.64	713.91
539.094	714.71
539.548	719.31
540.001	726.01
540.455	715.51
540.908	715.61
541.362	730.31
541.815	736.81
542.269	751.51
542.722	749.51
543.175	763.91
543.629	778.01
544.082	777.51
544.536	776.21
544.989	766.81
545.442	788.71
545.895	790.31
546.349	781.61
546.802	787.31
547.255	792.71
547.708	798.41
548.161	806.51
548.614	816.21
549.067	821.81
549.52	821.41
549.973	808.71
550.426	807.91
550.879	794.71
551.332	792.91
551.785	810.11
552.238	806.81
552.691	813.01
553.144	827.41
553.596	837.31
554.049	852.91
554.502	879.91
554.955	906.81
555.407	904.31
555.86	888.51
556.313	882.81
556.765	864.51
557.218	874.61
557.67	877.91
558.123	861.11
558.576	867.61
559.028	870.41
559.48	869.71
559.933	856.41
560.385	829.11
560.838	810.81
561.29	774.01
561.742	772.01
562.195	751.81
562.647	749.11
563.099	759.81
563.551	766.01
564.004	775.61
564.456	765.11
564.908	758.41
565.36	745.61
565.812	730.21
566.264	724.31
566.716	710.31
567.168	705.31
567.62	711.81
568.072	689.11
568.524	686.61
568.976	680.81
569.428	671.01
569.88	674.41
570.332	668.71
570.784	668.71
571.235	669.21
571.687	681.91
572.139	693.61
572.59	699.51
573.042	694.61
573.494	696.91
573.945	699.31
574.397	675.91
574.849	679.61
575.3	683.51
575.752	658.31
576.203	660.31
576.655	672.21
577.106	653.91
577.557	653.51
578.009	660.21
578.46	654.41
578.912	656.01
579.363	648.81
579.814	662.31
580.265	643.61
580.717	650.01
581.168	652.01
581.619	666.31
582.07	672.61
582.521	667.51
582.972	656.11
583.423	663.21
583.875	669.81
584.326	689.51
584.777	732.11
585.227	814.41
585.678	901.51
586.129	990.11
586.58	1072.31
587.031	1151.41
587.482	1324.51
587.933	1503.21
588.384	1302.01
588.834	961.61
589.285	784.01
589.736	757.71
590.186	748.31
590.637	751.91
591.088	724.01
591.538	716.31
591.989	707.81
592.439	710.91
592.89	702.61
593.34	698.11
593.791	695.51
594.241	694.61
594.692	697.61
595.142	687.71
595.593	680.91
596.043	684.31
596.493	694.31
596.943	689.71
597.394	698.51
597.844	698.11
598.294	712.41
598.744	730.41
599.195	757.81
599.645	793.41
600.095	830.61
600.545	884.81
600.995	937.41
601.445	995.01
601.895	1064.71
602.345	1101.91
602.795	1078.11
603.245	1038.61
603.695	994.71
604.145	922.91
604.594	886.81
605.044	832.51
605.494	780.01
605.944	729.91
606.393	723.01
606.843	712.71
607.293	717.61
607.743	712.71
608.192	717.11
608.642	733.11
609.091	742.21
609.541	745.91
609.99	740.41
610.44	751.11
610.889	694.01
611.339	686.01
611.788	662.81
612.238	674.41
612.687	693.01
613.136	700.31
613.586	715.91
614.035	712.11
614.484	739.71
614.933	745.21
615.383	730.61
615.832	714.31
616.281	692.11
616.73	662.91
617.179	644.51
617.628	636.81
618.077	613.51
618.526	606.71
618.975	593.21
619.424	590.41
619.873	587.61
620.322	601.71
620.771	586.51
621.22	588.01
621.669	569.51
622.118	568.21
622.567	557.81
623.015	552.11
623.464	550.81
623.913	537.11
624.361	538.71
624.81	521.51
625.259	531.91
625.707	536.41
626.156	533.51
626.604	544.31
627.053	538.61
627.501	540.51
627.95	542.61
628.398	554.41
628.847	547.61
629.295	545.81
629.744	541.11
630.192	548.81
630.64	545.81
631.089	540.31
631.537	546.51
631.985	557.51
632.433	568.11
632.881	584.71
633.33	634.11
633.778	616.11
634.226	541.41
634.674	547.21
635.122	566.01
635.57	569.81
636.018	595.11
636.466	554.01
636.914	544.81
637.362	547.71
637.81	547.91
638.258	558.21
638.705	560.51
639.153	574.01
639.601	585.61
640.049	605.01
640.497	647.41
640.944	670.81
641.392	610.51
641.84	591.71
642.287	559.91
642.735	538.21
643.182	548.21
643.63	552.51
644.078	561.41
644.525	559.11
644.973	573.61
645.42	571.11
645.867	596.11
646.315	613.81
646.762	638.01
647.21	657.81
647.657	684.51
648.104	712.81
648.551	746.01
648.999	807.81
649.446	881.21
649.893	966.21
650.34	1102.11
650.787	1326.21
651.234	1649.51
651.682	2148.81
652.129	2931.21
652.576	4226.21
653.023	6265.11
653.47	8631.41
653.917	10844.71
654.363	12576.91
654.81	14045.01
655.257	13365.41
655.704	8700.81
656.151	5114.21
656.598	3314.01
657.044	2343.71
657.491	1795.41
657.938	1431.51
658.385	1186.21
658.831	1038.61
659.278	925.61
659.724	815.01
660.171	749.91
660.618	687.41
661.064	652.21
661.511	631.51
661.957	616.31
662.404	618.71
662.85	611.71
663.296	595.01
663.743	530.41
664.189	507.41
664.635	503.61
665.082	495.41
665.528	498.01
665.974	490.41
666.42	480.41
666.867	483.01
667.313	464.51
667.759	459.91
668.205	455.41
668.651	461.41
669.097	459.91
669.543	475.21
669.989	450.21
670.435	434.41
670.881	419.31
671.327	431.81
671.773	446.51
672.219	456.91
672.665	514.01
673.11	544.31
673.556	586.71
674.002	625.21
674.448	614.51
674.893	514.31
675.339	450.91
675.785	417.41
676.23	401.31
676.676	366.61
677.122	357.61
677.567	353.91
678.013	350.91
678.458	335.11
678.904	333.31
679.349	334.91
679.794	340.01
680.24	332.21
680.685	325.01
681.131	336.71
681.576	330.41
682.021	338.51
682.466	329.41
682.912	330.31
683.357	326.31
683.802	358.01
684.247	394.01
684.692	421.91
685.137	463.41
685.583	512.71
686.028	526.41
686.473	489.71
686.918	423.81
687.363	393.21
687.807	369.01
688.252	352.31
688.697	339.81
689.142	318.71
689.587	308.71
690.032	305.81
690.477	321.81
690.921	328.21
691.366	357.01
691.811	369.81
692.255	407.51
692.7	422.51
693.145	467.31
693.589	639.21
694.034	1032.91
694.478	1432.91
694.923	1633.11
695.367	2138.91
695.812	1124.21
696.256	468.61
696.701	353.11
697.145	326.41
697.59	319.51
698.034	300.91
698.478	311.61
698.922	308.81
699.367	309.41
699.811	314.51
700.255	332.91
700.699	353.71
701.143	398.51
701.588	444.31
702.032	478.71
702.476	477.51
702.92	462.21
703.364	453.61
703.808	584.21
704.252	949.11
704.696	1350.11
705.14	1569.21
705.584	2022.41
706.027	1005.51
706.471	494.81
706.915	373.01
707.359	326.21
707.803	301.91
708.246	293.21
708.69	295.01
709.134	305.21
709.577	295.31
710.021	293.51
710.465	288.11
710.908	278.01
711.352	271.41
711.795	290.91
712.239	325.41
712.682	363.91
713.126	389.71
713.569	443.21
714.012	355.11
714.456	306.21
714.899	276.61
715.342	261.11
715.786	238.31
716.229	243.01
716.672	237.51
717.115	231.51
717.558	230.51
718.002	232.91
718.445	245.61
718.888	265.51
719.331	270.81
719.774	287.51
720.217	282.11
720.66	268.51
721.103	252.61
721.546	239.01
721.989	234.51
722.432	222.11
722.874	222.11
723.317	215.91
723.76	221.51
724.203	242.71
724.645	292.31
725.088	407.91
725.531	531.01
725.974	601.71
726.416	519.21
726.859	289.61
727.301	225.41
727.744	219.51
728.187	218.81
728.629	226.81
729.071	227.31
729.514	249.81
729.956	264.51
730.399	263.81
730.841	272.51
731.283	250.21
731.726	241.41
732.168	245.71
732.61	247.21
733.053	258.71
733.495	293.51
733.937	331.51
734.379	368.61
734.821	399.71
735.263	498.01
735.705	752.71
736.148	1412.71
736.59	2384.61
737.032	2874.71
737.474	2347.81
737.916	754.91
738.357	396.31
738.799	303.31
739.241	278.01
739.683	265.81
740.125	274.71
740.567	278.71
741.008	293.61
741.45	298.51
741.892	295.01
742.334	326.61
742.775	335.21
743.217	319.41
743.658	248.61
744.1	233.71
744.542	239.81
744.983	291.71
745.425	325.11
745.866	328.61
746.307	262.21
746.749	262.51
747.19	298.21
747.632	404.11
748.073	784.71
748.514	1694.81
748.956	2645.61
749.397	3306.51
749.838	2741.91
750.279	2776.21
750.72	1393.81
751.162	507.61
751.603	294.51
752.044	232.51
752.485	209.21
752.926	189.91
753.367	190.81
753.808	181.41
754.249	176.51
754.69	177.01
755.131	168.61
755.572	172.21
756.013	169.41
756.453	168.41
756.894	171.61
757.335	176.11
757.776	184.51
758.216	185.61
758.657	184.51
759.098	184.31
759.538	210.81
759.979	239.31
760.42	334.81
760.86	626.71
761.301	1626.81
761.741	4018.11
762.182	6088.41
762.622	4299.51
763.063	1224.11
763.503	502.01
763.943	321.21
764.384	327.11
764.824	390.91
765.264	428.31
765.705	285.61
766.145	201.71
766.585	173.01
767.025	171.81
767.465	177.61
767.906	230.91
768.346	305.81
768.786	321.61
769.226	250.81
769.666	293.61
770.106	549.41
770.546	1414.21
770.986	2478.21
771.426	2235.31
771.866	744.61
772.306	309.71
772.745	197.61
773.185	161.51
773.625	160.11
774.065	153.61
774.505	183.21
774.944	279.31
775.384	637.51
775.824	1186.91
776.263	1175.11
776.703	494.41
777.142	206.81
777.582	150.91
778.021	129.91
778.461	137.41
778.9	132.51
779.34	125.71
779.779	109.11
780.219	102.01
780.658	106.11
781.097	103.51
781.537	114.71
781.976	100.01
782.415	101.01
782.855	96.11
783.294	96.21
783.733	99.11
784.172	110.01
784.611	100.01
785.05	98.61
785.489	109.41
785.928	115.31
786.367	115.41
786.806	107.11
787.245	120.51
787.684	119.51
788.123	138.71
788.562	124.61
789.001	122.41
789.44	112.51
789.879	111.71
790.317	112.01
790.756	115.51
791.195	121.91
791.634	139.61
792.072	187.91
792.511	321.41
792.95	902.01
793.388	1966.91
793.827	1835.31
794.265	631.41
794.704	255.71
795.142	174.81
795.581	148.61
796.019	129.21
796.458	120.81
796.896	120.31
797.334	118.51
797.773	146.81
798.211	204.51
798.649	394.91
799.087	932.81
799.526	1466.61
799.964	1851.71
800.402	1903.31
800.84	706.81
801.278	277.21
801.716	169.71
802.154	140.41
802.592	137.91
803.03	133.11
803.468	122.31
803.906	136.11
804.344	141.81
804.782	135.21
805.22	129.91
805.658	117.51
806.096	139.11
806.533	141.51
806.971	160.51
807.409	205.31
807.847	286.51
808.284	606.41
808.722	1689.91
809.16	3078.01
809.597	2850.51
810.035	4986.01
810.472	5487.51
810.91	1956.51
811.347	741.51
811.785	373.71
812.222	234.91
812.66	187.31
813.097	158.61
813.535	137.21
813.972	119.41
814.409	103.21
814.846	99.21
815.284	110.61
815.721	96.01
816.158	100.91
816.595	109.51
817.032	166.51
817.47	188.21
817.907	158.91
818.344	146.31
818.781	110.41
819.218	90.61
819.655	116.71
820.092	169.21
820.529	204.11
820.966	179.91
821.403	129.31
821.839	103.01
822.276	100.81
822.713	114.81
823.15	125.31
823.587	107.01
824.023	136.31
824.46	268.91
824.897	803.71
825.333	1269.11
825.77	551.51
826.206	214.81
826.643	127.11
827.08	97.91
827.516	79.81
827.953	71.41
828.389	74.01
828.825	71.11
829.262	64.41
829.698	61.71
830.135	54.61
830.571	51.61
831.007	60.61
831.443	62.71
831.88	57.01
832.316	60.81
832.752	55.71
833.188	58.41
833.624	55.11
834.06	60.91
834.497	60.31
834.933	70.81
835.369	70.41
835.805	64.31
836.241	75.11
836.677	69.51
837.112	81.81
837.548	96.21
837.984	119.51
838.42	180.51
838.856	444.91
839.292	1380.31
839.727	2167.11
840.163	995.91
840.599	837.91
841.034	1865.31
841.47	2006.61
841.906	730.11
842.341	308.01
842.777	216.51
843.212	297.01
843.648	305.71
844.083	145.41
844.519	88.31
844.954	76.51
845.39	59.61
845.825	54.31
846.261	50.91
846.696	55.41
847.131	50.11
847.566	56.61
848.002	50.41
848.437	47.41
848.872	56.21
849.307	60.41
849.742	78.31
850.177	160.91
850.613	496.81
851.048	826.21
851.483	355.41
851.918	141.81
852.353	84.91
852.788	59.51
853.223	52.71
853.657	48.21
854.092	42.91
854.527	40.31
854.962	38.61
855.397	41.61
855.832	45.31
856.266	41.31
856.701	38.41
857.136	35.21
857.57	44.51
858.005	45.71
858.44	50.71
858.874	42.61
859.309	52.11
859.743	38.71
860.178	42.51
860.612	41.91
861.047	49.11
861.481	61.91
861.915	66.21
862.35	45.51
862.784	31.91
863.218	41.31
863.653	35.71
864.087	46.41
864.521	44.81
864.955	65.71
865.39	144.11
865.824	165.71
866.258	97.41
866.692	148.01
867.126	168.71
867.56	98.21
867.994	49.41
868.428	37.21
868.862	44.41
869.296	49.81
869.73	48.11
870.164	47.51
870.598	43.31
871.031	38.91
871.465	28.91
871.899	28.91
872.333	19.31
872.766	25.21
873.2	25.11
873.634	26.01
874.067	26.01
874.501	26.71
874.935	33.11
875.368	30.61
875.802	29.31
876.235	24.31
876.669	26.71
877.102	21.01
877.535	26.51
877.969	21.41
878.402	23.91
878.836	15.31
879.269	20.41
879.702	25.21
880.135	26.31
880.569	24.11
881.002	26.51
881.435	14.31
881.868	14.61
882.301	23.01
882.734	12.51
883.167	23.91
883.601	18.61
884.034	20.71
884.467	13.81
884.899	12.81
885.332	16.41
885.765	14.41
886.198	14.71
886.631	15.41
887.064	15.81
887.497	16.91
887.929	28.51
888.362	12.91
888.795	10.31
889.228	13.81
889.66	17.91
890.093	19.81
890.526	17.51
890.958	14.61
891.391	13.61
891.823	23.21
892.256	18.41
892.688	11.11
893.121	15.21
893.553	18.61
893.985	20.81
894.418	13.31
894.85	11.21
895.282	16.91
895.715	15.61
896.147	21.51
896.579	15.91
897.011	14.71
897.444	22.41
897.876	13.81
898.308	17.31
898.74	11.31
899.172	12.71
899.604	21.21
900.036	24.21
900.468	14.01
900.9	13.71
901.332	18.01
901.764	15.91
902.196	18.11
902.628	13.91
903.06	17.31
903.491	23.41
903.923	20.81
904.355	19.11
904.787	23.81
905.218	23.31
905.65	24.01
906.082	11.61
906.513	13.11
906.945	15.31
907.376	10.41
907.808	24.51
908.239	21.51
908.671	17.11
909.102	22.61
909.534	20.51
909.965	45.01
910.397	91.01
910.828	298.31
911.259	444.21
911.691	204.61
912.122	96.21
912.553	46.91
912.984	33.21
913.415	22.41
913.847	25.01
914.278	10.91
914.709	11.61
915.14	19.21
915.571	19.71
916.002	10.21
916.433	23.61
916.864	18.71
917.295	6.91
917.726	16.91
918.157	17.91
918.587	24.11
919.018	23.81
919.449	21.61
919.88	24.21
920.311	32.71
920.741	42.51
921.172	156.81
921.603	139.41
922.033	68.61
922.464	42.71
922.895	21.01
923.325	22.61
923.756	19.41
924.186	17.51
924.617	26.61
925.047	42.91
925.478	49.41
925.908	45.71
926.338	21.31
926.769	21.01
927.199	19.61
927.629	12.51
928.06	19.91
928.49	10.21
928.92	12.91
929.35	17.01
929.78	6.71
930.21	4.41
930.641	7.01
931.071	7.31
931.501	2.71
931.931	11.61
932.361	5.41
932.791	6.31
933.221	9.61
933.651	4.21
934.08	11.81
934.51	27.41
934.94	6.81
935.37	9.31
935.8	15.91
936.229	7.21
936.659	11.51
937.089	-1.09
937.519	16.41
937.948	25.41
938.378	17.41
938.807	5.51
939.237	9.81
939.666	8.81
940.096	-6.89
940.525	4.61
940.955	1.81
941.384	4.11
941.814	-6.49
942.243	-2.19
942.672	8.41
943.102	-1.19
943.531	0.81
943.96	3.31
944.39	-1.99
944.819	-3.69
945.248	-0.39
945.677	4.31
946.106	5.41
946.535	5.71
946.964	-1.79
947.393	11.51
947.822	0.81
948.251	-7.19
948.68	1.71
949.109	3.51
949.538	8.21
949.967	1.01
950.396	1.81
950.825	0.11
951.254	-0.59
951.682	-9.29
952.111	2.31
952.54	7.61
952.969	-0.09
953.397	-4.89
953.826	1.01
954.254	-1.09
954.683	5.21
955.112	0.21
955.54	2.91
955.969	0.61
956.397	1.61
956.826	-3.09
957.254	4.71
957.682	-1.39
958.111	5.41
958.539	1.51
958.967	-1.19
959.396	-4.59
959.824	6.51
960.252	-0.89
960.68	-3.49
961.109	-2.89
961.537	-5.29
961.965	1.31
962.393	0.91
962.821	-0.39
963.249	-0.49
963.677	2.91
964.105	7.91
964.533	42.21
964.961	38.61
965.389	19.31
965.817	10.31
966.245	8.11
966.672	-4.19
967.1	-12.69
967.528	3.21
967.956	-1.99
968.383	2.21
968.811	-2.39
969.239	-0.59
969.666	0.01
970.094	-0.19
970.522	-4.29
970.949	-5.59
971.377	-2.19
971.804	-6.59
972.232	-2.29
972.659	-1.89
973.087	1.81
973.514	1.71
973.941	4.01
974.369	5.91
974.796	0.51
975.223	5.81
975.651	-4.49
976.078	2.41
976.505	-1.59
976.932	7.01
977.359	12.21
977.786	12.11
978.214	-1.09
978.641	-5.99
979.068	-4.49
979.495	-1.29
979.922	7.31
980.349	-1.39
980.776	4.61
981.202	-2.49
981.629	5.51
982.056	-2.89
982.483	0.21
982.91	3.91
983.337	-10.09
983.763	4.21
984.19	0.41
984.617	-5.89
985.043	-1.49
985.47	4.01
985.897	-1.39
986.323	-5.69
986.75	5.61
987.176	-2.39
987.603	-1.69
988.029	-0.29
988.456	-0.29
988.882	8.31
989.308	-6.89
989.735	-2.19
990.161	2.61
990.587	-5.39
991.014	-0.49
991.44	7.51
991.866	-2.89
992.292	-5.19
992.719	-3.59
993.145	2.41
993.571	-3.29
993.997	-6.29
994.423	-2.29
994.849	-5.29
995.275	-1.09
995.701	-5.39
996.127	-2.49
996.553	-1.99
996.979	-4.99
997.405	1.01
997.83	-6.99
998.256	-3.49
998.682	-6.29
999.108	-7.99
999.534	-3.09
999.959	-3.89
1000.385	-6.59
1000.811	1.71
1001.236	-2.99
1001.662	-7.49
1002.087	-7.09
1002.513	1.81
1002.938	1.71
1003.364	-9.69
1003.789	-3.49
1004.215	2.11
1004.64	-2.59
1005.066	-0.59
1005.491	6.71
1005.916	-1.29
1006.342	2.41
1006.767	-2.39
1007.192	5.41
1007.617	-6.29
1008.042	-4.59
1008.468	-8.09
1008.893	-5.29
1009.318	-6.19
1009.743	-0.89
1010.168	-2.09
1010.593	-4.09
1011.018	-7.19
1011.443	-1.59
1011.868	-0.69
1012.293	-4.39
1012.718	-8.29
1013.143	-1.59
1013.567	3.81
1013.992	-0.39
1014.417	-9.19
1014.842	6.21
1015.267	-0.69
1015.691	-5.39
1016.116	7.11
1016.541	-0.59
1016.965	5.81
1017.39	0.91
1017.814	0.91
1018.239	-2.39
1018.663	-4.49
1019.088	-10.09
1019.512	-1.69
1019.937	0.21
1020.361	-7.29
1020.785	-12.59
1021.21	-2.29
1021.634	2.31
1022.058	3.71
1022.483	2.51
1022.907	-9.09
1023.331	1.11
1023.755	2.61
1024.179	5.71
1024.604	-6.19
1025.028	-5.39
1025.452	-7.49
1025.876	1.61
1026.3	2.81
1026.724	-8.19
1027.148	-1.09
1027.572	-7.09
1027.996	-4.69
1028.42	-1.09
1028.843	-2.09
1029.267	-1.89
1029.691	-3.39
1030.115	-14.29
1030.539	-5.19
1030.962	-4.19
1031.386	-8.79
1031.81	0.71
1032.233	4.11
1032.657	-0.19
1033.08	-0.99
1033.504	0.61
1033.927	-2.19
1034.351	2.41
1034.774	-0.29
1035.198	2.21
1035.621	-5.89
1036.045	-9.69
1036.468	-2.19
1036.891	-16.29
1037.315	-13.59
1037.738	-15.79
1038.161	0.51
1038.584	-2.99
1039.008	-4.59
1039.431	3.21
1039.854	-2.29
1040.277	-4.09
1040.7	-9.99
1041.123	2.21
1041.546	-6.99
1041.969	-5.39
1042.392	-5.19
1042.815	-0.89
1043.238	0.41
1043.661	-2.29
1044.084	-7.89
1044.507	-3.59
1044.93	-6.59
1045.352	-4.99
1045.775	-5.39
1046.198	-3.99
1046.621	-0.79
1047.043	-2.29
1047.466	5.41
1047.889	-2.89
1048.311	-6.79
1048.734	0.31
1049.156	-0.09
1049.579	-1.19
1050.001	3.71
1050.424	-1.69
1050.846	-7.49
1051.269	3.11
1051.691	-10.19
1052.113	-1.89
1052.536	-1.39
1052.958	-5.69
1053.38	-3.09
1053.802	-8.39
1054.225	2.11
1054.647	-5.59
1055.069	-3.79
1055.491	1.21
1055.913	-7.19
1056.335	-0.79
1056.757	-4.39
1057.179	-5.59
1057.601	-9.59
1058.023	-2.09
1058.445	-5.39
1058.867	-3.09
1059.289	3.51
1059.711	-5.59
1060.133	-3.79
1060.555	-2.69
1060.976	-4.09
1061.398	-7.09
1061.82	-3.69
1062.241	-2.49
1062.663	-6.79
1063.085	-4.29
1063.506	-0.09
1063.928	-6.09
1064.35	-2.09
1064.771	-6.89
1065.193	-4.79
1065.614	-5.79
1066.035	-6.89
1066.457	-0.39
1066.878	2.31
1067.3	-3.59
1067.721	-4.09
1068.142	-4.19
1068.564	-2.99
1068.985	2.01
1069.406	-5.29
1069.827	-5.29
1070.248	-2.39
1070.67	-3.79
1071.091	-7.99
1071.512	-3.69
1071.933	-6.69
1072.354	-2.79
1072.775	-5.19
1073.196	-7.09
1073.617	-1.69
1074.038	-8.59
1074.459	-4.89
1074.88	-6.49
1075.3	1.81
1075.721	-1.39
1076.142	2.71
1076.563	5.21
1076.983	-12.09
1077.404	-7.59
1077.825	-9.69
1078.246	-2.29
1078.666	-4.69
1079.087	-1.09
1079.507	-0.59
1079.928	-0.19
1080.348	-1.19
1080.769	-4.29
1081.189	5.31
1081.61	-0.79
1082.03	-5.49
1082.451	-7.29
1082.871	-5.99
1083.291	-4.59
1083.711	-7.09
1084.132	-7.39
1084.552	-3.19
1084.972	-1.89
1085.392	-9.39
1085.813	-13.49
1086.233	-12.39
1086.653	-6.09
1087.073	-3.59
1087.493	-8.19
1087.913	-1.59
1088.333	-5.49
1088.753	-6.39
1089.173	1.01
1089.593	-6.49
1090.013	-2.29
1090.433	1.51
1090.852	-1.59
1091.272	-4.99
1091.692	-3.19
1092.112	-6.79
1092.531	-6.79
1092.951	-14.69
1093.371	-1.49
1093.79	2.11
1094.21	-5.39
1094.63	-4.99
1095.049	-3.89
1095.469	0.11
1095.888	0.31
1096.308	1.01
1096.727	-2.29
1097.146	-2.69
1097.566	1.41
1097.985	-3.69
1098.405	2.61
1098.824	-3.99
1099.243	-4.99
1099.662	-6.19
1100.082	-6.39
1100.501	-7.49
1100.92	-7.69
1101.339	-2.19
1101.758	-4.59
