Data from 20171114-ORNL-Ar_H_NY_Subt18_08-08-08-832.txt Node
Date: Tue Nov 14 08:08:08 EST 2017
User: Ender
Spectrometer: HR+D1039
Trigger mode: 0
Integration Time (sec): 2.730000E-2
Scans to average: 10
Electric dark correction enabled: true
Nonlinearity correction enabled: false
Boxcar width: 0
XAxis mode: Wavelengths
Number of Pixels in Spectrum: 2048
>>>>>Begin Spectral Data<<<<<
187.836	1.27
188.309	1.27
188.782	1.27
189.255	4.37
189.728	-1.83
190.201	3.57
190.674	1.67
191.147	-2.13
191.619	-11.83
192.092	-1.13
192.565	5.77
193.038	-1.63
193.511	-1.03
193.984	1.57
194.456	-2.73
194.929	2.87
195.402	-1.43
195.874	2.67
196.347	2.97
196.82	-5.33
197.292	7.97
197.765	0.37
198.237	-7.93
198.71	-0.33
199.182	-1.83
199.655	-0.23
200.127	1.67
200.6	1.77
201.072	0.27
201.544	-0.93
202.017	-6.83
202.489	2.27
202.961	-7.93
203.433	-3.73
203.906	-5.83
204.378	-11.33
204.85	-5.93
205.322	-8.13
205.794	-2.53
206.266	-5.63
206.739	-4.03
207.211	3.37
207.683	-10.73
208.155	-5.23
208.627	-7.43
209.099	-5.63
209.57	-8.73
210.042	-4.83
210.514	-1.13
210.986	2.77
211.458	-10.83
211.93	-5.13
212.402	-2.43
212.873	0.27
213.345	-2.73
213.817	-17.33
214.288	-5.93
214.76	-11.43
215.232	-1.23
215.703	-7.13
216.175	-3.83
216.646	-4.83
217.118	0.17
217.589	-5.03
218.061	-4.93
218.532	-6.23
219.004	-4.03
219.475	-3.23
219.946	-2.93
220.418	-10.63
220.889	-2.73
221.36	3.77
221.832	-1.63
222.303	-7.53
222.774	-0.03
223.245	-13.83
223.717	-5.13
224.188	0.17
224.659	-5.13
225.13	-3.33
225.601	-1.93
226.072	-3.33
226.543	-3.73
227.014	0.07
227.485	-5.83
227.956	-9.73
228.427	-5.33
228.898	-4.53
229.369	4.17
229.839	-5.83
230.31	-3.73
230.781	-0.53
231.252	-6.63
231.722	-4.73
232.193	-7.13
232.664	0.27
233.135	2.17
233.605	-4.03
234.076	-2.13
234.546	6.07
235.017	3.67
235.487	0.77
235.958	3.97
236.428	0.67
236.899	3.67
237.369	-1.63
237.84	-4.33
238.31	3.97
238.78	2.77
239.251	-5.93
239.721	3.77
240.191	8.67
240.662	-0.93
241.132	-0.83
241.602	-2.03
242.072	3.07
242.542	3.17
243.013	-6.23
243.483	6.17
243.953	1.27
244.423	-4.03
244.893	-5.93
245.363	0.87
245.833	0.37
246.303	-3.73
246.773	3.57
247.243	2.77
247.712	5.37
248.182	11.97
248.652	4.47
249.122	-3.53
249.592	7.37
250.061	24.87
250.531	29.57
251.001	12.37
251.471	23.17
251.94	17.07
252.41	4.17
252.879	2.17
253.349	11.67
253.818	11.97
254.288	7.37
254.757	4.47
255.227	0.87
255.696	6.17
256.166	4.47
256.635	5.07
257.105	5.87
257.574	10.97
258.043	6.17
258.513	11.27
258.982	15.77
259.451	9.27
259.92	7.87
260.389	9.87
260.859	19.17
261.328	13.37
261.797	12.57
262.266	6.47
262.735	11.77
263.204	6.77
263.673	6.77
264.142	4.37
264.611	-2.13
265.08	1.27
265.549	0.17
266.018	8.57
266.487	-3.03
266.955	-4.63
267.424	-2.03
267.893	4.77
268.362	-1.23
268.83	8.57
269.299	12.27
269.768	3.87
270.236	5.67
270.705	5.07
271.174	12.37
271.642	5.97
272.111	11.87
272.579	20.37
273.048	20.57
273.516	27.57
273.985	34.27
274.453	23.27
274.922	18.27
275.39	9.07
275.858	11.07
276.327	12.07
276.795	10.17
277.263	19.47
277.731	24.37
278.2	51.87
278.668	54.17
279.136	43.77
279.604	22.87
280.072	13.97
280.54	10.17
281.008	8.37
281.477	13.57
281.945	14.47
282.413	16.47
282.881	9.87
283.348	7.17
283.816	16.17
284.284	13.27
284.752	18.17
285.22	8.47
285.688	13.37
286.156	18.57
286.623	44.57
287.091	51.67
287.559	25.27
288.026	12.77
288.494	17.67
288.962	5.27
289.429	2.87
289.897	19.37
290.364	14.47
290.832	19.37
291.3	14.67
291.767	19.67
292.234	20.27
292.702	14.07
293.169	18.07
293.637	23.07
294.104	16.37
294.571	8.07
295.039	14.37
295.506	13.17
295.973	14.47
296.44	16.07
296.908	15.07
297.375	16.37
297.842	21.67
298.309	15.37
298.776	13.57
299.243	23.77
299.71	14.97
300.177	22.97
300.644	22.87
301.111	21.17
301.578	21.57
302.045	16.37
302.512	22.57
302.979	20.87
303.446	20.17
303.913	20.97
304.379	12.67
304.846	25.97
305.313	24.37
305.78	20.47
306.246	24.97
306.713	25.77
307.18	21.87
307.646	23.77
308.113	29.07
308.579	23.17
309.046	24.77
309.512	28.87
309.979	19.17
310.445	28.47
310.912	30.47
311.378	34.37
311.845	27.27
312.311	32.77
312.777	31.67
313.244	30.67
313.71	39.17
314.176	29.87
314.642	36.27
315.109	32.77
315.575	34.67
316.041	40.27
316.507	34.17
316.973	35.97
317.439	32.17
317.905	28.87
318.371	34.47
318.837	29.87
319.303	31.37
319.769	37.17
320.235	29.57
320.701	33.37
321.167	34.57
321.633	33.77
322.099	35.37
322.564	41.67
323.03	42.97
323.496	39.17
323.962	47.07
324.427	37.37
324.893	37.27
325.359	31.67
325.824	39.17
326.29	36.27
326.755	39.77
327.221	38.87
327.686	45.37
328.152	49.37
328.617	43.77
329.083	47.37
329.548	52.47
330.014	44.87
330.479	42.27
330.944	41.57
331.41	41.57
331.875	42.37
332.34	45.77
332.805	48.17
333.271	44.77
333.736	43.97
334.201	56.87
334.666	50.17
335.131	55.17
335.596	49.47
336.061	49.97
336.526	47.17
336.991	52.17
337.456	51.77
337.921	49.37
338.386	38.37
338.851	46.87
339.316	48.47
339.781	47.07
340.246	46.47
340.711	49.67
341.175	48.87
341.64	41.87
342.105	48.37
342.569	52.37
343.034	58.57
343.499	54.37
343.963	48.37
344.428	68.57
344.893	63.27
345.357	56.77
345.822	59.47
346.286	65.07
346.751	75.97
347.215	62.17
347.679	75.57
348.144	96.17
348.608	79.17
349.073	69.47
349.537	71.77
350.001	76.17
350.465	90.47
350.93	84.37
351.394	82.97
351.858	71.27
352.322	87.47
352.786	84.97
353.25	105.67
353.715	111.17
354.179	96.57
354.643	122.47
355.107	127.47
355.571	110.97
356.035	95.37
356.498	122.97
356.962	125.57
357.426	132.37
357.89	118.67
358.354	85.47
358.818	76.27
359.281	76.37
359.745	72.17
360.209	78.27
360.673	83.07
361.136	79.87
361.6	85.57
362.064	81.17
362.527	83.07
362.991	91.67
363.454	73.77
363.918	77.07
364.381	72.87
364.845	76.97
365.308	89.67
365.772	89.97
366.235	89.17
366.698	87.67
367.162	83.87
367.625	91.57
368.088	86.47
368.552	96.27
369.015	89.67
369.478	89.67
369.941	104.67
370.404	98.77
370.867	102.57
371.331	117.87
371.794	118.97
372.257	115.47
372.72	110.97
373.183	114.07
373.646	104.37
374.109	105.27
374.572	111.17
375.035	106.27
375.497	110.07
375.96	105.57
376.423	108.07
376.886	113.17
377.349	115.77
377.811	103.17
378.274	102.57
378.737	110.77
379.199	116.87
379.662	107.47
380.125	116.57
380.587	116.87
381.05	126.07
381.512	131.47
381.975	130.37
382.437	138.67
382.9	129.17
383.362	134.87
383.825	144.77
384.287	148.67
384.75	144.47
385.212	143.17
385.674	141.67
386.136	145.97
386.599	121.57
387.061	126.77
387.523	126.17
387.985	141.07
388.447	148.27
388.91	153.97
389.372	160.77
389.834	153.87
390.296	147.17
390.758	163.07
391.22	177.47
391.682	219.67
392.144	311.07
392.606	242.57
393.068	172.77
393.529	178.27
393.991	162.07
394.453	149.27
394.915	158.77
395.377	198.87
395.838	223.47
396.3	163.57
396.762	150.27
397.224	134.77
397.685	134.37
398.147	128.87
398.608	134.87
399.07	132.37
399.531	141.77
399.993	143.47
400.454	160.37
400.916	146.17
401.377	148.67
401.839	154.17
402.3	157.77
402.762	168.37
403.223	187.17
403.684	175.87
404.145	164.17
404.607	165.97
405.068	170.67
405.529	176.97
405.99	184.57
406.451	178.97
406.913	178.17
407.374	164.97
407.835	167.57
408.296	165.17
408.757	171.67
409.218	188.77
409.679	190.97
410.14	181.77
410.601	182.57
411.062	184.47
411.522	196.87
411.983	200.37
412.444	179.07
412.905	183.87
413.366	186.47
413.826	200.47
414.287	223.07
414.748	271.07
415.208	245.77
415.669	218.27
416.13	204.37
416.59	205.47
417.051	219.07
417.511	229.77
417.972	236.77
418.432	250.37
418.893	299.47
419.353	255.17
419.814	205.37
420.274	189.27
420.734	182.27
421.195	205.87
421.655	201.57
422.115	199.47
422.576	203.77
423.036	204.57
423.496	209.97
423.956	223.57
424.416	233.57
424.876	274.87
425.336	261.87
425.797	259.07
426.257	266.57
426.717	241.17
427.177	238.07
427.637	223.07
428.097	233.87
428.556	257.07
429.016	278.97
429.476	267.27
429.936	281.97
430.396	277.97
430.856	295.87
431.315	325.57
431.775	353.77
432.235	386.07
432.694	352.67
433.154	369.17
433.614	406.17
434.073	352.47
434.533	297.37
434.993	274.97
435.452	293.57
435.912	302.17
436.371	297.57
436.83	296.17
437.29	273.17
437.749	254.07
438.209	251.17
438.668	281.77
439.127	294.67
439.587	261.97
440.046	245.27
440.505	267.87
440.964	289.37
441.424	317.47
441.883	314.57
442.342	263.87
442.801	225.87
443.26	228.27
443.719	222.57
444.178	220.67
444.637	221.57
445.096	221.67
445.555	226.37
446.014	227.67
446.473	235.67
446.932	231.47
447.391	227.97
447.849	227.67
448.308	223.07
448.767	228.07
449.226	242.57
449.685	239.87
450.143	255.37
450.602	238.17
451.061	229.57
451.519	237.87
451.978	234.07
452.436	242.47
452.895	236.77
453.353	260.07
453.812	245.07
454.27	239.07
454.729	240.77
455.187	240.97
455.646	249.97
456.104	247.67
456.562	275.17
457.021	268.87
457.479	262.77
457.937	274.07
458.395	261.17
458.854	250.07
459.312	254.77
459.77	282.17
460.228	256.97
460.686	247.47
461.144	250.97
461.602	246.77
462.06	244.77
462.518	258.17
462.976	259.57
463.434	253.27
463.892	266.17
464.35	280.07
464.808	291.67
465.266	269.77
465.724	271.77
466.181	272.87
466.639	275.87
467.097	298.47
467.555	305.97
468.012	296.37
468.47	307.27
468.928	334.87
469.385	345.47
469.843	357.07
470.3	353.67
470.758	358.17
471.215	380.17
471.673	408.67
472.13	414.77
472.588	425.97
473.045	375.27
473.503	381.77
473.96	397.07
474.417	403.87
474.875	436.47
475.332	483.77
475.789	469.57
476.246	474.17
476.704	494.87
477.161	518.07
477.618	542.87
478.075	571.37
478.532	621.07
478.989	703.07
479.446	817.77
479.903	776.57
480.36	817.57
480.817	876.17
481.274	977.77
481.731	1081.87
482.188	1167.77
482.645	1315.67
483.102	1423.27
483.558	1545.87
484.015	1599.67
484.472	1582.17
484.929	1533.47
485.385	1488.57
485.842	1439.87
486.299	1368.17
486.755	1308.37
487.212	1091.27
487.668	943.57
488.125	859.27
488.582	771.17
489.038	744.27
489.494	717.37
489.951	689.07
490.407	672.57
490.864	656.27
491.32	645.47
491.776	646.87
492.233	657.57
492.689	620.87
493.145	606.97
493.602	608.27
494.058	617.87
494.514	623.27
494.97	639.47
495.426	655.97
495.882	623.57
496.338	613.77
496.794	631.07
497.251	620.27
497.707	645.27
498.163	642.97
498.618	649.67
499.074	644.47
499.53	678.37
499.986	671.07
500.442	656.67
500.898	641.57
501.354	629.17
501.809	638.67
502.265	648.07
502.721	674.07
503.177	686.07
503.632	671.77
504.088	677.47
504.543	724.97
504.999	718.17
505.455	662.87
505.91	639.27
506.366	634.37
506.821	634.67
507.277	630.27
507.732	635.77
508.187	634.67
508.643	630.97
509.098	638.77
509.553	662.67
510.009	670.97
510.464	682.77
510.919	689.17
511.375	706.47
511.83	700.97
512.285	728.77
512.74	763.17
513.195	787.37
513.65	775.77
514.105	772.57
514.56	763.87
515.015	794.17
515.47	810.67
515.925	790.17
516.38	797.47
516.835	796.67
517.29	792.37
517.745	774.37
518.2	764.07
518.655	745.77
519.109	742.47
519.564	731.87
520.019	735.57
520.474	721.17
520.928	727.47
521.383	728.17
521.838	716.27
522.292	714.07
522.747	714.77
523.201	700.17
523.656	702.67
524.11	692.27
524.565	698.57
525.019	698.07
525.474	708.17
525.928	711.67
526.382	690.47
526.837	690.67
527.291	704.57
527.745	698.57
528.2	700.97
528.654	685.67
529.108	688.47
529.562	686.27
530.016	693.97
530.47	700.67
530.925	686.67
531.379	702.87
531.833	711.07
532.287	705.27
532.741	697.07
533.195	696.07
533.649	714.87
534.103	716.67
534.556	708.07
535.01	713.37
535.464	701.67
535.918	727.37
536.372	726.07
536.826	717.97
537.279	708.07
537.733	711.17
538.187	711.47
538.64	710.57
539.094	727.17
539.548	740.27
540.001	730.17
540.455	723.07
540.908	732.87
541.362	737.97
541.815	753.37
542.269	757.97
542.722	762.77
543.175	763.47
543.629	784.67
544.082	784.27
544.536	794.57
544.989	791.77
545.442	797.47
545.895	796.67
546.349	792.27
546.802	797.47
547.255	803.07
547.708	815.07
548.161	816.07
548.614	829.17
549.067	842.37
549.52	822.27
549.973	812.17
550.426	812.37
550.879	804.27
551.332	806.47
551.785	806.97
552.238	814.37
552.691	817.57
553.144	823.27
553.596	850.97
554.049	866.67
554.502	893.97
554.955	922.17
555.407	909.37
555.86	899.07
556.313	893.47
556.765	877.47
557.218	879.47
557.67	872.07
558.123	888.27
558.576	877.67
559.028	883.67
559.48	880.17
559.933	865.77
560.385	837.97
560.838	810.07
561.29	795.47
561.742	785.77
562.195	769.97
562.647	776.07
563.099	772.07
563.551	779.57
564.004	796.87
564.456	780.17
564.908	769.27
565.36	749.77
565.812	744.97
566.264	730.87
566.716	737.17
567.168	728.27
567.62	724.77
568.072	711.87
568.524	700.47
568.976	703.87
569.428	682.27
569.88	679.77
570.332	698.17
570.784	687.27
571.235	688.67
571.687	701.87
572.139	713.17
572.59	719.47
573.042	722.37
573.494	710.57
573.945	703.97
574.397	686.17
574.849	698.67
575.3	693.47
575.752	689.17
576.203	676.47
576.655	678.77
577.106	671.27
577.557	675.87
578.009	674.77
578.46	673.17
578.912	669.37
579.363	664.47
579.814	666.87
580.265	667.07
580.717	674.47
581.168	682.17
581.619	680.87
582.07	690.17
582.521	683.97
582.972	679.27
583.423	686.37
583.875	692.47
584.326	714.87
584.777	754.87
585.227	844.57
585.678	946.97
586.129	1034.77
586.58	1105.17
587.031	1180.77
587.482	1346.47
587.933	1545.77
588.384	1337.17
588.834	996.07
589.285	821.27
589.736	799.97
590.186	791.37
590.637	762.87
591.088	757.27
591.538	750.57
591.989	748.37
592.439	736.17
592.89	728.17
593.34	716.17
593.791	723.97
594.241	715.17
594.692	720.17
595.142	712.07
595.593	708.47
596.043	712.57
596.493	725.07
596.943	722.97
597.394	737.17
597.844	728.97
598.294	740.97
598.744	759.27
599.195	787.27
599.645	825.57
600.095	857.67
600.545	923.27
600.995	988.67
601.445	1030.77
601.895	1100.07
602.345	1140.67
602.795	1119.97
603.245	1074.17
603.695	1015.57
604.145	961.07
604.594	920.27
605.044	865.77
605.494	813.37
605.944	759.37
606.393	758.07
606.843	740.57
607.293	748.67
607.743	736.87
608.192	758.77
608.642	768.37
609.091	781.17
609.541	778.17
609.99	782.47
610.44	780.97
610.889	729.07
611.339	709.87
611.788	698.77
612.238	706.87
612.687	724.77
613.136	727.27
613.586	748.17
614.035	755.17
614.484	770.37
614.933	782.17
615.383	765.77
615.832	754.47
616.281	730.67
616.73	689.77
617.179	672.17
617.628	648.87
618.077	644.77
618.526	631.37
618.975	627.17
619.424	616.97
619.873	623.27
620.322	627.37
620.771	618.17
621.22	610.07
621.669	599.57
622.118	593.37
622.567	582.07
623.015	578.17
623.464	579.67
623.913	571.57
624.361	555.57
624.81	559.97
625.259	558.27
625.707	565.97
626.156	568.17
626.604	570.97
627.053	572.07
627.501	561.97
627.95	578.57
628.398	587.07
628.847	575.47
629.295	581.87
629.744	583.27
630.192	572.97
630.64	573.37
631.089	573.27
631.537	595.07
631.985	608.07
632.433	615.57
632.881	630.57
633.33	676.07
633.778	665.37
634.226	583.77
634.674	591.17
635.122	593.17
635.57	604.67
636.018	636.17
636.466	600.37
636.914	569.77
637.362	572.57
637.81	579.97
638.258	588.07
638.705	588.47
639.153	618.87
639.601	622.77
640.049	659.97
640.497	681.57
640.944	713.77
641.392	658.07
641.84	625.37
642.287	589.27
642.735	579.67
643.182	579.17
643.63	572.97
644.078	581.47
644.525	596.07
644.973	604.97
645.42	605.97
645.867	632.47
646.315	651.67
646.762	670.57
647.21	700.67
647.657	728.77
648.104	764.07
648.551	788.57
648.999	842.57
649.446	937.97
649.893	1008.87
650.34	1180.47
650.787	1426.67
651.234	1770.77
651.682	2315.57
652.129	3183.37
652.576	4588.87
653.023	6770.07
653.47	9239.57
653.917	11488.47
654.363	13128.97
654.81	14438.47
655.257	13755.97
655.704	9021.27
656.151	5332.77
656.598	3452.97
657.044	2433.97
657.491	1876.57
657.938	1498.87
658.385	1260.97
658.831	1101.77
659.278	977.67
659.724	869.07
660.171	798.57
660.618	729.37
661.064	691.07
661.511	674.57
661.957	665.67
662.404	653.77
662.85	667.37
663.296	639.17
663.743	574.27
664.189	546.07
664.635	545.07
665.082	531.57
665.528	538.57
665.974	531.07
666.42	523.07
666.867	509.57
667.313	505.17
667.759	487.37
668.205	497.17
668.651	495.27
669.097	491.67
669.543	515.17
669.989	485.97
670.435	463.47
670.881	456.67
671.327	458.37
671.773	477.27
672.219	501.37
672.665	565.47
673.11	605.77
673.556	637.37
674.002	679.87
674.448	661.27
674.893	556.67
675.339	481.97
675.785	440.57
676.23	416.87
676.676	390.77
677.122	390.17
677.567	375.97
678.013	378.37
678.458	363.47
678.904	356.17
679.349	359.27
679.794	367.87
680.24	357.17
680.685	354.77
681.131	349.17
681.576	349.27
682.021	360.57
682.466	353.67
682.912	352.37
683.357	360.97
683.802	386.27
684.247	418.77
684.692	459.87
685.137	507.97
685.583	535.57
686.028	566.87
686.473	524.17
686.918	446.17
687.363	411.97
687.807	394.57
688.252	372.07
688.697	354.17
689.142	341.37
689.587	333.47
690.032	332.67
690.477	348.87
690.921	360.37
691.366	391.37
691.811	405.77
692.255	435.97
692.7	468.47
693.145	515.97
693.589	720.87
694.034	1169.27
694.478	1562.97
694.923	1732.77
695.367	2252.87
695.812	1196.27
696.256	505.17
696.701	383.47
697.145	356.87
697.59	332.47
698.034	326.37
698.478	332.67
698.922	331.27
699.367	332.87
699.811	351.67
700.255	357.57
700.699	396.77
701.143	436.97
701.588	486.97
702.032	526.37
702.476	519.67
702.92	489.07
703.364	503.97
703.808	659.77
704.252	1066.07
704.696	1476.37
705.14	1681.27
705.584	2115.37
706.027	1061.37
706.471	528.27
706.915	399.57
707.359	353.17
707.803	323.37
708.246	312.57
708.69	319.57
709.134	320.57
709.577	318.17
710.021	320.27
710.465	309.87
710.908	301.07
711.352	311.87
711.795	316.87
712.239	357.27
712.682	391.27
713.126	417.87
713.569	471.87
714.012	371.97
714.456	325.07
714.899	301.77
715.342	277.57
715.786	258.77
716.229	264.47
716.672	259.27
717.115	255.37
717.558	256.27
718.002	259.07
718.445	273.77
718.888	294.67
719.331	305.17
719.774	313.17
720.217	309.47
720.66	282.87
721.103	273.77
721.546	260.27
721.989	248.27
722.432	236.27
722.874	246.27
723.317	236.27
723.76	241.27
724.203	264.27
724.645	330.07
725.088	455.77
725.531	580.47
725.974	647.57
726.416	555.37
726.859	314.87
727.301	248.57
727.744	240.57
728.187	239.87
728.629	242.47
729.071	245.07
729.514	259.07
729.956	285.07
730.399	288.87
730.841	291.07
731.283	283.77
731.726	267.07
732.168	262.27
732.61	279.57
733.053	293.07
733.495	324.27
733.937	356.07
734.379	408.27
734.821	436.07
735.263	562.67
735.705	858.37
736.148	1618.77
736.59	2632.27
737.032	3047.27
737.474	2470.47
737.916	816.17
738.357	432.87
738.799	334.27
739.241	303.97
739.683	287.87
740.125	289.97
740.567	303.37
741.008	317.57
741.45	321.37
741.892	325.27
742.334	348.37
742.775	359.77
743.217	340.47
743.658	276.97
744.1	252.37
744.542	266.87
744.983	314.97
745.425	347.67
745.866	344.77
746.307	289.97
746.749	293.17
747.19	335.57
747.632	477.17
748.073	917.27
748.514	1926.07
748.956	2887.17
749.397	3612.27
749.838	3003.77
750.279	2948.47
750.72	1498.17
751.162	558.47
751.603	319.57
752.044	254.07
752.485	219.27
752.926	210.67
753.367	208.97
753.808	200.67
754.249	194.97
754.69	191.37
755.131	188.67
755.572	188.87
756.013	189.47
756.453	184.07
756.894	197.57
757.335	193.67
757.776	198.87
758.216	204.07
758.657	201.17
759.098	203.17
759.538	237.17
759.979	278.27
760.42	387.67
760.86	733.67
761.301	1923.97
761.741	4539.57
762.182	6363.27
762.622	4477.17
763.063	1318.37
763.503	550.37
763.943	357.07
764.384	348.27
764.824	425.77
765.264	453.07
765.705	321.57
766.145	216.47
766.585	193.27
767.025	184.37
767.465	194.17
767.906	259.37
768.346	328.47
768.786	354.27
769.226	275.07
769.666	330.07
770.106	655.97
770.546	1609.97
770.986	2654.37
771.426	2353.27
771.866	788.57
772.306	330.87
772.745	215.67
773.185	179.67
773.625	175.47
774.065	177.37
774.505	200.07
774.944	320.07
775.384	710.97
775.824	1233.77
776.263	1193.97
776.703	513.57
777.142	222.47
777.582	158.47
778.021	144.37
778.461	144.27
778.9	134.17
779.34	135.07
779.779	119.07
780.219	110.07
780.658	112.67
781.097	119.27
781.537	119.57
781.976	116.87
782.415	103.57
782.855	106.17
783.294	108.07
783.733	106.57
784.172	109.37
784.611	100.67
785.05	115.27
785.489	118.37
785.928	120.87
786.367	122.57
786.806	117.37
787.245	132.67
787.684	135.67
788.123	149.77
788.562	140.37
789.001	125.47
789.44	122.77
789.879	124.57
790.317	115.67
790.756	129.57
791.195	132.57
791.634	154.67
792.072	209.77
792.511	385.77
792.95	1056.57
793.388	2152.67
793.827	1908.57
794.265	678.37
794.704	284.87
795.142	189.57
795.581	154.47
796.019	138.87
796.458	130.87
796.896	127.07
797.334	137.47
797.773	159.37
798.211	228.17
798.649	460.57
799.087	1044.17
799.526	1619.57
799.964	2047.97
800.402	1994.27
800.84	759.17
801.278	298.97
801.716	187.17
802.154	155.17
802.592	149.77
803.03	139.37
803.468	132.87
803.906	149.97
804.344	147.57
804.782	145.87
805.22	136.37
805.658	132.47
806.096	142.97
806.533	154.27
806.971	175.97
807.409	220.47
807.847	323.67
808.284	691.67
808.722	1928.47
809.16	3287.87
809.597	3198.37
810.035	5470.07
810.472	5686.47
810.91	2077.27
811.347	792.97
811.785	407.47
812.222	258.07
812.66	195.27
813.097	168.77
813.535	142.87
813.972	130.57
814.409	119.17
814.846	114.57
815.284	108.87
815.721	108.57
816.158	109.57
816.595	127.17
817.032	186.47
817.47	200.67
817.907	166.47
818.344	158.67
818.781	121.07
819.218	97.97
819.655	123.57
820.092	187.17
820.529	208.97
820.966	173.07
821.403	137.07
821.839	113.07
822.276	109.17
822.713	123.67
823.15	135.17
823.587	114.17
824.023	155.87
824.46	317.77
824.897	916.77
825.333	1343.97
825.77	582.87
826.206	232.37
826.643	134.27
827.08	104.07
827.516	86.97
827.953	77.97
828.389	88.87
828.825	75.67
829.262	65.47
829.698	67.87
830.135	66.27
830.571	67.77
831.007	69.77
831.443	64.67
831.88	64.17
832.316	64.47
832.752	70.47
833.188	63.87
833.624	65.67
834.06	66.97
834.497	67.57
834.933	68.77
835.369	81.27
835.805	74.67
836.241	77.97
836.677	80.27
837.112	87.27
837.548	106.97
837.984	133.07
838.42	198.07
838.856	524.77
839.292	1548.87
839.727	2283.97
840.163	1071.67
840.599	956.27
841.034	2052.07
841.47	2094.87
841.906	776.77
842.341	336.37
842.777	236.97
843.212	330.87
843.648	311.07
844.083	155.67
844.519	97.17
844.954	74.37
845.39	59.17
845.825	59.17
846.261	58.87
846.696	51.77
847.131	49.07
847.566	56.07
848.002	47.07
848.437	57.57
848.872	57.67
849.307	62.07
849.742	82.57
850.177	188.07
850.613	575.07
851.048	871.77
851.483	380.67
851.918	161.17
852.353	80.77
852.788	61.87
853.223	63.07
853.657	55.47
854.092	46.57
854.527	41.67
854.962	39.67
855.397	51.27
855.832	49.77
856.266	41.27
856.701	43.67
857.136	39.07
857.57	41.37
858.005	52.77
858.44	59.77
858.874	41.87
859.309	55.67
859.743	41.27
860.178	50.57
860.612	43.87
861.047	49.07
861.481	73.57
861.915	70.47
862.35	49.07
862.784	37.97
863.218	41.77
863.653	33.17
864.087	40.17
864.521	55.57
864.955	71.07
865.39	158.57
865.824	169.17
866.258	113.87
866.692	166.17
867.126	181.87
867.56	100.67
867.994	52.87
868.428	37.87
868.862	44.67
869.296	50.17
869.73	59.87
870.164	59.47
870.598	46.07
871.031	39.47
871.465	33.77
871.899	27.97
872.333	22.97
872.766	27.47
873.2	25.07
873.634	30.87
874.067	28.77
874.501	30.17
874.935	35.87
875.368	44.17
875.802	24.97
876.235	22.27
876.669	30.27
877.102	21.37
877.535	29.97
877.969	24.17
878.402	24.17
878.836	21.67
879.269	22.07
879.702	26.07
880.135	20.07
880.569	24.27
881.002	28.97
881.435	21.47
881.868	19.57
882.301	20.87
882.734	17.47
883.167	31.37
883.601	21.27
884.034	24.67
884.467	19.47
884.899	21.87
885.332	23.37
885.765	16.87
886.198	12.37
886.631	15.57
887.064	19.87
887.497	19.17
887.929	28.97
888.362	10.27
888.795	17.07
889.228	15.57
889.66	21.27
890.093	12.57
890.526	17.87
890.958	19.07
891.391	19.77
891.823	22.07
892.256	15.97
892.688	17.57
893.121	13.17
893.553	16.57
893.985	25.47
894.418	21.87
894.85	13.77
895.282	14.87
895.715	13.97
896.147	15.47
896.579	18.97
897.011	10.27
897.444	17.67
897.876	13.17
898.308	21.37
898.74	18.57
899.172	16.07
899.604	21.37
900.036	15.87
900.468	19.77
900.9	16.77
901.332	14.47
901.764	11.57
902.196	14.37
902.628	13.47
903.06	10.97
903.491	27.97
903.923	14.27
904.355	24.97
904.787	29.47
905.218	24.27
905.65	18.37
906.082	16.47
906.513	17.67
906.945	15.77
907.376	13.87
907.808	22.57
908.239	21.87
908.671	19.37
909.102	21.47
909.534	23.97
909.965	48.67
910.397	99.27
910.828	322.47
911.259	465.37
911.691	215.87
912.122	108.17
912.553	49.67
912.984	37.07
913.415	21.77
913.847	26.77
914.278	13.07
914.709	22.27
915.14	20.47
915.571	17.17
916.002	16.77
916.433	23.77
916.864	16.67
917.295	7.17
917.726	19.57
918.157	18.17
918.587	25.87
919.018	21.27
919.449	22.97
919.88	23.57
920.311	34.77
920.741	53.17
921.172	179.97
921.603	151.47
922.033	64.37
922.464	47.77
922.895	24.47
923.325	19.17
923.756	18.97
924.186	12.07
924.617	27.67
925.047	40.57
925.478	58.07
925.908	47.37
926.338	29.77
926.769	17.17
927.199	17.77
927.629	17.07
928.06	18.07
928.49	14.77
928.92	13.27
929.35	7.47
929.78	10.27
930.21	3.67
930.641	7.07
931.071	12.57
931.501	2.87
931.931	9.27
932.361	7.47
932.791	6.77
933.221	9.07
933.651	6.87
934.08	20.97
934.51	30.57
934.94	7.07
935.37	10.37
935.8	11.67
936.229	5.77
936.659	12.27
937.089	8.47
937.519	15.47
937.948	19.27
938.378	12.27
938.807	7.47
939.237	8.27
939.666	9.67
940.096	-1.43
940.525	2.67
940.955	6.87
941.384	2.57
941.814	-7.43
942.243	-0.73
942.672	4.57
943.102	1.07
943.531	-0.03
943.96	5.37
944.39	1.27
944.819	3.47
945.248	-3.53
945.677	-4.43
946.106	-0.43
946.535	5.27
946.964	1.67
947.393	7.97
947.822	1.97
948.251	-4.03
948.68	6.87
949.109	7.97
949.538	8.17
949.967	4.27
950.396	0.77
950.825	2.57
951.254	-5.23
951.682	-3.93
952.111	7.27
952.54	5.67
952.969	-2.73
953.397	-12.53
953.826	3.77
954.254	-2.43
954.683	5.57
955.112	-3.23
955.54	-0.43
955.969	0.27
956.397	-1.03
956.826	-7.73
957.254	5.07
957.682	1.07
958.111	1.47
958.539	0.17
958.967	5.17
959.396	-0.13
959.824	-2.23
960.252	0.17
960.68	-4.73
961.109	-2.63
961.537	-6.23
961.965	2.47
962.393	0.47
962.821	-7.23
963.249	1.07
963.677	-2.43
964.105	4.07
964.533	44.07
964.961	42.87
965.389	20.07
965.817	3.27
966.245	2.37
966.672	2.27
967.1	-5.23
967.528	-3.53
967.956	-1.93
968.383	1.47
968.811	-5.43
969.239	-2.93
969.666	-7.23
970.094	1.87
970.522	-3.43
970.949	-0.73
971.377	-8.33
971.804	-3.43
972.232	-5.23
972.659	-1.83
973.087	-1.23
973.514	-2.03
973.941	-2.43
974.369	5.77
974.796	0.47
975.223	3.17
975.651	-1.53
976.078	-0.93
976.505	-3.73
976.932	0.77
977.359	15.77
977.786	20.47
978.214	-1.53
978.641	-4.03
979.068	-0.83
979.495	-2.93
979.922	0.27
980.349	-8.53
980.776	-0.03
981.202	-1.83
981.629	4.97
982.056	4.27
982.483	-2.53
982.91	8.07
983.337	-12.13
983.763	-0.43
984.19	-7.23
984.617	-2.33
985.043	-1.83
985.47	2.17
985.897	-6.73
986.323	-10.33
986.75	-3.13
987.176	-2.33
987.603	0.47
988.029	-0.53
988.456	-5.83
988.882	1.47
989.308	-4.13
989.735	-6.93
990.161	-0.03
990.587	-4.93
991.014	-1.73
991.44	10.07
991.866	-1.43
992.292	-11.43
992.719	-3.63
993.145	6.17
993.571	-8.03
993.997	-2.73
994.423	-9.03
994.849	-8.13
995.275	0.87
995.701	-1.23
996.127	-9.33
996.553	0.57
996.979	-1.73
997.405	0.07
997.83	-9.63
998.256	-8.33
998.682	-3.53
999.108	-4.23
999.534	2.27
999.959	1.67
1000.385	-8.13
1000.811	-1.33
1001.236	-8.93
1001.662	-11.13
1002.087	-10.13
1002.513	-0.23
1002.938	3.47
1003.364	1.47
1003.789	-2.03
1004.215	-2.53
1004.64	-5.63
1005.066	3.27
1005.491	-3.33
1005.916	-1.03
1006.342	-5.23
1006.767	-10.93
1007.192	2.57
1007.617	-0.43
1008.042	-6.13
1008.468	-7.93
1008.893	-1.53
1009.318	-3.53
1009.743	-1.23
1010.168	11.07
1010.593	-1.63
1011.018	-9.63
1011.443	-5.93
1011.868	2.87
1012.293	-9.23
1012.718	-5.33
1013.143	0.97
1013.567	-0.43
1013.992	-7.93
1014.417	-13.93
1014.842	0.07
1015.267	-6.33
1015.691	-5.73
1016.116	5.87
1016.541	-3.83
1016.965	6.67
1017.39	4.47
1017.814	-2.93
1018.239	0.77
1018.663	-3.33
1019.088	-6.73
1019.512	-3.03
1019.937	1.17
1020.361	-5.63
1020.785	-8.43
1021.21	-4.83
1021.634	-1.83
1022.058	-1.43
1022.483	6.27
1022.907	-2.53
1023.331	-5.73
1023.755	-7.13
1024.179	-3.53
1024.604	-10.33
1025.028	-7.23
1025.452	-4.73
1025.876	-0.63
1026.3	-3.93
1026.724	-7.43
1027.148	-3.63
1027.572	-7.53
1027.996	-11.03
1028.42	-5.83
1028.843	-7.23
1029.267	-7.53
1029.691	-4.03
1030.115	-7.53
1030.539	-9.43
1030.962	-4.53
1031.386	-13.33
1031.81	-5.23
1032.233	-1.83
1032.657	-5.23
1033.08	1.37
1033.504	-4.13
1033.927	-4.53
1034.351	0.57
1034.774	-7.63
1035.198	0.57
1035.621	-6.03
1036.045	-7.23
1036.468	-0.13
1036.891	-13.93
1037.315	-15.73
1037.738	-16.23
1038.161	-0.53
1038.584	-3.13
1039.008	0.57
1039.431	-3.43
1039.854	0.87
1040.277	-12.03
1040.7	-5.43
1041.123	1.77
1041.546	-8.03
1041.969	-4.23
1042.392	-6.23
1042.815	-0.83
1043.238	-0.53
1043.661	-3.53
1044.084	-5.43
1044.507	-9.33
1044.93	-9.83
1045.352	-2.63
1045.775	-4.53
1046.198	-3.03
1046.621	-6.13
1047.043	2.47
1047.466	2.77
1047.889	-0.73
1048.311	-5.13
1048.734	-2.13
1049.156	-7.83
1049.579	0.37
1050.001	-2.23
1050.424	-0.13
1050.846	-3.63
1051.269	1.97
1051.691	-2.33
1052.113	-6.53
1052.536	-0.63
1052.958	-0.63
1053.38	-2.93
1053.802	-6.93
1054.225	-0.63
1054.647	-9.53
1055.069	-2.93
1055.491	-4.23
1055.913	-0.53
1056.335	1.07
1056.757	-2.93
1057.179	-4.73
1057.601	-4.83
1058.023	-1.13
1058.445	-2.83
1058.867	-4.43
1059.289	-1.43
1059.711	-1.73
1060.133	-7.83
1060.555	-4.63
1060.976	-10.53
1061.398	-5.83
1061.82	-7.33
1062.241	-8.73
1062.663	-5.33
1063.085	-5.03
1063.506	-1.03
1063.928	-2.33
1064.35	-2.13
1064.771	-7.43
1065.193	2.37
1065.614	-14.63
1066.035	-1.83
1066.457	-3.43
1066.878	2.07
1067.3	-10.33
1067.721	-6.93
1068.142	-7.53
1068.564	-7.43
1068.985	-3.83
1069.406	-5.53
1069.827	-11.93
1070.248	-2.83
1070.67	-10.03
1071.091	0.67
1071.512	-5.53
1071.933	-6.93
1072.354	-1.13
1072.775	-3.53
1073.196	-5.23
1073.617	-0.13
1074.038	-1.53
1074.459	-7.23
1074.88	-7.93
1075.3	-2.33
1075.721	-3.23
1076.142	-2.93
1076.563	-1.33
1076.983	-10.73
1077.404	-11.13
1077.825	-9.83
1078.246	-10.33
1078.666	-10.73
1079.087	-1.13
1079.507	-4.03
1079.928	-3.53
1080.348	-0.53
1080.769	-8.63
1081.189	-0.73
1081.61	-10.43
1082.03	-3.83
1082.451	-10.13
1082.871	-7.53
1083.291	-6.33
1083.711	-11.23
1084.132	-1.93
1084.552	-3.43
1084.972	3.57
1085.392	-11.93
1085.813	-13.63
1086.233	-5.33
1086.653	0.37
1087.073	0.87
1087.493	-9.73
1087.913	-8.33
1088.333	-7.43
1088.753	-8.03
1089.173	2.57
1089.593	-5.83
1090.013	-2.23
1090.433	-2.63
1090.852	-1.83
1091.272	-3.43
1091.692	-2.13
1092.112	-4.63
1092.531	-7.33
1092.951	-12.23
1093.371	-2.23
1093.79	1.07
1094.21	-7.03
1094.63	-5.53
1095.049	-3.23
1095.469	-2.63
1095.888	-6.93
1096.308	-0.53
1096.727	4.87
1097.146	-4.23
1097.566	0.87
1097.985	-5.93
1098.405	-1.43
1098.824	-8.53
1099.243	-9.03
1099.662	-6.13
1100.082	-5.63
1100.501	-2.43
1100.92	-7.73
1101.339	-6.33
1101.758	-6.83
