Data from 20171114-ORNL-Ar_H_NY_Subt18_08-04-45-465.txt Node
Date: Tue Nov 14 08:04:45 EST 2017
User: Ender
Spectrometer: HR+D1039
Trigger mode: 0
Integration Time (sec): 2.730000E-2
Scans to average: 10
Electric dark correction enabled: true
Nonlinearity correction enabled: false
Boxcar width: 0
XAxis mode: Wavelengths
Number of Pixels in Spectrum: 2048
>>>>>Begin Spectral Data<<<<<
187.836	-3.99
188.309	-3.99
188.782	-3.99
189.255	-2.49
189.728	-0.79
190.201	2.81
190.674	-2.49
191.147	2.01
191.619	-6.59
192.092	6.11
192.565	4.21
193.038	0.61
193.511	6.31
193.984	-0.49
194.456	-0.29
194.929	-7.09
195.402	-0.09
195.874	2.31
196.347	0.41
196.82	-8.69
197.292	5.61
197.765	-0.29
198.237	-5.89
198.71	-1.69
199.182	-2.89
199.655	2.51
200.127	2.81
200.6	0.71
201.072	-0.89
201.544	-4.99
202.017	-1.59
202.489	4.91
202.961	-4.69
203.433	0.21
203.906	-6.59
204.378	-6.09
204.85	-6.09
205.322	-9.69
205.794	-1.59
206.266	-3.19
206.739	-1.99
207.211	1.71
207.683	-2.79
208.155	-5.29
208.627	-3.29
209.099	-3.39
209.57	-4.99
210.042	-0.59
210.514	-4.89
210.986	-5.19
211.458	-10.69
211.93	-0.19
212.402	4.31
212.873	-6.09
213.345	-6.89
213.817	-13.89
214.288	-6.39
214.76	-11.49
215.232	-0.49
215.703	0.11
216.175	-4.59
216.646	-2.29
217.118	-7.09
217.589	-10.09
218.061	-1.49
218.532	-0.39
219.004	-1.19
219.475	-4.99
219.946	1.21
220.418	-5.29
220.889	5.51
221.36	-3.39
221.832	2.41
222.303	-6.29
222.774	-2.69
223.245	-7.99
223.717	-8.69
224.188	-1.09
224.659	-7.19
225.13	-6.69
225.601	-0.69
226.072	3.91
226.543	0.01
227.014	0.71
227.485	0.81
227.956	-6.69
228.427	-1.49
228.898	3.41
229.369	4.81
229.839	-1.79
230.31	-4.69
230.781	3.81
231.252	0.21
231.722	-9.69
232.193	1.71
232.664	5.61
233.135	-2.49
233.605	1.51
234.076	-6.99
234.546	1.51
235.017	5.11
235.487	5.61
235.958	-4.19
236.428	3.81
236.899	7.51
237.369	3.71
237.84	-1.59
238.31	5.81
238.78	5.41
239.251	6.51
239.721	4.41
240.191	8.11
240.662	2.31
241.132	3.91
241.602	-1.79
242.072	8.31
242.542	6.21
243.013	-0.19
243.483	-0.29
243.953	5.61
244.423	-2.09
244.893	-1.79
245.363	1.91
245.833	6.31
246.303	0.91
246.773	11.21
247.243	10.31
247.712	1.01
248.182	7.01
248.652	12.51
249.122	0.81
249.592	18.11
250.061	26.91
250.531	41.51
251.001	19.21
251.471	24.31
251.94	16.81
252.41	13.31
252.879	-0.09
253.349	13.31
253.818	12.61
254.288	7.61
254.757	8.81
255.227	4.11
255.696	10.31
256.166	10.01
256.635	5.81
257.105	8.31
257.574	9.51
258.043	8.81
258.513	10.31
258.982	17.11
259.451	10.41
259.92	20.21
260.389	13.21
260.859	23.41
261.328	14.21
261.797	18.81
262.266	10.51
262.735	12.91
263.204	5.11
263.673	5.11
264.142	6.71
264.611	-2.69
265.08	3.91
265.549	-1.89
266.018	7.11
266.487	2.91
266.955	0.61
267.424	1.01
267.893	1.71
268.362	1.41
268.83	9.11
269.299	11.51
269.768	10.41
270.236	8.21
270.705	8.01
271.174	10.01
271.642	13.51
272.111	10.31
272.579	24.91
273.048	26.11
273.516	36.11
273.985	29.31
274.453	24.71
274.922	20.11
275.39	15.71
275.858	6.71
276.327	15.91
276.795	16.91
277.263	8.61
277.731	33.91
278.2	61.41
278.668	69.41
279.136	47.81
279.604	21.71
280.072	20.81
280.54	15.81
281.008	10.71
281.477	20.01
281.945	17.71
282.413	15.51
282.881	20.61
283.348	18.81
283.816	22.61
284.284	19.11
284.752	27.51
285.22	17.51
285.688	18.81
286.156	22.61
286.623	47.21
287.091	58.71
287.559	34.41
288.026	22.91
288.494	18.31
288.962	5.81
289.429	8.71
289.897	14.51
290.364	12.31
290.832	17.41
291.3	19.81
291.767	17.41
292.234	22.81
292.702	18.11
293.169	22.31
293.637	22.51
294.104	22.81
294.571	13.61
295.039	13.21
295.506	19.81
295.973	22.31
296.44	20.11
296.908	26.01
297.375	18.71
297.842	19.21
298.309	17.61
298.776	17.51
299.243	25.01
299.71	17.91
300.177	27.11
300.644	21.71
301.111	18.91
301.578	28.01
302.045	20.01
302.512	27.71
302.979	27.31
303.446	24.81
303.913	20.81
304.379	17.61
304.846	28.81
305.313	23.01
305.78	21.61
306.246	23.61
306.713	32.31
307.18	35.81
307.646	28.51
308.113	34.11
308.579	26.41
309.046	32.31
309.512	28.71
309.979	23.11
310.445	21.51
310.912	28.21
311.378	28.91
311.845	29.01
312.311	33.51
312.777	36.01
313.244	33.81
313.71	43.01
314.176	34.61
314.642	33.41
315.109	38.31
315.575	36.91
316.041	40.41
316.507	40.61
316.973	41.81
317.439	33.91
317.905	35.61
318.371	35.41
318.837	30.11
319.303	37.41
319.769	34.71
320.235	41.01
320.701	37.51
321.167	40.21
321.633	36.51
322.099	38.21
322.564	43.51
323.03	36.31
323.496	43.61
323.962	40.81
324.427	43.81
324.893	46.71
325.359	40.41
325.824	36.71
326.29	38.31
326.755	43.81
327.221	38.71
327.686	40.71
328.152	42.61
328.617	47.01
329.083	50.21
329.548	49.31
330.014	44.81
330.479	39.51
330.944	45.51
331.41	43.21
331.875	48.31
332.34	45.01
332.805	45.41
333.271	48.01
333.736	48.21
334.201	52.61
334.666	57.01
335.131	54.61
335.596	56.21
336.061	48.01
336.526	40.01
336.991	51.11
337.456	62.81
337.921	43.51
338.386	46.61
338.851	43.81
339.316	50.61
339.781	44.01
340.246	54.91
340.711	42.41
341.175	54.61
341.64	46.51
342.105	55.11
342.569	59.41
343.034	54.01
343.499	60.01
343.963	52.61
344.428	62.81
344.893	61.41
345.357	59.01
345.822	67.41
346.286	70.81
346.751	74.41
347.215	66.61
347.679	73.31
348.144	94.81
348.608	83.51
349.073	76.21
349.537	75.81
350.001	81.01
350.465	91.11
350.93	81.81
351.394	83.41
351.858	75.01
352.322	88.11
352.786	80.31
353.25	101.81
353.715	112.31
354.179	100.81
354.643	125.01
355.107	119.11
355.571	110.71
356.035	106.51
356.498	114.11
356.962	126.91
357.426	138.11
357.89	119.91
358.354	90.31
358.818	84.81
359.281	75.91
359.745	77.81
360.209	73.91
360.673	70.31
361.136	77.81
361.6	86.81
362.064	83.81
362.527	83.31
362.991	88.21
363.454	78.01
363.918	77.51
364.381	83.51
364.845	84.71
365.308	88.41
365.772	80.91
366.235	80.71
366.698	79.21
367.162	88.01
367.625	87.41
368.088	84.21
368.552	84.41
369.015	85.41
369.478	97.31
369.941	102.81
370.404	100.61
370.867	107.31
371.331	110.01
371.794	115.31
372.257	111.11
372.72	111.11
373.183	109.11
373.646	100.61
374.109	107.41
374.572	103.11
375.035	102.51
375.497	107.51
375.96	105.81
376.423	103.11
376.886	111.41
377.349	105.91
377.811	99.71
378.274	104.21
378.737	98.31
379.199	108.11
379.662	107.41
380.125	118.51
380.587	119.51
381.05	118.41
381.512	120.51
381.975	130.71
382.437	128.61
382.9	121.81
383.362	129.61
383.825	138.61
384.287	146.31
384.75	143.41
385.212	137.01
385.674	146.11
386.136	131.31
386.599	120.81
387.061	125.61
387.523	125.31
387.985	135.01
388.447	136.91
388.91	140.51
389.372	153.41
389.834	147.21
390.296	142.21
390.758	147.81
391.22	158.91
391.682	200.61
392.144	275.41
392.606	221.01
393.068	164.11
393.529	162.11
393.991	144.31
394.453	140.21
394.915	146.41
395.377	184.81
395.838	206.21
396.3	146.31
396.762	136.61
397.224	128.01
397.685	125.21
398.147	131.11
398.608	125.41
399.07	125.81
399.531	127.21
399.993	136.61
400.454	144.81
400.916	138.51
401.377	137.11
401.839	142.91
402.3	132.81
402.762	162.31
403.223	176.81
403.684	164.61
404.145	157.41
404.607	155.61
405.068	156.61
405.529	160.71
405.99	181.81
406.451	170.91
406.913	167.81
407.374	152.81
407.835	158.01
408.296	160.41
408.757	161.81
409.218	173.31
409.679	178.21
410.14	167.51
410.601	172.21
411.062	172.91
411.522	182.31
411.983	178.41
412.444	167.01
412.905	164.31
413.366	178.51
413.826	188.01
414.287	204.11
414.748	248.61
415.208	237.81
415.669	204.41
416.13	194.21
416.59	193.31
417.051	211.91
417.511	205.31
417.972	219.11
418.432	231.31
418.893	272.21
419.353	238.11
419.814	193.11
420.274	176.81
420.734	173.51
421.195	189.31
421.655	190.01
422.115	189.31
422.576	176.01
423.036	187.21
423.496	189.01
423.956	210.11
424.416	222.21
424.876	258.31
425.336	252.71
425.797	248.01
426.257	243.81
426.717	231.81
427.177	227.11
427.637	212.51
428.097	225.81
428.556	230.41
429.016	259.51
429.476	247.21
429.936	253.11
430.396	261.71
430.856	272.81
431.315	301.61
431.775	331.91
432.235	363.51
432.694	333.21
433.154	344.01
433.614	368.71
434.073	314.11
434.533	272.51
434.993	259.31
435.452	272.11
435.912	281.61
436.371	273.01
436.83	271.51
437.29	262.91
437.749	234.41
438.209	234.41
438.668	254.31
439.127	271.61
439.587	249.21
440.046	241.11
440.505	246.61
440.964	262.41
441.424	310.91
441.883	290.01
442.342	246.01
442.801	219.41
443.26	206.11
443.719	207.81
444.178	211.71
444.637	201.91
445.096	205.71
445.555	216.81
446.014	221.51
446.473	209.41
446.932	220.21
447.391	207.61
447.849	224.51
448.308	209.01
448.767	208.71
449.226	228.51
449.685	229.51
450.143	238.91
450.602	228.81
451.061	222.41
451.519	219.21
451.978	229.51
452.436	230.31
452.895	223.81
453.353	239.61
453.812	230.41
454.27	232.01
454.729	223.91
455.187	226.21
455.646	232.21
456.104	229.71
456.562	251.91
457.021	253.71
457.479	248.01
457.937	257.11
458.395	243.61
458.854	232.11
459.312	239.51
459.77	260.31
460.228	243.51
460.686	226.01
461.144	238.01
461.602	234.61
462.06	229.51
462.518	243.21
462.976	242.71
463.434	243.51
463.892	247.51
464.35	263.01
464.808	272.71
465.266	251.51
465.724	257.51
466.181	254.01
466.639	258.71
467.097	270.21
467.555	284.71
468.012	287.51
468.47	293.11
468.928	311.81
469.385	329.41
469.843	331.81
470.3	331.11
470.758	342.91
471.215	364.91
471.673	386.71
472.13	387.51
472.588	392.81
473.045	356.71
473.503	357.61
473.96	368.41
474.417	387.11
474.875	413.41
475.332	448.91
475.789	440.11
476.246	439.31
476.704	461.01
477.161	483.91
477.618	500.01
478.075	534.91
478.532	586.41
478.989	651.81
479.446	755.31
479.903	734.91
480.36	757.11
480.817	827.81
481.274	910.41
481.731	1022.71
482.188	1107.41
482.645	1242.61
483.102	1349.11
483.558	1478.51
484.015	1523.21
484.472	1510.31
484.929	1463.11
485.385	1412.61
485.842	1375.01
486.299	1303.31
486.755	1240.91
487.212	1038.81
487.668	875.61
488.125	812.61
488.582	749.51
489.038	719.01
489.494	672.21
489.951	653.11
490.407	644.91
490.864	620.31
491.32	606.61
491.776	601.61
492.233	617.51
492.689	580.41
493.145	582.91
493.602	568.51
494.058	587.01
494.514	580.21
494.97	600.01
495.426	609.81
495.882	598.51
496.338	580.31
496.794	596.81
497.251	582.71
497.707	614.11
498.163	609.71
498.618	610.01
499.074	610.61
499.53	646.81
499.986	645.11
500.442	623.31
500.898	602.51
501.354	596.41
501.809	606.61
502.265	611.81
502.721	620.11
503.177	639.91
503.632	630.81
504.088	645.11
504.543	674.61
504.999	680.11
505.455	621.11
505.91	608.81
506.366	609.51
506.821	594.91
507.277	584.71
507.732	595.51
508.187	596.91
508.643	598.21
509.098	595.21
509.553	624.11
510.009	624.11
510.464	638.71
510.919	658.51
511.375	658.01
511.83	668.21
512.285	688.01
512.74	722.11
513.195	746.71
513.65	733.61
514.105	731.81
514.56	737.71
515.015	760.31
515.47	768.51
515.925	765.91
516.38	754.11
516.835	763.21
517.29	759.81
517.745	744.31
518.2	728.41
518.655	716.31
519.109	704.51
519.564	706.71
520.019	689.11
520.474	692.51
520.928	686.31
521.383	691.91
521.838	675.31
522.292	671.61
522.747	668.51
523.201	664.91
523.656	650.21
524.11	646.31
524.565	652.21
525.019	652.41
525.474	658.81
525.928	665.11
526.382	657.11
526.837	659.71
527.291	664.31
527.745	656.21
528.2	660.51
528.654	658.51
529.108	653.81
529.562	649.31
530.016	648.31
530.47	653.31
530.925	647.91
531.379	660.41
531.833	678.41
532.287	669.81
532.741	657.01
533.195	666.81
533.649	679.61
534.103	687.01
534.556	681.71
535.01	675.11
535.464	667.41
535.918	685.61
536.372	683.11
536.826	677.41
537.279	661.01
537.733	668.11
538.187	678.11
538.64	676.91
539.094	687.41
539.548	695.11
540.001	675.91
540.455	695.81
540.908	687.31
541.362	690.31
541.815	700.71
542.269	707.01
542.722	709.21
543.175	727.31
543.629	724.51
544.082	736.41
544.536	743.11
544.989	742.91
545.442	746.81
545.895	733.81
546.349	741.41
546.802	746.61
547.255	743.61
547.708	754.11
548.161	774.81
548.614	767.21
549.067	783.21
549.52	764.61
549.973	753.71
550.426	750.51
550.879	747.01
551.332	753.51
551.785	751.41
552.238	754.01
552.691	769.21
553.144	779.61
553.596	786.61
554.049	806.71
554.502	829.61
554.955	857.71
555.407	852.51
555.86	846.11
556.313	838.61
556.765	833.11
557.218	821.91
557.67	825.81
558.123	823.21
558.576	810.41
559.028	824.31
559.48	827.41
559.933	808.61
560.385	777.91
560.838	750.91
561.29	723.51
561.742	719.31
562.195	714.71
562.647	708.81
563.099	715.51
563.551	720.71
564.004	731.71
564.456	717.81
564.908	711.51
565.36	694.11
565.812	675.51
566.264	672.81
566.716	673.41
567.168	660.61
567.62	665.11
568.072	652.01
568.524	638.31
568.976	639.01
569.428	621.11
569.88	625.51
570.332	624.61
570.784	630.81
571.235	630.11
571.687	636.31
572.139	658.31
572.59	657.71
573.042	663.01
573.494	662.21
573.945	649.91
574.397	635.81
574.849	640.41
575.3	638.51
575.752	636.11
576.203	627.21
576.655	633.31
577.106	619.21
577.557	606.61
578.009	619.91
578.46	615.61
578.912	613.81
579.363	615.41
579.814	617.11
580.265	616.11
580.717	616.11
581.168	617.01
581.619	629.61
582.07	628.71
582.521	615.01
582.972	612.31
583.423	631.81
583.875	628.81
584.326	642.41
584.777	686.61
585.227	757.61
585.678	832.51
586.129	917.61
586.58	992.21
587.031	1061.51
587.482	1217.21
587.933	1377.01
588.384	1206.41
588.834	886.51
589.285	734.21
589.736	713.61
590.186	704.51
590.637	701.11
591.088	680.41
591.538	671.11
591.989	667.81
592.439	664.51
592.89	655.51
593.34	648.11
593.791	643.71
594.241	644.61
594.692	647.01
595.142	644.21
595.593	632.01
596.043	648.91
596.493	655.11
596.943	648.41
597.394	653.31
597.844	649.61
598.294	661.81
598.744	683.41
599.195	696.51
599.645	732.91
600.095	779.31
600.545	835.91
600.995	873.01
601.445	924.01
601.895	985.41
602.345	1022.91
602.795	1011.21
603.245	970.41
603.695	920.21
604.145	873.01
604.594	824.91
605.044	778.31
605.494	729.91
605.944	685.41
606.393	674.01
606.843	658.91
607.293	659.71
607.743	656.11
608.192	675.11
608.642	691.51
609.091	678.81
609.541	690.51
609.99	696.51
610.44	689.01
610.889	645.41
611.339	629.11
611.788	622.21
612.238	634.21
612.687	645.91
613.136	648.01
613.586	667.01
614.035	663.91
614.484	686.31
614.933	686.41
615.383	671.81
615.832	667.31
616.281	649.91
616.73	609.41
617.179	592.91
617.628	580.01
618.077	568.71
618.526	558.41
618.975	550.21
619.424	547.11
619.873	540.31
620.322	556.61
620.771	542.81
621.22	541.41
621.669	532.01
622.118	526.31
622.567	514.61
623.015	513.91
623.464	511.71
623.913	497.91
624.361	494.41
624.81	491.61
625.259	499.11
625.707	500.31
626.156	489.01
626.604	506.51
627.053	501.61
627.501	499.21
627.95	514.11
628.398	519.61
628.847	516.41
629.295	505.11
629.744	508.81
630.192	505.41
630.64	508.11
631.089	505.71
631.537	519.41
631.985	515.91
632.433	523.51
632.881	544.51
633.33	589.71
633.778	575.11
634.226	506.01
634.674	505.91
635.122	513.71
635.57	532.21
636.018	554.61
636.466	524.41
636.914	490.51
637.362	512.21
637.81	508.41
638.258	500.61
638.705	511.91
639.153	542.71
639.601	548.81
640.049	569.61
640.497	593.11
640.944	624.41
641.392	573.31
641.84	539.41
642.287	516.41
642.735	506.51
643.182	510.01
643.63	510.21
644.078	501.61
644.525	526.11
644.973	523.01
645.42	531.41
645.867	544.21
646.315	560.31
646.762	599.61
647.21	615.71
647.657	632.41
648.104	662.91
648.551	684.61
648.999	742.11
649.446	808.41
649.893	882.61
650.34	1019.91
650.787	1215.31
651.234	1505.81
651.682	1954.51
652.129	2677.91
652.576	3846.01
653.023	5699.11
653.47	7851.11
653.917	9917.01
654.363	11590.51
654.81	13002.11
655.257	12340.61
655.704	7985.11
656.151	4701.61
656.598	3052.81
657.044	2157.81
657.491	1659.11
657.938	1321.01
658.385	1110.81
658.831	954.21
659.278	854.11
659.724	755.91
660.171	699.61
660.618	630.71
661.064	611.31
661.511	585.71
661.957	572.61
662.404	561.91
662.85	563.71
663.296	550.01
663.743	496.21
664.189	473.21
664.635	464.41
665.082	463.51
665.528	463.91
665.974	457.71
666.42	450.41
666.867	454.51
667.313	424.01
667.759	422.11
668.205	419.41
668.651	426.71
669.097	433.41
669.543	443.51
669.989	417.31
670.435	397.21
670.881	382.61
671.327	390.01
671.773	409.41
672.219	428.21
672.665	471.11
673.11	515.31
673.556	550.91
674.002	590.81
674.448	573.41
674.893	477.31
675.339	416.31
675.785	379.61
676.23	365.41
676.676	338.51
677.122	338.61
677.567	328.81
678.013	325.31
678.458	317.81
678.904	318.41
679.349	299.51
679.794	307.61
680.24	302.71
680.685	301.71
681.131	305.81
681.576	303.41
682.021	310.11
682.466	302.61
682.912	302.61
683.357	305.41
683.802	327.11
684.247	355.11
684.692	394.61
685.137	433.51
685.583	463.41
686.028	489.51
686.473	451.41
686.918	390.41
687.363	364.61
687.807	344.31
688.252	312.31
688.697	305.11
689.142	288.81
689.587	292.11
690.032	279.51
690.477	296.01
690.921	313.41
691.366	334.31
691.811	354.81
692.255	369.81
692.7	396.31
693.145	426.71
693.589	579.71
694.034	957.81
694.478	1325.81
694.923	1522.91
695.367	1998.91
695.812	1048.21
696.256	436.51
696.701	333.01
697.145	295.51
697.59	287.11
698.034	281.01
698.478	288.81
698.922	278.11
699.367	275.51
699.811	296.81
700.255	301.71
700.699	332.31
701.143	362.51
701.588	414.61
702.032	454.41
702.476	444.11
702.92	425.01
703.364	423.91
703.808	543.01
704.252	869.41
704.696	1230.71
705.14	1451.51
705.584	1882.71
706.027	933.31
706.471	454.81
706.915	343.91
707.359	298.91
707.803	276.11
708.246	266.91
708.69	276.41
709.134	268.01
709.577	267.81
710.021	275.51
710.465	260.81
710.908	253.31
711.352	257.81
711.795	269.41
712.239	304.81
712.682	324.71
713.126	359.81
713.569	407.41
714.012	319.41
714.456	284.01
714.899	261.41
715.342	238.51
715.786	228.81
716.229	226.81
716.672	219.21
717.115	213.01
717.558	218.11
718.002	216.11
718.445	222.81
718.888	246.11
719.331	253.71
719.774	265.81
720.217	261.91
720.66	242.51
721.103	234.51
721.546	218.71
721.989	214.11
722.432	198.21
722.874	207.51
723.317	197.41
723.76	205.71
724.203	222.71
724.645	271.71
725.088	381.71
725.531	496.51
725.974	563.01
726.416	481.51
726.859	267.01
727.301	216.01
727.744	205.01
728.187	205.11
728.629	212.91
729.071	202.61
729.514	219.61
729.956	230.01
730.399	245.81
730.841	251.61
731.283	233.81
731.726	224.91
732.168	227.71
732.61	237.81
733.053	244.41
733.495	275.01
733.937	301.61
734.379	342.51
734.821	368.11
735.263	458.21
735.705	697.91
736.148	1301.11
736.59	2190.91
737.032	2710.31
737.474	2194.21
737.916	704.61
738.357	366.41
738.799	280.31
739.241	258.21
739.683	249.81
740.125	249.71
740.567	255.71
741.008	270.41
741.45	274.51
741.892	268.51
742.334	295.51
742.775	305.91
743.217	295.31
743.658	236.01
744.1	210.91
744.542	223.31
744.983	265.11
745.425	299.81
745.866	299.91
746.307	241.51
746.749	244.61
747.19	274.41
747.632	380.61
748.073	721.61
748.514	1558.61
748.956	2440.71
749.397	3064.51
749.838	2555.21
750.279	2621.21
750.72	1295.81
751.162	467.11
751.603	275.81
752.044	219.41
752.485	185.51
752.926	186.51
753.367	174.71
753.808	167.21
754.249	164.81
754.69	156.21
755.131	156.51
755.572	151.81
756.013	154.61
756.453	154.01
756.894	162.21
757.335	167.31
757.776	167.41
758.216	165.21
758.657	164.61
759.098	172.21
759.538	185.71
759.979	222.61
760.42	314.41
760.86	582.31
761.301	1501.81
761.741	3728.51
762.182	5724.31
762.622	4001.81
763.063	1134.51
763.503	454.41
763.943	296.11
764.384	279.91
764.824	344.91
765.264	382.31
765.705	260.21
766.145	184.71
766.585	161.11
767.025	154.21
767.465	155.41
767.906	209.21
768.346	275.51
768.786	295.51
769.226	227.41
769.666	265.81
770.106	505.51
770.546	1287.31
770.986	2313.71
771.426	2089.01
771.866	684.51
772.306	281.41
772.745	182.11
773.185	153.11
773.625	146.41
774.065	140.91
774.505	167.61
774.944	253.91
775.384	568.71
775.824	1065.21
776.263	1048.41
776.703	448.11
777.142	195.71
777.582	130.51
778.021	118.41
778.461	117.31
778.9	121.31
779.34	119.51
779.779	105.31
780.219	91.11
780.658	93.01
781.097	96.31
781.537	102.21
781.976	98.91
782.415	85.31
782.855	83.41
783.294	88.21
783.733	92.01
784.172	95.01
784.611	87.01
785.05	93.51
785.489	95.81
785.928	101.61
786.367	105.71
786.806	102.11
787.245	110.11
787.684	113.51
788.123	124.81
788.562	116.11
789.001	104.31
789.44	106.01
789.879	100.21
790.317	104.61
790.756	106.61
791.195	106.61
791.634	121.51
792.072	168.71
792.511	294.81
792.95	831.21
793.388	1860.01
793.827	1719.61
794.265	595.51
794.704	248.11
795.142	154.61
795.581	133.11
796.019	119.81
796.458	111.41
796.896	104.41
797.334	111.61
797.773	129.01
798.211	189.31
798.649	367.51
799.087	859.51
799.526	1364.51
799.964	1731.11
800.402	1797.01
800.84	658.41
801.278	252.91
801.716	165.61
802.154	130.51
802.592	122.21
803.03	127.91
803.468	113.41
803.906	125.11
804.344	126.81
804.782	120.01
805.22	111.21
805.658	109.11
806.096	125.31
806.533	135.81
806.971	145.81
807.409	185.61
807.847	254.81
808.284	545.11
808.722	1560.41
809.16	2874.11
809.597	2637.21
810.035	4665.61
810.472	5173.41
810.91	1852.31
811.347	686.01
811.785	344.41
812.222	222.01
812.66	165.41
813.097	141.51
813.535	122.71
813.972	119.81
814.409	105.31
814.846	94.01
815.284	98.41
815.721	86.51
816.158	96.11
816.595	94.91
817.032	152.41
817.47	171.11
817.907	140.41
818.344	133.11
818.781	100.41
819.218	82.61
819.655	103.21
820.092	161.21
820.529	190.91
820.966	150.51
821.403	119.51
821.839	97.81
822.276	85.61
822.713	104.21
823.15	121.31
823.587	104.81
824.023	127.41
824.46	245.41
824.897	747.61
825.333	1194.51
825.77	510.21
826.206	205.51
826.643	116.31
827.08	86.01
827.516	72.11
827.953	65.41
828.389	68.01
828.825	62.21
829.262	65.01
829.698	54.81
830.135	52.51
830.571	53.41
831.007	55.71
831.443	51.51
831.88	52.81
832.316	49.21
832.752	51.31
833.188	49.61
833.624	52.91
834.06	58.71
834.497	55.41
834.933	63.81
835.369	65.61
835.805	61.61
836.241	71.91
836.677	68.11
837.112	80.71
837.548	84.61
837.984	111.21
838.42	172.91
838.856	408.11
839.292	1293.11
839.727	2036.91
840.163	936.91
840.599	778.51
841.034	1753.21
841.47	1901.61
841.906	678.51
842.341	282.41
842.777	190.11
843.212	273.31
843.648	271.11
844.083	133.11
844.519	84.51
844.954	67.91
845.39	52.51
845.825	53.41
846.261	49.61
846.696	41.61
847.131	44.51
847.566	50.21
848.002	41.01
848.437	45.81
848.872	48.01
849.307	54.41
849.742	69.91
850.177	149.21
850.613	465.21
851.048	769.11
851.483	331.21
851.918	129.61
852.353	73.91
852.788	48.31
853.223	45.11
853.657	47.31
854.092	39.81
854.527	36.51
854.962	34.51
855.397	41.11
855.832	40.51
856.266	38.61
856.701	33.31
857.136	33.41
857.57	35.01
858.005	38.31
858.44	49.81
858.874	38.31
859.309	50.61
859.743	27.61
860.178	41.11
860.612	35.51
861.047	48.71
861.481	61.51
861.915	62.11
862.35	45.61
862.784	25.31
863.218	30.91
863.653	26.61
864.087	42.81
864.521	51.31
864.955	54.21
865.39	136.51
865.824	151.51
866.258	95.61
866.692	142.11
867.126	160.81
867.56	93.91
867.994	45.11
868.428	29.91
868.862	38.61
869.296	46.41
869.73	49.21
870.164	46.41
870.598	40.01
871.031	28.21
871.465	30.31
871.899	31.01
872.333	19.01
872.766	23.81
873.2	23.21
873.634	30.61
874.067	24.71
874.501	21.51
874.935	30.21
875.368	27.51
875.802	24.81
876.235	27.91
876.669	17.31
877.102	20.11
877.535	23.41
877.969	14.21
878.402	19.81
878.836	13.31
879.269	21.21
879.702	22.61
880.135	20.11
880.569	18.61
881.002	25.51
881.435	16.21
881.868	12.81
882.301	18.11
882.734	16.11
883.167	15.91
883.601	19.91
884.034	18.91
884.467	14.11
884.899	19.21
885.332	12.71
885.765	11.51
886.198	14.81
886.631	11.91
887.064	18.21
887.497	19.11
887.929	15.81
888.362	13.51
888.795	5.61
889.228	17.41
889.66	10.71
890.093	16.11
890.526	17.81
890.958	17.71
891.391	13.51
891.823	20.81
892.256	10.11
892.688	10.01
893.121	11.31
893.553	11.91
893.985	19.71
894.418	13.51
894.85	12.91
895.282	16.01
895.715	10.51
896.147	18.11
896.579	15.81
897.011	11.91
897.444	11.51
897.876	11.21
898.308	16.11
898.74	10.11
899.172	12.01
899.604	26.41
900.036	21.91
900.468	17.51
900.9	13.91
901.332	19.41
901.764	11.91
902.196	19.11
902.628	11.41
903.06	12.21
903.491	23.01
903.923	19.11
904.355	16.11
904.787	22.61
905.218	28.01
905.65	20.51
906.082	9.01
906.513	11.11
906.945	12.41
907.376	11.81
907.808	21.31
908.239	27.31
908.671	16.41
909.102	20.01
909.534	23.01
909.965	42.01
910.397	83.51
910.828	275.11
911.259	416.51
911.691	200.21
912.122	95.51
912.553	42.81
912.984	29.21
913.415	22.41
913.847	22.21
914.278	15.31
914.709	13.31
915.14	18.61
915.571	14.81
916.002	12.91
916.433	21.71
916.864	22.21
917.295	10.41
917.726	13.81
918.157	6.81
918.587	25.51
919.018	18.91
919.449	17.81
919.88	17.91
920.311	28.61
920.741	44.71
921.172	141.31
921.603	139.71
922.033	60.91
922.464	38.11
922.895	21.31
923.325	14.81
923.756	9.81
924.186	10.81
924.617	23.41
925.047	32.01
925.478	45.41
925.908	38.81
926.338	23.01
926.769	15.01
927.199	17.81
927.629	8.11
928.06	14.21
928.49	11.41
928.92	9.91
929.35	4.01
929.78	11.41
930.21	4.41
930.641	0.61
931.071	4.41
931.501	9.81
931.931	9.01
932.361	6.11
932.791	6.41
933.221	6.11
933.651	1.41
934.08	16.81
934.51	28.51
934.94	2.71
935.37	11.31
935.8	10.01
936.229	10.21
936.659	14.51
937.089	2.71
937.519	12.21
937.948	18.41
938.378	9.31
938.807	-0.29
939.237	6.91
939.666	9.91
940.096	-4.39
940.525	-4.69
940.955	4.41
941.384	2.31
941.814	-9.69
942.243	-0.09
942.672	7.81
943.102	-3.89
943.531	0.11
943.96	6.41
944.39	-3.89
944.819	3.31
945.248	8.61
945.677	5.11
946.106	7.01
946.535	8.41
946.964	2.11
947.393	7.21
947.822	-0.89
948.251	-1.19
948.68	4.71
949.109	8.71
949.538	7.71
949.967	4.61
950.396	-3.59
950.825	-4.59
951.254	-2.09
951.682	-6.29
952.111	0.01
952.54	5.21
952.969	-1.59
953.397	-8.19
953.826	4.11
954.254	-3.29
954.683	-3.79
955.112	-5.89
955.54	-1.59
955.969	-0.29
956.397	3.71
956.826	-0.89
957.254	7.41
957.682	4.81
958.111	5.21
958.539	-0.89
958.967	-2.79
959.396	1.21
959.824	7.31
960.252	6.61
960.68	-4.29
961.109	3.71
961.537	-3.49
961.965	-2.69
962.393	-3.89
962.821	-5.29
963.249	4.61
963.677	4.81
964.105	9.31
964.533	33.31
964.961	36.51
965.389	21.41
965.817	9.71
966.245	1.01
966.672	-0.69
967.1	-6.49
967.528	-2.59
967.956	-7.59
968.383	0.61
968.811	-6.19
969.239	-1.79
969.666	-7.79
970.094	2.61
970.522	0.91
970.949	1.41
971.377	-1.19
971.804	-2.09
972.232	-4.59
972.659	-5.09
973.087	-1.59
973.514	1.51
973.941	-6.09
974.369	2.11
974.796	2.71
975.223	4.01
975.651	-1.69
976.078	3.01
976.505	3.71
976.932	-1.09
977.359	15.31
977.786	14.61
978.214	-1.49
978.641	-1.19
979.068	-1.99
979.495	-6.09
979.922	0.61
980.349	-0.89
980.776	10.81
981.202	0.21
981.629	-1.29
982.056	-1.59
982.483	1.81
982.91	5.41
983.337	2.41
983.763	5.01
984.19	-2.89
984.617	-5.69
985.043	-9.69
985.47	5.11
985.897	2.91
986.323	-4.39
986.75	4.21
987.176	-2.59
987.603	1.01
988.029	-0.49
988.456	-2.69
988.882	1.01
989.308	-9.39
989.735	-1.79
990.161	4.21
990.587	-3.29
991.014	-0.29
991.44	5.11
991.866	-0.79
992.292	-5.49
992.719	0.11
993.145	3.31
993.571	-12.99
993.997	-3.19
994.423	-0.59
994.849	-2.29
995.275	-0.59
995.701	4.71
996.127	-1.89
996.553	5.61
996.979	-8.09
997.405	-1.99
997.83	-1.09
998.256	-8.69
998.682	-7.59
999.108	-7.19
999.534	1.41
999.959	-5.99
1000.385	-5.49
1000.811	1.31
1001.236	-6.99
1001.662	-5.99
1002.087	-11.19
1002.513	0.81
1002.938	5.41
1003.364	-1.79
1003.789	-0.89
1004.215	0.51
1004.64	-4.09
1005.066	0.51
1005.491	4.31
1005.916	1.71
1006.342	-2.29
1006.767	-5.49
1007.192	2.71
1007.617	-6.89
1008.042	-5.39
1008.468	-9.49
1008.893	-2.29
1009.318	-0.49
1009.743	-6.59
1010.168	4.31
1010.593	-1.19
1011.018	-5.89
1011.443	-0.19
1011.868	-0.09
1012.293	-8.79
1012.718	-6.49
1013.143	-0.89
1013.567	-2.59
1013.992	-2.19
1014.417	-11.19
1014.842	7.31
1015.267	-7.29
1015.691	-5.19
1016.116	4.81
1016.541	-3.49
1016.965	0.11
1017.39	-1.29
1017.814	0.11
1018.239	-3.79
1018.663	2.51
1019.088	-11.09
1019.512	-1.29
1019.937	-3.69
1020.361	3.21
1020.785	-7.59
1021.21	3.21
1021.634	3.01
1022.058	0.31
1022.483	-0.29
1022.907	-0.49
1023.331	-5.39
1023.755	-4.99
1024.179	3.11
1024.604	-1.19
1025.028	-8.19
1025.452	-10.39
1025.876	-0.69
1026.3	3.81
1026.724	-11.79
1027.148	-2.49
1027.572	-10.09
1027.996	-4.99
1028.42	1.11
1028.843	-11.89
1029.267	-4.99
1029.691	-2.49
1030.115	-3.99
1030.539	-6.39
1030.962	-7.59
1031.386	-10.09
1031.81	0.41
1032.233	0.71
1032.657	-1.99
1033.08	-3.19
1033.504	-2.09
1033.927	-4.49
1034.351	-3.29
1034.774	-1.19
1035.198	-5.69
1035.621	-4.39
1036.045	-6.19
1036.468	0.81
1036.891	-8.19
1037.315	-11.79
1037.738	-8.59
1038.161	-1.19
1038.584	-2.29
1039.008	-4.79
1039.431	-8.39
1039.854	-7.19
1040.277	-1.39
1040.7	-9.99
1041.123	0.01
1041.546	-6.29
1041.969	-1.49
1042.392	-3.59
1042.815	-0.09
1043.238	-0.29
1043.661	6.91
1044.084	-7.39
1044.507	-5.39
1044.93	-5.99
1045.352	-10.79
1045.775	-5.39
1046.198	0.71
1046.621	-2.59
1047.043	4.31
1047.466	7.01
1047.889	-5.29
1048.311	-9.09
1048.734	-2.09
1049.156	0.71
1049.579	-2.29
1050.001	-4.19
1050.424	-0.09
1050.846	-6.29
1051.269	-1.09
1051.691	0.41
1052.113	-3.59
1052.536	0.01
1052.958	-1.19
1053.38	-6.29
1053.802	-5.39
1054.225	5.21
1054.647	-8.19
1055.069	-3.99
1055.491	1.01
1055.913	-8.19
1056.335	0.01
1056.757	-5.49
1057.179	-4.59
1057.601	-1.39
1058.023	1.11
1058.445	-2.49
1058.867	-2.09
1059.289	-6.39
1059.711	-7.89
1060.133	-1.49
1060.555	-5.29
1060.976	-8.59
1061.398	0.01
1061.82	-4.89
1062.241	-4.99
1062.663	-6.19
1063.085	-0.69
1063.506	-1.49
1063.928	-8.99
1064.35	2.91
1064.771	-12.89
1065.193	-2.49
1065.614	-13.59
1066.035	-1.29
1066.457	-2.79
1066.878	2.51
1067.3	-7.59
1067.721	-4.29
1068.142	-0.99
1068.564	-7.49
1068.985	-8.99
1069.406	-7.59
1069.827	-9.49
1070.248	-2.89
1070.67	-7.79
1071.091	-6.59
1071.512	-1.99
1071.933	-11.29
1072.354	-7.29
1072.775	-3.09
1073.196	-9.69
1073.617	-4.69
1074.038	-8.49
1074.459	-5.49
1074.88	-10.99
1075.3	-2.29
1075.721	-4.89
1076.142	1.61
1076.563	-0.89
1076.983	-9.39
1077.404	-9.49
1077.825	-8.99
1078.246	-3.99
1078.666	-9.39
1079.087	-8.19
1079.507	-6.59
1079.928	0.21
1080.348	-4.49
1080.769	-2.69
1081.189	-1.89
1081.61	2.21
1082.03	-7.49
1082.451	-8.69
1082.871	-5.69
1083.291	-4.19
1083.711	-3.39
1084.132	-3.99
1084.552	-4.39
1084.972	1.11
1085.392	-9.69
1085.813	-8.09
1086.233	-7.09
1086.653	-2.39
1087.073	3.21
1087.493	-3.79
1087.913	-4.09
1088.333	-9.79
1088.753	-5.79
1089.173	-0.99
1089.593	-4.09
1090.013	-2.39
1090.433	1.11
1090.852	-2.19
1091.272	-4.19
1091.692	-6.69
1092.112	1.21
1092.531	-10.99
1092.951	-14.49
1093.371	-5.29
1093.79	0.51
1094.21	-10.49
1094.63	-0.59
1095.049	-1.59
1095.469	-2.59
1095.888	3.51
1096.308	-3.39
1096.727	0.61
1097.146	-2.99
1097.566	-3.49
1097.985	-6.39
1098.405	-1.19
1098.824	-5.29
1099.243	-3.99
1099.662	-6.89
1100.082	-3.79
1100.501	2.81
1100.92	-6.59
1101.339	-2.29
1101.758	-0.39
