Data from 20171114-ORNL-Ar_H_NY_Subt18_08-07-36-621.txt Node
Date: Tue Nov 14 08:07:36 EST 2017
User: Ender
Spectrometer: HR+D1039
Trigger mode: 0
Integration Time (sec): 2.730000E-2
Scans to average: 10
Electric dark correction enabled: true
Nonlinearity correction enabled: false
Boxcar width: 0
XAxis mode: Wavelengths
Number of Pixels in Spectrum: 2048
>>>>>Begin Spectral Data<<<<<
187.836	-6.58
188.309	-6.58
188.782	-6.58
189.255	-2.68
189.728	0.33
190.201	12.23
190.674	-0.38
191.147	5.52
191.619	-6.88
192.092	3.02
192.565	2.72
193.038	-2.28
193.511	4.62
193.984	-1.27
194.456	-5.48
194.929	0.73
195.402	-2.68
195.874	-0.98
196.347	1.12
196.82	-5.08
197.292	3.62
197.765	-2.57
198.237	-9.58
198.71	3.82
199.182	4.73
199.655	1.52
200.127	4.92
200.6	-1.88
201.072	-1.48
201.544	-5.88
202.017	-2.98
202.489	6.42
202.961	2.33
203.433	-3.08
203.906	-4.38
204.378	-8.77
204.85	-1.78
205.322	-12.48
205.794	0.72
206.266	-0.27
206.739	-3.88
207.211	4.12
207.683	-6.17
208.155	-5.18
208.627	-7.58
209.099	1.52
209.57	-12.57
210.042	-8.78
210.514	-1.48
210.986	1.23
211.458	-5.68
211.93	-4.58
212.402	-2.08
212.873	-4.38
213.345	-9.17
213.817	-7.78
214.288	-5.68
214.76	-10.28
215.232	-2.98
215.703	2.83
216.175	-2.77
216.646	-5.38
217.118	-6.28
217.589	-5.07
218.061	-3.38
218.532	-5.27
219.004	-5.08
219.475	-3.58
219.946	-2.58
220.418	-5.77
220.889	2.92
221.36	0.23
221.832	-7.38
222.303	-2.88
222.774	2.02
223.245	-11.57
223.717	-9.48
224.188	-5.17
224.659	-9.48
225.13	-11.38
225.601	-5.18
226.072	-1.48
226.543	-5.68
227.014	0.72
227.485	-0.88
227.956	-8.38
228.427	-6.98
228.898	2.62
229.369	5.32
229.839	-4.08
230.31	-6.28
230.781	4.52
231.252	-2.38
231.722	-6.78
232.193	-5.38
232.664	-1.08
233.135	0.92
233.605	-1.38
234.076	-5.28
234.546	0.22
235.017	2.73
235.487	0.02
235.958	-1.27
236.428	-2.68
236.899	3.43
237.369	-5.17
237.84	-0.68
238.31	4.12
238.78	-1.27
239.251	-0.38
239.721	5.42
240.191	-0.27
240.662	-1.88
241.132	-2.38
241.602	-2.88
242.072	0.42
242.542	7.02
243.013	1.92
243.483	6.83
243.953	2.62
244.423	2.52
244.893	-0.88
245.363	1.12
245.833	3.73
246.303	1.73
246.773	10.92
247.243	-2.78
247.712	5.02
248.182	11.82
248.652	7.32
249.122	-1.78
249.592	9.92
250.061	16.42
250.531	31.02
251.001	9.73
251.471	27.12
251.94	15.92
252.41	1.33
252.879	1.73
253.349	9.12
253.818	9.92
254.288	7.33
254.757	3.73
255.227	2.83
255.696	5.82
256.166	4.83
256.635	-0.08
257.105	4.93
257.574	-2.58
258.043	5.33
258.513	7.32
258.982	16.43
259.451	2.52
259.92	8.62
260.389	7.83
260.859	16.42
261.328	18.52
261.797	18.73
262.266	9.92
262.735	10.33
263.204	3.92
263.673	1.32
264.142	2.23
264.611	-6.38
265.08	3.62
265.549	-3.38
266.018	2.73
266.487	-4.88
266.955	-3.98
267.424	-4.58
267.893	3.93
268.362	-7.07
268.83	-0.08
269.299	6.62
269.768	2.92
270.236	6.33
270.705	-2.48
271.174	5.73
271.642	4.62
272.111	5.23
272.579	8.42
273.048	18.22
273.516	23.83
273.985	24.62
274.453	22.92
274.922	19.12
275.39	10.32
275.858	-3.58
276.327	5.32
276.795	15.83
277.263	12.72
277.731	26.12
278.2	44.52
278.668	52.02
279.136	35.92
279.604	17.62
280.072	12.52
280.54	9.83
281.008	6.02
281.477	9.02
281.945	10.23
282.413	11.92
282.881	12.83
283.348	8.02
283.816	8.42
284.284	8.22
284.752	19.32
285.22	10.62
285.688	12.12
286.156	13.33
286.623	37.73
287.091	43.33
287.559	25.52
288.026	6.92
288.494	13.32
288.962	4.23
289.429	10.02
289.897	11.33
290.364	5.32
290.832	13.62
291.3	9.02
291.767	13.93
292.234	16.12
292.702	9.02
293.169	15.23
293.637	15.52
294.104	18.52
294.571	0.82
295.039	5.02
295.506	6.82
295.973	20.62
296.44	6.33
296.908	13.93
297.375	11.23
297.842	13.32
298.309	9.92
298.776	12.02
299.243	18.52
299.71	15.32
300.177	13.62
300.644	20.23
301.111	18.12
301.578	15.42
302.045	14.83
302.512	16.02
302.979	24.52
303.446	18.22
303.913	10.83
304.379	8.92
304.846	18.73
305.313	18.02
305.78	18.22
306.246	20.02
306.713	19.72
307.18	14.43
307.646	17.82
308.113	17.12
308.579	18.52
309.046	18.43
309.512	16.33
309.979	10.42
310.445	20.22
310.912	19.82
311.378	25.92
311.845	26.23
312.311	25.32
312.777	23.62
313.244	28.52
313.71	30.82
314.176	25.62
314.642	30.12
315.109	27.73
315.575	29.42
316.041	33.83
316.507	32.62
316.973	34.02
317.439	30.73
317.905	35.83
318.371	29.12
318.837	28.43
319.303	23.72
319.769	32.12
320.235	29.82
320.701	30.92
321.167	31.32
321.633	23.93
322.099	26.02
322.564	42.32
323.03	30.62
323.496	35.83
323.962	31.93
324.427	36.62
324.893	35.82
325.359	26.92
325.824	33.52
326.29	34.92
326.755	26.82
327.221	27.72
327.686	35.42
328.152	42.52
328.617	35.62
329.083	39.32
329.548	35.52
330.014	39.62
330.479	35.02
330.944	36.72
331.41	40.52
331.875	38.62
332.34	37.33
332.805	40.22
333.271	41.23
333.736	38.12
334.201	47.73
334.666	49.72
335.131	51.12
335.596	37.92
336.061	45.52
336.526	36.52
336.991	42.93
337.456	48.62
337.921	44.32
338.386	38.73
338.851	35.42
339.316	40.23
339.781	44.42
340.246	46.23
340.711	36.02
341.175	38.32
341.64	38.42
342.105	42.33
342.569	50.22
343.034	53.82
343.499	51.02
343.963	49.83
344.428	56.43
344.893	49.32
345.357	50.32
345.822	50.52
346.286	53.52
346.751	59.12
347.215	57.12
347.679	61.23
348.144	82.82
348.608	70.42
349.073	54.92
349.537	60.52
350.001	68.52
350.465	75.33
350.93	74.12
351.394	67.23
351.858	63.62
352.322	76.83
352.786	69.33
353.25	88.42
353.715	94.23
354.179	86.92
354.643	99.33
355.107	113.42
355.571	95.92
356.035	87.92
356.498	102.62
356.962	103.12
357.426	109.92
357.89	100.23
358.354	80.42
358.818	71.92
359.281	73.52
359.745	60.33
360.209	69.12
360.673	63.33
361.136	69.23
361.6	76.82
362.064	74.62
362.527	75.32
362.991	77.82
363.454	68.73
363.918	68.62
364.381	68.02
364.845	73.22
365.308	78.32
365.772	78.42
366.235	75.12
366.698	74.92
367.162	72.72
367.625	79.02
368.088	75.82
368.552	79.52
369.015	81.02
369.478	88.02
369.941	91.02
370.404	78.62
370.867	98.92
371.331	93.22
371.794	104.72
372.257	97.92
372.72	106.02
373.183	99.73
373.646	93.92
374.109	95.23
374.572	99.82
375.035	101.52
375.497	96.42
375.96	98.23
376.423	93.02
376.886	108.12
377.349	100.52
377.811	93.33
378.274	98.62
378.737	94.22
379.199	101.62
379.662	97.73
380.125	112.12
380.587	105.23
381.05	107.62
381.512	119.82
381.975	119.02
382.437	116.73
382.9	117.82
383.362	122.52
383.825	128.83
384.287	139.23
384.75	130.32
385.212	128.72
385.674	127.22
386.136	133.33
386.599	113.62
387.061	120.33
387.523	125.23
387.985	126.72
388.447	144.32
388.91	132.73
389.372	153.12
389.834	153.82
390.296	136.92
390.758	150.12
391.22	162.92
391.682	197.52
392.144	281.12
392.606	219.42
393.068	156.52
393.529	164.22
393.991	145.42
394.453	140.22
394.915	147.02
395.377	179.92
395.838	211.02
396.3	145.02
396.762	130.33
397.224	130.12
397.685	121.82
398.147	126.43
398.608	119.12
399.07	123.42
399.531	129.23
399.993	132.83
400.454	144.52
400.916	133.52
401.377	136.23
401.839	144.12
402.3	142.92
402.762	158.42
403.223	165.12
403.684	166.02
404.145	153.72
404.607	147.92
405.068	155.52
405.529	155.62
405.99	176.42
406.451	161.42
406.913	158.72
407.374	153.32
407.835	155.42
408.296	157.73
408.757	159.12
409.218	172.82
409.679	170.73
410.14	163.52
410.601	164.12
411.062	175.33
411.522	184.73
411.983	184.02
412.444	167.02
412.905	169.62
413.366	174.52
413.826	186.62
414.287	211.92
414.748	252.72
415.208	235.12
415.669	202.82
416.13	199.52
416.59	187.82
417.051	205.12
417.511	207.62
417.972	225.82
418.432	229.22
418.893	275.72
419.353	241.73
419.814	191.32
420.274	178.32
420.734	175.02
421.195	190.82
421.655	181.93
422.115	189.52
422.576	185.72
423.036	185.42
423.496	193.92
423.956	211.93
424.416	215.12
424.876	254.02
425.336	253.92
425.797	250.12
426.257	242.93
426.717	226.23
427.177	220.92
427.637	217.02
428.097	218.23
428.556	235.12
429.016	257.92
429.476	251.52
429.936	263.43
430.396	269.02
430.856	285.73
431.315	300.32
431.775	330.73
432.235	367.92
432.694	334.02
433.154	344.92
433.614	369.02
434.073	328.52
434.533	276.32
434.993	257.62
435.452	268.12
435.912	283.23
436.371	278.63
436.83	280.02
437.29	265.02
437.749	239.33
438.209	237.83
438.668	258.12
439.127	277.22
439.587	256.43
440.046	240.12
440.505	248.63
440.964	264.62
441.424	307.12
441.883	297.23
442.342	244.43
442.801	213.12
443.26	209.22
443.719	213.22
444.178	215.72
444.637	199.32
445.096	214.62
445.555	217.92
446.014	213.82
446.473	209.42
446.932	228.82
447.391	215.62
447.849	224.93
448.308	216.72
448.767	212.43
449.226	226.32
449.685	231.42
450.143	241.42
450.602	227.02
451.061	218.33
451.519	224.63
451.978	227.42
452.436	225.83
452.895	239.73
453.353	247.62
453.812	228.73
454.27	231.52
454.729	231.43
455.187	237.52
455.646	231.93
456.104	242.03
456.562	251.62
457.021	260.92
457.479	247.92
457.937	260.02
458.395	251.73
458.854	236.33
459.312	247.92
459.77	268.22
460.228	243.82
460.686	230.52
461.144	243.92
461.602	238.23
462.06	243.23
462.518	248.23
462.976	238.42
463.434	246.22
463.892	255.22
464.35	266.02
464.808	275.42
465.266	253.72
465.724	259.63
466.181	264.92
466.639	259.12
467.097	275.72
467.555	293.72
468.012	289.62
468.47	293.33
468.928	315.12
469.385	334.73
469.843	341.02
470.3	334.43
470.758	356.42
471.215	369.62
471.673	395.02
472.13	392.93
472.588	401.53
473.045	362.13
473.503	368.63
473.96	380.62
474.417	385.72
474.875	413.92
475.332	470.53
475.789	448.93
476.246	449.52
476.704	471.62
477.161	497.33
477.618	500.42
478.075	548.23
478.532	602.22
478.989	670.22
479.446	774.23
479.903	748.43
480.36	783.83
480.817	838.52
481.274	946.83
481.731	1045.72
482.188	1132.72
482.645	1267.33
483.102	1357.23
483.558	1488.33
484.015	1550.93
484.472	1527.22
484.929	1477.62
485.385	1426.33
485.842	1388.93
486.299	1322.52
486.755	1264.83
487.212	1058.53
487.668	900.92
488.125	824.72
488.582	759.02
489.038	720.22
489.494	685.82
489.951	666.83
490.407	650.23
490.864	629.52
491.32	623.03
491.776	622.33
492.233	631.52
492.689	595.33
493.145	589.12
493.602	583.62
494.058	606.92
494.514	599.63
494.97	610.82
495.426	627.92
495.882	602.22
496.338	598.12
496.794	605.92
497.251	593.83
497.707	614.63
498.163	624.72
498.618	622.73
499.074	616.72
499.53	645.62
499.986	650.42
500.442	630.93
500.898	614.93
501.354	616.73
501.809	611.52
502.265	633.92
502.721	640.23
503.177	651.23
503.632	653.42
504.088	651.82
504.543	684.93
504.999	696.72
505.455	641.73
505.91	622.03
506.366	622.42
506.821	618.92
507.277	599.32
507.732	615.73
508.187	608.22
508.643	618.12
509.098	618.92
509.553	630.82
510.009	652.73
510.464	649.33
510.919	677.62
511.375	674.23
511.83	687.12
512.285	697.02
512.74	733.12
513.195	763.53
513.65	741.73
514.105	753.32
514.56	760.02
515.015	774.63
515.47	790.03
515.925	764.13
516.38	763.42
516.835	777.33
517.29	759.82
517.745	751.23
518.2	740.62
518.655	723.73
519.109	722.93
519.564	715.93
520.019	714.33
520.474	711.63
520.928	702.43
521.383	696.23
521.838	690.62
522.292	691.83
522.747	688.22
523.201	700.02
523.656	686.72
524.11	684.43
524.565	675.62
525.019	672.32
525.474	677.83
525.928	686.82
526.382	680.83
526.837	681.22
527.291	692.22
527.745	676.82
528.2	698.52
528.654	676.62
529.108	676.62
529.562	676.12
530.016	679.13
530.47	669.52
530.925	674.33
531.379	678.33
531.833	690.62
532.287	686.52
532.741	684.52
533.195	687.52
533.649	690.92
534.103	702.03
534.556	693.62
535.01	699.82
535.464	688.22
535.918	695.52
536.372	707.23
536.826	706.82
537.279	688.23
537.733	698.72
538.187	692.92
538.64	701.92
539.094	714.03
539.548	711.43
540.001	707.52
540.455	713.23
540.908	714.42
541.362	729.22
541.815	729.72
542.269	746.52
542.722	751.33
543.175	748.83
543.629	752.73
544.082	770.33
544.536	765.53
544.989	764.93
545.442	775.62
545.895	774.12
546.349	773.13
546.802	784.92
547.255	787.72
547.708	786.83
548.161	794.23
548.614	813.02
549.067	810.42
549.52	804.12
549.973	799.92
550.426	787.23
550.879	771.22
551.332	783.93
551.785	792.52
552.238	785.22
552.691	801.73
553.144	817.92
553.596	837.52
554.049	840.22
554.502	869.12
554.955	887.62
555.407	887.33
555.86	886.52
556.313	871.33
556.765	863.82
557.218	871.12
557.67	868.32
558.123	853.62
558.576	852.22
559.028	852.23
559.48	864.02
559.933	854.42
560.385	815.32
560.838	793.62
561.29	764.72
561.742	759.23
562.195	761.72
562.647	743.82
563.099	758.73
563.551	760.83
564.004	770.82
564.456	759.32
564.908	748.02
565.36	732.02
565.812	727.62
566.264	712.63
566.716	714.93
567.168	707.62
567.62	711.43
568.072	692.12
568.524	685.82
568.976	684.42
569.428	663.22
569.88	660.52
570.332	670.52
570.784	669.52
571.235	672.23
571.687	682.42
572.139	677.62
572.59	692.12
573.042	701.02
573.494	703.43
573.945	690.92
574.397	672.72
574.849	685.12
575.3	669.22
575.752	663.22
576.203	672.32
576.655	668.62
577.106	650.92
577.557	654.63
578.009	648.93
578.46	660.82
578.912	654.32
579.363	663.62
579.814	656.62
580.265	654.43
580.717	652.33
581.168	667.33
581.619	671.02
582.07	682.32
582.521	664.12
582.972	663.12
583.423	666.93
583.875	669.22
584.326	698.52
584.777	738.52
585.227	809.12
585.678	911.02
586.129	999.32
586.58	1079.13
587.031	1155.32
587.482	1298.33
587.933	1486.62
588.384	1284.33
588.834	971.42
589.285	793.82
589.736	777.12
590.186	762.62
590.637	757.42
591.088	730.52
591.538	727.22
591.989	722.92
592.439	715.23
592.89	712.52
593.34	705.33
593.791	708.62
594.241	691.02
594.692	705.83
595.142	701.33
595.593	687.92
596.043	699.52
596.493	704.33
596.943	704.52
597.394	712.62
597.844	702.92
598.294	711.82
598.744	741.33
599.195	765.03
599.645	807.12
600.095	846.93
600.545	901.73
600.995	962.03
601.445	1012.42
601.895	1069.92
602.345	1130.03
602.795	1088.33
603.245	1043.72
603.695	992.03
604.145	936.23
604.594	895.73
605.044	842.22
605.494	794.73
605.944	740.72
606.393	736.02
606.843	713.72
607.293	723.23
607.743	724.92
608.192	737.42
608.642	754.33
609.091	758.13
609.541	766.02
609.99	756.93
610.44	758.43
610.889	718.23
611.339	699.02
611.788	683.43
612.238	693.32
612.687	708.73
613.136	719.03
613.586	721.52
614.035	731.52
614.484	755.22
614.933	748.42
615.383	738.22
615.832	725.82
616.281	715.63
616.73	670.72
617.179	655.82
617.628	645.42
618.077	628.12
618.526	619.92
618.975	605.12
619.424	610.82
619.873	612.63
620.322	618.72
620.771	599.33
621.22	599.73
621.669	592.63
622.118	582.43
622.567	578.23
623.015	559.52
623.464	558.92
623.913	561.62
624.361	542.73
624.81	538.92
625.259	542.93
625.707	548.43
626.156	559.33
626.604	562.42
627.053	554.02
627.501	553.62
627.95	564.52
628.398	569.32
628.847	564.52
629.295	569.03
629.744	564.62
630.192	564.62
630.64	562.82
631.089	557.02
631.537	561.12
631.985	577.53
632.433	594.33
632.881	605.63
633.33	650.12
633.778	633.22
634.226	572.43
634.674	560.13
635.122	579.82
635.57	585.02
636.018	623.22
636.466	568.72
636.914	555.92
637.362	566.82
637.81	572.32
638.258	570.73
638.705	573.72
639.153	600.83
639.601	603.92
640.049	632.82
640.497	672.62
640.944	687.32
641.392	639.12
641.84	605.82
642.287	574.72
642.735	565.62
643.182	567.93
643.63	564.83
644.078	567.02
644.525	583.02
644.973	588.83
645.42	602.82
645.867	616.83
646.315	634.63
646.762	657.63
647.21	687.13
647.657	704.23
648.104	749.92
648.551	769.72
648.999	835.42
649.446	902.53
649.893	991.32
650.34	1149.43
650.787	1370.53
651.234	1731.23
651.682	2253.53
652.129	3115.03
652.576	4462.23
653.023	6565.32
653.47	9003.42
653.917	11204.32
654.363	12884.33
654.81	14171.23
655.257	13514.73
655.704	8818.22
656.151	5194.22
656.598	3377.12
657.044	2395.82
657.491	1835.62
657.938	1473.33
658.385	1229.92
658.831	1073.02
659.278	944.22
659.724	837.82
660.171	782.02
660.618	714.83
661.064	686.02
661.511	663.92
661.957	642.12
662.404	638.83
662.85	646.43
663.296	613.12
663.743	556.42
664.189	534.32
664.635	521.22
665.082	515.92
665.528	526.43
665.974	523.02
666.42	500.32
666.867	497.33
667.313	483.62
667.759	476.52
668.205	477.73
668.651	479.52
669.097	477.62
669.543	495.82
669.989	464.33
670.435	444.32
670.881	440.73
671.327	432.72
671.773	462.92
672.219	487.92
672.665	543.43
673.11	578.82
673.556	619.92
674.002	657.12
674.448	637.82
674.893	544.83
675.339	468.73
675.785	434.42
676.23	412.62
676.676	390.42
677.122	377.93
677.567	368.52
678.013	359.62
678.458	355.72
678.904	342.93
679.349	345.33
679.794	348.72
680.24	340.43
680.685	346.72
681.131	351.22
681.576	338.62
682.021	348.03
682.466	342.12
682.912	346.02
683.357	348.22
683.802	376.82
684.247	406.12
684.692	445.93
685.137	486.62
685.583	533.33
686.028	547.73
686.473	505.02
686.918	447.23
687.363	407.62
687.807	383.32
688.252	360.02
688.697	352.02
689.142	331.52
689.587	318.12
690.032	322.42
690.477	334.12
690.921	342.43
691.366	381.72
691.811	400.12
692.255	429.92
692.7	455.22
693.145	497.63
693.589	692.23
694.034	1131.22
694.478	1524.83
694.923	1704.73
695.367	2222.73
695.812	1173.93
696.256	495.12
696.701	361.93
697.145	332.22
697.59	331.52
698.034	318.92
698.478	328.13
698.922	322.63
699.367	322.83
699.811	334.83
700.255	349.32
700.699	380.12
701.143	424.02
701.588	477.43
702.032	511.03
702.476	504.82
702.92	483.73
703.364	480.23
703.808	633.32
704.252	1031.03
704.696	1452.92
705.14	1642.03
705.584	2105.73
706.027	1040.02
706.471	511.42
706.915	387.23
707.359	345.92
707.803	317.02
708.246	313.13
708.69	305.02
709.134	313.83
709.577	312.42
710.021	310.93
710.465	301.23
710.908	297.72
711.352	292.72
711.795	304.62
712.239	347.33
712.682	380.42
713.126	414.82
713.569	462.83
714.012	366.42
714.456	316.52
714.899	299.53
715.342	275.82
715.786	254.33
716.229	259.43
716.672	256.72
717.115	244.33
717.558	248.63
718.002	245.12
718.445	258.33
718.888	280.43
719.331	285.82
719.774	298.02
720.217	309.22
720.66	267.73
721.103	259.43
721.546	253.32
721.989	242.52
722.432	228.72
722.874	236.82
723.317	234.42
723.76	233.72
724.203	254.42
724.645	308.53
725.088	448.82
725.531	565.43
725.974	630.52
726.416	548.52
726.859	311.02
727.301	246.12
727.744	232.13
728.187	222.82
728.629	234.82
729.071	238.03
729.514	253.62
729.956	271.82
730.399	282.92
730.841	276.52
731.283	274.73
731.726	265.32
732.168	254.83
732.61	259.92
733.053	285.32
733.495	314.63
733.937	349.13
734.379	396.52
734.821	433.53
735.263	546.43
735.705	840.12
736.148	1593.83
736.59	2580.23
737.032	2980.23
737.474	2439.52
737.916	795.33
738.357	427.52
738.799	323.12
739.241	300.92
739.683	277.02
740.125	291.72
740.567	294.52
741.008	309.82
741.45	311.62
741.892	309.12
742.334	344.73
742.775	350.82
743.217	340.52
743.658	272.12
744.1	251.63
744.542	256.42
744.983	314.53
745.425	337.32
745.866	340.22
746.307	278.72
746.749	281.03
747.19	325.43
747.632	458.73
748.073	888.12
748.514	1864.23
748.956	2806.62
749.397	3536.42
749.838	2926.53
750.279	2908.62
750.72	1471.42
751.162	542.92
751.603	315.52
752.044	250.52
752.485	215.12
752.926	207.23
753.367	201.23
753.808	192.92
754.249	189.92
754.69	187.12
755.131	184.33
755.572	183.92
756.013	185.32
756.453	185.52
756.894	190.73
757.335	192.93
757.776	194.42
758.216	194.22
758.657	191.12
759.098	206.53
759.538	222.12
759.979	270.02
760.42	371.12
760.86	716.02
761.301	1855.62
761.741	4430.93
762.182	6306.92
762.622	4419.53
763.063	1299.53
763.503	533.93
763.943	341.43
764.384	339.73
764.824	410.23
765.264	435.72
765.705	303.43
766.145	209.92
766.585	187.42
767.025	179.82
767.465	182.82
767.906	245.83
768.346	316.43
768.786	342.23
769.226	263.53
769.666	317.82
770.106	633.62
770.546	1560.62
770.986	2603.32
771.426	2316.93
771.866	773.82
772.306	323.92
772.745	201.83
773.185	166.52
773.625	167.62
774.065	162.12
774.505	190.72
774.944	307.52
775.384	678.12
775.824	1215.63
776.263	1163.22
776.703	506.62
777.142	221.92
777.582	160.02
778.021	140.73
778.461	137.52
778.9	139.12
779.34	132.43
779.779	111.73
780.219	110.23
780.658	106.92
781.097	106.12
781.537	116.92
781.976	108.62
782.415	110.82
782.855	103.73
783.294	103.43
783.733	103.42
784.172	106.32
784.611	102.92
785.05	108.12
785.489	111.52
785.928	118.62
786.367	117.62
786.806	117.42
787.245	132.02
787.684	135.92
788.123	153.42
788.562	133.02
789.001	124.12
789.44	120.73
789.879	112.42
790.317	121.12
790.756	123.23
791.195	130.52
791.634	151.12
792.072	207.73
792.511	364.93
792.95	1020.82
793.388	2117.22
793.827	1905.53
794.265	669.72
794.704	280.53
795.142	175.52
795.581	150.32
796.019	133.52
796.458	130.33
796.896	126.83
797.334	128.23
797.773	154.42
798.211	220.92
798.649	444.82
799.087	1017.33
799.526	1577.93
799.964	2002.03
800.402	1961.62
800.84	747.42
801.278	291.33
801.716	184.12
802.154	153.72
802.592	142.83
803.03	138.93
803.468	130.23
803.906	142.23
804.344	149.52
804.782	134.23
805.22	134.62
805.658	133.02
806.096	143.23
806.533	155.52
806.971	177.42
807.409	221.42
807.847	316.73
808.284	671.82
808.722	1872.23
809.16	3234.23
809.597	3119.53
810.035	5377.62
810.472	5622.53
810.91	2031.53
811.347	787.63
811.785	398.63
812.222	252.52
812.66	190.73
813.097	168.52
813.535	138.82
813.972	130.73
814.409	115.23
814.846	101.12
815.284	110.62
815.721	104.22
816.158	111.02
816.595	119.12
817.032	176.42
817.47	195.32
817.907	164.12
818.344	146.52
818.781	121.33
819.218	104.92
819.655	122.02
820.092	185.02
820.529	209.52
820.966	171.62
821.403	137.02
821.839	107.62
822.276	103.73
822.713	122.32
823.15	135.43
823.587	106.12
824.023	148.32
824.46	307.52
824.897	898.12
825.333	1332.83
825.77	572.73
826.206	233.12
826.643	133.92
827.08	98.02
827.516	82.33
827.953	73.12
828.389	74.62
828.825	68.12
829.262	63.72
829.698	66.23
830.135	65.73
830.571	62.62
831.007	63.83
831.443	64.32
831.88	63.02
832.316	61.52
832.752	65.42
833.188	65.12
833.624	64.93
834.06	67.23
834.497	67.72
834.933	66.02
835.369	73.42
835.805	64.82
836.241	74.42
836.677	76.52
837.112	92.32
837.548	101.23
837.984	132.23
838.42	207.63
838.856	502.52
839.292	1504.93
839.727	2258.03
840.163	1054.53
840.599	931.03
841.034	2023.93
841.47	2077.22
841.906	757.13
842.341	326.83
842.777	226.13
843.212	313.32
843.648	308.62
844.083	148.72
844.519	101.33
844.954	78.62
845.39	56.23
845.825	56.02
846.261	57.12
846.696	59.52
847.131	55.92
847.566	64.42
848.002	48.92
848.437	58.62
848.872	59.33
849.307	58.43
849.742	81.93
850.177	177.52
850.613	557.93
851.048	863.23
851.483	370.82
851.918	155.32
852.353	88.02
852.788	60.22
853.223	58.02
853.657	58.52
854.092	46.12
854.527	35.42
854.962	46.82
855.397	48.33
855.832	43.02
856.266	38.93
856.701	37.62
857.136	33.42
857.57	39.43
858.005	46.83
858.44	55.73
858.874	38.12
859.309	49.62
859.743	35.72
860.178	53.02
860.612	44.22
861.047	53.02
861.481	71.62
861.915	71.12
862.35	44.82
862.784	34.02
863.218	41.82
863.653	26.72
864.087	39.92
864.521	57.02
864.955	74.33
865.39	151.72
865.824	171.02
866.258	111.12
866.692	162.83
867.126	173.02
867.56	105.42
867.994	57.22
868.428	32.02
868.862	47.23
869.296	52.52
869.73	61.42
870.164	56.22
870.598	53.52
871.031	38.82
871.465	25.52
871.899	31.73
872.333	23.73
872.766	27.23
873.2	25.12
873.634	28.12
874.067	25.02
874.501	26.22
874.935	42.12
875.368	34.92
875.802	32.42
876.235	24.82
876.669	23.83
877.102	23.33
877.535	32.43
877.969	24.23
878.402	24.82
878.836	17.42
879.269	23.62
879.702	23.92
880.135	18.12
880.569	24.72
881.002	28.23
881.435	23.12
881.868	15.62
882.301	24.62
882.734	17.12
883.167	23.73
883.601	22.02
884.034	15.92
884.467	15.23
884.899	17.82
885.332	17.02
885.765	14.23
886.198	13.92
886.631	18.02
887.064	19.82
887.497	18.22
887.929	23.62
888.362	11.92
888.795	16.02
889.228	18.12
889.66	22.02
890.093	15.72
890.526	13.52
890.958	17.12
891.391	18.12
891.823	13.12
892.256	14.92
892.688	9.12
893.121	18.73
893.553	14.02
893.985	17.32
894.418	21.82
894.85	15.62
895.282	15.42
895.715	18.23
896.147	18.12
896.579	15.12
897.011	9.62
897.444	17.83
897.876	13.12
898.308	22.02
898.74	12.73
899.172	14.92
899.604	16.62
900.036	18.72
900.468	11.02
900.9	18.82
901.332	19.22
901.764	14.92
902.196	19.83
902.628	16.32
903.06	20.12
903.491	30.92
903.923	25.42
904.355	18.23
904.787	27.72
905.218	21.52
905.65	20.62
906.082	12.12
906.513	12.52
906.945	18.52
907.376	18.72
907.808	22.92
908.239	20.93
908.671	15.73
909.102	21.02
909.534	21.62
909.965	47.12
910.397	97.92
910.828	322.83
911.259	467.82
911.691	212.02
912.122	106.43
912.553	55.42
912.984	35.52
913.415	21.02
913.847	27.23
914.278	19.62
914.709	18.22
915.14	15.12
915.571	16.73
916.002	11.42
916.433	17.83
916.864	16.12
917.295	10.02
917.726	25.52
918.157	17.02
918.587	33.12
919.018	22.93
919.449	25.83
919.88	17.82
920.311	31.33
920.741	45.72
921.172	162.83
921.603	145.12
922.033	66.72
922.464	48.33
922.895	26.12
923.325	20.83
923.756	18.12
924.186	12.02
924.617	21.12
925.047	40.62
925.478	60.42
925.908	47.02
926.338	21.83
926.769	22.73
927.199	23.12
927.629	11.83
928.06	20.52
928.49	12.43
928.92	14.12
929.35	11.93
929.78	12.32
930.21	11.42
930.641	12.73
931.071	11.82
931.501	8.52
931.931	8.93
932.361	7.92
932.791	10.23
933.221	6.73
933.651	3.73
934.08	13.82
934.51	30.12
934.94	13.42
935.37	11.02
935.8	10.52
936.229	12.32
936.659	12.92
937.089	3.02
937.519	11.42
937.948	25.82
938.378	17.92
938.807	2.02
939.237	1.02
939.666	11.62
940.096	-0.18
940.525	1.02
940.955	4.52
941.384	3.73
941.814	-8.78
942.243	-0.98
942.672	1.32
943.102	-2.57
943.531	2.62
943.96	1.62
944.39	3.12
944.819	0.02
945.248	4.73
945.677	6.32
946.106	3.62
946.535	5.22
946.964	3.23
947.393	1.32
947.822	1.83
948.251	-9.18
948.68	8.33
949.109	3.22
949.538	7.43
949.967	3.23
950.396	2.22
950.825	-1.88
951.254	2.52
951.682	-11.08
952.111	10.02
952.54	5.52
952.969	-2.58
953.397	1.32
953.826	5.32
954.254	-1.08
954.683	0.92
955.112	0.92
955.54	-0.48
955.969	6.23
956.397	2.52
956.826	-8.08
957.254	1.23
957.682	2.92
958.111	7.42
958.539	-1.08
958.967	-1.58
959.396	4.92
959.824	3.52
960.252	3.02
960.68	-8.28
961.109	-3.48
961.537	-3.48
961.965	4.42
962.393	1.62
962.821	5.83
963.249	-1.08
963.677	-0.58
964.105	2.92
964.533	41.43
964.961	43.02
965.389	21.93
965.817	10.12
966.245	0.72
966.672	-1.27
967.1	-7.38
967.528	3.92
967.956	-5.17
968.383	-0.28
968.811	-2.67
969.239	-1.88
969.666	-3.88
970.094	-1.77
970.522	-2.27
970.949	-2.08
971.377	-5.17
971.804	-0.77
972.232	4.83
972.659	-7.58
973.087	-5.88
973.514	-8.38
973.941	-3.77
974.369	1.02
974.796	1.52
975.223	-1.08
975.651	-3.48
976.078	2.92
976.505	-5.18
976.932	-0.77
977.359	16.52
977.786	15.02
978.214	2.52
978.641	-1.58
979.068	-7.38
979.495	-5.98
979.922	-2.98
980.349	-2.48
980.776	3.62
981.202	4.52
981.629	3.82
982.056	0.12
982.483	-1.67
982.91	2.33
983.337	-9.77
983.763	1.72
984.19	-5.18
984.617	-7.58
985.043	-6.48
985.47	-4.98
985.897	-6.67
986.323	-4.28
986.75	1.93
987.176	-5.68
987.603	3.32
988.029	-1.68
988.456	-4.68
988.882	3.12
989.308	-6.78
989.735	-2.88
990.161	1.02
990.587	-2.78
991.014	-4.88
991.44	5.22
991.866	-4.27
992.292	-6.27
992.719	-2.28
993.145	3.02
993.571	-5.27
993.997	-2.77
994.423	-1.88
994.849	-7.08
995.275	4.43
995.701	-0.98
996.127	-2.48
996.553	3.23
996.979	0.42
997.405	2.62
997.83	-2.48
998.256	-6.68
998.682	-6.67
999.108	-3.78
999.534	-2.68
999.959	1.82
1000.385	-7.68
1000.811	-3.88
1001.236	-4.58
1001.662	-2.88
1002.087	-6.57
1002.513	-2.08
1002.938	1.23
1003.364	-1.77
1003.789	-2.48
1004.215	0.33
1004.64	-7.08
1005.066	-1.77
1005.491	-6.88
1005.916	1.72
1006.342	-2.77
1006.767	-4.98
1007.192	3.33
1007.617	-6.18
1008.042	-5.67
1008.468	-5.98
1008.893	-5.67
1009.318	-5.27
1009.743	-1.28
1010.168	8.82
1010.593	0.32
1011.018	-12.38
1011.443	0.82
1011.868	2.52
1012.293	-6.17
1012.718	-8.88
1013.143	-1.18
1013.567	-8.38
1013.992	-6.18
1014.417	-12.58
1014.842	0.02
1015.267	-6.18
1015.691	-6.38
1016.116	0.72
1016.541	-6.18
1016.965	-1.18
1017.39	-0.48
1017.814	-3.67
1018.239	-0.18
1018.663	-8.98
1019.088	-7.78
1019.512	-4.88
1019.937	-2.77
1020.361	-6.88
1020.785	-12.18
1021.21	-2.88
1021.634	-2.38
1022.058	-1.68
1022.483	7.82
1022.907	-3.38
1023.331	-8.17
1023.755	-0.28
1024.179	-2.08
1024.604	-9.88
1025.028	-5.68
1025.452	-7.68
1025.876	-7.68
1026.3	-5.08
1026.724	-8.58
1027.148	-5.17
1027.572	-5.77
1027.996	-3.18
1028.42	-0.68
1028.843	-5.48
1029.267	-3.58
1029.691	-3.98
1030.115	-8.08
1030.539	-7.48
1030.962	-11.48
1031.386	-8.17
1031.81	-1.77
1032.233	1.52
1032.657	-4.57
1033.08	-3.08
1033.504	-3.78
1033.927	-3.77
1034.351	-2.27
1034.774	-9.27
1035.198	-0.77
1035.621	-1.98
1036.045	-8.28
1036.468	0.22
1036.891	-8.58
1037.315	-8.18
1037.738	-12.98
1038.161	2.02
1038.584	-3.48
1039.008	-4.98
1039.431	-1.58
1039.854	-2.88
1040.277	-12.98
1040.7	-14.17
1041.123	3.12
1041.546	-9.67
1041.969	-7.48
1042.392	-11.68
1042.815	-2.98
1043.238	-1.38
1043.661	7.42
1044.084	-8.67
1044.507	-9.68
1044.93	-5.18
1045.352	-11.58
1045.775	-6.68
1046.198	0.23
1046.621	-3.48
1047.043	-2.57
1047.466	3.52
1047.889	-7.28
1048.311	-4.98
1048.734	-8.18
1049.156	-2.17
1049.579	-3.08
1050.001	-1.27
1050.424	2.82
1050.846	-6.68
1051.269	-4.38
1051.691	-6.07
1052.113	-6.28
1052.536	-2.08
1052.958	1.32
1053.38	-2.18
1053.802	-8.68
1054.225	2.22
1054.647	-11.38
1055.069	-8.18
1055.491	-0.08
1055.913	-5.68
1056.335	2.52
1056.757	-5.98
1057.179	-9.38
1057.601	-9.88
1058.023	0.23
1058.445	-8.58
1058.867	-0.77
1059.289	-3.88
1059.711	-8.17
1060.133	-1.98
1060.555	-8.18
1060.976	-10.28
1061.398	-7.18
1061.82	-6.77
1062.241	-4.18
1062.663	-6.68
1063.085	-2.48
1063.506	-2.77
1063.928	-2.98
1064.35	-0.38
1064.771	-3.58
1065.193	-5.08
1065.614	-9.27
1066.035	-5.57
1066.457	-4.77
1066.878	3.02
1067.3	-1.58
1067.721	1.12
1068.142	-5.38
1068.564	-6.78
1068.985	-2.38
1069.406	-6.27
1069.827	-4.27
1070.248	-1.27
1070.67	-11.18
1071.091	-11.27
1071.512	-9.68
1071.933	-1.98
1072.354	-9.77
1072.775	-8.88
1073.196	-6.67
1073.617	-7.08
1074.038	-10.88
1074.459	-5.98
1074.88	-10.08
1075.3	2.92
1075.721	-11.88
1076.142	1.02
1076.563	-0.48
1076.983	-5.48
1077.404	-4.77
1077.825	-8.57
1078.246	-9.68
1078.666	-10.88
1079.087	-2.98
1079.507	-5.08
1079.928	-2.98
1080.348	-6.57
1080.769	-4.88
1081.189	-0.48
1081.61	-0.38
1082.03	-11.77
1082.451	-10.48
1082.871	-5.27
1083.291	-5.18
1083.711	-9.58
1084.132	-4.98
1084.552	-4.78
1084.972	1.33
1085.392	-10.78
1085.813	-9.18
1086.233	-6.18
1086.653	-7.27
1087.073	-2.98
1087.493	1.82
1087.913	-6.28
1088.333	-3.88
1088.753	-2.48
1089.173	6.52
1089.593	-6.27
1090.013	1.22
1090.433	3.02
1090.852	2.23
1091.272	0.02
1091.692	-2.68
1092.112	-3.58
1092.531	-7.18
1092.951	-11.27
1093.371	-7.18
1093.79	-4.17
1094.21	-8.67
1094.63	-8.38
1095.049	-6.98
1095.469	-2.58
1095.888	-3.98
1096.308	3.42
1096.727	5.42
1097.146	-14.27
1097.566	-5.08
1097.985	-3.58
1098.405	-2.27
1098.824	-7.18
1099.243	-6.58
1099.662	-10.18
1100.082	-0.17
1100.501	-1.88
1100.92	-10.38
1101.339	0.52
1101.758	-6.88
