Data from 20171114-ORNL-Ar_H_NY_Subt18_08-05-45-520.txt Node
Date: Tue Nov 14 08:05:45 EST 2017
User: Ender
Spectrometer: HR+D1039
Trigger mode: 0
Integration Time (sec): 2.730000E-2
Scans to average: 10
Electric dark correction enabled: true
Nonlinearity correction enabled: false
Boxcar width: 0
XAxis mode: Wavelengths
Number of Pixels in Spectrum: 2048
>>>>>Begin Spectral Data<<<<<
187.836	-5.54
188.309	-5.54
188.782	-5.54
189.255	-0.34
189.728	-4.84
190.201	6.66
190.674	0.76
191.147	5.96
191.619	-6.54
192.092	3.66
192.565	5.76
193.038	3.76
193.511	-2.44
193.984	-6.04
194.456	-2.24
194.929	2.76
195.402	-1.54
195.874	0.16
196.347	1.96
196.82	-2.44
197.292	3.56
197.765	-6.54
198.237	-6.94
198.71	-1.84
199.182	2.56
199.655	3.66
200.127	1.16
200.6	-1.44
201.072	-1.64
201.544	-5.14
202.017	-2.04
202.489	-1.74
202.961	-2.94
203.433	-0.24
203.906	-7.14
204.378	-8.14
204.85	-6.94
205.322	-10.64
205.794	-3.54
206.266	-5.54
206.739	-8.64
207.211	-2.44
207.683	-8.34
208.155	-6.04
208.627	1.26
209.099	-1.74
209.57	-8.34
210.042	1.86
210.514	1.16
210.986	-3.54
211.458	-6.14
211.93	-8.74
212.402	-1.34
212.873	-5.94
213.345	-4.64
213.817	-10.94
214.288	-4.94
214.76	-9.14
215.232	-1.84
215.703	-2.74
216.175	-5.54
216.646	-1.74
217.118	-8.04
217.589	1.86
218.061	-1.74
218.532	-10.04
219.004	-1.74
219.475	-2.74
219.946	-0.44
220.418	-3.74
220.889	3.36
221.36	1.86
221.832	-4.84
222.303	-3.14
222.774	0.86
223.245	-5.54
223.717	-6.54
224.188	1.06
224.659	-7.44
225.13	-4.34
225.601	-7.74
226.072	1.76
226.543	9.26
227.014	2.16
227.485	-6.64
227.956	-8.34
228.427	0.26
228.898	-1.24
229.369	1.06
229.839	1.06
230.31	-3.74
230.781	-2.14
231.252	-2.34
231.722	-3.14
232.193	-3.04
232.664	1.16
233.135	3.06
233.605	3.76
234.076	-4.14
234.546	4.36
235.017	6.26
235.487	1.26
235.958	-2.74
236.428	5.46
236.899	8.36
237.369	9.06
237.84	-0.04
238.31	10.36
238.78	4.06
239.251	1.06
239.721	3.76
240.191	-0.44
240.662	-4.34
241.132	0.66
241.602	-1.74
242.072	4.86
242.542	8.36
243.013	3.26
243.483	4.96
243.953	3.76
244.423	-1.64
244.893	0.06
245.363	-0.14
245.833	-4.14
246.303	-0.44
246.773	4.56
247.243	3.06
247.712	4.96
248.182	8.46
248.652	4.86
249.122	0.26
249.592	11.76
250.061	19.56
250.531	36.76
251.001	11.86
251.471	22.66
251.94	21.06
252.41	10.26
252.879	5.26
253.349	11.76
253.818	11.06
254.288	10.56
254.757	3.26
255.227	6.96
255.696	-1.14
256.166	10.46
256.635	11.46
257.105	5.96
257.574	9.66
258.043	14.46
258.513	17.06
258.982	19.26
259.451	4.26
259.92	17.06
260.389	12.56
260.859	19.26
261.328	11.36
261.797	19.96
262.266	10.86
262.735	16.16
263.204	5.86
263.673	2.36
264.142	13.16
264.611	-3.34
265.08	3.16
265.549	2.86
266.018	8.66
266.487	-2.74
266.955	5.46
267.424	3.36
267.893	5.76
268.362	3.16
268.83	4.36
269.299	11.66
269.768	8.56
270.236	9.66
270.705	10.66
271.174	3.96
271.642	9.86
272.111	6.56
272.579	19.06
273.048	25.16
273.516	32.16
273.985	28.76
274.453	21.06
274.922	17.46
275.39	14.06
275.858	7.76
276.327	17.86
276.795	18.46
277.263	14.66
277.731	29.16
278.2	60.86
278.668	62.96
279.136	52.36
279.604	23.46
280.072	20.16
280.54	18.66
281.008	15.26
281.477	14.06
281.945	19.06
282.413	15.76
282.881	27.26
283.348	11.86
283.816	18.36
284.284	18.06
284.752	17.96
285.22	14.96
285.688	16.86
286.156	23.56
286.623	45.56
287.091	62.46
287.559	35.66
288.026	19.56
288.494	15.16
288.962	5.26
289.429	11.06
289.897	15.46
290.364	12.86
290.832	20.26
291.3	18.76
291.767	18.36
292.234	20.06
292.702	15.36
293.169	21.86
293.637	23.36
294.104	22.46
294.571	11.46
295.039	13.06
295.506	19.46
295.973	16.76
296.44	22.06
296.908	23.66
297.375	22.76
297.842	28.56
298.309	16.66
298.776	19.26
299.243	24.16
299.71	16.76
300.177	22.56
300.644	29.96
301.111	25.36
301.578	21.56
302.045	23.86
302.512	26.66
302.979	23.76
303.446	26.36
303.913	25.06
304.379	20.56
304.846	31.16
305.313	28.16
305.78	28.56
306.246	31.06
306.713	26.36
307.18	33.06
307.646	30.76
308.113	35.36
308.579	22.26
309.046	28.96
309.512	30.56
309.979	23.56
310.445	27.16
310.912	29.46
311.378	39.06
311.845	31.86
312.311	32.56
312.777	30.26
313.244	35.56
313.71	37.16
314.176	34.26
314.642	32.06
315.109	36.86
315.575	41.46
316.041	36.26
316.507	43.26
316.973	38.06
317.439	38.96
317.905	36.96
318.371	34.46
318.837	34.66
319.303	30.96
319.769	37.66
320.235	38.36
320.701	36.76
321.167	41.76
321.633	41.66
322.099	37.56
322.564	50.46
323.03	44.36
323.496	42.86
323.962	43.76
324.427	34.76
324.893	42.16
325.359	38.56
325.824	44.06
326.29	39.26
326.755	46.76
327.221	39.36
327.686	41.46
328.152	47.66
328.617	44.26
329.083	53.46
329.548	56.56
330.014	50.46
330.479	47.56
330.944	50.96
331.41	45.06
331.875	46.16
332.34	44.86
332.805	41.76
333.271	49.86
333.736	45.06
334.201	54.36
334.666	57.36
335.131	61.06
335.596	61.36
336.061	53.66
336.526	49.36
336.991	51.66
337.456	64.26
337.921	53.76
338.386	44.66
338.851	50.26
339.316	52.06
339.781	55.06
340.246	48.16
340.711	49.46
341.175	54.26
341.64	47.36
342.105	58.46
342.569	61.96
343.034	59.86
343.499	60.76
343.963	50.06
344.428	60.56
344.893	62.96
345.357	66.16
345.822	66.96
346.286	72.76
346.751	75.66
347.215	73.76
347.679	84.06
348.144	99.96
348.608	88.36
349.073	74.76
349.537	77.96
350.001	82.56
350.465	85.96
350.93	80.36
351.394	86.56
351.858	77.66
352.322	91.66
352.786	86.46
353.25	103.66
353.715	120.26
354.179	104.56
354.643	127.96
355.107	133.16
355.571	109.56
356.035	106.76
356.498	121.56
356.962	128.26
357.426	136.86
357.89	123.36
358.354	92.66
358.818	84.36
359.281	86.66
359.745	88.06
360.209	81.26
360.673	82.26
361.136	91.56
361.6	91.16
362.064	85.56
362.527	88.76
362.991	98.66
363.454	81.26
363.918	74.76
364.381	79.76
364.845	83.76
365.308	87.76
365.772	91.36
366.235	87.16
366.698	85.56
367.162	88.76
367.625	93.66
368.088	90.26
368.552	94.86
369.015	95.06
369.478	103.46
369.941	106.96
370.404	104.66
370.867	114.06
371.331	112.56
371.794	117.16
372.257	109.46
372.72	119.76
373.183	117.06
373.646	107.46
374.109	107.26
374.572	113.76
375.035	109.86
375.497	116.36
375.96	112.16
376.423	107.96
376.886	113.86
377.349	112.96
377.811	103.96
378.274	107.76
378.737	111.56
379.199	110.76
379.662	114.16
380.125	122.56
380.587	116.76
381.05	118.96
381.512	141.56
381.975	141.56
382.437	131.96
382.9	129.06
383.362	134.36
383.825	142.26
384.287	148.76
384.75	145.76
385.212	140.36
385.674	145.46
386.136	141.16
386.599	129.56
387.061	140.26
387.523	133.06
387.985	136.96
388.447	146.06
388.91	148.06
389.372	163.96
389.834	154.26
390.296	146.26
390.758	157.96
391.22	169.86
391.682	204.06
392.144	298.26
392.606	230.56
393.068	166.96
393.529	172.36
393.991	154.36
394.453	148.16
394.915	161.56
395.377	195.56
395.838	218.56
396.3	164.36
396.762	145.36
397.224	139.06
397.685	142.26
398.147	139.76
398.608	137.96
399.07	131.96
399.531	140.26
399.993	145.56
400.454	158.96
400.916	156.06
401.377	148.26
401.839	155.16
402.3	155.16
402.762	169.56
403.223	181.96
403.684	175.76
404.145	158.76
404.607	168.26
405.068	165.46
405.529	169.36
405.99	190.56
406.451	183.46
406.913	180.16
407.374	166.76
407.835	173.16
408.296	172.26
408.757	176.46
409.218	195.06
409.679	185.16
410.14	183.56
410.601	181.46
411.062	189.56
411.522	196.16
411.983	191.16
412.444	179.16
412.905	185.76
413.366	184.36
413.826	191.26
414.287	216.96
414.748	266.46
415.208	249.26
415.669	215.56
416.13	208.96
416.59	202.66
417.051	219.96
417.511	224.16
417.972	239.56
418.432	251.86
418.893	289.76
419.353	254.36
419.814	200.76
420.274	194.66
420.734	186.66
421.195	198.66
421.655	207.86
422.115	205.76
422.576	201.26
423.036	202.96
423.496	214.96
423.956	221.76
424.416	237.76
424.876	270.16
425.336	273.36
425.797	266.46
426.257	260.86
426.717	251.46
427.177	233.36
427.637	230.86
428.097	244.16
428.556	254.06
429.016	276.26
429.476	268.66
429.936	279.26
430.396	287.16
430.856	294.86
431.315	314.46
431.775	368.36
432.235	393.16
432.694	360.86
433.154	377.26
433.614	401.36
434.073	354.16
434.533	295.16
434.993	280.26
435.452	294.66
435.912	307.96
436.371	294.06
436.83	287.36
437.29	275.96
437.749	260.16
438.209	255.26
438.668	286.66
439.127	298.66
439.587	264.06
440.046	258.26
440.505	264.96
440.964	278.56
441.424	338.96
441.883	326.06
442.342	264.26
442.801	236.26
443.26	222.56
443.719	226.46
444.178	226.46
444.637	211.36
445.096	222.26
445.555	229.96
446.014	233.96
446.473	235.06
446.932	235.96
447.391	230.86
447.849	237.56
448.308	228.36
448.767	233.76
449.226	250.86
449.685	244.06
450.143	250.66
450.602	236.66
451.061	230.66
451.519	244.06
451.978	236.76
452.436	242.66
452.895	247.66
453.353	260.66
453.812	243.86
454.27	252.46
454.729	247.66
455.187	245.06
455.646	252.26
456.104	249.46
456.562	268.86
457.021	277.96
457.479	265.26
457.937	284.86
458.395	272.26
458.854	255.76
459.312	265.76
459.77	281.76
460.228	265.56
460.686	245.66
461.144	251.96
461.602	248.76
462.06	245.16
462.518	261.36
462.976	265.76
463.434	262.36
463.892	272.76
464.35	285.76
464.808	300.46
465.266	266.96
465.724	283.76
466.181	279.36
466.639	276.96
467.097	300.76
467.555	310.56
468.012	309.56
468.47	316.06
468.928	332.16
469.385	352.06
469.843	357.56
470.3	358.36
470.758	379.76
471.215	398.96
471.673	427.16
472.13	420.76
472.588	437.36
473.045	383.26
473.503	388.66
473.96	402.36
474.417	414.76
474.875	447.16
475.332	487.16
475.789	472.36
476.246	483.76
476.704	501.56
477.161	520.46
477.618	541.76
478.075	580.76
478.532	644.46
478.989	712.56
479.446	821.26
479.903	796.46
480.36	830.56
480.817	887.56
481.274	999.46
481.731	1103.66
482.188	1187.86
482.645	1336.36
483.102	1441.76
483.558	1579.36
484.015	1636.36
484.472	1606.86
484.929	1567.36
485.385	1510.46
485.842	1468.66
486.299	1403.56
486.755	1335.36
487.212	1124.46
487.668	956.46
488.125	886.66
488.582	808.26
489.038	767.16
489.494	735.16
489.951	714.56
490.407	690.86
490.864	679.96
491.32	654.36
491.776	653.96
492.233	661.96
492.689	623.56
493.145	617.66
493.602	620.96
494.058	636.36
494.514	634.06
494.97	660.66
495.426	665.66
495.882	633.56
496.338	628.36
496.794	643.66
497.251	636.96
497.707	658.16
498.163	656.36
498.618	664.86
499.074	656.06
499.53	694.16
499.986	696.36
500.442	676.26
500.898	659.36
501.354	639.26
501.809	651.86
502.265	663.36
502.721	680.06
503.177	682.56
503.632	685.86
504.088	685.46
504.543	725.56
504.999	725.36
505.455	668.46
505.91	640.76
506.366	651.96
506.821	648.26
507.277	641.46
507.732	637.86
508.187	646.06
508.643	656.56
509.098	658.86
509.553	681.26
510.009	676.96
510.464	685.26
510.919	702.26
511.375	715.36
511.83	718.56
512.285	739.16
512.74	782.36
513.195	797.36
513.65	790.56
514.105	796.96
514.56	801.16
515.015	812.96
515.47	829.96
515.925	812.66
516.38	813.56
516.835	821.46
517.29	811.26
517.745	794.26
518.2	780.16
518.655	780.16
519.109	759.96
519.564	763.66
520.019	751.76
520.474	754.06
520.928	750.96
521.383	742.26
521.838	725.96
522.292	723.16
522.747	730.46
523.201	723.06
523.656	712.56
524.11	715.56
524.565	717.06
525.019	704.56
525.474	721.86
525.928	730.86
526.382	724.26
526.837	718.56
527.291	725.16
527.745	716.66
528.2	717.06
528.654	717.76
529.108	703.06
529.562	706.06
530.016	708.66
530.47	710.46
530.925	715.36
531.379	719.96
531.833	716.66
532.287	717.06
532.741	717.96
533.195	725.96
533.649	732.96
534.103	749.06
534.556	732.36
535.01	734.96
535.464	722.36
535.918	739.16
536.372	729.26
536.826	735.46
537.279	729.86
537.733	737.56
538.187	729.46
538.64	735.86
539.094	750.46
539.548	756.56
540.001	739.86
540.455	743.66
540.908	738.86
541.362	759.26
541.815	769.96
542.269	780.36
542.722	780.36
543.175	789.66
543.629	795.56
544.082	795.36
544.536	807.76
544.989	803.56
545.442	810.96
545.895	806.96
546.349	814.26
546.802	816.46
547.255	815.06
547.708	828.76
548.161	838.16
548.614	842.96
549.067	853.06
549.52	824.36
549.973	823.36
550.426	827.86
550.879	808.56
551.332	814.86
551.785	832.66
552.238	826.16
552.691	840.16
553.144	840.26
553.596	860.36
554.049	887.86
554.502	911.36
554.955	935.86
555.407	941.56
555.86	909.96
556.313	909.96
556.765	900.36
557.218	902.86
557.67	903.56
558.123	896.46
558.576	889.96
559.028	904.06
559.48	899.26
559.933	888.76
560.385	863.46
560.838	831.36
561.29	803.56
561.742	799.66
562.195	790.56
562.647	778.46
563.099	789.86
563.551	787.06
564.004	800.16
564.456	786.66
564.908	777.26
565.36	759.66
565.812	744.96
566.264	736.96
566.716	746.06
567.168	720.96
567.62	734.86
568.072	712.06
568.524	713.26
568.976	699.96
569.428	693.56
569.88	690.06
570.332	688.46
570.784	688.36
571.235	699.06
571.687	714.56
572.139	712.76
572.59	725.26
573.042	728.36
573.494	730.76
573.945	724.36
574.397	702.86
574.849	706.26
575.3	715.26
575.752	692.46
576.203	691.76
576.655	700.56
577.106	684.66
577.557	683.86
578.009	682.26
578.46	670.06
578.912	682.06
579.363	670.06
579.814	686.16
580.265	674.06
580.717	688.36
581.168	684.86
581.619	680.06
582.07	691.16
582.521	681.06
582.972	678.46
583.423	690.46
583.875	689.76
584.326	709.46
584.777	749.66
585.227	816.86
585.678	915.26
586.129	995.26
586.58	1059.56
587.031	1150.16
587.482	1302.16
587.933	1480.26
588.384	1287.76
588.834	985.66
589.285	805.16
589.736	796.26
590.186	790.06
590.637	778.56
591.088	757.46
591.538	744.16
591.989	738.96
592.439	735.26
592.89	735.96
593.34	717.56
593.791	713.46
594.241	714.76
594.692	721.06
595.142	708.86
595.593	712.66
596.043	716.26
596.493	731.66
596.943	725.56
597.394	727.46
597.844	725.76
598.294	733.66
598.744	763.06
599.195	782.26
599.645	822.56
600.095	861.26
600.545	922.26
600.995	975.66
601.445	1030.76
601.895	1097.76
602.345	1144.76
602.795	1122.66
603.245	1063.26
603.695	1018.36
604.145	969.56
604.594	906.96
605.044	868.96
605.494	811.16
605.944	758.76
606.393	746.96
606.843	730.26
607.293	736.16
607.743	737.46
608.192	755.16
608.642	768.66
609.091	778.76
609.541	784.16
609.99	767.76
610.44	771.66
610.889	730.36
611.339	697.96
611.788	689.16
612.238	697.86
612.687	713.66
613.136	726.86
613.586	741.86
614.035	730.96
614.484	769.36
614.933	756.46
615.383	758.46
615.832	743.06
616.281	728.36
616.73	698.06
617.179	672.56
617.628	655.96
618.077	643.86
618.526	627.46
618.975	612.96
619.424	614.86
619.873	619.66
620.322	622.16
620.771	605.96
621.22	612.56
621.669	603.56
622.118	599.66
622.567	580.26
623.015	573.56
623.464	579.66
623.913	563.46
624.361	545.96
624.81	555.46
625.259	555.06
625.707	548.96
626.156	552.16
626.604	569.16
627.053	561.16
627.501	555.86
627.95	567.26
628.398	577.16
628.847	573.66
629.295	564.66
629.744	580.16
630.192	567.16
630.64	565.16
631.089	565.86
631.537	574.26
631.985	573.36
632.433	591.86
632.881	605.26
633.33	651.36
633.778	634.96
634.226	565.96
634.674	571.86
635.122	572.36
635.57	602.86
636.018	618.26
636.466	583.16
636.914	553.86
637.362	568.66
637.81	569.06
638.258	569.06
638.705	581.96
639.153	611.36
639.601	612.86
640.049	636.06
640.497	670.36
640.944	689.76
641.392	638.16
641.84	608.66
642.287	586.96
642.735	564.66
643.182	570.16
643.63	566.76
644.078	573.36
644.525	586.86
644.973	601.86
645.42	604.76
645.867	615.86
646.315	637.86
646.762	661.36
647.21	694.36
647.657	709.26
648.104	752.96
648.551	765.86
648.999	825.96
649.446	911.16
649.893	996.46
650.34	1158.06
650.787	1377.96
651.234	1703.26
651.682	2237.06
652.129	3045.96
652.576	4400.66
653.023	6455.16
653.47	8864.96
653.917	11150.46
654.363	12866.16
654.81	14269.26
655.257	13624.66
655.704	8943.16
656.151	5257.06
656.598	3398.46
657.044	2410.26
657.491	1848.36
657.938	1495.96
658.385	1256.66
658.831	1079.26
659.278	953.76
659.724	864.76
660.171	793.86
660.618	718.36
661.064	684.46
661.511	668.56
661.957	661.96
662.404	645.56
662.85	653.26
663.296	631.36
663.743	563.06
664.189	530.26
664.635	530.56
665.082	523.46
665.528	515.26
665.974	515.06
666.42	511.06
666.867	509.76
667.313	487.26
667.759	480.66
668.205	465.36
668.651	476.86
669.097	478.66
669.543	499.66
669.989	470.56
670.435	443.36
670.881	441.26
671.327	452.86
671.773	457.16
672.219	486.86
672.665	536.26
673.11	570.36
673.556	625.46
674.002	663.76
674.448	645.76
674.893	541.76
675.339	467.46
675.785	433.26
676.23	411.36
676.676	390.06
677.122	377.86
677.567	374.76
678.013	366.16
678.458	360.06
678.904	352.46
679.349	352.16
679.794	346.96
680.24	346.26
680.685	350.46
681.131	353.26
681.576	345.56
682.021	352.86
682.466	341.06
682.912	345.46
683.357	344.26
683.802	369.66
684.247	400.56
684.692	444.96
685.137	495.36
685.583	526.96
686.028	557.76
686.473	513.36
686.918	442.76
687.363	410.76
687.807	393.36
688.252	361.76
688.697	351.56
689.142	341.76
689.587	326.16
690.032	316.56
690.477	340.16
690.921	345.26
691.366	370.66
691.811	393.16
692.255	421.76
692.7	452.56
693.145	487.16
693.589	673.96
694.034	1102.66
694.478	1498.46
694.923	1724.16
695.367	2247.16
695.812	1180.26
696.256	489.26
696.701	368.46
697.145	337.46
697.59	324.06
698.034	327.06
698.478	330.46
698.922	319.06
699.367	315.66
699.811	332.96
700.255	352.66
700.699	382.26
701.143	420.06
701.588	463.36
702.032	510.36
702.476	506.16
702.92	479.86
703.364	490.56
703.808	614.56
704.252	997.76
704.696	1417.46
705.14	1648.56
705.584	2098.66
706.027	1056.66
706.471	505.96
706.915	393.26
707.359	350.26
707.803	321.26
708.246	301.26
708.69	310.36
709.134	307.76
709.577	302.76
710.021	313.36
710.465	312.16
710.908	294.86
711.352	287.76
711.795	309.96
712.239	350.56
712.682	372.26
713.126	409.46
713.569	453.16
714.012	363.16
714.456	317.66
714.899	299.16
715.342	268.96
715.786	263.66
716.229	254.26
716.672	248.76
717.115	248.06
717.558	245.06
718.002	251.26
718.445	253.66
718.888	285.16
719.331	290.06
719.774	302.56
720.217	296.16
720.66	278.76
721.103	258.06
721.546	250.46
721.989	242.16
722.432	226.36
722.874	234.66
723.317	228.06
723.76	226.86
724.203	255.66
724.645	317.26
725.088	431.76
725.531	557.16
725.974	628.96
726.416	533.26
726.859	299.66
727.301	246.06
727.744	235.46
728.187	228.86
728.629	245.56
729.071	240.36
729.514	253.46
729.956	272.16
730.399	277.06
730.841	279.26
731.283	264.16
731.726	258.66
732.168	255.26
732.61	266.36
733.053	274.86
733.495	306.76
733.937	342.56
734.379	391.06
734.821	424.46
735.263	525.06
735.705	797.46
736.148	1517.16
736.59	2515.36
737.032	3010.56
737.474	2438.36
737.916	790.86
738.357	408.66
738.799	321.06
739.241	290.66
739.683	284.06
740.125	285.56
740.567	289.16
741.008	313.36
741.45	308.56
741.892	312.66
742.334	341.46
742.775	353.96
743.217	336.46
743.658	265.36
744.1	246.56
744.542	253.06
744.983	304.46
745.425	341.26
745.866	339.06
746.307	275.26
746.749	279.26
747.19	312.06
747.632	437.56
748.073	836.36
748.514	1799.76
748.956	2782.36
749.397	3479.66
749.838	2885.66
750.279	2930.86
750.72	1480.56
751.162	537.66
751.603	317.66
752.044	248.16
752.485	214.46
752.926	203.76
753.367	199.16
753.808	181.36
754.249	190.96
754.69	178.46
755.131	179.36
755.572	177.36
756.013	174.06
756.453	175.96
756.894	179.96
757.335	195.26
757.776	187.86
758.216	187.06
758.657	199.26
759.098	192.66
759.538	221.96
759.979	267.16
760.42	364.76
760.86	677.96
761.301	1742.96
761.741	4237.66
762.182	6337.36
762.622	4484.96
763.063	1277.36
763.503	530.46
763.943	334.06
764.384	322.26
764.824	384.86
765.264	420.46
765.705	294.96
766.145	201.76
766.585	184.16
767.025	179.36
767.465	177.96
767.906	232.96
768.346	309.86
768.786	328.56
769.226	253.96
769.666	310.76
770.106	588.26
770.546	1478.86
770.986	2598.36
771.426	2343.46
771.866	773.46
772.306	314.66
772.745	203.16
773.185	170.26
773.625	165.06
774.065	157.26
774.505	187.76
774.944	287.06
775.384	624.26
775.824	1167.46
776.263	1145.56
776.703	485.66
777.142	210.46
777.582	153.06
778.021	136.26
778.461	139.86
778.9	137.26
779.34	129.26
779.779	110.06
780.219	105.06
780.658	99.06
781.097	112.36
781.537	110.86
781.976	107.76
782.415	107.86
782.855	105.86
783.294	101.56
783.733	108.06
784.172	113.26
784.611	101.96
785.05	108.86
785.489	107.16
785.928	115.16
786.367	112.06
786.806	112.26
787.245	128.66
787.684	132.16
788.123	143.26
788.562	136.86
789.001	123.46
789.44	119.06
789.879	120.26
790.317	119.06
790.756	121.46
791.195	126.16
791.634	147.26
792.072	193.26
792.511	341.76
792.95	955.56
793.388	2088.96
793.827	1909.26
794.265	663.76
794.704	268.76
795.142	177.86
795.581	152.06
796.019	136.66
796.458	126.56
796.896	113.56
797.334	136.36
797.773	151.56
798.211	213.16
798.649	421.66
799.087	984.16
799.526	1547.56
799.964	1940.46
800.402	1985.56
800.84	733.46
801.278	289.16
801.716	175.36
802.154	153.26
802.592	145.16
803.03	138.36
803.468	126.66
803.906	142.16
804.344	146.26
804.782	139.96
805.22	128.76
805.658	123.96
806.096	140.56
806.533	149.76
806.971	171.06
807.409	214.86
807.847	310.76
808.284	627.36
808.722	1777.66
809.16	3228.46
809.597	3006.26
810.035	5248.16
810.472	5707.46
810.91	2060.66
811.347	782.96
811.785	396.46
812.222	247.96
812.66	189.66
813.097	158.56
813.535	138.36
813.972	127.16
814.409	117.66
814.846	106.36
815.284	102.26
815.721	104.56
816.158	100.66
816.595	114.06
817.032	168.86
817.47	197.36
817.907	164.36
818.344	146.96
818.781	111.16
819.218	100.56
819.655	122.06
820.092	179.96
820.529	207.76
820.966	176.16
821.403	134.06
821.839	107.96
822.276	103.66
822.713	126.16
823.15	131.06
823.587	112.56
824.023	146.36
824.46	282.36
824.897	862.36
825.333	1335.26
825.77	571.06
826.206	220.26
826.643	132.56
827.08	103.46
827.516	80.36
827.953	77.36
828.389	85.86
828.825	65.56
829.262	64.76
829.698	64.36
830.135	63.06
830.571	56.76
831.007	62.46
831.443	63.36
831.88	58.26
832.316	64.66
832.752	60.96
833.188	68.06
833.624	69.46
834.06	62.76
834.497	63.26
834.933	73.86
835.369	71.66
835.805	70.06
836.241	70.86
836.677	74.76
837.112	85.86
837.548	100.56
837.984	133.46
838.42	195.96
838.856	467.66
839.292	1447.26
839.727	2262.26
840.163	1050.66
840.599	884.16
841.034	1956.26
841.47	2095.76
841.906	758.56
842.341	323.36
842.777	225.86
843.212	298.36
843.648	294.16
844.083	146.16
844.519	97.06
844.954	80.56
845.39	60.46
845.825	55.36
846.261	54.96
846.696	52.36
847.131	48.46
847.566	58.66
848.002	53.46
848.437	56.46
848.872	57.46
849.307	53.86
849.742	77.86
850.177	169.56
850.613	531.76
851.048	866.36
851.483	377.66
851.918	149.16
852.353	84.36
852.788	57.76
853.223	54.36
853.657	51.26
854.092	48.36
854.527	44.96
854.962	40.36
855.397	43.46
855.832	55.86
856.266	36.66
856.701	37.76
857.136	41.96
857.57	43.46
858.005	49.16
858.44	64.36
858.874	42.16
859.309	50.56
859.743	38.76
860.178	46.36
860.612	49.16
861.047	50.26
861.481	67.16
861.915	73.16
862.35	51.96
862.784	31.46
863.218	37.86
863.653	30.66
864.087	51.36
864.521	57.16
864.955	66.36
865.39	150.26
865.824	177.96
866.258	114.26
866.692	152.96
867.126	174.56
867.56	102.46
867.994	51.76
868.428	36.96
868.862	37.86
869.296	59.06
869.73	55.66
870.164	51.96
870.598	44.46
871.031	38.96
871.465	34.76
871.899	31.06
872.333	21.06
872.766	26.36
873.2	21.16
873.634	28.96
874.067	26.26
874.501	22.96
874.935	30.76
875.368	33.46
875.802	30.76
876.235	24.66
876.669	21.66
877.102	21.96
877.535	19.76
877.969	26.56
878.402	28.36
878.836	20.06
879.269	28.06
879.702	27.86
880.135	18.76
880.569	15.36
881.002	26.86
881.435	24.06
881.868	18.96
882.301	26.46
882.734	18.66
883.167	22.36
883.601	19.66
884.034	14.36
884.467	12.26
884.899	23.96
885.332	13.56
885.765	14.86
886.198	15.96
886.631	21.56
887.064	15.46
887.497	19.26
887.929	17.16
888.362	11.66
888.795	9.96
889.228	14.26
889.66	18.46
890.093	20.36
890.526	19.36
890.958	10.96
891.391	21.16
891.823	26.36
892.256	19.26
892.688	13.16
893.121	10.56
893.553	14.66
893.985	22.96
894.418	19.96
894.85	9.06
895.282	17.96
895.715	14.86
896.147	17.36
896.579	24.76
897.011	13.16
897.444	14.66
897.876	13.76
898.308	22.96
898.74	15.76
899.172	14.76
899.604	26.06
900.036	22.46
900.468	17.66
900.9	8.66
901.332	21.96
901.764	10.26
902.196	20.76
902.628	15.26
903.06	15.16
903.491	25.06
903.923	23.66
904.355	20.96
904.787	26.16
905.218	25.76
905.65	18.36
906.082	10.36
906.513	14.26
906.945	19.06
907.376	17.16
907.808	16.36
908.239	21.86
908.671	23.86
909.102	16.06
909.534	21.36
909.965	45.16
910.397	82.76
910.828	306.86
911.259	471.76
911.691	214.56
912.122	104.96
912.553	43.76
912.984	33.96
913.415	23.36
913.847	21.66
914.278	11.16
914.709	17.16
915.14	16.16
915.571	15.56
916.002	5.06
916.433	21.26
916.864	14.86
917.295	23.06
917.726	23.66
918.157	17.96
918.587	35.96
919.018	20.86
919.449	24.86
919.88	21.96
920.311	30.96
920.741	46.46
921.172	161.36
921.603	153.66
922.033	70.06
922.464	46.86
922.895	22.16
923.325	21.16
923.756	17.56
924.186	14.36
924.617	22.56
925.047	43.36
925.478	51.56
925.908	40.16
926.338	26.96
926.769	16.56
927.199	23.26
927.629	4.86
928.06	20.46
928.49	14.76
928.92	18.26
929.35	12.96
929.78	14.46
930.21	9.66
930.641	4.56
931.071	8.06
931.501	5.26
931.931	13.06
932.361	14.96
932.791	3.26
933.221	4.26
933.651	3.76
934.08	18.86
934.51	28.16
934.94	13.26
935.37	12.16
935.8	11.26
936.229	10.96
936.659	8.36
937.089	0.76
937.519	11.66
937.948	26.76
938.378	18.36
938.807	11.06
939.237	5.76
939.666	2.66
940.096	-12.14
940.525	1.86
940.955	0.06
941.384	1.06
941.814	-4.04
942.243	4.06
942.672	3.26
943.102	0.16
943.531	2.76
943.96	6.76
944.39	-1.74
944.819	1.66
945.248	4.46
945.677	0.66
946.106	4.66
946.535	10.06
946.964	1.86
947.393	6.76
947.822	-1.64
948.251	-4.84
948.68	2.46
949.109	6.06
949.538	2.86
949.967	1.66
950.396	7.36
950.825	4.36
951.254	-4.34
951.682	-4.54
952.111	3.26
952.54	7.66
952.969	-2.94
953.397	-6.14
953.826	4.46
954.254	-4.74
954.683	1.96
955.112	-0.44
955.54	4.36
955.969	1.06
956.397	-1.34
956.826	-2.64
957.254	5.16
957.682	4.16
958.111	4.06
958.539	-5.54
958.967	2.86
959.396	-5.44
959.824	7.16
960.252	8.16
960.68	-2.84
961.109	-2.74
961.537	-2.24
961.965	0.66
962.393	-0.14
962.821	-7.04
963.249	-2.44
963.677	4.16
964.105	6.56
964.533	45.56
964.961	40.16
965.389	19.26
965.817	11.36
966.245	-1.54
966.672	-0.44
967.1	-1.64
967.528	-1.64
967.956	-8.94
968.383	1.66
968.811	-2.54
969.239	-7.14
969.666	-4.64
970.094	-0.94
970.522	1.56
970.949	4.36
971.377	-4.44
971.804	0.36
972.232	-6.74
972.659	1.86
973.087	-2.04
973.514	-3.34
973.941	-3.04
974.369	0.16
974.796	1.66
975.223	-3.24
975.651	-1.84
976.078	2.16
976.505	0.26
976.932	4.76
977.359	14.46
977.786	13.16
978.214	0.16
978.641	-4.84
979.068	-2.54
979.495	1.96
979.922	2.16
980.349	-7.94
980.776	1.36
981.202	1.06
981.629	0.56
982.056	4.16
982.483	-7.44
982.91	-2.44
983.337	-9.24
983.763	-5.44
984.19	-6.64
984.617	1.36
985.043	-1.14
985.47	-4.34
985.897	-2.94
986.323	-5.64
986.75	6.76
987.176	2.06
987.603	-2.54
988.029	-1.84
988.456	-5.04
988.882	3.86
989.308	-4.74
989.735	-5.84
990.161	-0.54
990.587	-1.04
991.014	0.86
991.44	5.86
991.866	-4.24
992.292	-2.74
992.719	-1.14
993.145	-1.84
993.571	-8.34
993.997	-2.34
994.423	-2.24
994.849	-6.04
995.275	-5.44
995.701	-3.84
996.127	-1.74
996.553	-0.24
996.979	-2.94
997.405	-3.44
997.83	-5.14
998.256	-1.24
998.682	0.16
999.108	-8.74
999.534	-1.74
999.959	-1.64
1000.385	-4.04
1000.811	-2.54
1001.236	-8.64
1001.662	-5.74
1002.087	-10.34
1002.513	3.96
1002.938	7.46
1003.364	-1.74
1003.789	0.86
1004.215	3.86
1004.64	1.96
1005.066	-3.84
1005.491	-2.34
1005.916	2.76
1006.342	-6.04
1006.767	-12.34
1007.192	6.16
1007.617	-1.54
1008.042	-1.54
1008.468	-6.94
1008.893	-8.84
1009.318	2.86
1009.743	-1.94
1010.168	3.96
1010.593	1.86
1011.018	-8.24
1011.443	-7.04
1011.868	3.46
1012.293	-7.44
1012.718	-4.14
1013.143	1.16
1013.567	-2.54
1013.992	-2.24
1014.417	-9.94
1014.842	3.36
1015.267	-2.54
1015.691	-2.94
1016.116	1.46
1016.541	-1.24
1016.965	-2.54
1017.39	5.56
1017.814	3.36
1018.239	1.26
1018.663	-4.94
1019.088	-8.24
1019.512	0.06
1019.937	3.36
1020.361	-9.94
1020.785	-8.74
1021.21	3.36
1021.634	-0.84
1022.058	-1.54
1022.483	0.86
1022.907	3.26
1023.331	-2.44
1023.755	-0.14
1024.179	2.56
1024.604	-2.54
1025.028	-1.14
1025.452	-5.94
1025.876	-1.94
1026.3	0.66
1026.724	-15.94
1027.148	-4.84
1027.572	-6.94
1027.996	-1.04
1028.42	1.06
1028.843	-5.24
1029.267	-2.24
1029.691	0.66
1030.115	-6.84
1030.539	-9.74
1030.962	-5.54
1031.386	-13.44
1031.81	0.56
1032.233	-1.14
1032.657	-4.74
1033.08	2.66
1033.504	-1.74
1033.927	-1.54
1034.351	1.06
1034.774	-1.34
1035.198	1.56
1035.621	-11.54
1036.045	-7.74
1036.468	-4.14
1036.891	-16.64
1037.315	-6.64
1037.738	-12.34
1038.161	-2.14
1038.584	-9.34
1039.008	-5.44
1039.431	-6.44
1039.854	-5.44
1040.277	-8.34
1040.7	-11.44
1041.123	-1.84
1041.546	-6.44
1041.969	-3.54
1042.392	-3.24
1042.815	-8.04
1043.238	-0.34
1043.661	-0.54
1044.084	-9.44
1044.507	-5.74
1044.93	-7.34
1045.352	-4.54
1045.775	3.76
1046.198	-3.34
1046.621	-5.14
1047.043	0.76
1047.466	1.46
1047.889	-2.64
1048.311	-3.84
1048.734	-0.14
1049.156	1.46
1049.579	5.86
1050.001	-2.04
1050.424	2.26
1050.846	-3.64
1051.269	-7.04
1051.691	-5.14
1052.113	-8.44
1052.536	5.56
1052.958	-0.04
1053.38	-0.64
1053.802	-11.24
1054.225	0.66
1054.647	-10.84
1055.069	-11.34
1055.491	8.26
1055.913	-8.54
1056.335	3.26
1056.757	-6.24
1057.179	-8.44
1057.601	-3.64
1058.023	-0.84
1058.445	-2.64
1058.867	-5.94
1059.289	-1.44
1059.711	-6.44
1060.133	-2.34
1060.555	-7.04
1060.976	-7.74
1061.398	-6.14
1061.82	-5.54
1062.241	-10.24
1062.663	-17.24
1063.085	-11.54
1063.506	-3.24
1063.928	-5.24
1064.35	-0.34
1064.771	-9.94
1065.193	-4.84
1065.614	-8.34
1066.035	-4.74
1066.457	-6.04
1066.878	0.06
1067.3	-10.24
1067.721	-7.04
1068.142	-6.04
1068.564	-2.94
1068.985	-7.04
1069.406	-4.34
1069.827	0.26
1070.248	-3.84
1070.67	-10.24
1071.091	-11.44
1071.512	-4.04
1071.933	-11.94
1072.354	-6.24
1072.775	-5.24
1073.196	-7.04
1073.617	-2.04
1074.038	-1.64
1074.459	-7.84
1074.88	-9.64
1075.3	0.36
1075.721	-7.64
1076.142	2.76
1076.563	-2.84
1076.983	-4.24
1077.404	-5.74
1077.825	-4.44
1078.246	-3.64
1078.666	-11.74
1079.087	-0.94
1079.507	-3.94
1079.928	-1.54
1080.348	-2.84
1080.769	-2.54
1081.189	-2.74
1081.61	-7.84
1082.03	-4.14
1082.451	-7.74
1082.871	-10.54
1083.291	-10.94
1083.711	-8.24
1084.132	-4.54
1084.552	-8.14
1084.972	-5.84
1085.392	-9.84
1085.813	-9.24
1086.233	-7.04
1086.653	-6.34
1087.073	-3.64
1087.493	-1.04
1087.913	-1.24
1088.333	-7.34
1088.753	-5.24
1089.173	3.06
1089.593	-7.34
1090.013	4.66
1090.433	-2.64
1090.852	-5.34
1091.272	4.86
1091.692	-5.84
1092.112	-4.54
1092.531	-5.94
1092.951	-13.84
1093.371	-5.14
1093.79	0.96
1094.21	-11.14
1094.63	-7.64
1095.049	-5.34
1095.469	-7.14
1095.888	-2.94
1096.308	-0.94
1096.727	3.96
1097.146	-4.84
1097.566	-0.14
1097.985	-3.14
1098.405	0.96
1098.824	-2.64
1099.243	-2.14
1099.662	-6.14
1100.082	-3.44
1100.501	1.06
1100.92	-10.14
1101.339	-4.54
1101.758	-2.14
