Data from 20171114-ORNL-Ar_H_NY_Subt18_08-05-04-028.txt Node
Date: Tue Nov 14 08:05:04 EST 2017
User: Ender
Spectrometer: HR+D1039
Trigger mode: 0
Integration Time (sec): 2.730000E-2
Scans to average: 10
Electric dark correction enabled: true
Nonlinearity correction enabled: false
Boxcar width: 0
XAxis mode: Wavelengths
Number of Pixels in Spectrum: 2048
>>>>>Begin Spectral Data<<<<<
187.836	-6.22
188.309	-6.22
188.782	-6.22
189.255	2.88
189.728	-2.42
190.201	10.18
190.674	-0.92
191.147	3.68
191.619	-10.02
192.092	0.08
192.565	1.88
193.038	1.18
193.511	2.98
193.984	-0.42
194.456	-4.32
194.929	5.08
195.402	-6.12
195.874	2.48
196.347	-5.82
196.82	-4.02
197.292	6.98
197.765	6.48
198.237	-4.42
198.71	2.78
199.182	-0.82
199.655	2.78
200.127	2.08
200.6	-6.12
201.072	0.88
201.544	-2.02
202.017	-4.42
202.489	6.38
202.961	-1.42
203.433	-3.12
203.906	-5.02
204.378	-6.42
204.85	-6.62
205.322	-8.62
205.794	1.78
206.266	-2.12
206.739	-7.92
207.211	7.28
207.683	-6.12
208.155	-1.62
208.627	-3.52
209.099	-2.62
209.57	1.38
210.042	-7.02
210.514	-0.02
210.986	-2.22
211.458	-10.72
211.93	-4.12
212.402	-1.02
212.873	-8.12
213.345	-4.82
213.817	-8.42
214.288	0.18
214.76	-10.12
215.232	-6.02
215.703	1.78
216.175	-2.22
216.646	-2.32
217.118	-3.12
217.589	-2.82
218.061	-1.52
218.532	-3.72
219.004	4.88
219.475	-1.32
219.946	1.38
220.418	-5.72
220.889	9.48
221.36	2.38
221.832	-3.62
222.303	-6.42
222.774	-1.72
223.245	-10.22
223.717	-11.42
224.188	-1.22
224.659	-5.92
225.13	-5.22
225.601	-9.92
226.072	3.98
226.543	6.68
227.014	-0.22
227.485	-2.32
227.956	-4.72
228.427	0.98
228.898	0.68
229.369	3.48
229.839	-1.92
230.31	-1.12
230.781	4.18
231.252	-6.12
231.722	-3.22
232.193	-5.72
232.664	2.48
233.135	-2.42
233.605	1.88
234.076	-10.12
234.546	3.28
235.017	1.68
235.487	1.48
235.958	-1.32
236.428	-0.02
236.899	5.88
237.369	3.68
237.84	2.88
238.31	3.98
238.78	7.08
239.251	1.78
239.721	2.88
240.191	3.18
240.662	-1.82
241.132	3.38
241.602	-0.72
242.072	0.98
242.542	10.58
243.013	-1.02
243.483	9.38
243.953	1.78
244.423	2.18
244.893	-2.22
245.363	6.68
245.833	4.68
246.303	-3.02
246.773	8.28
247.243	2.58
247.712	2.28
248.182	9.78
248.652	3.08
249.122	-0.12
249.592	15.18
250.061	24.58
250.531	36.58
251.001	15.48
251.471	23.98
251.94	18.68
252.41	7.78
252.879	3.88
253.349	23.18
253.818	14.48
254.288	8.68
254.757	6.48
255.227	2.08
255.696	0.88
256.166	5.98
256.635	7.68
257.105	5.98
257.574	15.68
258.043	8.08
258.513	16.28
258.982	21.28
259.451	10.18
259.92	18.08
260.389	11.88
260.859	21.28
261.328	19.28
261.797	20.08
262.266	13.38
262.735	15.38
263.204	6.18
263.673	-2.12
264.142	11.78
264.611	-2.32
265.08	3.58
265.549	3.98
266.018	11.48
266.487	-2.92
266.955	1.28
267.424	1.18
267.893	5.68
268.362	8.98
268.83	6.58
269.299	16.48
269.768	9.88
270.236	14.78
270.705	4.68
271.174	8.18
271.642	11.18
272.111	14.58
272.579	20.38
273.048	25.18
273.516	29.48
273.985	30.68
274.453	31.08
274.922	25.58
275.39	16.38
275.858	9.28
276.327	12.08
276.795	23.08
277.263	16.88
277.731	31.48
278.2	53.08
278.668	63.78
279.136	51.78
279.604	24.08
280.072	22.98
280.54	11.98
281.008	10.98
281.477	17.08
281.945	18.18
282.413	18.68
282.881	22.18
283.348	12.88
283.816	19.18
284.284	16.48
284.752	20.38
285.22	20.38
285.688	18.38
286.156	20.48
286.623	46.48
287.091	50.28
287.559	33.18
288.026	23.68
288.494	23.18
288.962	3.58
289.429	13.98
289.897	20.08
290.364	15.38
290.832	16.78
291.3	18.88
291.767	12.78
292.234	19.38
292.702	13.58
293.169	23.98
293.637	24.98
294.104	26.48
294.571	7.88
295.039	12.78
295.506	20.08
295.973	23.08
296.44	17.88
296.908	23.18
297.375	16.68
297.842	17.48
298.309	21.08
298.776	12.88
299.243	14.88
299.71	19.18
300.177	28.88
300.644	28.48
301.111	29.88
301.578	25.88
302.045	18.38
302.512	26.58
302.979	26.28
303.446	24.98
303.913	23.58
304.379	15.48
304.846	26.18
305.313	29.58
305.78	26.08
306.246	31.98
306.713	29.38
307.18	32.18
307.646	35.18
308.113	35.68
308.579	16.98
309.046	26.08
309.512	28.38
309.979	21.58
310.445	30.08
310.912	31.08
311.378	32.48
311.845	27.98
312.311	32.08
312.777	34.28
313.244	32.58
313.71	40.78
314.176	33.18
314.642	30.38
315.109	27.98
315.575	43.78
316.041	36.38
316.507	32.68
316.973	35.68
317.439	39.28
317.905	40.98
318.371	36.98
318.837	34.78
319.303	36.28
319.769	37.48
320.235	38.58
320.701	33.88
321.167	38.98
321.633	40.78
322.099	43.98
322.564	46.88
323.03	45.08
323.496	43.08
323.962	42.88
324.427	36.28
324.893	43.88
325.359	43.48
325.824	37.08
326.29	33.88
326.755	41.18
327.221	47.48
327.686	42.58
328.152	50.18
328.617	44.98
329.083	47.38
329.548	50.28
330.014	53.28
330.479	45.28
330.944	49.48
331.41	49.28
331.875	49.98
332.34	42.48
332.805	43.38
333.271	48.98
333.736	50.18
334.201	50.88
334.666	51.78
335.131	58.88
335.596	49.68
336.061	54.48
336.526	46.88
336.991	48.58
337.456	55.68
337.921	50.08
338.386	48.28
338.851	45.18
339.316	53.98
339.781	38.48
340.246	54.68
340.711	48.98
341.175	57.38
341.64	56.38
342.105	49.58
342.569	62.18
343.034	61.58
343.499	60.38
343.963	59.48
344.428	72.18
344.893	62.98
345.357	55.08
345.822	55.28
346.286	69.78
346.751	75.68
347.215	68.78
347.679	80.08
348.144	94.88
348.608	81.38
349.073	73.68
349.537	74.68
350.001	78.38
350.465	86.58
350.93	87.18
351.394	81.18
351.858	72.78
352.322	89.38
352.786	83.28
353.25	106.78
353.715	114.68
354.179	100.78
354.643	122.28
355.107	129.48
355.571	105.58
356.035	113.68
356.498	119.98
356.962	125.48
357.426	127.48
357.89	115.38
358.354	92.28
358.818	84.88
359.281	84.18
359.745	75.28
360.209	81.48
360.673	82.68
361.136	85.68
361.6	86.98
362.064	87.58
362.527	87.48
362.991	84.18
363.454	79.38
363.918	84.98
364.381	82.28
364.845	84.58
365.308	86.38
365.772	86.28
366.235	91.78
366.698	82.38
367.162	86.78
367.625	92.18
368.088	87.38
368.552	93.18
369.015	83.98
369.478	96.98
369.941	101.28
370.404	96.68
370.867	106.68
371.331	109.08
371.794	119.68
372.257	110.48
372.72	112.38
373.183	112.58
373.646	105.58
374.109	106.18
374.572	110.58
375.035	106.48
375.497	111.18
375.96	106.28
376.423	99.38
376.886	115.38
377.349	108.98
377.811	107.88
378.274	100.78
378.737	108.38
379.199	107.98
379.662	107.78
380.125	112.58
380.587	116.98
381.05	121.88
381.512	128.58
381.975	130.88
382.437	130.28
382.9	120.78
383.362	128.68
383.825	139.88
384.287	134.18
384.75	131.78
385.212	139.58
385.674	133.68
386.136	141.98
386.599	125.08
387.061	124.38
387.523	124.18
387.985	137.18
388.447	142.68
388.91	140.48
389.372	147.08
389.834	141.88
390.296	146.38
390.758	155.18
391.22	165.58
391.682	205.38
392.144	289.98
392.606	227.48
393.068	163.28
393.529	167.68
393.991	148.68
394.453	148.38
394.915	152.08
395.377	184.88
395.838	208.08
396.3	155.08
396.762	139.28
397.224	129.98
397.685	127.48
398.147	127.38
398.608	132.38
399.07	131.28
399.531	130.68
399.993	136.48
400.454	152.78
400.916	143.88
401.377	138.68
401.839	149.58
402.3	149.28
402.762	162.78
403.223	170.88
403.684	170.48
404.145	163.78
404.607	163.58
405.068	164.38
405.529	164.78
405.99	186.88
406.451	167.08
406.913	175.38
407.374	157.38
407.835	160.08
408.296	160.28
408.757	169.28
409.218	185.28
409.679	170.38
410.14	166.28
410.601	171.48
411.062	177.58
411.522	185.78
411.983	191.68
412.444	167.08
412.905	176.68
413.366	180.78
413.826	191.68
414.287	207.88
414.748	258.28
415.208	238.88
415.669	206.18
416.13	200.48
416.59	198.08
417.051	212.48
417.511	204.18
417.972	226.78
418.432	235.08
418.893	283.38
419.353	248.08
419.814	185.88
420.274	175.98
420.734	176.28
421.195	185.58
421.655	191.18
422.115	191.18
422.576	190.08
423.036	188.38
423.496	196.68
423.956	203.68
424.416	222.48
424.876	266.08
425.336	251.88
425.797	256.18
426.257	241.08
426.717	233.48
427.177	225.18
427.637	214.58
428.097	237.18
428.556	245.08
429.016	260.28
429.476	255.38
429.936	262.68
430.396	268.88
430.856	281.88
431.315	311.78
431.775	338.78
432.235	362.38
432.694	338.28
433.154	354.18
433.614	377.08
434.073	330.08
434.533	275.28
434.993	255.08
435.452	274.38
435.912	288.68
436.371	281.78
436.83	280.98
437.29	258.78
437.749	241.68
438.209	232.18
438.668	264.58
439.127	276.08
439.587	258.88
440.046	244.28
440.505	242.88
440.964	267.98
441.424	317.58
441.883	303.18
442.342	247.78
442.801	219.78
443.26	212.48
443.719	210.38
444.178	208.98
444.637	201.88
445.096	208.28
445.555	214.78
446.014	217.28
446.473	219.18
446.932	222.48
447.391	213.78
447.849	222.78
448.308	210.58
448.767	212.98
449.226	226.18
449.685	226.18
450.143	241.38
450.602	225.78
451.061	220.38
451.519	227.38
451.978	223.48
452.436	227.28
452.895	228.18
453.353	251.48
453.812	233.18
454.27	233.68
454.729	226.18
455.187	228.48
455.646	240.88
456.104	244.88
456.562	244.58
457.021	257.78
457.479	255.38
457.937	263.98
458.395	253.78
458.854	238.38
459.312	250.08
459.77	262.98
460.228	254.48
460.686	237.08
461.144	243.38
461.602	233.78
462.06	234.88
462.518	249.48
462.976	249.38
463.434	252.78
463.892	257.38
464.35	261.08
464.808	286.18
465.266	258.98
465.724	264.38
466.181	261.78
466.639	267.18
467.097	281.38
467.555	293.58
468.012	296.28
468.47	301.68
468.928	320.08
469.385	332.88
469.843	332.48
470.3	339.78
470.758	357.78
471.215	380.28
471.673	396.58
472.13	393.68
472.588	405.88
473.045	362.48
473.503	372.18
473.96	384.58
474.417	389.78
474.875	414.08
475.332	464.08
475.789	451.58
476.246	447.58
476.704	476.48
477.161	497.08
477.618	503.88
478.075	544.18
478.532	591.08
478.989	670.48
479.446	782.38
479.903	750.88
480.36	787.58
480.817	840.78
481.274	955.18
481.731	1056.18
482.188	1147.58
482.645	1283.48
483.102	1388.38
483.558	1507.68
484.015	1562.58
484.472	1545.18
484.929	1505.78
485.385	1450.68
485.842	1406.78
486.299	1340.28
486.755	1256.08
487.212	1061.18
487.668	900.78
488.125	834.48
488.582	759.08
489.038	722.18
489.494	707.48
489.951	674.58
490.407	656.18
490.864	641.08
491.32	631.88
491.776	629.78
492.233	632.18
492.689	585.98
493.145	582.08
493.602	577.38
494.058	593.58
494.514	604.58
494.97	622.48
495.426	636.78
495.882	609.28
496.338	595.68
496.794	610.38
497.251	611.48
497.707	621.68
498.163	632.08
498.618	621.88
499.074	633.88
499.53	659.68
499.986	662.08
500.442	629.38
500.898	611.98
501.354	608.78
501.809	617.58
502.265	625.88
502.721	646.68
503.177	656.38
503.632	648.28
504.088	659.08
504.543	687.48
504.999	680.28
505.455	642.38
505.91	615.88
506.366	615.08
506.821	611.38
507.277	608.28
507.732	604.48
508.187	595.58
508.643	613.18
509.098	615.98
509.553	644.18
510.009	640.38
510.464	647.78
510.919	660.98
511.375	676.08
511.83	679.28
512.285	708.18
512.74	746.28
513.195	763.38
513.65	747.68
514.105	749.18
514.56	755.28
515.015	772.38
515.47	785.68
515.925	771.98
516.38	772.78
516.835	781.18
517.29	757.38
517.745	752.48
518.2	751.58
518.655	730.18
519.109	717.88
519.564	725.28
520.019	711.48
520.474	707.88
520.928	707.98
521.383	687.88
521.838	685.38
522.292	684.78
522.747	674.58
523.201	683.18
523.656	677.38
524.11	665.28
524.565	668.58
525.019	661.98
525.474	680.98
525.928	678.58
526.382	680.98
526.837	673.98
527.291	673.48
527.745	673.48
528.2	669.28
528.654	665.58
529.108	661.78
529.562	669.58
530.016	670.98
530.47	664.08
530.925	669.28
531.379	670.08
531.833	678.48
532.287	683.88
532.741	678.18
533.195	678.08
533.649	687.78
534.103	696.38
534.556	695.28
535.01	688.58
535.464	690.08
535.918	710.28
536.372	703.98
536.826	692.68
537.279	688.98
537.733	700.08
538.187	683.18
538.64	692.38
539.094	700.48
539.548	700.18
540.001	695.78
540.455	693.78
540.908	710.58
541.362	707.58
541.815	715.08
542.269	729.88
542.722	734.68
543.175	736.78
543.629	733.78
544.082	750.68
544.536	751.78
544.989	754.18
545.442	760.08
545.895	752.78
546.349	760.68
546.802	756.48
547.255	776.28
547.708	786.28
548.161	787.68
548.614	788.38
549.067	788.98
549.52	785.78
549.973	779.68
550.426	778.58
550.879	760.18
551.332	769.08
551.785	777.68
552.238	781.88
552.691	783.38
553.144	793.18
553.596	802.88
554.049	820.48
554.502	853.08
554.955	870.28
555.407	871.78
555.86	870.28
556.313	850.48
556.765	838.48
557.218	854.78
557.67	835.58
558.123	838.08
558.576	842.88
559.028	846.88
559.48	841.98
559.933	832.88
560.385	802.28
560.838	760.38
561.29	746.68
561.742	737.28
562.195	735.58
562.647	728.58
563.099	746.18
563.551	739.08
564.004	751.98
564.456	749.38
564.908	723.88
565.36	713.68
565.812	704.88
566.264	687.58
566.716	691.08
567.168	677.88
567.62	686.28
568.072	666.08
568.524	659.38
568.976	654.58
569.428	640.18
569.88	625.78
570.332	639.58
570.784	648.48
571.235	650.48
571.687	666.08
572.139	664.88
572.59	673.88
573.042	683.58
573.494	671.68
573.945	668.88
574.397	661.18
574.849	656.18
575.3	661.98
575.752	652.28
576.203	642.38
576.655	650.78
577.106	638.58
577.557	636.18
578.009	630.38
578.46	643.58
578.912	626.38
579.363	634.08
579.814	631.08
580.265	624.78
580.717	629.18
581.168	638.48
581.619	633.88
582.07	648.28
582.521	642.68
582.972	635.58
583.423	651.58
583.875	646.58
584.326	649.58
584.777	702.58
585.227	772.48
585.678	866.48
586.129	953.08
586.58	1012.08
587.031	1109.08
587.482	1256.78
587.933	1445.68
588.384	1245.08
588.834	925.48
589.285	758.78
589.736	741.08
590.186	721.68
590.637	717.18
591.088	698.88
591.538	701.58
591.989	686.88
592.439	681.68
592.89	678.78
593.34	675.38
593.791	665.18
594.241	656.48
594.692	669.78
595.142	654.88
595.593	664.58
596.043	671.28
596.493	670.38
596.943	677.48
597.394	677.58
597.844	663.58
598.294	681.08
598.744	701.48
599.195	716.18
599.645	768.48
600.095	798.48
600.545	851.68
600.995	906.28
601.445	963.38
601.895	1025.88
602.345	1066.38
602.795	1045.38
603.245	1005.28
603.695	954.98
604.145	896.48
604.594	855.28
605.044	800.28
605.494	746.38
605.944	710.08
606.393	701.48
606.843	678.08
607.293	681.58
607.743	689.38
608.192	694.78
608.642	715.18
609.091	718.18
609.541	715.58
609.99	715.08
610.44	710.58
610.889	673.48
611.339	654.58
611.788	637.58
612.238	651.08
612.687	672.18
613.136	667.58
613.586	687.88
614.035	697.48
614.484	702.98
614.933	715.88
615.383	694.98
615.832	692.48
616.281	674.58
616.73	644.28
617.179	617.58
617.628	603.28
618.077	586.68
618.526	570.38
618.975	570.68
619.424	573.98
619.873	573.48
620.322	575.98
620.771	564.68
621.22	548.38
621.669	548.98
622.118	547.38
622.567	530.58
623.015	526.48
623.464	524.98
623.913	518.88
624.361	507.58
624.81	510.68
625.259	500.48
625.707	517.48
626.156	518.68
626.604	522.18
627.053	518.18
627.501	519.98
627.95	524.78
628.398	537.68
628.847	522.78
629.295	530.98
629.744	538.78
630.192	526.18
630.64	526.48
631.089	521.08
631.537	540.68
631.985	532.68
632.433	549.88
632.881	566.08
633.33	605.38
633.778	586.88
634.226	536.08
634.674	522.08
635.122	528.48
635.57	542.68
636.018	585.48
636.466	526.88
636.914	512.68
637.362	527.18
637.81	531.48
638.258	527.48
638.705	534.28
639.153	554.48
639.601	566.78
640.049	596.98
640.497	623.38
640.944	645.38
641.392	586.98
641.84	550.48
642.287	537.48
642.735	524.58
643.182	523.18
643.63	529.88
644.078	519.08
644.525	541.28
644.973	544.48
645.42	549.68
645.867	568.38
646.315	588.78
646.762	610.68
647.21	636.48
647.657	651.18
648.104	687.78
648.551	711.28
648.999	768.68
649.446	840.38
649.893	919.68
650.34	1057.08
650.787	1275.18
651.234	1576.68
651.682	2052.78
652.129	2801.38
652.576	4035.88
653.023	5980.78
653.47	8242.78
653.917	10413.28
654.363	12092.48
654.81	13544.38
655.257	12864.98
655.704	8357.68
656.151	4942.58
656.598	3193.48
657.044	2244.38
657.491	1732.28
657.938	1384.58
658.385	1150.38
658.831	1001.68
659.278	884.58
659.724	786.18
660.171	725.48
660.618	659.68
661.064	627.68
661.511	608.28
661.957	597.28
662.404	585.18
662.85	591.68
663.296	566.28
663.743	506.08
664.189	487.88
664.635	481.18
665.082	476.78
665.528	482.68
665.974	472.78
666.42	453.18
666.867	459.88
667.313	446.28
667.759	437.48
668.205	440.88
668.651	441.68
669.097	446.88
669.543	464.08
669.989	437.38
670.435	404.18
670.881	403.18
671.327	406.68
671.773	428.38
672.219	445.48
672.665	480.98
673.11	519.48
673.556	570.08
674.002	607.38
674.448	591.68
674.893	498.08
675.339	429.08
675.785	397.08
676.23	377.68
676.676	350.78
677.122	350.58
677.567	334.08
678.013	337.38
678.458	325.48
678.904	324.98
679.349	312.38
679.794	318.08
680.24	317.48
680.685	306.48
681.131	312.38
681.576	320.08
682.021	311.88
682.466	314.38
682.912	318.68
683.357	321.28
683.802	342.38
684.247	368.78
684.692	403.78
685.137	447.18
685.583	488.68
686.028	516.18
686.473	463.48
686.918	405.38
687.363	382.88
687.807	354.98
688.252	324.28
688.697	320.68
689.142	302.28
689.587	297.48
690.032	295.48
690.477	309.58
690.921	316.98
691.366	340.58
691.811	363.48
692.255	386.28
692.7	418.58
693.145	444.78
693.589	606.18
694.034	995.48
694.478	1365.18
694.923	1574.58
695.367	2059.58
695.812	1082.38
696.256	455.98
696.701	334.88
697.145	312.88
697.59	297.38
698.034	285.48
698.478	297.48
698.922	298.08
699.367	287.98
699.811	300.18
700.255	326.28
700.699	346.68
701.143	377.98
701.588	424.98
702.032	466.38
702.476	464.18
702.92	440.68
703.364	436.58
703.808	565.78
704.252	895.68
704.696	1286.68
705.14	1499.88
705.584	1935.18
706.027	970.48
706.471	476.18
706.915	362.48
707.359	312.08
707.803	284.08
708.246	282.68
708.69	284.48
709.134	275.38
709.577	278.08
710.021	290.08
710.465	274.58
710.908	275.18
711.352	263.88
711.795	279.28
712.239	308.68
712.682	341.38
713.126	377.68
713.569	424.28
714.012	331.08
714.456	294.48
714.899	272.98
715.342	245.28
715.786	237.58
716.229	237.38
716.672	229.18
717.115	220.68
717.558	225.88
718.002	228.98
718.445	234.78
718.888	253.88
719.331	259.58
719.774	277.58
720.217	271.28
720.66	253.08
721.103	237.88
721.546	234.58
721.989	222.68
722.432	205.88
722.874	212.48
723.317	207.28
723.76	210.38
724.203	229.98
724.645	277.68
725.088	388.38
725.531	504.98
725.974	590.68
726.416	488.58
726.859	280.28
727.301	228.78
727.744	215.98
728.187	205.48
728.629	213.68
729.071	216.18
729.514	230.88
729.956	237.98
730.399	255.58
730.841	257.78
731.283	236.88
731.726	235.68
732.168	234.18
732.61	239.58
733.053	256.48
733.495	282.38
733.937	316.08
734.379	354.08
734.821	387.18
735.263	480.48
735.705	724.48
736.148	1378.68
736.59	2283.48
737.032	2774.68
737.474	2244.78
737.916	725.18
738.357	381.98
738.799	293.88
739.241	263.18
739.683	252.48
740.125	262.88
740.567	265.58
741.008	281.38
741.45	281.88
741.892	285.88
742.334	312.58
742.775	327.98
743.217	309.48
743.658	235.38
744.1	220.48
744.542	228.18
744.983	276.38
745.425	316.28
745.866	308.48
746.307	254.48
746.749	242.48
747.19	282.18
747.632	402.48
748.073	753.18
748.514	1621.58
748.956	2534.78
749.397	3165.58
749.838	2655.68
750.279	2687.48
750.72	1353.88
751.162	486.18
751.603	283.78
752.044	227.18
752.485	191.28
752.926	192.48
753.367	178.88
753.808	172.68
754.249	177.08
754.69	166.28
755.131	165.98
755.572	156.78
756.013	164.38
756.453	162.08
756.894	162.98
757.335	173.58
757.776	173.68
758.216	171.28
758.657	177.08
759.098	178.18
759.538	207.58
759.979	232.68
760.42	328.58
760.86	612.18
761.301	1555.08
761.741	3870.18
762.182	5870.38
762.622	4125.68
763.063	1183.18
763.503	482.18
763.943	309.98
764.384	305.08
764.824	360.38
765.264	404.68
765.705	277.98
766.145	186.58
766.585	167.98
767.025	160.18
767.465	176.48
767.906	216.78
768.346	290.08
768.786	307.68
769.226	233.38
769.666	278.58
770.106	535.38
770.546	1334.98
770.986	2392.08
771.426	2163.18
771.866	713.48
772.306	296.58
772.745	186.78
773.185	159.08
773.625	151.38
774.065	148.68
774.505	171.58
774.944	272.88
775.384	603.88
775.824	1133.78
776.263	1133.18
776.703	467.98
777.142	207.28
777.582	138.18
778.021	129.08
778.461	124.68
778.9	127.08
779.34	117.88
779.779	100.38
780.219	96.28
780.658	92.88
781.097	102.78
781.537	99.38
781.976	90.88
782.415	92.18
782.855	89.28
783.294	87.08
783.733	96.48
784.172	95.48
784.611	95.88
785.05	100.98
785.489	101.58
785.928	109.38
786.367	110.08
786.806	106.18
787.245	116.88
787.684	116.58
788.123	132.68
788.562	127.88
789.001	109.88
789.44	104.48
789.879	112.98
790.317	105.48
790.756	113.98
791.195	116.68
791.634	129.88
792.072	178.68
792.511	310.68
792.95	868.28
793.388	1924.38
793.827	1787.38
794.265	613.88
794.704	251.88
795.142	159.78
795.581	133.28
796.019	121.88
796.458	110.48
796.896	112.08
797.334	110.28
797.773	136.38
798.211	186.78
798.649	376.98
799.087	895.18
799.526	1411.88
799.964	1794.88
800.402	1837.18
800.84	680.78
801.278	265.78
801.716	166.48
802.154	136.88
802.592	131.58
803.03	122.98
803.468	113.08
803.906	131.48
804.344	136.48
804.782	120.58
805.22	118.48
805.658	117.78
806.096	128.38
806.533	138.08
806.971	155.78
807.409	186.28
807.847	277.48
808.284	567.18
808.722	1614.18
809.16	2943.78
809.597	2748.28
810.035	4820.68
810.472	5332.18
810.91	1891.18
811.347	709.28
811.785	361.98
812.222	228.28
812.66	173.38
813.097	144.78
813.535	126.88
813.972	110.48
814.409	104.78
814.846	105.58
815.284	98.98
815.721	92.08
816.158	94.98
816.595	111.68
817.032	156.58
817.47	182.48
817.907	142.38
818.344	131.98
818.781	109.88
819.218	93.68
819.655	115.78
820.092	168.88
820.529	197.98
820.966	157.68
821.403	118.28
821.839	99.88
822.276	95.48
822.713	108.08
823.15	119.68
823.587	103.48
824.023	129.48
824.46	255.08
824.897	776.38
825.333	1233.78
825.77	529.48
826.206	206.78
826.643	120.98
827.08	92.28
827.516	77.78
827.953	69.48
828.389	72.58
828.825	61.98
829.262	64.68
829.698	60.48
830.135	64.18
830.571	52.58
831.007	57.58
831.443	55.08
831.88	55.58
832.316	56.88
832.752	59.38
833.188	60.88
833.624	56.68
834.06	66.08
834.497	51.28
834.933	67.08
835.369	68.58
835.805	62.08
836.241	66.08
836.677	71.08
837.112	84.28
837.548	91.78
837.984	118.98
838.42	179.58
838.856	426.28
839.292	1328.28
839.727	2095.98
840.163	962.48
840.599	804.48
841.034	1791.18
841.47	1955.28
841.906	709.28
842.341	305.48
842.777	205.38
843.212	277.18
843.648	290.18
844.083	139.18
844.519	90.78
844.954	71.68
845.39	47.48
845.825	47.78
846.261	54.18
846.696	45.48
847.131	44.48
847.566	52.28
848.002	41.48
848.437	48.68
848.872	55.08
849.307	53.68
849.742	74.68
850.177	153.88
850.613	486.88
851.048	797.28
851.483	342.88
851.918	136.68
852.353	76.88
852.788	57.98
853.223	47.98
853.657	52.28
854.092	42.78
854.527	38.48
854.962	34.08
855.397	44.88
855.832	47.18
856.266	35.78
856.701	36.28
857.136	36.88
857.57	37.68
858.005	41.88
858.44	59.58
858.874	37.78
859.309	48.28
859.743	30.88
860.178	47.38
860.612	35.18
861.047	44.88
861.481	56.68
861.915	63.48
862.35	48.68
862.784	25.28
863.218	33.88
863.653	28.28
864.087	39.48
864.521	42.18
864.955	63.78
865.39	143.68
865.824	155.08
866.258	102.88
866.692	150.18
867.126	164.18
867.56	97.08
867.994	46.08
868.428	27.98
868.862	41.28
869.296	43.08
869.73	50.78
870.164	45.18
870.598	39.78
871.031	37.88
871.465	30.98
871.899	34.38
872.333	21.58
872.766	25.88
873.2	19.58
873.634	27.38
874.067	17.38
874.501	18.48
874.935	26.38
875.368	28.08
875.802	26.58
876.235	24.58
876.669	21.78
877.102	20.18
877.535	25.48
877.969	16.58
878.402	24.18
878.836	18.28
879.269	21.78
879.702	20.98
880.135	18.48
880.569	25.58
881.002	31.78
881.435	20.48
881.868	11.18
882.301	16.18
882.734	12.08
883.167	23.58
883.601	18.08
884.034	18.38
884.467	8.58
884.899	9.88
885.332	18.48
885.765	18.58
886.198	14.98
886.631	13.18
887.064	20.38
887.497	24.88
887.929	21.78
888.362	13.58
888.795	13.18
889.228	15.08
889.66	17.38
890.093	13.28
890.526	14.88
890.958	8.38
891.391	17.98
891.823	15.38
892.256	11.68
892.688	10.08
893.121	10.98
893.553	19.18
893.985	19.78
894.418	13.28
894.85	4.78
895.282	15.38
895.715	9.68
896.147	10.78
896.579	15.78
897.011	10.58
897.444	16.68
897.876	11.28
898.308	14.18
898.74	11.08
899.172	17.38
899.604	21.58
900.036	18.98
900.468	5.28
900.9	15.18
901.332	12.68
901.764	8.78
902.196	15.98
902.628	21.18
903.06	12.98
903.491	28.18
903.923	20.48
904.355	19.98
904.787	24.68
905.218	16.68
905.65	18.28
906.082	12.68
906.513	13.08
906.945	12.18
907.376	5.98
907.808	22.38
908.239	20.68
908.671	21.38
909.102	19.48
909.534	22.08
909.965	46.68
910.397	76.58
910.828	275.78
911.259	429.38
911.691	201.38
912.122	97.38
912.553	50.78
912.984	31.58
913.415	21.78
913.847	30.98
914.278	21.88
914.709	14.78
915.14	15.78
915.571	12.48
916.002	11.08
916.433	17.88
916.864	15.78
917.295	11.28
917.726	23.38
918.157	9.48
918.587	28.68
919.018	20.68
919.449	17.18
919.88	22.18
920.311	28.88
920.741	44.98
921.172	154.78
921.603	134.58
922.033	65.78
922.464	42.98
922.895	19.38
923.325	17.88
923.756	13.48
924.186	17.38
924.617	23.58
925.047	35.38
925.478	44.48
925.908	37.98
926.338	29.08
926.769	22.88
927.199	21.58
927.629	5.08
928.06	16.98
928.49	17.28
928.92	11.08
929.35	9.98
929.78	13.58
930.21	7.68
930.641	10.78
931.071	12.98
931.501	4.78
931.931	6.68
932.361	3.78
932.791	5.48
933.221	1.28
933.651	5.58
934.08	21.98
934.51	28.78
934.94	10.28
935.37	3.88
935.8	14.78
936.229	6.48
936.659	16.08
937.089	1.88
937.519	17.68
937.948	16.58
938.378	16.48
938.807	8.48
939.237	2.48
939.666	8.98
940.096	-1.52
940.525	5.18
940.955	3.48
941.384	1.28
941.814	-1.92
942.243	-4.22
942.672	9.88
943.102	-1.72
943.531	3.98
943.96	3.68
944.39	4.18
944.819	0.38
945.248	6.78
945.677	5.98
946.106	7.18
946.535	10.28
946.964	3.48
947.393	8.98
947.822	-1.92
948.251	-4.22
948.68	9.28
949.109	9.58
949.538	11.18
949.967	4.88
950.396	2.58
950.825	-2.62
951.254	-2.12
951.682	-6.82
952.111	8.08
952.54	11.58
952.969	-6.42
953.397	-1.72
953.826	4.88
954.254	-5.92
954.683	5.58
955.112	0.08
955.54	-3.12
955.969	1.18
956.397	0.48
956.826	0.78
957.254	0.58
957.682	-1.32
958.111	0.38
958.539	-3.22
958.967	5.68
959.396	-7.12
959.824	-3.12
960.252	-2.82
960.68	-2.02
961.109	0.18
961.537	0.28
961.965	-3.12
962.393	-0.72
962.821	-3.62
963.249	-0.52
963.677	4.38
964.105	3.48
964.533	40.58
964.961	38.98
965.389	22.08
965.817	7.18
966.245	-2.02
966.672	2.88
967.1	-6.62
967.528	-1.32
967.956	-2.62
968.383	0.98
968.811	-4.52
969.239	-0.92
969.666	-4.32
970.094	2.78
970.522	7.78
970.949	-1.72
971.377	-5.82
971.804	-3.62
972.232	-1.82
972.659	2.28
973.087	2.28
973.514	-0.02
973.941	-8.82
974.369	2.78
974.796	-5.22
975.223	-1.02
975.651	-5.12
976.078	7.28
976.505	-5.92
976.932	4.48
977.359	13.28
977.786	15.68
978.214	6.08
978.641	-7.62
979.068	-1.22
979.495	-10.42
979.922	-4.62
980.349	-7.62
980.776	3.48
981.202	-0.52
981.629	7.38
982.056	8.08
982.483	-5.42
982.91	8.08
983.337	-3.52
983.763	1.48
984.19	-6.72
984.617	0.68
985.043	-7.82
985.47	-1.12
985.897	-2.22
986.323	-4.22
986.75	8.28
987.176	-2.82
987.603	-1.32
988.029	-6.92
988.456	-2.32
988.882	4.28
989.308	1.98
989.735	-3.62
990.161	3.08
990.587	-0.92
991.014	-1.82
991.44	9.58
991.866	-4.42
992.292	-3.42
992.719	-3.22
993.145	4.68
993.571	-14.02
993.997	-8.22
994.423	-1.02
994.849	-5.92
995.275	3.88
995.701	-1.82
996.127	-2.32
996.553	-4.82
996.979	-2.52
997.405	-4.42
997.83	-2.12
998.256	-6.22
998.682	-3.82
999.108	-8.12
999.534	0.28
999.959	-0.32
1000.385	-8.82
1000.811	-2.72
1001.236	-10.32
1001.662	-7.22
1002.087	-9.72
1002.513	4.18
1002.938	6.48
1003.364	2.28
1003.789	3.88
1004.215	6.68
1004.64	1.48
1005.066	6.48
1005.491	3.28
1005.916	1.18
1006.342	-6.32
1006.767	0.98
1007.192	3.68
1007.617	-0.72
1008.042	-11.32
1008.468	-3.02
1008.893	-2.12
1009.318	-1.92
1009.743	-4.72
1010.168	1.98
1010.593	3.88
1011.018	-7.42
1011.443	0.18
1011.868	4.68
1012.293	-3.82
1012.718	-6.52
1013.143	0.88
1013.567	2.78
1013.992	-4.12
1014.417	-11.32
1014.842	1.98
1015.267	-5.62
1015.691	-3.52
1016.116	2.98
1016.541	3.68
1016.965	6.88
1017.39	0.08
1017.814	-4.62
1018.239	0.18
1018.663	-0.02
1019.088	-8.42
1019.512	-0.32
1019.937	1.78
1020.361	-6.52
1020.785	-9.62
1021.21	-5.62
1021.634	2.28
1022.058	-0.82
1022.483	3.28
1022.907	0.98
1023.331	-1.72
1023.755	-4.72
1024.179	0.88
1024.604	-3.42
1025.028	-6.12
1025.452	-0.12
1025.876	-5.72
1026.3	-1.32
1026.724	-14.22
1027.148	-2.12
1027.572	-9.32
1027.996	-6.52
1028.42	1.88
1028.843	-4.72
1029.267	-4.92
1029.691	-1.32
1030.115	-3.32
1030.539	-9.52
1030.962	-10.92
1031.386	-5.12
1031.81	-0.22
1032.233	-7.62
1032.657	-0.32
1033.08	-1.12
1033.504	3.58
1033.927	-3.82
1034.351	0.08
1034.774	-8.22
1035.198	-2.32
1035.621	-4.72
1036.045	-7.12
1036.468	-5.92
1036.891	-9.82
1037.315	-5.42
1037.738	-9.12
1038.161	5.08
1038.584	-6.92
1039.008	-2.42
1039.431	-4.02
1039.854	-0.02
1040.277	-6.82
1040.7	-8.02
1041.123	-2.22
1041.546	-3.72
1041.969	-2.82
1042.392	-9.72
1042.815	-6.12
1043.238	1.38
1043.661	0.38
1044.084	-6.22
1044.507	-5.32
1044.93	-4.72
1045.352	-2.12
1045.775	-1.12
1046.198	-4.82
1046.621	-0.92
1047.043	-7.32
1047.466	1.58
1047.889	-3.82
1048.311	-6.32
1048.734	1.78
1049.156	-5.62
1049.579	1.78
1050.001	-7.02
1050.424	2.18
1050.846	-2.32
1051.269	-4.82
1051.691	-7.12
1052.113	-2.32
1052.536	-0.12
1052.958	-1.52
1053.38	-2.32
1053.802	-11.02
1054.225	5.18
1054.647	-12.22
1055.069	-4.12
1055.491	-0.32
1055.913	2.78
1056.335	-0.32
1056.757	-0.62
1057.179	-5.02
1057.601	-7.92
1058.023	-1.72
1058.445	-5.62
1058.867	-2.52
1059.289	-0.32
1059.711	-6.22
1060.133	0.68
1060.555	-9.92
1060.976	-5.52
1061.398	-5.62
1061.82	-1.62
1062.241	-11.72
1062.663	-13.22
1063.085	-8.12
1063.506	1.68
1063.928	-0.92
1064.35	-4.82
1064.771	-10.62
1065.193	-3.92
1065.614	-8.52
1066.035	-7.72
1066.457	1.28
1066.878	-5.82
1067.3	-5.02
1067.721	-2.02
1068.142	-2.82
1068.564	-6.82
1068.985	-1.42
1069.406	-4.42
1069.827	-9.12
1070.248	2.38
1070.67	-8.62
1071.091	-7.52
1071.512	-8.52
1071.933	-4.02
1072.354	-10.62
1072.775	-6.82
1073.196	-12.82
1073.617	-5.02
1074.038	-5.92
1074.459	-5.52
1074.88	-5.22
1075.3	-4.72
1075.721	-8.22
1076.142	-1.42
1076.563	0.68
1076.983	-8.92
1077.404	-5.12
1077.825	-6.32
1078.246	-2.42
1078.666	-5.92
1079.087	-2.82
1079.507	0.88
1079.928	1.18
1080.348	-5.72
1080.769	-10.22
1081.189	-2.12
1081.61	-2.12
1082.03	-9.22
1082.451	-2.42
1082.871	-2.92
1083.291	-6.12
1083.711	-0.92
1084.132	-5.22
1084.552	-0.52
1084.972	2.28
1085.392	-14.72
1085.813	-12.12
1086.233	-3.82
1086.653	-9.12
1087.073	-1.42
1087.493	-11.42
1087.913	-5.82
1088.333	-4.72
1088.753	-8.42
1089.173	1.08
1089.593	-3.82
1090.013	0.58
1090.433	0.58
1090.852	-2.92
1091.272	-6.62
1091.692	-1.82
1092.112	-3.52
1092.531	-5.72
1092.951	-12.22
1093.371	1.28
1093.79	0.68
1094.21	-3.22
1094.63	-5.72
1095.049	-3.52
1095.469	2.88
1095.888	0.38
1096.308	1.28
1096.727	0.28
1097.146	-7.82
1097.566	3.78
1097.985	-4.02
1098.405	-4.02
1098.824	-8.32
1099.243	1.78
1099.662	-7.92
1100.082	2.78
1100.501	-2.12
1100.92	-7.72
1101.339	-4.92
1101.758	-6.32
