Data from 20171114-ORNL-Ar_H_NY_Subt18_08-08-42-437.txt Node
Date: Tue Nov 14 08:08:42 EST 2017
User: Ender
Spectrometer: HR+D1039
Trigger mode: 0
Integration Time (sec): 2.730000E-2
Scans to average: 10
Electric dark correction enabled: true
Nonlinearity correction enabled: false
Boxcar width: 0
XAxis mode: Wavelengths
Number of Pixels in Spectrum: 2048
>>>>>Begin Spectral Data<<<<<
187.836	-0.47
188.309	-0.47
188.782	-0.47
189.255	2.33
189.728	-3.47
190.201	0.53
190.674	0.13
191.147	2.53
191.619	-4.07
192.092	1.43
192.565	4.83
193.038	-0.97
193.511	-3.17
193.984	2.23
194.456	-4.97
194.929	2.93
195.402	-0.37
195.874	0.53
196.347	0.13
196.82	-8.27
197.292	0.03
197.765	-5.47
198.237	-10.77
198.71	1.53
199.182	-3.37
199.655	5.43
200.127	2.93
200.6	-1.07
201.072	1.83
201.544	-5.67
202.017	-5.57
202.489	1.63
202.961	-0.27
203.433	-2.67
203.906	-7.47
204.378	-6.87
204.85	-5.37
205.322	-5.27
205.794	-1.07
206.266	-4.67
206.739	-8.27
207.211	1.13
207.683	-9.17
208.155	-6.97
208.627	-1.37
209.099	-2.97
209.57	-10.07
210.042	-3.67
210.514	-5.07
210.986	-6.17
211.458	-3.77
211.93	-1.77
212.402	-1.87
212.873	-6.27
213.345	-10.27
213.817	-14.07
214.288	-3.27
214.76	-11.87
215.232	-4.77
215.703	-2.17
216.175	-7.07
216.646	-5.87
217.118	-8.57
217.589	-0.07
218.061	-1.77
218.532	-1.07
219.004	-5.27
219.475	-1.47
219.946	0.13
220.418	-5.27
220.889	4.13
221.36	-2.97
221.832	-7.87
222.303	-5.77
222.774	-5.77
223.245	-10.47
223.717	-3.07
224.188	-4.27
224.659	-9.57
225.13	-3.27
225.601	-0.57
226.072	-1.47
226.543	-3.77
227.014	-3.97
227.485	-3.77
227.956	-7.97
228.427	-2.87
228.898	-1.47
229.369	6.33
229.839	-1.27
230.31	-8.17
230.781	1.73
231.252	-1.57
231.722	-11.97
232.193	-3.37
232.664	-4.77
233.135	0.03
233.605	-1.37
234.076	-6.77
234.546	-2.57
235.017	-0.27
235.487	-2.57
235.958	-2.97
236.428	-3.77
236.899	1.43
237.369	-0.57
237.84	-2.77
238.31	-0.27
238.78	-5.27
239.251	0.53
239.721	-0.87
240.191	-4.37
240.662	-3.17
241.132	-5.27
241.602	-1.17
242.072	-0.57
242.542	0.93
243.013	-4.87
243.483	-0.57
243.953	0.63
244.423	-1.67
244.893	-3.57
245.363	2.63
245.833	-1.77
246.303	-3.07
246.773	3.83
247.243	-0.07
247.712	5.23
248.182	5.73
248.652	2.43
249.122	-2.37
249.592	2.03
250.061	12.83
250.531	18.43
251.001	10.03
251.471	16.43
251.94	10.43
252.41	1.33
252.879	-0.57
253.349	10.63
253.818	4.33
254.288	3.53
254.757	4.43
255.227	-3.57
255.696	2.93
256.166	5.63
256.635	4.63
257.105	5.23
257.574	4.13
258.043	-1.27
258.513	-0.47
258.982	12.13
259.451	2.33
259.92	1.53
260.389	-0.67
260.859	6.53
261.328	7.13
261.797	10.63
262.266	2.63
262.735	9.43
263.204	-1.47
263.673	-0.47
264.142	4.13
264.611	-1.67
265.08	-4.17
265.549	-4.97
266.018	7.63
266.487	-1.97
266.955	-4.07
267.424	-3.87
267.893	-0.97
268.362	-4.27
268.83	-0.47
269.299	7.63
269.768	-1.77
270.236	0.93
270.705	-10.57
271.174	-1.97
271.642	0.73
272.111	1.73
272.579	10.23
273.048	16.63
273.516	14.83
273.985	13.33
274.453	10.23
274.922	15.73
275.39	4.53
275.858	-1.87
276.327	5.53
276.795	12.13
277.263	3.83
277.731	25.83
278.2	34.03
278.668	35.43
279.136	29.33
279.604	12.03
280.072	8.23
280.54	11.93
281.008	3.73
281.477	9.93
281.945	9.13
282.413	12.83
282.881	11.53
283.348	5.13
283.816	15.63
284.284	9.43
284.752	17.63
285.22	11.93
285.688	14.73
286.156	12.93
286.623	34.73
287.091	31.53
287.559	20.93
288.026	9.93
288.494	13.13
288.962	-1.27
289.429	-0.67
289.897	14.63
290.364	6.43
290.832	12.13
291.3	13.03
291.767	18.73
292.234	15.93
292.702	8.13
293.169	7.53
293.637	12.53
294.104	15.53
294.571	7.73
295.039	7.23
295.506	4.03
295.973	8.83
296.44	9.63
296.908	11.33
297.375	8.13
297.842	15.53
298.309	14.73
298.776	9.63
299.243	14.93
299.71	9.33
300.177	16.93
300.644	15.03
301.111	11.63
301.578	19.13
302.045	11.33
302.512	24.93
302.979	20.33
303.446	20.13
303.913	16.03
304.379	13.43
304.846	21.53
305.313	15.43
305.78	13.23
306.246	17.13
306.713	19.13
307.18	25.03
307.646	17.63
308.113	16.73
308.579	23.03
309.046	22.53
309.512	18.53
309.979	17.43
310.445	21.93
310.912	23.43
311.378	27.93
311.845	19.93
312.311	21.03
312.777	27.03
313.244	21.93
313.71	34.13
314.176	24.03
314.642	23.43
315.109	25.23
315.575	29.03
316.041	32.23
316.507	27.53
316.973	35.93
317.439	25.53
317.905	22.53
318.371	22.33
318.837	25.13
319.303	26.93
319.769	30.73
320.235	26.63
320.701	27.73
321.167	28.93
321.633	28.83
322.099	30.33
322.564	40.33
323.03	35.43
323.496	29.33
323.962	31.33
324.427	26.63
324.893	31.33
325.359	27.93
325.824	36.83
326.29	28.63
326.755	35.13
327.221	31.53
327.686	29.63
328.152	37.63
328.617	37.03
329.083	38.83
329.548	44.43
330.014	40.03
330.479	32.23
330.944	36.03
331.41	39.23
331.875	39.23
332.34	31.33
332.805	39.63
333.271	40.73
333.736	30.83
334.201	42.73
334.666	45.03
335.131	48.43
335.596	45.03
336.061	36.13
336.526	31.33
336.991	41.23
337.456	46.93
337.921	41.23
338.386	36.53
338.851	36.93
339.316	47.53
339.781	41.43
340.246	44.03
340.711	37.93
341.175	44.03
341.64	37.93
342.105	44.63
342.569	49.03
343.034	56.83
343.499	45.73
343.963	42.03
344.428	64.23
344.893	54.13
345.357	55.33
345.822	54.03
346.286	60.13
346.751	64.73
347.215	57.93
347.679	59.73
348.144	83.53
348.608	72.83
349.073	56.63
349.537	66.33
350.001	69.03
350.465	75.63
350.93	70.93
351.394	69.03
351.858	67.13
352.322	75.43
352.786	74.03
353.25	89.03
353.715	103.03
354.179	88.33
354.643	100.03
355.107	104.23
355.571	89.93
356.035	95.83
356.498	105.03
356.962	100.33
357.426	114.73
357.89	104.83
358.354	79.53
358.818	76.23
359.281	74.33
359.745	65.63
360.209	66.63
360.673	67.43
361.136	70.83
361.6	77.63
362.064	69.33
362.527	76.53
362.991	78.83
363.454	69.73
363.918	67.33
364.381	72.03
364.845	76.73
365.308	78.83
365.772	87.53
366.235	81.63
366.698	76.93
367.162	78.23
367.625	79.73
368.088	79.83
368.552	85.23
369.015	76.43
369.478	90.33
369.941	91.03
370.404	89.73
370.867	98.03
371.331	100.93
371.794	108.13
372.257	97.23
372.72	101.23
373.183	95.43
373.646	91.83
374.109	89.73
374.572	103.53
375.035	97.83
375.497	99.73
375.96	94.03
376.423	97.63
376.886	108.53
377.349	95.63
377.811	94.13
378.274	99.83
378.737	101.73
379.199	105.53
379.662	103.03
380.125	99.23
380.587	111.33
381.05	116.73
381.512	118.73
381.975	118.03
382.437	115.83
382.9	119.03
383.362	121.03
383.825	133.63
384.287	136.83
384.75	128.03
385.212	130.13
385.674	122.23
386.136	130.03
386.599	117.23
387.061	129.73
387.523	124.23
387.985	125.83
388.447	136.53
388.91	137.63
389.372	147.93
389.834	141.43
390.296	134.23
390.758	153.13
391.22	154.23
391.682	179.13
392.144	242.43
392.606	199.83
393.068	156.93
393.529	160.13
393.991	143.23
394.453	140.73
394.915	150.23
395.377	170.13
395.838	178.93
396.3	144.73
396.762	132.33
397.224	128.63
397.685	130.23
398.147	128.23
398.608	124.93
399.07	123.13
399.531	138.43
399.993	136.53
400.454	151.43
400.916	145.03
401.377	141.93
401.839	149.83
402.3	155.53
402.762	160.23
403.223	170.03
403.684	158.93
404.145	156.73
404.607	153.13
405.068	159.33
405.529	164.63
405.99	175.13
406.451	165.33
406.913	173.83
407.374	156.43
407.835	159.53
408.296	165.23
408.757	165.13
409.218	184.13
409.679	175.33
410.14	174.63
410.601	182.73
411.062	187.13
411.522	189.13
411.983	181.53
412.444	176.23
412.905	175.63
413.366	179.63
413.826	194.93
414.287	218.63
414.748	262.63
415.208	245.93
415.669	214.33
416.13	203.63
416.59	206.13
417.051	213.63
417.511	219.13
417.972	231.73
418.432	247.33
418.893	296.03
419.353	253.13
419.814	194.43
420.274	181.23
420.734	174.83
421.195	197.53
421.655	197.83
422.115	190.73
422.576	191.73
423.036	205.43
423.496	207.63
423.956	209.23
424.416	225.53
424.876	266.73
425.336	257.33
425.797	262.43
426.257	258.43
426.717	238.53
427.177	236.33
427.637	220.43
428.097	240.63
428.556	246.73
429.016	259.43
429.476	256.63
429.936	276.03
430.396	281.23
430.856	290.33
431.315	317.23
431.775	344.83
432.235	368.53
432.694	350.83
433.154	353.43
433.614	389.43
434.073	331.63
434.533	282.33
434.993	271.73
435.452	277.43
435.912	293.03
436.371	284.23
436.83	286.83
437.29	270.23
437.749	249.93
438.209	247.03
438.668	272.33
439.127	283.63
439.587	266.13
440.046	245.83
440.505	254.73
440.964	277.13
441.424	319.93
441.883	300.93
442.342	258.13
442.801	231.43
443.26	221.53
443.719	222.43
444.178	220.73
444.637	215.03
445.096	222.03
445.555	228.43
446.014	224.63
446.473	233.83
446.932	241.93
447.391	228.93
447.849	235.43
448.308	221.33
448.767	227.63
449.226	237.33
449.685	240.03
450.143	257.03
450.602	238.53
451.061	227.63
451.519	237.33
451.978	237.53
452.436	238.53
452.895	244.83
453.353	252.23
453.812	248.23
454.27	240.93
454.729	238.93
455.187	243.13
455.646	250.23
456.104	246.43
456.562	267.13
457.021	269.63
457.479	263.93
457.937	281.23
458.395	267.53
458.854	250.83
459.312	256.53
459.77	276.43
460.228	259.43
460.686	242.93
461.144	254.73
461.602	244.33
462.06	246.03
462.518	258.23
462.976	255.83
463.434	258.93
463.892	267.73
464.35	281.93
464.808	298.23
465.266	269.93
465.724	268.23
466.181	268.63
466.639	279.03
467.097	294.73
467.555	307.43
468.012	313.83
468.47	312.23
468.928	335.83
469.385	347.63
469.843	345.73
470.3	350.03
470.758	367.43
471.215	382.53
471.673	402.13
472.13	408.13
472.588	421.43
473.045	379.43
473.503	380.73
473.96	401.63
474.417	404.43
474.875	439.13
475.332	473.83
475.789	464.63
476.246	470.43
476.704	496.53
477.161	520.23
477.618	535.03
478.075	559.53
478.532	614.83
478.989	677.93
479.446	794.43
479.903	768.23
480.36	806.03
480.817	842.83
481.274	949.53
481.731	1046.93
482.188	1145.13
482.645	1249.03
483.102	1352.03
483.558	1482.43
484.015	1530.13
484.472	1498.53
484.929	1459.73
485.385	1416.63
485.842	1368.23
486.299	1312.53
486.755	1268.93
487.212	1072.63
487.668	923.23
488.125	844.63
488.582	768.83
489.038	744.13
489.494	706.03
489.951	683.03
490.407	667.03
490.864	653.23
491.32	643.63
491.776	636.33
492.233	653.33
492.689	624.33
493.145	606.93
493.602	592.53
494.058	612.63
494.514	614.13
494.97	642.83
495.426	641.43
495.882	627.13
496.338	616.33
496.794	628.43
497.251	615.53
497.707	644.53
498.163	634.23
498.618	638.93
499.074	636.53
499.53	669.93
499.986	671.53
500.442	646.43
500.898	635.93
501.354	622.93
501.809	642.73
502.265	644.43
502.721	653.73
503.177	675.23
503.632	673.93
504.088	673.33
504.543	706.33
504.999	706.23
505.455	661.23
505.91	638.43
506.366	647.53
506.821	639.33
507.277	638.23
507.732	636.73
508.187	630.43
508.643	649.03
509.098	638.13
509.553	662.43
510.009	663.33
510.464	681.73
510.919	693.63
511.375	698.83
511.83	714.33
512.285	722.83
512.74	758.33
513.195	773.43
513.65	774.03
514.105	775.83
514.56	772.73
515.015	788.43
515.47	805.43
515.925	802.83
516.38	798.23
516.835	811.93
517.29	786.63
517.745	781.43
518.2	775.13
518.655	751.13
519.109	744.73
519.564	751.73
520.019	735.53
520.474	729.03
520.928	723.53
521.383	734.73
521.838	717.53
522.292	714.73
522.747	716.53
523.201	721.53
523.656	701.53
524.11	711.53
524.565	702.43
525.019	703.23
525.474	715.63
525.928	707.03
526.382	704.93
526.837	705.53
527.291	709.63
527.745	706.43
528.2	700.43
528.654	695.93
529.108	700.03
529.562	693.93
530.016	699.13
530.47	699.53
530.925	698.23
531.379	700.73
531.833	714.43
532.287	707.73
532.741	701.23
533.195	702.13
533.649	713.53
534.103	714.03
534.556	707.53
535.01	718.33
535.464	714.13
535.918	732.13
536.372	721.43
536.826	727.43
537.279	715.93
537.733	722.13
538.187	726.03
538.64	728.23
539.094	733.43
539.548	733.33
540.001	737.83
540.455	730.53
540.908	740.73
541.362	748.43
541.815	758.83
542.269	767.93
542.722	763.73
543.175	778.43
543.629	789.93
544.082	800.83
544.536	801.63
544.989	789.23
545.442	794.03
545.895	801.63
546.349	805.63
546.802	806.13
547.255	818.13
547.708	816.83
548.161	815.13
548.614	833.73
549.067	844.93
549.52	822.93
549.973	828.23
550.426	824.83
550.879	810.73
551.332	809.63
551.785	823.83
552.238	819.43
552.691	834.63
553.144	835.13
553.596	867.63
554.049	879.53
554.502	902.83
554.955	922.13
555.407	922.13
555.86	917.03
556.313	916.03
556.765	902.43
557.218	887.53
557.67	894.33
558.123	897.53
558.576	888.73
559.028	889.83
559.48	893.63
559.933	882.93
560.385	848.93
560.838	820.93
561.29	805.23
561.742	802.33
562.195	786.33
562.647	774.03
563.099	794.73
563.551	788.73
564.004	805.03
564.456	775.43
564.908	774.03
565.36	757.13
565.812	748.63
566.264	740.13
566.716	732.03
567.168	723.83
567.62	734.13
568.072	722.83
568.524	709.93
568.976	714.53
569.428	686.43
569.88	697.53
570.332	680.53
570.784	702.13
571.235	704.13
571.687	706.13
572.139	716.33
572.59	719.73
573.042	727.73
573.494	723.63
573.945	715.93
574.397	690.13
574.849	705.13
575.3	692.53
575.752	693.03
576.203	682.63
576.655	690.73
577.106	686.03
577.557	668.43
578.009	683.23
578.46	680.53
578.912	689.73
579.363	677.83
579.814	677.43
580.265	680.43
580.717	680.83
581.168	671.03
581.619	689.63
582.07	695.03
582.521	685.83
582.972	683.33
583.423	695.03
583.875	703.73
584.326	704.63
584.777	749.53
585.227	819.73
585.678	879.03
586.129	934.33
586.58	997.43
587.031	1051.73
587.482	1161.63
587.933	1289.83
588.384	1161.23
588.834	927.63
589.285	816.63
589.736	790.63
590.186	781.43
590.637	783.53
591.088	761.83
591.538	747.53
591.989	743.23
592.439	742.63
592.89	727.23
593.34	725.23
593.791	715.63
594.241	715.73
594.692	727.83
595.142	718.33
595.593	713.33
596.043	717.73
596.493	735.03
596.943	728.33
597.394	735.23
597.844	735.23
598.294	756.33
598.744	781.83
599.195	799.13
599.645	837.73
600.095	882.63
600.545	930.83
600.995	983.83
601.445	1046.93
601.895	1120.13
602.345	1167.13
602.795	1126.03
603.245	1095.23
603.695	1030.63
604.145	976.43
604.594	926.03
605.044	872.43
605.494	820.93
605.944	776.03
606.393	758.53
606.843	748.83
607.293	749.33
607.743	743.03
608.192	764.93
608.642	766.33
609.091	789.13
609.541	788.13
609.99	787.23
610.44	781.53
610.889	739.83
611.339	708.13
611.788	696.93
612.238	712.93
612.687	726.73
613.136	718.73
613.586	746.03
614.035	735.93
614.484	755.33
614.933	752.53
615.383	745.73
615.832	736.73
616.281	729.23
616.73	695.73
617.179	683.53
617.628	660.03
618.077	643.13
618.526	641.23
618.975	623.53
619.424	633.63
619.873	627.43
620.322	632.13
620.771	626.53
621.22	618.53
621.669	609.33
622.118	595.73
622.567	599.73
623.015	590.03
623.464	581.23
623.913	565.13
624.361	564.93
624.81	557.13
625.259	557.73
625.707	567.93
626.156	570.03
626.604	572.13
627.053	576.23
627.501	573.03
627.95	586.43
628.398	584.23
628.847	585.13
629.295	585.13
629.744	590.13
630.192	584.23
630.64	584.83
631.089	571.53
631.537	585.33
631.985	588.33
632.433	603.53
632.881	601.53
633.33	642.93
633.778	616.03
634.226	579.93
634.674	581.73
635.122	581.43
635.57	602.03
636.018	626.03
636.466	581.73
636.914	569.83
637.362	584.33
637.81	587.03
638.258	606.43
638.705	600.43
639.153	631.23
639.601	639.83
640.049	657.23
640.497	687.73
640.944	716.53
641.392	655.93
641.84	629.23
642.287	606.93
642.735	578.43
643.182	579.83
643.63	592.63
644.078	585.03
644.525	599.13
644.973	606.13
645.42	622.83
645.867	641.43
646.315	652.43
646.762	676.73
647.21	700.03
647.657	729.83
648.104	766.73
648.551	784.33
648.999	835.23
649.446	928.83
649.893	1008.83
650.34	1169.83
650.787	1403.33
651.234	1720.33
651.682	2252.53
652.129	3089.53
652.576	4432.83
653.023	6512.73
653.47	8799.23
653.917	10897.13
654.363	12482.53
654.81	13682.83
655.257	13003.43
655.704	8551.53
656.151	5090.43
656.598	3334.53
657.044	2366.33
657.491	1822.93
657.938	1487.03
658.385	1237.13
658.831	1086.03
659.278	957.13
659.724	857.33
660.171	799.23
660.618	718.53
661.064	711.03
661.511	684.33
661.957	672.23
662.404	656.63
662.85	661.73
663.296	639.73
663.743	575.43
664.189	551.73
664.635	549.43
665.082	536.43
665.528	542.13
665.974	527.23
666.42	521.73
666.867	516.03
667.313	499.23
667.759	485.63
668.205	484.63
668.651	481.93
669.097	472.53
669.543	481.43
669.989	478.33
670.435	467.13
670.881	467.73
671.327	465.33
671.773	491.03
672.219	502.33
672.665	564.23
673.11	605.13
673.556	648.33
674.002	679.43
674.448	673.63
674.893	563.43
675.339	495.43
675.785	454.13
676.23	425.23
676.676	408.33
677.122	392.13
677.567	384.83
678.013	385.23
678.458	373.83
678.904	380.13
679.349	368.73
679.794	376.43
680.24	367.73
680.685	354.63
681.131	363.43
681.576	362.93
682.021	374.43
682.466	364.73
682.912	364.63
683.357	366.53
683.802	392.13
684.247	429.93
684.692	473.53
685.137	513.63
685.583	547.63
686.028	579.63
686.473	535.83
686.918	458.03
687.363	434.13
687.807	403.13
688.252	377.43
688.697	361.33
689.142	347.53
689.587	341.53
690.032	332.63
690.477	350.63
690.921	363.33
691.366	395.53
691.811	406.13
692.255	443.83
692.7	478.53
693.145	522.43
693.589	743.73
694.034	1217.73
694.478	1625.03
694.923	1778.13
695.367	2310.03
695.812	1231.33
696.256	509.33
696.701	391.33
697.145	359.13
697.59	336.73
698.034	323.83
698.478	339.23
698.922	336.03
699.367	340.83
699.811	349.13
700.255	372.43
700.699	405.33
701.143	442.03
701.588	496.23
702.032	535.93
702.476	527.73
702.92	502.83
703.364	509.53
703.808	684.93
704.252	1110.63
704.696	1514.53
705.14	1714.43
705.584	2175.93
706.027	1106.33
706.471	540.33
706.915	412.43
707.359	357.53
707.803	330.63
708.246	321.83
708.69	321.23
709.134	330.93
709.577	319.63
710.021	340.13
710.465	317.43
710.908	312.63
711.352	310.03
711.795	326.33
712.239	371.63
712.682	395.83
713.126	434.13
713.569	478.33
714.012	379.83
714.456	329.33
714.899	300.63
715.342	279.13
715.786	272.53
716.229	267.13
716.672	266.23
717.115	255.13
717.558	257.13
718.002	261.93
718.445	275.93
718.888	293.03
719.331	307.33
719.774	313.93
720.217	314.03
720.66	292.03
721.103	281.33
721.546	260.33
721.989	252.63
722.432	239.43
722.874	246.53
723.317	239.13
723.76	247.83
724.203	269.43
724.645	329.43
725.088	477.33
725.531	596.83
725.974	658.43
726.416	569.63
726.859	318.23
727.301	249.63
727.744	245.93
728.187	254.83
728.629	239.73
729.071	251.93
729.514	270.13
729.956	275.33
730.399	298.53
730.841	303.63
731.283	279.13
731.726	276.43
732.168	272.43
732.61	276.93
733.053	295.93
733.495	326.53
733.937	370.73
734.379	412.93
734.821	464.63
735.263	578.83
735.705	899.43
736.148	1705.93
736.59	2711.53
737.032	3136.83
737.474	2555.93
737.916	837.93
738.357	447.33
738.799	338.83
739.241	314.33
739.683	298.53
740.125	305.43
740.567	309.63
741.008	323.63
741.45	326.83
741.892	329.63
742.334	364.23
742.775	365.53
743.217	347.93
743.658	280.23
744.1	259.83
744.542	272.53
744.983	333.63
745.425	354.33
745.866	357.23
746.307	289.83
746.749	285.23
747.19	337.73
747.632	490.13
748.073	964.03
748.514	2004.53
748.956	2962.03
749.397	3752.63
749.838	3092.73
750.279	3031.83
750.72	1549.23
751.162	566.63
751.603	337.53
752.044	264.33
752.485	235.23
752.926	217.63
753.367	213.23
753.808	202.03
754.249	196.93
754.69	192.33
755.131	189.23
755.572	185.03
756.013	179.73
756.453	192.43
756.894	198.43
757.335	196.23
757.776	197.93
758.216	203.33
758.657	200.93
759.098	211.13
759.538	231.63
759.979	286.43
760.42	401.33
760.86	767.63
761.301	2021.53
761.741	4727.03
762.182	6550.83
762.622	4629.43
763.063	1380.33
763.503	557.73
763.943	346.43
764.384	323.53
764.824	360.53
765.264	378.33
765.705	284.63
766.145	206.23
766.585	188.23
767.025	180.03
767.465	187.53
767.906	237.73
768.346	279.03
768.786	298.33
769.226	261.33
769.666	333.03
770.106	683.43
770.546	1678.13
770.986	2732.93
771.426	2421.03
771.866	822.83
772.306	339.63
772.745	211.83
773.185	178.73
773.625	176.83
774.065	165.73
774.505	195.73
774.944	280.43
775.384	577.83
775.824	976.53
776.263	931.83
776.703	422.33
777.142	207.73
777.582	149.23
778.021	134.03
778.461	136.93
778.9	144.73
779.34	133.23
779.779	116.23
780.219	110.33
780.658	115.43
781.097	117.13
781.537	115.83
781.976	114.93
782.415	112.43
782.855	111.13
783.294	105.83
783.733	110.03
784.172	110.13
784.611	105.43
785.05	115.83
785.489	117.73
785.928	116.93
786.367	127.63
786.806	123.33
787.245	126.03
787.684	139.33
788.123	153.23
788.562	138.13
789.001	128.63
789.44	126.13
789.879	124.83
790.317	122.03
790.756	127.43
791.195	130.83
791.634	157.43
792.072	219.83
792.511	394.13
792.95	1102.33
793.388	2220.73
793.827	1960.93
794.265	700.33
794.704	299.23
795.142	189.33
795.581	159.73
796.019	144.33
796.458	135.33
796.896	125.73
797.334	142.33
797.773	164.23
798.211	238.23
798.649	479.23
799.087	1083.23
799.526	1680.73
799.964	2116.33
800.402	2040.13
800.84	780.73
801.278	309.93
801.716	196.53
802.154	158.33
802.592	153.33
803.03	146.93
803.468	144.53
803.906	149.53
804.344	152.33
804.782	142.53
805.22	135.33
805.658	130.63
806.096	156.03
806.533	167.23
806.971	179.43
807.409	227.23
807.847	343.33
808.284	725.23
808.722	2003.43
809.16	3414.83
809.597	3330.13
810.035	5693.13
810.472	5829.53
810.91	2156.63
811.347	835.53
811.785	425.63
812.222	269.63
812.66	198.73
813.097	170.93
813.535	147.53
813.972	132.53
814.409	124.13
814.846	120.33
815.284	118.93
815.721	101.93
816.158	111.13
816.595	121.83
817.032	175.33
817.47	197.53
817.907	147.53
818.344	129.33
818.781	107.53
819.218	105.93
819.655	132.83
820.092	198.03
820.529	220.63
820.966	183.83
821.403	136.63
821.839	111.63
822.276	104.93
822.713	133.33
823.15	138.03
823.587	120.73
824.023	158.53
824.46	323.63
824.897	955.93
825.333	1391.13
825.77	597.83
826.206	240.43
826.643	141.33
827.08	107.33
827.516	90.33
827.953	77.63
828.389	83.83
828.825	71.63
829.262	67.83
829.698	64.43
830.135	67.73
830.571	64.93
831.007	61.23
831.443	73.23
831.88	67.03
832.316	69.43
832.752	66.23
833.188	66.73
833.624	68.93
834.06	75.43
834.497	72.73
834.933	74.13
835.369	75.53
835.805	65.93
836.241	79.03
836.677	89.63
837.112	96.43
837.548	109.93
837.984	134.03
838.42	219.43
838.856	533.83
839.292	1618.63
839.727	2353.03
840.163	1104.43
840.599	998.23
841.034	2133.23
841.47	2154.23
841.906	794.33
842.341	348.03
842.777	226.63
843.212	271.93
843.648	259.03
844.083	132.23
844.519	95.03
844.954	75.83
845.39	56.33
845.825	57.23
846.261	59.23
846.696	59.63
847.131	56.43
847.566	55.53
848.002	54.53
848.437	59.23
848.872	63.03
849.307	63.63
849.742	88.93
850.177	194.43
850.613	584.73
851.048	899.13
851.483	393.03
851.918	162.83
852.353	90.73
852.788	60.93
853.223	53.43
853.657	61.23
854.092	49.43
854.527	45.73
854.962	40.53
855.397	49.73
855.832	56.23
856.266	41.63
856.701	43.13
857.136	39.13
857.57	41.43
858.005	54.03
858.44	64.33
858.874	49.73
859.309	55.33
859.743	42.43
860.178	52.03
860.612	39.33
861.047	53.23
861.481	70.23
861.915	68.83
862.35	47.93
862.784	36.63
863.218	36.13
863.653	32.13
864.087	46.63
864.521	52.33
864.955	73.53
865.39	165.53
865.824	177.23
866.258	122.53
866.692	172.63
867.126	177.33
867.56	111.53
867.994	60.03
868.428	39.53
868.862	49.13
869.296	58.13
869.73	58.53
870.164	53.03
870.598	51.43
871.031	40.13
871.465	31.13
871.899	27.53
872.333	26.63
872.766	29.13
873.2	27.53
873.634	25.03
874.067	24.53
874.501	26.93
874.935	35.13
875.368	28.53
875.802	27.73
876.235	29.83
876.669	28.33
877.102	22.53
877.535	29.03
877.969	25.63
878.402	24.03
878.836	18.93
879.269	20.33
879.702	23.53
880.135	23.03
880.569	25.43
881.002	31.43
881.435	18.73
881.868	12.83
882.301	27.23
882.734	14.33
883.167	22.63
883.601	18.83
884.034	20.83
884.467	17.43
884.899	21.23
885.332	21.73
885.765	12.13
886.198	19.03
886.631	21.83
887.064	19.23
887.497	24.03
887.929	27.33
888.362	20.53
888.795	13.13
889.228	18.63
889.66	18.83
890.093	18.53
890.526	20.33
890.958	14.63
891.391	17.43
891.823	21.13
892.256	15.43
892.688	10.23
893.121	17.83
893.553	13.73
893.985	18.33
894.418	21.93
894.85	14.93
895.282	15.03
895.715	17.03
896.147	17.83
896.579	16.13
897.011	18.23
897.444	11.93
897.876	18.63
898.308	17.33
898.74	13.13
899.172	15.33
899.604	21.53
900.036	19.53
900.468	17.53
900.9	14.93
901.332	18.53
901.764	14.23
902.196	21.33
902.628	15.23
903.06	20.93
903.491	32.13
903.923	26.13
904.355	21.43
904.787	22.33
905.218	20.53
905.65	24.83
906.082	14.13
906.513	12.53
906.945	19.93
907.376	13.23
907.808	22.63
908.239	17.33
908.671	27.03
909.102	26.63
909.534	28.53
909.965	48.53
910.397	94.13
910.828	335.33
911.259	495.03
911.691	226.43
912.122	110.93
912.553	63.23
912.984	29.43
913.415	34.53
913.847	25.63
914.278	16.03
914.709	19.23
915.14	17.73
915.571	15.43
916.002	16.53
916.433	19.03
916.864	20.33
917.295	17.03
917.726	26.13
918.157	20.13
918.587	31.83
919.018	18.03
919.449	22.23
919.88	25.33
920.311	35.03
920.741	49.13
921.172	169.63
921.603	159.33
922.033	78.93
922.464	45.83
922.895	28.23
923.325	24.63
923.756	15.03
924.186	16.43
924.617	25.83
925.047	35.93
925.478	42.23
925.908	32.63
926.338	21.63
926.769	15.43
927.199	16.53
927.629	6.53
928.06	13.53
928.49	8.73
928.92	13.83
929.35	14.33
929.78	9.83
930.21	4.23
930.641	7.33
931.071	7.23
931.501	5.33
931.931	11.53
932.361	7.73
932.791	4.73
933.221	0.43
933.651	4.63
934.08	19.53
934.51	31.23
934.94	13.23
935.37	8.63
935.8	11.33
936.229	6.93
936.659	8.43
937.089	4.63
937.519	8.83
937.948	19.23
938.378	13.93
938.807	6.53
939.237	2.93
939.666	5.13
940.096	-4.37
940.525	-0.57
940.955	3.83
941.384	3.63
941.814	-4.27
942.243	-3.97
942.672	3.03
943.102	-2.97
943.531	-0.37
943.96	3.03
944.39	-3.77
944.819	2.13
945.248	6.73
945.677	0.63
946.106	7.03
946.535	5.13
946.964	4.93
947.393	1.73
947.822	1.53
948.251	-6.07
948.68	-1.97
949.109	3.03
949.538	7.23
949.967	5.93
950.396	5.63
950.825	-2.07
951.254	0.03
951.682	-6.37
952.111	0.43
952.54	9.93
952.969	-2.27
953.397	-2.87
953.826	3.63
954.254	-5.97
954.683	1.03
955.112	-3.77
955.54	0.53
955.969	-3.57
956.397	1.33
956.826	2.43
957.254	3.53
957.682	-0.37
958.111	7.63
958.539	-0.77
958.967	-1.07
959.396	-5.17
959.824	-1.17
960.252	-0.87
960.68	-4.57
961.109	-1.97
961.537	-3.57
961.965	1.23
962.393	0.73
962.821	-2.77
963.249	-2.67
963.677	7.53
964.105	-0.07
964.533	41.83
964.961	47.73
965.389	20.03
965.817	9.43
966.245	0.23
966.672	2.93
967.1	-6.37
967.528	1.83
967.956	-3.67
968.383	-0.27
968.811	-1.27
969.239	-1.17
969.666	-4.67
970.094	0.23
970.522	7.43
970.949	-1.17
971.377	-1.27
971.804	1.73
972.232	2.13
972.659	2.93
973.087	1.33
973.514	-3.97
973.941	-3.57
974.369	3.03
974.796	-5.57
975.223	1.93
975.651	-0.67
976.078	3.73
976.505	-2.47
976.932	4.73
977.359	16.73
977.786	12.23
978.214	-3.87
978.641	-5.87
979.068	-3.07
979.495	-4.77
979.922	-1.97
980.349	-7.47
980.776	3.33
981.202	1.73
981.629	6.43
982.056	-0.27
982.483	-5.37
982.91	0.43
983.337	-9.17
983.763	-1.47
984.19	-5.57
984.617	-14.77
985.043	-5.57
985.47	-0.67
985.897	-4.27
986.323	-8.17
986.75	3.13
987.176	0.93
987.603	-0.57
988.029	-4.17
988.456	-6.47
988.882	-3.57
989.308	-9.97
989.735	-3.37
990.161	-1.17
990.587	-0.57
991.014	-0.67
991.44	6.83
991.866	-4.47
992.292	-3.27
992.719	1.53
993.145	2.93
993.571	-11.07
993.997	-4.07
994.423	0.63
994.849	-7.87
995.275	-3.27
995.701	-4.67
996.127	-1.77
996.553	0.53
996.979	0.13
997.405	-2.37
997.83	-9.47
998.256	-4.87
998.682	-7.17
999.108	-11.17
999.534	-3.87
999.959	-3.47
1000.385	-0.27
1000.811	-2.27
1001.236	-12.27
1001.662	-2.37
1002.087	-8.87
1002.513	1.23
1002.938	4.43
1003.364	-0.67
1003.789	-1.67
1004.215	4.33
1004.64	-2.77
1005.066	3.53
1005.491	-8.97
1005.916	-5.37
1006.342	-5.27
1006.767	-4.17
1007.192	5.73
1007.617	-2.17
1008.042	-6.47
1008.468	-4.07
1008.893	-0.47
1009.318	-1.77
1009.743	-0.97
1010.168	3.53
1010.593	5.13
1011.018	-6.27
1011.443	-5.27
1011.868	0.53
1012.293	-2.17
1012.718	-11.57
1013.143	-3.27
1013.567	-0.77
1013.992	-9.87
1014.417	-13.37
1014.842	0.53
1015.267	-8.17
1015.691	-0.97
1016.116	4.93
1016.541	2.33
1016.965	2.93
1017.39	1.33
1017.814	-2.47
1018.239	-2.27
1018.663	-9.07
1019.088	-5.97
1019.512	-0.17
1019.937	-4.77
1020.361	-11.47
1020.785	-9.27
1021.21	-8.47
1021.634	-2.47
1022.058	0.93
1022.483	3.53
1022.907	-5.57
1023.331	-9.57
1023.755	3.93
1024.179	2.83
1024.604	-7.67
1025.028	-5.87
1025.452	-1.97
1025.876	2.73
1026.3	1.33
1026.724	-6.47
1027.148	-7.77
1027.572	-6.37
1027.996	-1.67
1028.42	-4.77
1028.843	-5.77
1029.267	-5.87
1029.691	0.13
1030.115	-7.87
1030.539	-10.07
1030.962	-5.67
1031.386	-9.97
1031.81	-0.77
1032.233	-2.47
1032.657	-5.07
1033.08	-0.37
1033.504	-4.27
1033.927	-2.17
1034.351	2.23
1034.774	-9.17
1035.198	-5.57
1035.621	-5.77
1036.045	-7.67
1036.468	3.43
1036.891	-11.77
1037.315	-11.87
1037.738	-9.17
1038.161	-3.87
1038.584	-7.87
1039.008	-5.17
1039.431	-1.47
1039.854	-3.37
1040.277	-7.97
1040.7	-8.27
1041.123	-2.67
1041.546	-10.17
1041.969	-4.47
1042.392	-8.67
1042.815	-2.57
1043.238	-2.07
1043.661	-3.77
1044.084	-7.77
1044.507	-4.17
1044.93	-5.37
1045.352	-6.57
1045.775	-1.47
1046.198	0.13
1046.621	-0.07
1047.043	-3.07
1047.466	2.53
1047.889	0.13
1048.311	-6.37
1048.734	-2.67
1049.156	-3.17
1049.579	-7.67
1050.001	-2.87
1050.424	-0.27
1050.846	-8.37
1051.269	-4.47
1051.691	-8.27
1052.113	-2.57
1052.536	-3.07
1052.958	-5.27
1053.38	1.43
1053.802	-13.37
1054.225	0.83
1054.647	-6.67
1055.069	-8.47
1055.491	1.53
1055.913	-6.87
1056.335	1.93
1056.757	-4.77
1057.179	-7.47
1057.601	-4.77
1058.023	-5.47
1058.445	-5.97
1058.867	0.53
1059.289	-4.27
1059.711	-3.47
1060.133	-1.37
1060.555	-7.27
1060.976	-6.37
1061.398	-8.27
1061.82	-6.37
1062.241	-6.17
1062.663	-7.27
1063.085	-8.37
1063.506	1.13
1063.928	-6.27
1064.35	-4.17
1064.771	-12.57
1065.193	-4.47
1065.614	-4.77
1066.035	-1.87
1066.457	-6.77
1066.878	0.83
1067.3	-0.37
1067.721	-0.87
1068.142	-1.67
1068.564	-5.67
1068.985	-8.97
1069.406	-3.27
1069.827	-5.07
1070.248	-1.77
1070.67	-8.37
1071.091	-5.57
1071.512	-4.07
1071.933	-3.07
1072.354	-8.27
1072.775	-4.97
1073.196	-6.37
1073.617	-5.27
1074.038	-9.67
1074.459	-2.67
1074.88	-10.57
1075.3	5.43
1075.721	-8.17
1076.142	-3.27
1076.563	-4.07
1076.983	-9.37
1077.404	-9.37
1077.825	-7.77
1078.246	0.53
1078.666	-14.87
1079.087	-6.07
1079.507	-5.47
1079.928	-1.77
1080.348	-5.97
1080.769	-4.77
1081.189	1.03
1081.61	-6.27
1082.03	-2.97
1082.451	-8.07
1082.871	-3.67
1083.291	-2.67
1083.711	-7.67
1084.132	-15.37
1084.552	-3.27
1084.972	-5.57
1085.392	-10.97
1085.813	-15.87
1086.233	-7.67
1086.653	-6.87
1087.073	-9.17
1087.493	-2.37
1087.913	-0.67
1088.333	-6.87
1088.753	-9.57
1089.173	-1.37
1089.593	-4.67
1090.013	-8.67
1090.433	-2.27
1090.852	-3.27
1091.272	-2.87
1091.692	-4.07
1092.112	-6.97
1092.531	-8.27
1092.951	-9.17
1093.371	-7.27
1093.79	-5.97
1094.21	-0.37
1094.63	-7.47
1095.049	-3.67
1095.469	-3.67
1095.888	-1.67
1096.308	5.03
1096.727	4.33
1097.146	-9.97
1097.566	-6.57
1097.985	-4.87
1098.405	-2.77
1098.824	-6.57
1099.243	-4.27
1099.662	-7.27
1100.082	-6.07
1100.501	-7.47
1100.92	-7.97
1101.339	-5.07
1101.758	-11.47
