Data from 20171114-ORNL-Ar_H_NY_Subt18_08-04-57-476.txt Node
Date: Tue Nov 14 08:04:57 EST 2017
User: Ender
Spectrometer: HR+D1039
Trigger mode: 0
Integration Time (sec): 2.730000E-2
Scans to average: 10
Electric dark correction enabled: true
Nonlinearity correction enabled: false
Boxcar width: 0
XAxis mode: Wavelengths
Number of Pixels in Spectrum: 2048
>>>>>Begin Spectral Data<<<<<
187.836	-6.02
188.309	-6.02
188.782	-6.02
189.255	1.07
189.728	-0.32
190.201	8.58
190.674	0.88
191.147	1.47
191.619	-2.23
192.092	1.77
192.565	5.07
193.038	0.48
193.511	-1.02
193.984	-1.23
194.456	-7.62
194.929	0.48
195.402	-2.73
195.874	1.38
196.347	-1.52
196.82	-1.12
197.292	10.48
197.765	0.58
198.237	-6.02
198.71	1.17
199.182	-0.02
199.655	3.57
200.127	-2.93
200.6	-1.42
201.072	2.17
201.544	-3.02
202.017	-0.62
202.489	3.48
202.961	-5.92
203.433	-0.02
203.906	-5.42
204.378	-3.12
204.85	-2.53
205.322	-8.23
205.794	-6.83
206.266	2.17
206.739	-8.23
207.211	6.58
207.683	-6.22
208.155	-3.33
208.627	-10.23
209.099	-2.23
209.57	-5.02
210.042	-3.33
210.514	-5.02
210.986	1.08
211.458	-6.33
211.93	-2.12
212.402	3.98
212.873	0.38
213.345	-9.23
213.817	-3.23
214.288	-5.03
214.76	-11.93
215.232	-5.02
215.703	-1.73
216.175	-0.42
216.646	-3.52
217.118	-8.52
217.589	-2.82
218.061	2.27
218.532	0.98
219.004	1.17
219.475	-0.92
219.946	1.27
220.418	-3.72
220.889	4.77
221.36	1.28
221.832	-2.62
222.303	-3.92
222.774	1.88
223.245	-4.22
223.717	-6.93
224.188	3.58
224.659	-9.93
225.13	-1.82
225.601	2.77
226.072	2.68
226.543	2.97
227.014	-1.12
227.485	-2.83
227.956	-6.62
228.427	-0.12
228.898	1.98
229.369	5.77
229.839	-1.73
230.31	-3.73
230.781	10.08
231.252	-1.33
231.722	-2.12
232.193	-0.52
232.664	-3.32
233.135	-1.52
233.605	1.38
234.076	-8.12
234.546	3.97
235.017	3.18
235.487	1.27
235.958	0.27
236.428	1.88
236.899	7.88
237.369	7.38
237.84	0.58
238.31	6.77
238.78	10.68
239.251	2.58
239.721	9.98
240.191	3.88
240.662	-0.72
241.132	1.88
241.602	-2.33
242.072	1.77
242.542	4.27
243.013	-1.73
243.483	8.38
243.953	0.58
244.423	0.58
244.893	-3.12
245.363	12.17
245.833	-0.12
246.303	2.67
246.773	6.08
247.243	6.27
247.712	6.07
248.182	9.07
248.652	13.88
249.122	-3.43
249.592	17.67
250.061	24.67
250.531	34.48
251.001	20.48
251.471	22.27
251.94	20.67
252.41	8.78
252.879	2.88
253.349	12.38
253.818	15.48
254.288	8.68
254.757	4.48
255.227	-0.72
255.696	7.88
256.166	5.88
256.635	12.27
257.105	9.88
257.574	11.97
258.043	12.68
258.513	14.88
258.982	21.08
259.451	12.38
259.92	19.67
260.389	15.68
260.859	19.27
261.328	19.88
261.797	25.28
262.266	13.27
262.735	14.08
263.204	9.57
263.673	1.08
264.142	9.88
264.611	2.88
265.08	1.17
265.549	0.78
266.018	1.48
266.487	3.97
266.955	-0.62
267.424	2.98
267.893	12.18
268.362	3.98
268.83	4.67
269.299	9.98
269.768	11.88
270.236	16.08
270.705	6.48
271.174	7.48
271.642	13.38
272.111	13.88
272.579	19.77
273.048	26.27
273.516	34.98
273.985	31.88
274.453	27.98
274.922	17.38
275.39	10.38
275.858	10.08
276.327	11.98
276.795	23.98
277.263	10.57
277.731	32.07
278.2	60.67
278.668	62.77
279.136	52.67
279.604	26.88
280.072	18.68
280.54	15.88
281.008	13.67
281.477	14.98
281.945	11.98
282.413	19.88
282.881	20.08
283.348	11.88
283.816	19.88
284.284	21.07
284.752	21.17
285.22	19.38
285.688	19.97
286.156	22.88
286.623	48.77
287.091	53.27
287.559	28.27
288.026	19.48
288.494	21.27
288.962	14.38
289.429	8.38
289.897	16.68
290.364	19.98
290.832	19.58
291.3	18.58
291.767	25.48
292.234	23.48
292.702	13.77
293.169	23.38
293.637	30.48
294.104	19.98
294.571	12.17
295.039	13.88
295.506	15.38
295.973	18.77
296.44	21.88
296.908	21.18
297.375	23.98
297.842	22.08
298.309	17.88
298.776	16.18
299.243	23.47
299.71	21.88
300.177	24.18
300.644	32.38
301.111	26.18
301.578	25.48
302.045	21.38
302.512	28.88
302.979	29.27
303.446	27.48
303.913	22.18
304.379	24.38
304.846	33.88
305.313	31.17
305.78	31.38
306.246	25.27
306.713	28.77
307.18	31.08
307.646	29.47
308.113	33.38
308.579	28.98
309.046	23.48
309.512	26.28
309.979	19.07
310.445	33.57
310.912	33.17
311.378	30.77
311.845	32.68
312.311	33.27
312.777	35.67
313.244	35.28
313.71	37.17
314.176	33.48
314.642	31.17
315.109	28.67
315.575	41.08
316.041	44.58
316.507	34.97
316.973	42.57
317.439	39.38
317.905	39.48
318.371	42.08
318.837	37.28
319.303	35.98
319.769	40.88
320.235	34.67
320.701	37.38
321.167	37.57
321.633	40.18
322.099	44.47
322.564	51.38
323.03	45.38
323.496	42.18
323.962	47.38
324.427	43.67
324.893	48.88
325.359	36.67
325.824	38.07
326.29	40.07
326.755	45.17
327.221	45.97
327.686	44.27
328.152	53.88
328.617	38.48
329.083	47.88
329.548	49.38
330.014	51.48
330.479	43.38
330.944	42.97
331.41	42.17
331.875	44.58
332.34	45.08
332.805	47.07
333.271	52.27
333.736	43.58
334.201	54.98
334.666	56.07
335.131	59.17
335.596	50.97
336.061	51.17
336.526	42.88
336.991	49.98
337.456	58.38
337.921	48.77
338.386	47.77
338.851	49.47
339.316	46.08
339.781	47.18
340.246	56.98
340.711	51.38
341.175	54.17
341.64	50.88
342.105	49.98
342.569	56.47
343.034	66.07
343.499	61.48
343.963	51.38
344.428	69.18
344.893	71.67
345.357	68.88
345.822	69.57
346.286	67.17
346.751	71.28
347.215	67.67
347.679	78.58
348.144	99.67
348.608	88.98
349.073	71.48
349.537	80.27
350.001	81.67
350.465	91.88
350.93	83.67
351.394	78.68
351.858	70.58
352.322	83.68
352.786	85.88
353.25	109.48
353.715	109.08
354.179	101.27
354.643	125.78
355.107	130.38
355.571	111.08
356.035	101.67
356.498	117.77
356.962	125.27
357.426	134.77
357.89	117.27
358.354	90.57
358.818	86.08
359.281	77.78
359.745	79.58
360.209	76.27
360.673	73.68
361.136	82.28
361.6	84.67
362.064	83.48
362.527	87.27
362.991	92.58
363.454	85.98
363.918	75.58
364.381	74.48
364.845	83.17
365.308	87.88
365.772	89.98
366.235	85.27
366.698	81.38
367.162	86.27
367.625	88.27
368.088	87.48
368.552	96.98
369.015	91.77
369.478	96.58
369.941	102.07
370.404	95.07
370.867	104.67
371.331	104.57
371.794	115.47
372.257	105.38
372.72	117.77
373.183	111.38
373.646	101.77
374.109	107.08
374.572	108.07
375.035	105.98
375.497	111.97
375.96	102.38
376.423	105.47
376.886	114.78
377.349	110.88
377.811	104.77
378.274	102.08
378.737	108.07
379.199	112.78
379.662	107.08
380.125	116.78
380.587	120.27
381.05	117.78
381.512	131.27
381.975	127.38
382.437	134.38
382.9	120.27
383.362	137.38
383.825	132.88
384.287	147.98
384.75	139.17
385.212	132.77
385.674	140.27
386.136	134.08
386.599	127.07
387.061	127.58
387.523	126.98
387.985	135.88
388.447	145.07
388.91	137.58
389.372	156.78
389.834	146.97
390.296	140.17
390.758	151.88
391.22	168.08
391.682	208.18
392.144	290.57
392.606	222.97
393.068	161.08
393.529	164.67
393.991	146.58
394.453	152.17
394.915	158.57
395.377	188.68
395.838	216.48
396.3	156.98
396.762	136.38
397.224	133.17
397.685	133.77
398.147	131.38
398.608	129.27
399.07	120.98
399.531	131.77
399.993	144.18
400.454	150.48
400.916	146.38
401.377	141.18
401.839	150.38
402.3	148.27
402.762	165.88
403.223	174.38
403.684	172.67
404.145	161.38
404.607	159.48
405.068	162.48
405.529	167.77
405.99	183.27
406.451	170.27
406.913	173.07
407.374	164.77
407.835	169.27
408.296	168.28
408.757	170.38
409.218	181.98
409.679	176.28
410.14	168.78
410.601	174.58
411.062	182.98
411.522	188.88
411.983	193.27
412.444	174.77
412.905	176.88
413.366	182.38
413.826	192.27
414.287	211.27
414.748	257.48
415.208	244.38
415.669	207.47
416.13	201.27
416.59	193.07
417.051	211.58
417.511	215.08
417.972	227.98
418.432	233.77
418.893	283.38
419.353	249.28
419.814	197.48
420.274	177.57
420.734	180.07
421.195	194.27
421.655	191.28
422.115	184.27
422.576	190.97
423.036	187.17
423.496	205.28
423.956	216.58
424.416	231.97
424.876	262.67
425.336	251.17
425.797	259.58
426.257	253.38
426.717	230.17
427.177	224.48
427.637	219.88
428.097	241.17
428.556	242.27
429.016	265.87
429.476	246.78
429.936	265.08
430.396	271.68
430.856	287.67
431.315	312.47
431.775	339.88
432.235	367.87
432.694	343.47
433.154	347.98
433.614	374.88
434.073	327.67
434.533	281.38
434.993	270.77
435.452	273.68
435.912	286.67
436.371	282.58
436.83	279.98
437.29	265.88
437.749	240.88
438.209	243.37
438.668	263.48
439.127	283.27
439.587	252.78
440.046	245.98
440.505	254.48
440.964	277.47
441.424	316.88
441.883	300.97
442.342	255.78
442.801	217.07
443.26	218.57
443.719	212.18
444.178	217.07
444.637	204.78
445.096	212.17
445.555	221.18
446.014	221.28
446.473	222.77
446.932	232.67
447.391	219.07
447.849	214.28
448.308	217.98
448.767	214.88
449.226	229.47
449.685	223.48
450.143	246.48
450.602	230.38
451.061	225.18
451.519	225.28
451.978	225.37
452.436	229.27
452.895	237.88
453.353	245.88
453.812	236.88
454.27	232.57
454.729	229.08
455.187	231.18
455.646	235.97
456.104	234.88
456.562	251.28
457.021	263.48
457.479	255.77
457.937	271.28
458.395	253.88
458.854	241.38
459.312	257.48
459.77	266.48
460.228	245.08
460.686	234.27
461.144	232.27
461.602	235.08
462.06	233.08
462.518	249.88
462.976	246.08
463.434	257.77
463.892	261.57
464.35	265.77
464.808	282.98
465.266	258.27
465.724	267.67
466.181	278.38
466.639	268.07
467.097	283.88
467.555	292.88
468.012	302.98
468.47	300.57
468.928	314.67
469.385	337.88
469.843	341.07
470.3	344.88
470.758	352.27
471.215	379.18
471.673	400.57
472.13	392.88
472.588	405.57
473.045	364.48
473.503	360.58
473.96	379.98
474.417	393.07
474.875	421.97
475.332	456.07
475.789	456.28
476.246	460.08
476.704	468.97
477.161	495.68
477.618	509.57
478.075	557.28
478.532	611.57
478.989	678.68
479.446	785.48
479.903	757.67
480.36	792.77
480.817	854.88
481.274	950.18
481.731	1043.38
482.188	1142.47
482.645	1278.58
483.102	1384.97
483.558	1518.78
484.015	1547.78
484.472	1552.18
484.929	1493.28
485.385	1448.77
485.842	1405.88
486.299	1347.98
486.755	1261.48
487.212	1061.97
487.668	903.17
488.125	837.68
488.582	766.17
489.038	732.98
489.494	697.38
489.951	680.48
490.407	653.67
490.864	636.28
491.32	638.48
491.776	625.48
492.233	633.67
492.689	600.68
493.145	592.38
493.602	582.57
494.058	596.87
494.514	599.88
494.97	623.58
495.426	631.07
495.882	609.07
496.338	594.48
496.794	603.77
497.251	605.27
497.707	626.28
498.163	629.68
498.618	627.58
499.074	639.77
499.53	666.88
499.986	667.58
500.442	632.78
500.898	621.17
501.354	611.67
501.809	615.58
502.265	622.88
502.721	641.97
503.177	649.38
503.632	652.18
504.088	660.28
504.543	696.08
504.999	684.88
505.455	641.17
505.91	616.57
506.366	624.07
506.821	608.77
507.277	603.77
507.732	617.67
508.187	608.68
508.643	617.77
509.098	614.77
509.553	637.08
510.009	648.58
510.464	648.77
510.919	672.77
511.375	675.08
511.83	691.58
512.285	707.88
512.74	745.18
513.195	768.18
513.65	764.98
514.105	749.08
514.56	757.17
515.015	783.58
515.47	791.68
515.925	780.98
516.38	772.57
516.835	780.77
517.29	768.17
517.745	755.38
518.2	754.97
518.655	722.08
519.109	727.98
519.564	728.28
520.019	717.07
520.474	712.17
520.928	711.17
521.383	703.58
521.838	694.57
522.292	689.98
522.747	692.88
523.201	682.67
523.656	675.77
524.11	670.67
524.565	677.27
525.019	675.38
525.474	687.57
525.928	680.67
526.382	668.57
526.837	682.27
527.291	686.68
527.745	685.08
528.2	676.97
528.654	673.98
529.108	673.07
529.562	667.07
530.016	673.48
530.47	670.98
530.925	667.57
531.379	672.57
531.833	683.58
532.287	692.67
532.741	678.98
533.195	681.97
533.649	684.37
534.103	704.68
534.556	694.17
535.01	695.67
535.464	696.87
535.918	703.38
536.372	698.08
536.826	700.17
537.279	691.67
537.733	684.07
538.187	696.37
538.64	690.27
539.094	711.38
539.548	712.38
540.001	698.88
540.455	696.27
540.908	706.98
541.362	717.38
541.815	723.27
542.269	727.47
542.722	727.57
543.175	740.07
543.629	743.17
544.082	758.77
544.536	758.27
544.989	763.38
545.442	770.48
545.895	761.67
546.349	760.88
546.802	753.88
547.255	763.57
547.708	776.18
548.161	785.88
548.614	795.58
549.067	796.48
549.52	794.18
549.973	784.57
550.426	781.67
550.879	767.98
551.332	756.88
551.785	771.77
552.238	771.07
552.691	779.98
553.144	794.77
553.596	816.78
554.049	832.57
554.502	868.68
554.955	890.38
555.407	879.57
555.86	874.57
556.313	861.27
556.765	854.47
557.218	855.88
557.67	854.58
558.123	852.17
558.576	840.57
559.028	849.98
559.48	851.28
559.933	837.18
560.385	815.27
560.838	774.38
561.29	756.98
561.742	758.67
562.195	732.57
562.647	736.48
563.099	749.47
563.551	736.07
564.004	754.97
564.456	725.28
564.908	727.47
565.36	716.48
565.812	694.47
566.264	691.38
566.716	693.17
567.168	691.38
567.62	684.58
568.072	673.38
568.524	657.98
568.976	650.47
569.428	653.18
569.88	642.87
570.332	660.48
570.784	650.08
571.235	651.38
571.687	660.68
572.139	666.38
572.59	684.97
573.042	673.77
573.494	680.17
573.945	680.77
574.397	644.38
574.849	655.77
575.3	665.18
575.752	654.87
576.203	647.77
576.655	655.27
577.106	641.68
577.557	633.08
578.009	635.67
578.46	641.67
578.912	623.38
579.363	624.98
579.814	632.38
580.265	624.88
580.717	635.57
581.168	634.57
581.619	644.48
582.07	648.28
582.521	643.88
582.972	634.88
583.423	643.47
583.875	649.07
584.326	664.27
584.777	702.67
585.227	783.07
585.678	858.07
586.129	948.58
586.58	1018.17
587.031	1100.78
587.482	1245.27
587.933	1414.38
588.384	1236.78
588.834	918.27
589.285	754.97
589.736	736.68
590.186	734.08
590.637	728.27
591.088	693.08
591.538	697.88
591.989	697.07
592.439	686.38
592.89	682.27
593.34	672.57
593.791	675.77
594.241	666.08
594.692	681.48
595.142	663.88
595.593	657.48
596.043	658.47
596.493	670.48
596.943	670.28
597.394	685.88
597.844	676.68
598.294	689.28
598.744	715.57
599.195	728.98
599.645	770.18
600.095	793.17
600.545	856.78
600.995	908.38
601.445	965.88
601.895	1028.17
602.345	1064.57
602.795	1049.07
603.245	995.08
603.695	959.08
604.145	903.27
604.594	867.67
605.044	808.37
605.494	746.47
605.944	715.87
606.393	696.78
606.843	680.48
607.293	697.08
607.743	682.48
608.192	688.47
608.642	707.68
609.091	712.28
609.541	712.87
609.99	713.17
610.44	711.98
610.889	671.48
611.339	654.17
611.788	638.17
612.238	654.28
612.687	683.08
613.136	669.88
613.586	684.78
614.035	682.98
614.484	701.07
614.933	714.48
615.383	692.07
615.832	684.58
616.281	679.48
616.73	639.57
617.179	620.67
617.628	604.08
618.077	588.68
618.526	574.27
618.975	574.17
619.424	577.38
619.873	567.88
620.322	580.37
620.771	562.98
621.22	562.38
621.669	553.48
622.118	545.88
622.567	541.38
623.015	528.87
623.464	523.48
623.913	523.78
624.361	517.08
624.81	513.98
625.259	513.88
625.707	513.28
626.156	517.37
626.604	528.97
627.053	510.58
627.501	514.97
627.95	527.67
628.398	538.67
628.847	530.48
629.295	526.18
629.744	526.47
630.192	533.58
630.64	532.58
631.089	525.17
631.537	533.48
631.985	541.38
632.433	548.38
632.881	564.67
633.33	595.58
633.778	575.57
634.226	522.98
634.674	522.88
635.122	540.28
635.57	553.58
636.018	584.57
636.466	542.48
636.914	511.88
637.362	527.67
637.81	534.08
638.258	535.67
638.705	539.98
639.153	561.87
639.601	564.27
640.049	592.08
640.497	621.88
640.944	637.78
641.392	588.68
641.84	563.08
642.287	548.88
642.735	519.38
643.182	529.98
643.63	528.07
644.078	532.58
644.525	535.58
644.973	548.98
645.42	557.38
645.867	568.68
646.315	590.38
646.762	605.98
647.21	633.17
647.657	657.27
648.104	680.07
648.551	709.48
648.999	757.68
649.446	829.88
649.893	930.08
650.34	1062.08
650.787	1263.38
651.234	1558.18
651.682	2035.67
652.129	2783.88
652.576	4004.08
653.023	5911.87
653.47	8153.07
653.917	10260.97
654.363	11986.77
654.81	13416.58
655.257	12754.98
655.704	8296.37
656.151	4882.38
656.598	3146.58
657.044	2252.07
657.491	1722.97
657.938	1368.88
658.385	1150.38
658.831	999.48
659.278	877.98
659.724	779.67
660.171	730.97
660.618	669.68
661.064	628.78
661.511	607.07
661.957	593.08
662.404	583.48
662.85	593.88
663.296	562.77
663.743	517.17
664.189	487.17
664.635	486.68
665.082	482.87
665.528	477.67
665.974	473.37
666.42	462.47
666.867	461.18
667.313	447.77
667.759	438.58
668.205	433.88
668.651	436.98
669.097	436.77
669.543	462.17
669.989	428.18
670.435	410.98
670.881	408.88
671.327	409.68
671.773	427.27
672.219	445.88
672.665	490.67
673.11	522.97
673.556	569.48
674.002	616.07
674.448	602.88
674.893	496.57
675.339	430.58
675.785	400.57
676.23	385.28
676.676	353.68
677.122	347.88
677.567	335.87
678.013	324.87
678.458	332.77
678.904	327.28
679.349	306.27
679.794	314.77
680.24	317.38
680.685	312.68
681.131	322.07
681.576	309.88
682.021	312.88
682.466	305.58
682.912	316.08
683.357	313.48
683.802	344.88
684.247	371.67
684.692	404.47
685.137	442.87
685.583	488.37
686.028	508.67
686.473	470.67
686.918	399.38
687.363	371.47
687.807	351.17
688.252	327.67
688.697	321.97
689.142	299.27
689.587	296.28
690.032	292.67
690.477	305.28
690.921	310.88
691.366	344.48
691.811	355.47
692.255	382.18
692.7	417.07
693.145	448.28
693.589	615.17
694.034	997.37
694.478	1379.38
694.923	1581.28
695.367	2085.88
695.812	1084.08
696.256	451.77
696.701	331.67
697.145	311.48
697.59	295.27
698.034	287.77
698.478	303.08
698.922	300.78
699.367	290.68
699.811	306.18
700.255	314.48
700.699	341.07
701.143	380.67
701.588	426.78
702.032	463.77
702.476	456.88
702.92	433.28
703.364	444.47
703.808	571.88
704.252	910.48
704.696	1299.17
705.14	1518.28
705.584	1964.58
706.027	967.08
706.471	467.58
706.915	354.67
707.359	315.27
707.803	283.17
708.246	280.08
708.69	284.88
709.134	285.48
709.577	282.18
710.021	282.58
710.465	275.38
710.908	267.37
711.352	270.27
711.795	278.67
712.239	312.68
712.682	351.88
713.126	376.17
713.569	422.87
714.012	332.88
714.456	288.48
714.899	273.48
715.342	244.08
715.786	237.77
716.229	229.97
716.672	232.57
717.115	221.88
717.558	227.38
718.002	224.38
718.445	233.68
718.888	259.47
719.331	263.78
719.774	279.18
720.217	268.37
720.66	253.28
721.103	236.28
721.546	224.38
721.989	227.67
722.432	208.18
722.874	211.88
723.317	196.57
723.76	211.48
724.203	223.58
724.645	272.88
725.088	389.58
725.531	501.78
725.974	589.88
726.416	496.08
726.859	279.67
727.301	216.18
727.744	210.88
728.187	208.28
728.629	215.67
729.071	220.68
729.514	236.68
729.956	245.97
730.399	254.57
730.841	266.78
731.283	243.88
731.726	235.08
732.168	229.18
732.61	236.67
733.053	250.98
733.495	281.08
733.937	318.48
734.379	357.77
734.821	387.77
735.263	476.88
735.705	725.68
736.148	1388.97
736.59	2275.18
737.032	2799.98
737.474	2260.48
737.916	734.68
738.357	384.07
738.799	292.27
739.241	262.98
739.683	259.88
740.125	260.68
740.567	274.57
741.008	270.67
741.45	277.88
741.892	279.68
742.334	308.67
742.775	324.38
743.217	310.17
743.658	240.78
744.1	226.58
744.542	232.27
744.983	278.48
745.425	310.78
745.866	307.27
746.307	257.77
746.749	252.98
747.19	284.08
747.632	390.58
748.073	760.08
748.514	1619.88
748.956	2527.28
749.397	3196.28
749.838	2648.88
750.279	2713.88
750.72	1354.37
751.162	489.18
751.603	286.08
752.044	228.28
752.485	192.38
752.926	188.38
753.367	183.57
753.808	177.67
754.249	170.17
754.69	166.68
755.131	160.18
755.572	164.38
756.013	156.98
756.453	170.58
756.894	171.18
757.335	176.98
757.776	176.98
758.216	174.17
758.657	175.78
759.098	183.38
759.538	194.27
759.979	234.08
760.42	328.77
760.86	609.48
761.301	1572.47
761.741	3869.67
762.182	5877.98
762.622	4144.08
763.063	1167.08
763.503	486.88
763.943	311.28
764.384	306.88
764.824	358.28
765.264	405.07
765.705	273.97
766.145	194.98
766.585	168.88
767.025	156.38
767.465	156.27
767.906	206.07
768.346	281.17
768.786	301.17
769.226	230.18
769.666	284.27
770.106	532.47
770.546	1345.97
770.986	2399.07
771.426	2176.68
771.866	728.78
772.306	295.48
772.745	186.17
773.185	156.57
773.625	153.38
774.065	139.77
774.505	171.88
774.944	259.38
775.384	577.67
775.824	1088.08
776.263	1080.57
776.703	460.28
777.142	205.68
777.582	134.07
778.021	126.18
778.461	127.98
778.9	123.08
779.34	122.08
779.779	101.08
780.219	95.38
780.658	94.08
781.097	102.27
781.537	101.38
781.976	91.38
782.415	91.97
782.855	94.88
783.294	95.38
783.733	91.98
784.172	99.38
784.611	87.17
785.05	105.07
785.489	105.58
785.928	101.38
786.367	108.67
786.806	104.27
787.245	105.97
787.684	113.88
788.123	131.08
788.562	123.38
789.001	116.48
789.44	111.48
789.879	108.38
790.317	110.67
790.756	115.27
791.195	116.78
791.634	135.68
792.072	173.98
792.511	312.17
792.95	862.28
793.388	1916.38
793.827	1782.07
794.265	616.98
794.704	249.27
795.142	165.38
795.581	139.88
796.019	119.08
796.458	113.08
796.896	102.27
797.334	113.88
797.773	144.27
798.211	193.38
798.649	387.38
799.087	898.08
799.526	1423.97
799.964	1796.38
800.402	1849.68
800.84	676.58
801.278	267.68
801.716	161.77
802.154	126.38
802.592	128.58
803.03	122.98
803.468	115.28
803.906	123.18
804.344	135.77
804.782	129.08
805.22	120.27
805.658	117.17
806.096	126.28
806.533	138.48
806.971	156.67
807.409	193.17
807.847	278.47
808.284	565.08
808.722	1636.08
809.16	2975.28
809.597	2750.88
810.035	4847.88
810.472	5356.17
810.91	1906.47
811.347	721.17
811.785	358.38
812.222	222.08
812.66	172.38
813.097	148.27
813.535	130.97
813.972	118.88
814.409	109.98
814.846	93.48
815.284	98.08
815.721	91.98
816.158	97.28
816.595	105.68
817.032	158.97
817.47	179.77
817.907	140.68
818.344	133.77
818.781	107.38
819.218	84.98
819.655	108.98
820.092	171.57
820.529	195.38
820.966	156.58
821.403	123.77
821.839	101.58
822.276	96.58
822.713	114.47
823.15	121.88
823.587	100.58
824.023	130.57
824.46	254.88
824.897	774.07
825.333	1222.18
825.77	528.08
826.206	213.47
826.643	124.57
827.08	92.68
827.516	74.08
827.953	66.38
828.389	71.77
828.825	64.17
829.262	67.77
829.698	54.27
830.135	62.58
830.571	56.77
831.007	59.08
831.443	56.38
831.88	58.48
832.316	60.38
832.752	55.18
833.188	58.48
833.624	51.98
834.06	65.08
834.497	59.48
834.933	61.38
835.369	69.88
835.805	58.07
836.241	65.17
836.677	74.78
837.112	74.67
837.548	89.08
837.984	118.48
838.42	175.48
838.856	424.68
839.292	1339.78
839.727	2102.07
840.163	976.58
840.599	800.77
841.034	1819.28
841.47	1966.28
841.906	707.88
842.341	291.07
842.777	209.58
843.212	276.47
843.648	275.67
844.083	139.67
844.519	87.18
844.954	65.98
845.39	51.77
845.825	42.17
846.261	50.98
846.696	47.88
847.131	48.58
847.566	49.67
848.002	41.48
848.437	46.77
848.872	61.08
849.307	54.28
849.742	74.08
850.177	154.68
850.613	479.48
851.048	802.47
851.483	339.97
851.918	137.27
852.353	82.38
852.788	57.17
853.223	52.67
853.657	53.38
854.092	40.58
854.527	34.98
854.962	35.48
855.397	39.38
855.832	44.38
856.266	36.58
856.701	37.58
857.136	31.48
857.57	37.98
858.005	44.88
858.44	61.27
858.874	38.88
859.309	49.88
859.743	33.38
860.178	44.67
860.612	33.27
861.047	48.88
861.481	58.77
861.915	67.48
862.35	47.88
862.784	28.88
863.218	36.48
863.653	30.98
864.087	41.38
864.521	49.58
864.955	55.58
865.39	140.88
865.824	154.88
866.258	97.18
866.692	149.08
867.126	162.57
867.56	92.67
867.994	49.67
868.428	31.08
868.862	35.58
869.296	44.28
869.73	46.57
870.164	45.57
870.598	45.28
871.031	34.48
871.465	29.27
871.899	31.78
872.333	24.18
872.766	28.27
873.2	25.57
873.634	25.27
874.067	24.38
874.501	23.67
874.935	36.67
875.368	27.88
875.802	27.88
876.235	21.77
876.669	27.58
877.102	21.88
877.535	20.68
877.969	20.98
878.402	19.07
878.836	12.38
879.269	17.78
879.702	22.17
880.135	21.17
880.569	23.07
881.002	21.78
881.435	20.07
881.868	16.58
882.301	17.08
882.734	15.17
883.167	16.27
883.601	17.88
884.034	18.17
884.467	16.48
884.899	19.67
885.332	12.68
885.765	11.58
886.198	11.77
886.631	18.67
887.064	10.88
887.497	18.07
887.929	24.27
888.362	14.17
888.795	13.77
889.228	15.27
889.66	22.07
890.093	14.88
890.526	16.17
890.958	9.58
891.391	17.48
891.823	24.68
892.256	15.38
892.688	10.27
893.121	15.78
893.553	17.17
893.985	19.67
894.418	15.27
894.85	11.18
895.282	13.07
895.715	13.17
896.147	15.28
896.579	16.67
897.011	9.08
897.444	15.38
897.876	8.98
898.308	14.17
898.74	5.78
899.172	11.27
899.604	25.98
900.036	24.47
900.468	18.08
900.9	13.27
901.332	13.57
901.764	8.88
902.196	17.08
902.628	17.38
903.06	17.17
903.491	24.27
903.923	22.58
904.355	15.88
904.787	26.27
905.218	23.98
905.65	21.17
906.082	11.88
906.513	9.38
906.945	11.77
907.376	8.47
907.808	19.08
908.239	21.48
908.671	16.08
909.102	17.77
909.534	24.38
909.965	38.88
910.397	77.88
910.828	291.27
911.259	435.67
911.691	195.87
912.122	100.98
912.553	46.58
912.984	30.48
913.415	30.68
913.847	31.38
914.278	18.08
914.709	15.17
915.14	13.18
915.571	15.38
916.002	8.48
916.433	16.88
916.864	17.88
917.295	14.48
917.726	19.67
918.157	16.27
918.587	25.58
919.018	22.38
919.449	20.08
919.88	24.97
920.311	27.48
920.741	40.97
921.172	147.98
921.603	139.77
922.033	65.07
922.464	44.68
922.895	26.17
923.325	23.18
923.756	11.98
924.186	15.78
924.617	23.18
925.047	37.38
925.478	45.48
925.908	38.38
926.338	26.98
926.769	12.68
927.199	14.08
927.629	8.27
928.06	17.17
928.49	9.68
928.92	16.98
929.35	8.38
929.78	6.67
930.21	6.67
930.641	9.77
931.071	11.67
931.501	3.88
931.931	11.38
932.361	9.38
932.791	-0.62
933.221	8.68
933.651	7.58
934.08	20.27
934.51	23.77
934.94	10.38
935.37	0.38
935.8	11.88
936.229	10.07
936.659	9.38
937.089	6.88
937.519	12.48
937.948	20.77
938.378	19.58
938.807	7.47
939.237	2.48
939.666	12.38
940.096	-9.62
940.525	-0.33
940.955	-2.42
941.384	-2.42
941.814	-4.52
942.243	-6.32
942.672	1.67
943.102	1.58
943.531	1.08
943.96	0.38
944.39	4.27
944.819	2.07
945.248	3.48
945.677	2.98
946.106	3.68
946.535	3.77
946.964	-0.52
947.393	4.88
947.822	5.28
948.251	-2.73
948.68	5.38
949.109	8.17
949.538	4.68
949.967	-1.62
950.396	3.67
950.825	0.77
951.254	4.18
951.682	-6.23
952.111	7.58
952.54	9.98
952.969	-6.62
953.397	-6.33
953.826	-1.12
954.254	-5.52
954.683	2.97
955.112	-0.02
955.54	4.78
955.969	-0.62
956.397	3.98
956.826	-2.62
957.254	0.88
957.682	1.88
958.111	5.88
958.539	-3.42
958.967	4.18
959.396	-0.43
959.824	2.78
960.252	-2.52
960.68	-2.62
961.109	-3.62
961.537	-8.52
961.965	4.17
962.393	1.98
962.821	-5.32
963.249	2.67
963.677	5.98
964.105	3.48
964.533	46.48
964.961	35.27
965.389	21.98
965.817	10.07
966.245	1.88
966.672	1.28
967.1	-6.12
967.528	3.77
967.956	-3.02
968.383	-1.73
968.811	-2.23
969.239	-0.23
969.666	-0.82
970.094	2.27
970.522	2.58
970.949	-4.93
971.377	-3.32
971.804	-4.23
972.232	-8.82
972.659	-6.82
973.087	-9.33
973.514	0.07
973.941	-0.23
974.369	4.07
974.796	4.28
975.223	0.97
975.651	-5.52
976.078	3.27
976.505	2.88
976.932	1.08
977.359	13.27
977.786	9.17
978.214	0.67
978.641	-6.02
979.068	-2.93
979.495	-7.93
979.922	0.77
980.349	-4.42
980.776	1.38
981.202	-1.62
981.629	5.88
982.056	2.77
982.483	-0.23
982.91	1.68
983.337	-4.92
983.763	4.47
984.19	-8.52
984.617	-5.02
985.043	-5.02
985.47	-3.02
985.897	-2.73
986.323	-5.23
986.75	4.08
987.176	0.27
987.603	3.67
988.029	0.67
988.456	-3.62
988.882	4.38
989.308	-2.83
989.735	-2.62
990.161	2.88
990.587	-4.03
991.014	-1.42
991.44	9.77
991.866	-7.02
992.292	-2.22
992.719	-3.62
993.145	4.68
993.571	-13.82
993.997	-3.23
994.423	-1.12
994.849	-6.03
995.275	3.98
995.701	-4.73
996.127	-6.53
996.553	-1.82
996.979	-5.92
997.405	-3.92
997.83	-5.12
998.256	-3.33
998.682	-6.42
999.108	-3.23
999.534	-2.93
999.959	0.27
1000.385	-3.33
1000.811	1.27
1001.236	-7.83
1001.662	-10.62
1002.087	-7.82
1002.513	-1.43
1002.938	4.58
1003.364	-4.72
1003.789	4.38
1004.215	2.48
1004.64	-1.33
1005.066	-1.62
1005.491	2.48
1005.916	0.47
1006.342	-8.52
1006.767	-9.92
1007.192	-1.62
1007.617	-2.33
1008.042	-7.82
1008.468	-2.02
1008.893	-6.12
1009.318	1.38
1009.743	-1.83
1010.168	4.57
1010.593	2.88
1011.018	-9.12
1011.443	-1.33
1011.868	0.78
1012.293	-5.12
1012.718	-8.52
1013.143	-5.73
1013.567	1.88
1013.992	-4.73
1014.417	-10.33
1014.842	-1.73
1015.267	-1.12
1015.691	-6.52
1016.116	5.67
1016.541	-4.62
1016.965	2.38
1017.39	-3.73
1017.814	-3.42
1018.239	-4.83
1018.663	-2.62
1019.088	-9.23
1019.512	-3.83
1019.937	1.17
1020.361	-6.73
1020.785	-5.73
1021.21	3.48
1021.634	-0.23
1022.058	0.57
1022.483	2.08
1022.907	0.17
1023.331	-7.52
1023.755	1.98
1024.179	-1.12
1024.604	-1.62
1025.028	-7.33
1025.452	-7.83
1025.876	-4.83
1026.3	0.27
1026.724	-9.43
1027.148	-4.52
1027.572	-4.23
1027.996	0.27
1028.42	-1.73
1028.843	-2.33
1029.267	-2.73
1029.691	-3.83
1030.115	-9.42
1030.539	-5.93
1030.962	-10.12
1031.386	-9.82
1031.81	-4.22
1032.233	-2.42
1032.657	-3.32
1033.08	-4.12
1033.504	-2.43
1033.927	-4.52
1034.351	-3.42
1034.774	-10.83
1035.198	2.67
1035.621	-10.12
1036.045	-4.02
1036.468	0.57
1036.891	-13.12
1037.315	-5.93
1037.738	-7.62
1038.161	-0.23
1038.584	-3.73
1039.008	-3.12
1039.431	-3.83
1039.854	-2.43
1040.277	-5.23
1040.7	-8.92
1041.123	-2.62
1041.546	-7.72
1041.969	-8.52
1042.392	-5.12
1042.815	-1.43
1043.238	0.98
1043.661	2.48
1044.084	-2.92
1044.507	-4.73
1044.93	-10.83
1045.352	-3.93
1045.775	-2.93
1046.198	-4.23
1046.621	-3.02
1047.043	-5.62
1047.466	5.18
1047.889	-4.73
1048.311	-1.82
1048.734	-4.52
1049.156	-0.82
1049.579	-0.73
1050.001	-5.73
1050.424	2.07
1050.846	-7.73
1051.269	-5.62
1051.691	-6.32
1052.113	-4.33
1052.536	-7.32
1052.958	-1.83
1053.38	-2.12
1053.802	-6.93
1054.225	2.27
1054.647	-11.02
1055.069	-4.03
1055.491	1.98
1055.913	-1.83
1056.335	0.88
1056.757	-3.62
1057.179	-3.93
1057.601	-4.62
1058.023	-3.42
1058.445	-6.62
1058.867	-6.73
1059.289	-3.23
1059.711	-5.02
1060.133	0.57
1060.555	-0.52
1060.976	-0.23
1061.398	-2.92
1061.82	-6.12
1062.241	-6.53
1062.663	0.98
1063.085	-1.52
1063.506	-0.92
1063.928	-11.83
1064.35	-1.52
1064.771	-10.62
1065.193	-3.53
1065.614	-13.92
1066.035	-5.52
1066.457	-1.52
1066.878	1.48
1067.3	-6.33
1067.721	1.07
1068.142	-0.53
1068.564	-3.83
1068.985	-4.52
1069.406	-6.12
1069.827	-7.33
1070.248	2.67
1070.67	-10.73
1071.091	-4.22
1071.512	-2.03
1071.933	-4.62
1072.354	-4.12
1072.775	-5.42
1073.196	-9.62
1073.617	-4.12
1074.038	-7.73
1074.459	-8.12
1074.88	-7.23
1075.3	-1.02
1075.721	-8.33
1076.142	0.58
1076.563	-4.83
1076.983	-12.02
1077.404	-9.12
1077.825	-12.82
1078.246	-0.23
1078.666	-10.62
1079.087	-9.12
1079.507	-7.33
1079.928	-2.62
1080.348	3.38
1080.769	-8.43
1081.189	5.28
1081.61	-0.42
1082.03	-5.83
1082.451	-11.12
1082.871	-4.62
1083.291	-5.53
1083.711	-4.12
1084.132	-1.92
1084.552	-3.52
1084.972	-1.62
1085.392	-5.73
1085.813	-11.83
1086.233	-2.73
1086.653	-8.62
1087.073	-0.62
1087.493	-7.93
1087.913	-9.53
1088.333	-6.62
1088.753	-6.52
1089.173	2.27
1089.593	-4.62
1090.013	3.17
1090.433	0.88
1090.852	0.08
1091.272	-0.43
1091.692	-4.33
1092.112	0.67
1092.531	-8.52
1092.951	-8.52
1093.371	2.27
1093.79	0.98
1094.21	-10.92
1094.63	-6.62
1095.049	-7.32
1095.469	-4.02
1095.888	1.48
1096.308	3.67
1096.727	4.88
1097.146	-7.92
1097.566	2.98
1097.985	-10.23
1098.405	0.08
1098.824	-9.62
1099.243	-1.73
1099.662	-6.73
1100.082	-6.02
1100.501	-7.02
1100.92	-7.23
1101.339	-4.03
1101.758	-5.42
