Data from 20171114-ORNL-Ar_H_NY_Subt18_08-06-40-115.txt Node
Date: Tue Nov 14 08:06:40 EST 2017
User: Ender
Spectrometer: HR+D1039
Trigger mode: 0
Integration Time (sec): 2.730000E-2
Scans to average: 10
Electric dark correction enabled: true
Nonlinearity correction enabled: false
Boxcar width: 0
XAxis mode: Wavelengths
Number of Pixels in Spectrum: 2048
>>>>>Begin Spectral Data<<<<<
187.836	-0.34
188.309	-0.34
188.782	-0.34
189.255	0.66
189.728	-4.44
190.201	3.56
190.674	1.86
191.147	3.26
191.619	-4.64
192.092	0.26
192.565	5.16
193.038	0.16
193.511	3.16
193.984	1.86
194.456	-10.64
194.929	2.86
195.402	-0.54
195.874	-2.14
196.347	-4.04
196.82	-5.74
197.292	7.86
197.765	-1.54
198.237	-5.54
198.71	2.06
199.182	-6.34
199.655	5.76
200.127	-2.04
200.6	-1.44
201.072	-5.84
201.544	-9.54
202.017	-8.64
202.489	1.16
202.961	-5.44
203.433	-3.24
203.906	-5.64
204.378	-6.14
204.85	-2.44
205.322	-5.04
205.794	-2.84
206.266	0.66
206.739	-10.14
207.211	-2.04
207.683	-7.04
208.155	-5.34
208.627	-9.74
209.099	-4.64
209.57	-9.84
210.042	-10.94
210.514	-6.84
210.986	2.06
211.458	-8.24
211.93	-5.44
212.402	0.06
212.873	-6.24
213.345	-6.04
213.817	-8.74
214.288	-6.34
214.76	-13.34
215.232	-4.14
215.703	-1.74
216.175	-6.74
216.646	-3.34
217.118	-9.34
217.589	-5.04
218.061	-0.04
218.532	-4.84
219.004	0.56
219.475	-6.14
219.946	-3.04
220.418	-2.84
220.889	-2.44
221.36	-2.44
221.832	-5.14
222.303	-6.74
222.774	-0.04
223.245	-8.54
223.717	-5.44
224.188	-9.64
224.659	-3.54
225.13	-5.64
225.601	-3.04
226.072	-1.34
226.543	-4.64
227.014	-0.74
227.485	-10.24
227.956	-1.44
228.427	-9.64
228.898	3.46
229.369	3.36
229.839	-0.54
230.31	-6.84
230.781	1.86
231.252	-3.64
231.722	-17.24
232.193	-2.64
232.664	-3.04
233.135	-3.74
233.605	-3.54
234.076	-5.44
234.546	-7.24
235.017	-5.94
235.487	3.76
235.958	-1.34
236.428	-3.84
236.899	-5.34
237.369	3.56
237.84	1.16
238.31	0.66
238.78	1.16
239.251	-3.34
239.721	-4.94
240.191	-7.84
240.662	0.86
241.132	-1.44
241.602	-7.34
242.072	-2.94
242.542	3.06
243.013	0.26
243.483	2.26
243.953	4.56
244.423	-1.14
244.893	-5.04
245.363	0.16
245.833	-2.84
246.303	-5.04
246.773	7.66
247.243	5.16
247.712	2.76
248.182	6.36
248.652	2.46
249.122	-10.94
249.592	2.86
250.061	4.36
250.531	5.96
251.001	-4.74
251.471	7.56
251.94	9.56
252.41	-0.24
252.879	1.36
253.349	8.76
253.818	5.36
254.288	-0.04
254.757	-2.94
255.227	-3.64
255.696	-2.54
256.166	3.56
256.635	7.56
257.105	3.76
257.574	2.26
258.043	0.56
258.513	3.66
258.982	3.66
259.451	-8.14
259.92	0.86
260.389	4.66
260.859	10.66
261.328	6.86
261.797	8.56
262.266	-1.64
262.735	8.76
263.204	6.16
263.673	0.16
264.142	4.96
264.611	-2.34
265.08	-4.44
265.549	1.46
266.018	-0.04
266.487	-2.14
266.955	2.46
267.424	-1.14
267.893	6.76
268.362	3.26
268.83	4.06
269.299	11.16
269.768	6.76
270.236	6.56
270.705	-2.14
271.174	-2.64
271.642	-1.14
272.111	7.86
272.579	3.16
273.048	1.76
273.516	4.46
273.985	9.06
274.453	10.56
274.922	12.16
275.39	5.86
275.858	0.66
276.327	8.46
276.795	12.96
277.263	1.66
277.731	18.76
278.2	12.56
278.668	6.26
279.136	12.76
279.604	7.86
280.072	8.96
280.54	10.06
281.008	11.46
281.477	13.06
281.945	14.46
282.413	15.86
282.881	10.26
283.348	3.66
283.816	14.96
284.284	10.66
284.752	18.36
285.22	8.76
285.688	12.66
286.156	10.16
286.623	18.26
287.091	14.76
287.559	14.56
288.026	17.56
288.494	8.36
288.962	3.26
289.429	5.96
289.897	13.56
290.364	14.76
290.832	16.46
291.3	12.06
291.767	14.06
292.234	15.46
292.702	8.26
293.169	15.16
293.637	18.36
294.104	19.96
294.571	9.36
295.039	11.26
295.506	9.86
295.973	16.16
296.44	12.96
296.908	12.56
297.375	17.06
297.842	20.76
298.309	9.46
298.776	11.76
299.243	22.76
299.71	11.16
300.177	22.56
300.644	22.76
301.111	13.36
301.578	20.76
302.045	18.56
302.512	28.36
302.979	28.96
303.446	25.96
303.913	19.56
304.379	23.56
304.846	28.06
305.313	15.86
305.78	24.36
306.246	20.86
306.713	21.36
307.18	26.56
307.646	25.86
308.113	25.56
308.579	22.56
309.046	30.56
309.512	23.96
309.979	21.46
310.445	26.86
310.912	31.96
311.378	37.56
311.845	31.46
312.311	30.36
312.777	32.46
313.244	35.96
313.71	34.16
314.176	27.76
314.642	29.56
315.109	30.96
315.575	38.66
316.041	35.66
316.507	31.96
316.973	32.86
317.439	26.86
317.905	42.86
318.371	31.36
318.837	33.26
319.303	32.36
319.769	31.16
320.235	36.36
320.701	34.06
321.167	34.76
321.633	33.56
322.099	38.16
322.564	39.96
323.03	37.96
323.496	38.86
323.962	39.36
324.427	33.76
324.893	40.26
325.359	38.46
325.824	42.06
326.29	35.76
326.755	37.26
327.221	39.56
327.686	41.46
328.152	46.76
328.617	44.66
329.083	40.56
329.548	54.16
330.014	47.36
330.479	37.36
330.944	44.36
331.41	44.56
331.875	40.56
332.34	39.86
332.805	42.06
333.271	42.16
333.736	33.46
334.201	57.46
334.666	52.66
335.131	52.96
335.596	54.36
336.061	49.86
336.526	41.26
336.991	52.46
337.456	52.36
337.921	46.96
338.386	45.16
338.851	44.46
339.316	46.46
339.781	50.26
340.246	52.26
340.711	45.56
341.175	46.96
341.64	44.86
342.105	57.96
342.569	59.76
343.034	54.06
343.499	54.16
343.963	54.06
344.428	61.36
344.893	61.66
345.357	61.06
345.822	57.06
346.286	67.56
346.751	73.26
347.215	68.26
347.679	73.76
348.144	97.86
348.608	88.06
349.073	70.36
349.537	77.26
350.001	84.26
350.465	90.96
350.93	83.26
351.394	82.86
351.858	66.96
352.322	90.76
352.786	88.46
353.25	101.36
353.715	109.46
354.179	96.36
354.643	124.76
355.107	123.86
355.571	101.26
356.035	94.96
356.498	111.66
356.962	113.66
357.426	125.16
357.89	113.76
358.354	88.26
358.818	85.36
359.281	84.66
359.745	78.26
360.209	80.06
360.673	75.06
361.136	85.56
361.6	81.66
362.064	80.96
362.527	86.66
362.991	93.56
363.454	82.56
363.918	79.56
364.381	82.06
364.845	84.76
365.308	89.26
365.772	85.56
366.235	88.06
366.698	82.86
367.162	90.16
367.625	88.46
368.088	90.46
368.552	90.46
369.015	87.36
369.478	97.06
369.941	101.26
370.404	95.36
370.867	100.06
371.331	98.36
371.794	108.26
372.257	95.06
372.72	108.56
373.183	100.26
373.646	96.86
374.109	97.56
374.572	103.76
375.035	102.46
375.497	107.46
375.96	108.76
376.423	104.96
376.886	115.26
377.349	111.36
377.811	98.66
378.274	108.66
378.737	108.56
379.199	111.26
379.662	116.16
380.125	108.26
380.587	102.86
381.05	105.56
381.512	117.76
381.975	125.86
382.437	118.56
382.9	123.66
383.362	125.96
383.825	135.56
384.287	132.36
384.75	124.56
385.212	130.76
385.674	140.26
386.136	132.96
386.599	123.96
387.061	128.86
387.523	123.76
387.985	125.96
388.447	130.86
388.91	127.26
389.372	134.26
389.834	126.56
390.296	129.86
390.758	137.46
391.22	143.06
391.682	148.76
392.144	160.56
392.606	145.46
393.068	143.26
393.529	158.86
393.991	143.16
394.453	133.66
394.915	141.16
395.377	135.96
395.838	141.66
396.3	139.46
396.762	138.46
397.224	138.96
397.685	140.26
398.147	139.16
398.608	137.26
399.07	137.36
399.531	138.06
399.993	144.66
400.454	164.56
400.916	158.96
401.377	155.86
401.839	151.96
402.3	159.76
402.762	178.36
403.223	184.96
403.684	174.36
404.145	165.86
404.607	170.06
405.068	166.26
405.529	169.56
405.99	187.56
406.451	185.66
406.913	173.16
407.374	169.56
407.835	167.66
408.296	172.06
408.757	175.46
409.218	193.36
409.679	187.06
410.14	181.26
410.601	183.46
411.062	183.16
411.522	185.66
411.983	183.36
412.444	178.66
412.905	190.96
413.366	192.96
413.826	208.86
414.287	229.66
414.748	283.36
415.208	270.86
415.669	227.26
416.13	219.76
416.59	215.26
417.051	224.86
417.511	234.46
417.972	255.26
418.432	266.86
418.893	304.06
419.353	269.86
419.814	213.76
420.274	196.66
420.734	188.86
421.195	212.56
421.655	201.76
422.115	204.86
422.576	207.86
423.036	207.86
423.496	223.36
423.956	227.26
424.416	248.96
424.876	279.46
425.336	273.76
425.797	274.16
426.257	268.26
426.717	255.76
427.177	246.06
427.637	236.56
428.097	246.76
428.556	244.26
429.016	286.56
429.476	270.46
429.936	278.86
430.396	285.66
430.856	306.16
431.315	323.06
431.775	362.06
432.235	396.06
432.694	364.96
433.154	377.06
433.614	410.26
434.073	358.06
434.533	297.06
434.993	281.76
435.452	304.76
435.912	304.06
436.371	301.66
436.83	294.96
437.29	278.56
437.749	258.66
438.209	264.16
438.668	281.16
439.127	301.36
439.587	278.36
440.046	263.76
440.505	278.26
440.964	300.16
441.424	347.46
441.883	331.06
442.342	277.46
442.801	243.36
443.26	239.26
443.719	242.36
444.178	241.16
444.637	231.56
445.096	235.56
445.555	241.76
446.014	242.76
446.473	245.16
446.932	252.66
447.391	239.06
447.849	253.26
448.308	241.96
448.767	241.36
449.226	257.86
449.685	260.56
450.143	262.96
450.602	254.66
451.061	248.06
451.519	260.56
451.978	250.66
452.436	249.66
452.895	261.26
453.353	265.26
453.812	255.96
454.27	259.86
454.729	248.16
455.187	262.66
455.646	271.16
456.104	268.66
456.562	284.56
457.021	298.16
457.479	280.56
457.937	275.86
458.395	281.86
458.854	262.06
459.312	283.96
459.77	298.16
460.228	275.96
460.686	257.36
461.144	268.86
461.602	265.66
462.06	267.66
462.518	275.86
462.976	283.56
463.434	276.86
463.892	278.56
464.35	290.06
464.808	310.26
465.266	284.26
465.724	284.76
466.181	285.96
466.639	294.96
467.097	321.16
467.555	322.86
468.012	330.76
468.47	330.56
468.928	350.36
469.385	371.06
469.843	379.26
470.3	376.56
470.758	382.96
471.215	416.86
471.673	438.86
472.13	435.06
472.588	454.26
473.045	398.06
473.503	409.86
473.96	433.86
474.417	439.46
474.875	461.96
475.332	504.16
475.789	486.76
476.246	498.06
476.704	513.16
477.161	538.96
477.618	570.26
478.075	592.96
478.532	653.06
478.989	728.06
479.446	839.16
479.903	803.66
480.36	834.66
480.817	873.46
481.274	973.56
481.731	1070.86
482.188	1148.96
482.645	1275.46
483.102	1376.86
483.558	1500.66
484.015	1548.96
484.472	1501.56
484.929	1457.46
485.385	1420.66
485.842	1384.16
486.299	1334.16
486.755	1306.06
487.212	1103.66
487.668	947.16
488.125	872.66
488.582	810.56
489.038	782.16
489.494	752.36
489.951	730.16
490.407	707.16
490.864	681.86
491.32	679.86
491.776	686.86
492.233	688.86
492.689	645.26
493.145	644.36
493.602	638.06
494.058	657.46
494.514	658.16
494.97	681.66
495.426	691.86
495.882	666.06
496.338	656.16
496.794	667.06
497.251	663.96
497.707	671.26
498.163	671.46
498.618	678.26
499.074	680.96
499.53	707.66
499.986	716.86
500.442	687.36
500.898	665.96
501.354	658.16
501.809	663.36
502.265	664.56
502.721	674.96
503.177	684.76
503.632	685.86
504.088	689.16
504.543	709.16
504.999	740.46
505.455	700.96
505.91	686.36
506.366	683.86
506.821	679.16
507.277	669.36
507.732	678.36
508.187	675.86
508.643	685.06
509.098	688.56
509.553	699.56
510.009	710.96
510.464	729.86
510.919	746.06
511.375	753.06
511.83	757.96
512.285	768.56
512.74	816.06
513.195	842.86
513.65	814.26
514.105	812.76
514.56	827.06
515.015	843.26
515.47	855.96
515.925	826.96
516.38	844.76
516.835	854.36
517.29	835.86
517.745	828.46
518.2	819.36
518.655	801.26
519.109	795.26
519.564	789.16
520.019	781.86
520.474	782.16
520.928	777.96
521.383	774.56
521.838	757.66
522.292	759.06
522.747	757.76
523.201	746.56
523.656	744.36
524.11	737.66
524.565	747.26
525.019	733.16
525.474	748.66
525.928	744.06
526.382	751.76
526.837	745.66
527.291	754.96
527.745	747.36
528.2	749.06
528.654	740.66
529.108	732.26
529.562	739.36
530.016	741.16
530.47	730.86
530.925	729.46
531.379	738.76
531.833	757.16
532.287	740.36
532.741	747.96
533.195	754.86
533.649	758.16
534.103	762.36
534.556	755.36
535.01	763.46
535.464	767.96
535.918	762.66
536.372	772.46
536.826	766.46
537.279	751.36
537.733	762.36
538.187	757.66
538.64	765.26
539.094	766.46
539.548	780.06
540.001	776.16
540.455	782.06
540.908	780.56
541.362	787.06
541.815	795.86
542.269	814.16
542.722	806.86
543.175	822.56
543.629	825.56
544.082	848.76
544.536	843.66
544.989	837.86
545.442	850.06
545.895	854.46
546.349	853.76
546.802	849.36
547.255	852.36
547.708	866.66
548.161	873.06
548.614	873.76
549.067	883.16
549.52	870.76
549.973	861.56
550.426	863.26
550.879	849.66
551.332	861.66
551.785	863.36
552.238	869.96
552.691	878.36
553.144	889.16
553.596	905.36
554.049	919.66
554.502	955.36
554.955	968.76
555.407	976.56
555.86	972.16
556.313	955.76
556.765	952.66
557.218	952.86
557.67	938.86
558.123	939.56
558.576	930.86
559.028	934.46
559.48	945.66
559.933	931.16
560.385	898.16
560.838	867.06
561.29	843.96
561.742	840.26
562.195	823.06
562.647	815.86
563.099	829.56
563.551	816.06
564.004	839.16
564.456	823.96
564.908	808.66
565.36	793.76
565.812	770.46
566.264	772.56
566.716	772.26
567.168	752.26
567.62	752.36
568.072	735.16
568.524	734.86
568.976	731.16
569.428	716.96
569.88	716.96
570.332	727.86
570.784	729.56
571.235	737.66
571.687	738.06
572.139	748.26
572.59	762.26
573.042	755.96
573.494	757.46
573.945	756.76
574.397	738.16
574.849	742.46
575.3	738.56
575.752	729.86
576.203	717.26
576.655	732.96
577.106	720.76
577.557	708.46
578.009	715.96
578.46	712.16
578.912	701.46
579.363	713.46
579.814	713.76
580.265	709.56
580.717	710.26
581.168	721.46
581.619	732.36
582.07	722.86
582.521	714.86
582.972	707.66
583.423	715.86
583.875	718.26
584.326	722.16
584.777	733.56
585.227	762.56
585.678	776.56
586.129	807.76
586.58	826.46
587.031	842.36
587.482	880.56
587.933	915.06
588.384	888.26
588.834	835.46
589.285	821.56
589.736	810.76
590.186	811.46
590.637	809.36
591.088	788.96
591.538	792.56
591.989	773.36
592.439	768.56
592.89	755.46
593.34	737.26
593.791	744.06
594.241	743.86
594.692	737.96
595.142	738.56
595.593	734.46
596.043	748.36
596.493	749.66
596.943	741.86
597.394	756.76
597.844	764.46
598.294	783.66
598.744	803.56
599.195	826.26
599.645	865.96
600.095	902.56
600.545	972.16
600.995	1024.96
601.445	1093.26
601.895	1135.96
602.345	1197.46
602.795	1173.76
603.245	1133.36
603.695	1076.76
604.145	1009.06
604.594	972.46
605.044	916.26
605.494	854.06
605.944	800.36
606.393	791.46
606.843	770.46
607.293	776.66
607.743	780.56
608.192	787.36
608.642	791.86
609.091	791.56
609.541	803.16
609.99	808.86
610.44	805.86
610.889	768.36
611.339	720.76
611.788	719.36
612.238	714.76
612.687	745.66
613.136	737.46
613.586	742.66
614.035	741.36
614.484	747.36
614.933	742.56
615.383	742.06
615.832	745.06
616.281	732.36
616.73	701.36
617.179	684.36
617.628	675.26
618.077	658.96
618.526	645.66
618.975	645.06
619.424	644.46
619.873	648.66
620.322	641.96
620.771	643.46
621.22	634.16
621.669	623.96
622.118	623.36
622.567	607.66
623.015	601.26
623.464	595.86
623.913	584.66
624.361	581.46
624.81	578.66
625.259	588.76
625.707	577.46
626.156	592.36
626.604	591.76
627.053	601.66
627.501	591.66
627.95	597.36
628.398	609.86
628.847	603.06
629.295	593.76
629.744	597.76
630.192	596.46
630.64	587.76
631.089	571.16
631.537	569.76
631.985	562.36
632.433	555.56
632.881	549.66
633.33	570.36
633.778	548.66
634.226	556.96
634.674	564.96
635.122	571.06
635.57	579.06
636.018	584.56
636.466	590.36
636.914	590.06
637.362	600.56
637.81	607.16
638.258	610.06
638.705	610.56
639.153	643.26
639.601	643.16
640.049	673.66
640.497	702.26
640.944	723.86
641.392	673.46
641.84	638.26
642.287	609.76
642.735	599.26
643.182	593.46
643.63	587.66
644.078	587.36
644.525	602.56
644.973	608.26
645.42	606.56
645.867	640.36
646.315	658.56
646.762	678.56
647.21	716.46
647.657	735.16
648.104	758.16
648.551	782.46
648.999	845.16
649.446	917.86
649.893	1003.96
650.34	1147.46
650.787	1359.56
651.234	1660.46
651.682	2155.06
652.129	2898.46
652.576	4128.46
653.023	6010.86
653.47	8164.46
653.917	10118.66
654.363	11679.76
654.81	12892.36
655.257	12213.26
655.704	8102.36
656.151	4904.96
656.598	3214.46
657.044	2316.56
657.491	1812.16
657.938	1454.46
658.385	1219.66
658.831	1081.36
659.278	969.56
659.724	860.76
660.171	803.36
660.618	729.96
661.064	705.06
661.511	684.76
661.957	665.36
662.404	660.56
662.85	672.76
663.296	642.06
663.743	576.96
664.189	554.46
664.635	558.96
665.082	546.86
665.528	548.76
665.974	542.86
666.42	530.46
666.867	525.96
667.313	508.06
667.759	487.76
668.205	482.26
668.651	464.86
669.097	473.26
669.543	460.46
669.989	471.26
670.435	467.76
670.881	463.06
671.327	466.76
671.773	490.36
672.219	519.66
672.665	567.26
673.11	609.96
673.556	656.36
674.002	700.26
674.448	689.96
674.893	585.96
675.339	500.76
675.785	462.76
676.23	441.66
676.676	414.96
677.122	405.66
677.567	390.06
678.013	393.76
678.458	372.66
678.904	383.86
679.349	363.56
679.794	367.96
680.24	374.56
680.685	362.86
681.131	362.46
681.576	372.16
682.021	370.46
682.466	369.06
682.912	374.46
683.357	370.86
683.802	398.96
684.247	434.06
684.692	483.16
685.137	527.36
685.583	560.26
686.028	590.06
686.473	544.86
686.918	477.66
687.363	446.46
687.807	411.86
688.252	391.76
688.697	369.16
689.142	357.56
689.587	343.16
690.032	341.66
690.477	370.06
690.921	364.56
691.366	397.96
691.811	429.36
692.255	449.66
692.7	478.26
693.145	532.66
693.589	730.56
694.034	1196.16
694.478	1628.06
694.923	1829.86
695.367	2400.76
695.812	1262.76
696.256	523.16
696.701	390.16
697.145	363.16
697.59	348.76
698.034	343.36
698.478	342.36
698.922	332.86
699.367	331.26
699.811	346.66
700.255	371.26
700.699	403.26
701.143	433.76
701.588	489.76
702.032	536.66
702.476	540.56
702.92	515.66
703.364	513.76
703.808	672.26
704.252	1094.66
704.696	1537.56
705.14	1759.16
705.584	2251.56
706.027	1119.36
706.471	542.06
706.915	416.56
707.359	377.76
707.803	346.66
708.246	325.56
708.69	335.06
709.134	327.06
709.577	321.66
710.021	331.06
710.465	316.06
710.908	310.96
711.352	320.66
711.795	333.96
712.239	375.76
712.682	395.66
713.126	435.36
713.569	471.46
714.012	374.96
714.456	314.06
714.899	302.56
715.342	290.06
715.786	268.46
716.229	274.56
716.672	270.66
717.115	265.46
717.558	255.66
718.002	265.16
718.445	278.16
718.888	292.66
719.331	307.86
719.774	326.26
720.217	321.06
720.66	295.06
721.103	278.66
721.546	270.26
721.989	259.16
722.432	245.86
722.874	255.06
723.317	242.06
723.76	250.16
724.203	264.06
724.645	332.46
725.088	461.46
725.531	590.96
725.974	675.06
726.416	571.06
726.859	316.76
727.301	252.96
727.744	251.16
728.187	239.76
728.629	245.26
729.071	248.36
729.514	275.56
729.956	283.36
730.399	296.26
730.841	303.36
731.283	289.06
731.726	271.76
732.168	271.66
732.61	283.16
733.053	296.26
733.495	328.06
733.937	377.66
734.379	416.46
734.821	457.16
735.263	572.86
735.705	881.46
736.148	1669.06
736.59	2722.16
737.032	3241.66
737.474	2608.46
737.916	853.56
738.357	452.16
738.799	343.16
739.241	311.46
739.683	301.86
740.125	301.06
740.567	323.06
741.008	329.86
741.45	325.96
741.892	325.56
742.334	365.26
742.775	385.16
743.217	364.16
743.658	290.16
744.1	275.06
744.542	283.36
744.983	333.96
745.425	370.56
745.866	362.16
746.307	297.06
746.749	293.86
747.19	339.06
747.632	487.16
748.073	927.76
748.514	1959.76
748.956	3000.96
749.397	3759.46
749.838	3133.36
750.279	3137.46
750.72	1599.76
751.162	579.26
751.603	336.96
752.044	256.96
752.485	229.76
752.926	214.96
753.367	214.86
753.808	201.76
754.249	198.06
754.69	192.96
755.131	192.96
755.572	197.06
756.013	188.56
756.453	193.46
756.894	198.26
757.335	198.96
757.776	203.36
758.216	208.76
758.657	206.16
759.098	213.36
759.538	241.26
759.979	281.66
760.42	391.96
760.86	744.36
761.301	1929.76
761.741	4659.76
762.182	6766.86
762.622	4792.26
763.063	1392.06
763.503	566.36
763.943	342.66
764.384	289.76
764.824	273.46
765.264	264.66
765.705	223.96
766.145	198.16
766.585	187.16
767.025	177.96
767.465	176.06
767.906	195.36
768.346	219.06
768.786	220.96
769.226	232.26
769.666	315.06
770.106	648.56
770.546	1639.36
770.986	2786.56
771.426	2480.06
771.866	831.66
772.306	349.16
772.745	216.26
773.185	178.06
773.625	171.36
774.065	159.26
774.505	169.66
774.944	206.26
775.384	383.56
775.824	613.86
776.263	594.46
776.703	292.26
777.142	164.26
777.582	140.36
778.021	128.86
778.461	128.66
778.9	134.26
779.34	128.96
779.779	125.76
780.219	113.76
780.658	116.96
781.097	111.86
781.537	114.56
781.976	111.36
782.415	110.66
782.855	108.16
783.294	104.96
783.733	106.06
784.172	106.66
784.611	105.86
785.05	117.76
785.489	118.36
785.928	127.86
786.367	131.36
786.806	122.66
787.245	132.16
787.684	140.16
788.123	151.76
788.562	137.66
789.001	134.36
789.44	125.76
789.879	126.66
790.317	126.06
790.756	129.86
791.195	133.76
791.634	153.26
792.072	210.66
792.511	379.66
792.95	1048.46
793.388	2227.76
793.827	2007.36
794.265	703.36
794.704	287.86
795.142	191.16
795.581	154.56
796.019	146.36
796.458	134.36
796.896	134.96
797.334	137.16
797.773	163.96
798.211	230.46
798.649	457.06
799.087	1072.26
799.526	1673.16
799.964	2116.26
800.402	2130.46
800.84	800.66
801.278	318.36
801.716	196.56
802.154	161.06
802.592	153.46
803.03	145.26
803.468	135.96
803.906	151.46
804.344	158.06
804.782	144.06
805.22	137.96
805.658	135.86
806.096	151.16
806.533	164.26
806.971	183.26
807.409	232.76
807.847	336.36
808.284	700.46
808.722	1967.86
809.16	3477.76
809.597	3322.56
810.035	5722.76
810.472	6079.96
810.91	2216.16
811.347	839.76
811.785	431.96
812.222	265.66
812.66	204.06
813.097	171.66
813.535	147.16
813.972	138.56
814.409	124.76
814.846	114.96
815.284	108.06
815.721	110.16
816.158	104.86
816.595	110.66
817.032	156.06
817.47	192.16
817.907	147.36
818.344	106.56
818.781	103.66
819.218	95.66
819.655	132.76
820.092	196.76
820.529	225.06
820.966	177.66
821.403	133.46
821.839	106.96
822.276	103.76
822.713	130.86
823.15	143.36
823.587	126.66
824.023	146.86
824.46	309.56
824.897	929.06
825.333	1426.26
825.77	613.36
826.206	244.76
826.643	144.76
827.08	108.26
827.516	87.46
827.953	85.26
828.389	85.96
828.825	73.06
829.262	75.96
829.698	63.26
830.135	68.36
830.571	64.26
831.007	64.86
831.443	67.86
831.88	68.66
832.316	64.36
832.752	57.86
833.188	69.66
833.624	70.96
834.06	75.26
834.497	74.66
834.933	73.66
835.369	78.56
835.805	76.76
836.241	78.26
836.677	84.96
837.112	94.96
837.548	106.26
837.984	143.66
838.42	205.16
838.856	525.46
839.292	1574.16
839.727	2415.76
840.163	1137.56
840.599	971.66
841.034	2129.76
841.47	2229.16
841.906	817.96
842.341	349.96
842.777	201.06
843.212	203.66
843.648	192.96
844.083	116.66
844.519	91.96
844.954	75.56
845.39	55.66
845.825	50.46
846.261	54.56
846.696	60.96
847.131	55.56
847.566	62.56
848.002	50.86
848.437	56.26
848.872	64.36
849.307	65.06
849.742	89.36
850.177	188.96
850.613	581.76
851.048	924.46
851.483	397.26
851.918	159.76
852.353	89.26
852.788	57.66
853.223	49.26
853.657	51.46
854.092	45.56
854.527	43.56
854.962	42.06
855.397	49.66
855.832	52.06
856.266	39.56
856.701	40.46
857.136	35.86
857.57	45.66
858.005	54.16
858.44	65.76
858.874	48.06
859.309	55.66
859.743	42.36
860.178	48.56
860.612	43.06
861.047	50.46
861.481	72.76
861.915	78.46
862.35	59.16
862.784	39.56
863.218	44.26
863.653	30.86
864.087	47.86
864.521	52.16
864.955	71.06
865.39	155.76
865.824	180.16
866.258	122.76
866.692	170.36
867.126	201.36
867.56	118.06
867.994	60.86
868.428	40.06
868.862	52.56
869.296	59.46
869.73	62.16
870.164	55.36
870.598	47.26
871.031	36.96
871.465	31.66
871.899	34.96
872.333	23.26
872.766	22.86
873.2	19.66
873.634	29.46
874.067	22.96
874.501	20.66
874.935	28.06
875.368	29.76
875.802	26.66
876.235	26.76
876.669	23.06
877.102	25.16
877.535	24.56
877.969	23.46
878.402	25.26
878.836	20.86
879.269	23.86
879.702	24.46
880.135	21.66
880.569	20.66
881.002	25.96
881.435	20.76
881.868	15.56
882.301	23.66
882.734	17.96
883.167	23.76
883.601	16.56
884.034	18.16
884.467	16.26
884.899	13.06
885.332	20.26
885.765	14.96
886.198	18.86
886.631	18.36
887.064	14.46
887.497	21.06
887.929	22.36
888.362	17.76
888.795	11.96
889.228	14.86
889.66	20.66
890.093	16.06
890.526	21.56
890.958	14.36
891.391	22.66
891.823	20.86
892.256	14.06
892.688	12.56
893.121	20.26
893.553	19.16
893.985	19.76
894.418	24.86
894.85	10.16
895.282	15.96
895.715	19.96
896.147	14.36
896.579	18.06
897.011	13.26
897.444	18.86
897.876	15.56
898.308	14.56
898.74	14.66
899.172	11.96
899.604	22.36
900.036	19.26
900.468	17.46
900.9	11.46
901.332	16.16
901.764	14.66
902.196	18.36
902.628	21.16
903.06	25.86
903.491	30.66
903.923	26.16
904.355	19.86
904.787	29.06
905.218	24.36
905.65	21.76
906.082	16.96
906.513	9.46
906.945	18.86
907.376	11.36
907.808	18.66
908.239	18.96
908.671	17.56
909.102	22.16
909.534	28.46
909.965	47.56
910.397	92.96
910.828	331.56
911.259	493.96
911.691	229.66
912.122	108.76
912.553	54.26
912.984	34.06
913.415	21.66
913.847	26.76
914.278	14.06
914.709	19.66
915.14	20.06
915.571	16.06
916.002	15.86
916.433	15.16
916.864	13.96
917.295	9.36
917.726	23.46
918.157	17.56
918.587	23.66
919.018	24.16
919.449	21.26
919.88	17.56
920.311	28.16
920.741	49.46
921.172	169.46
921.603	162.36
922.033	76.46
922.464	47.06
922.895	20.96
923.325	15.66
923.756	12.66
924.186	13.96
924.617	16.66
925.047	14.46
925.478	13.36
925.908	19.86
926.338	9.46
926.769	12.66
927.199	22.86
927.629	12.06
928.06	11.36
928.49	11.36
928.92	11.86
929.35	5.86
929.78	7.86
930.21	11.46
930.641	0.96
931.071	5.26
931.501	-1.24
931.931	5.96
932.361	12.16
932.791	0.86
933.221	8.46
933.651	8.96
934.08	19.46
934.51	33.36
934.94	10.16
935.37	12.66
935.8	9.36
936.229	5.26
936.659	6.56
937.089	5.56
937.519	12.66
937.948	21.86
938.378	19.96
938.807	4.96
939.237	1.56
939.666	9.16
940.096	-6.34
940.525	-4.84
940.955	-3.14
941.384	6.86
941.814	1.56
942.243	-6.34
942.672	6.16
943.102	-0.44
943.531	1.66
943.96	1.96
944.39	-0.74
944.819	-3.64
945.248	-0.54
945.677	2.46
946.106	3.86
946.535	5.26
946.964	-1.24
947.393	7.26
947.822	0.16
948.251	-6.84
948.68	-1.14
949.109	9.26
949.538	1.36
949.967	5.76
950.396	-2.14
950.825	-5.54
951.254	-1.54
951.682	-7.54
952.111	5.86
952.54	7.06
952.969	-5.04
953.397	-3.44
953.826	2.86
954.254	-10.74
954.683	0.56
955.112	-1.74
955.54	-1.54
955.969	0.56
956.397	-3.44
956.826	-1.24
957.254	5.16
957.682	4.26
958.111	3.96
958.539	-9.74
958.967	-0.54
959.396	-3.44
959.824	-1.64
960.252	0.96
960.68	-2.44
961.109	-9.34
961.537	-8.04
961.965	-3.24
962.393	0.56
962.821	-7.04
963.249	2.16
963.677	4.76
964.105	7.16
964.533	46.26
964.961	39.66
965.389	18.46
965.817	7.86
966.245	-0.14
966.672	-1.84
967.1	-9.84
967.528	-0.34
967.956	-0.44
968.383	4.26
968.811	-0.94
969.239	-1.84
969.666	-6.44
970.094	-3.34
970.522	1.16
970.949	-1.34
971.377	-7.84
971.804	-5.54
972.232	-2.34
972.659	-1.14
973.087	-2.84
973.514	-1.84
973.941	-2.34
974.369	-1.64
974.796	-3.64
975.223	1.26
975.651	-0.24
976.078	6.76
976.505	4.76
976.932	4.56
977.359	17.26
977.786	14.96
978.214	1.56
978.641	-7.04
979.068	-3.94
979.495	-5.94
979.922	-2.44
980.349	-2.84
980.776	3.86
981.202	-6.04
981.629	6.16
982.056	4.76
982.483	-6.44
982.91	0.96
983.337	-2.14
983.763	2.46
984.19	-3.34
984.617	0.36
985.043	-3.54
985.47	-3.24
985.897	-3.24
986.323	-14.24
986.75	5.96
987.176	1.66
987.603	-2.74
988.029	-2.14
988.456	-3.14
988.882	0.06
989.308	-6.84
989.735	-0.94
990.161	-0.14
990.587	-4.54
991.014	-0.14
991.44	5.16
991.866	-3.64
992.292	-8.94
992.719	3.66
993.145	2.16
993.571	-10.54
993.997	-8.74
994.423	-1.34
994.849	-1.34
995.275	2.86
995.701	-5.54
996.127	0.16
996.553	2.46
996.979	-0.74
997.405	-1.74
997.83	-3.44
998.256	-9.54
998.682	-5.64
999.108	-5.34
999.534	-1.54
999.959	7.26
1000.385	-3.24
1000.811	-4.04
1001.236	-8.64
1001.662	-8.94
1002.087	-9.04
1002.513	-1.74
1002.938	7.06
1003.364	-1.14
1003.789	-6.54
1004.215	1.16
1004.64	-2.14
1005.066	-0.34
1005.491	-1.44
1005.916	-7.04
1006.342	-6.14
1006.767	-6.54
1007.192	0.36
1007.617	-4.84
1008.042	-4.34
1008.468	-7.74
1008.893	-3.54
1009.318	-3.44
1009.743	-5.64
1010.168	-0.04
1010.593	2.66
1011.018	-4.54
1011.443	-1.04
1011.868	1.06
1012.293	-7.84
1012.718	-8.54
1013.143	2.16
1013.567	1.16
1013.992	-5.14
1014.417	-13.74
1014.842	-1.04
1015.267	-1.64
1015.691	-5.94
1016.116	-2.34
1016.541	-6.34
1016.965	-1.44
1017.39	0.76
1017.814	0.46
1018.239	-4.84
1018.663	-7.54
1019.088	-10.24
1019.512	-1.94
1019.937	-7.94
1020.361	-3.14
1020.785	-13.44
1021.21	-0.74
1021.634	-3.54
1022.058	2.96
1022.483	7.86
1022.907	-2.64
1023.331	-3.14
1023.755	-2.34
1024.179	1.26
1024.604	-5.94
1025.028	-7.54
1025.452	-9.64
1025.876	2.66
1026.3	-1.04
1026.724	-15.64
1027.148	-9.44
1027.572	-11.84
1027.996	-4.04
1028.42	-1.64
1028.843	-1.34
1029.267	-5.04
1029.691	-11.64
1030.115	-14.84
1030.539	-7.74
1030.962	-6.94
1031.386	-8.84
1031.81	0.66
1032.233	-2.24
1032.657	-4.84
1033.08	-5.64
1033.504	-8.34
1033.927	-4.64
1034.351	1.06
1034.774	-9.84
1035.198	-7.14
1035.621	-6.94
1036.045	-7.34
1036.468	-0.64
1036.891	-13.64
1037.315	-9.34
1037.738	-9.34
1038.161	2.26
1038.584	-7.54
1039.008	-9.14
1039.431	-7.14
1039.854	-3.94
1040.277	-6.94
1040.7	-8.04
1041.123	-0.24
1041.546	-9.24
1041.969	-3.74
1042.392	-8.04
1042.815	-2.44
1043.238	-1.54
1043.661	-2.74
1044.084	-6.84
1044.507	-3.64
1044.93	-5.84
1045.352	-5.14
1045.775	-8.04
1046.198	-5.44
1046.621	-3.44
1047.043	0.86
1047.466	5.16
1047.889	-3.84
1048.311	-10.44
1048.734	-4.14
1049.156	-2.04
1049.579	-7.14
1050.001	-1.84
1050.424	-0.24
1050.846	-6.14
1051.269	-7.14
1051.691	-6.64
1052.113	1.06
1052.536	-1.44
1052.958	-3.04
1053.38	-8.04
1053.802	-3.34
1054.225	1.96
1054.647	-10.04
1055.069	-3.94
1055.491	1.86
1055.913	-5.74
1056.335	-1.04
1056.757	-0.44
1057.179	-6.24
1057.601	-2.14
1058.023	-6.74
1058.445	-6.94
1058.867	-6.64
1059.289	-5.14
1059.711	-6.04
1060.133	0.26
1060.555	-2.74
1060.976	-3.84
1061.398	-8.94
1061.82	-11.94
1062.241	-3.74
1062.663	-6.14
1063.085	-5.84
1063.506	-2.44
1063.928	-5.24
1064.35	-1.64
1064.771	-10.84
1065.193	-1.34
1065.614	-14.94
1066.035	-6.54
1066.457	-4.34
1066.878	2.06
1067.3	-2.94
1067.721	-2.74
1068.142	-3.54
1068.564	-3.44
1068.985	-3.84
1069.406	-9.14
1069.827	-11.94
1070.248	2.66
1070.67	-7.14
1071.091	-4.54
1071.512	-3.64
1071.933	-4.24
1072.354	-9.44
1072.775	-7.04
1073.196	-13.74
1073.617	0.86
1074.038	-3.74
1074.459	-8.54
1074.88	-10.34
1075.3	1.06
1075.721	-6.74
1076.142	1.16
1076.563	-1.14
1076.983	-12.24
1077.404	-4.64
1077.825	-6.14
1078.246	-2.94
1078.666	-10.74
1079.087	-7.74
1079.507	-7.64
1079.928	-3.74
1080.348	-3.04
1080.769	-8.34
1081.189	-2.54
1081.61	-2.94
1082.03	-4.94
1082.451	-5.54
1082.871	-8.44
1083.291	-9.34
1083.711	-10.54
1084.132	-3.64
1084.552	-0.84
1084.972	-0.44
1085.392	-8.84
1085.813	-6.44
1086.233	-8.94
1086.653	-2.94
1087.073	-3.64
1087.493	-7.14
1087.913	-9.34
1088.333	-11.24
1088.753	-3.84
1089.173	2.36
1089.593	-5.04
1090.013	0.56
1090.433	0.96
1090.852	1.56
1091.272	-1.64
1091.692	-2.14
1092.112	-5.94
1092.531	-7.84
1092.951	-9.14
1093.371	-2.74
1093.79	-0.34
1094.21	-6.24
1094.63	-6.74
1095.049	-7.44
1095.469	-5.54
1095.888	-3.84
1096.308	1.66
1096.727	-0.24
1097.146	-9.74
1097.566	0.16
1097.985	-8.94
1098.405	-1.54
1098.824	-4.64
1099.243	-2.24
1099.662	-6.74
1100.082	-7.84
1100.501	-8.94
1100.92	-7.64
1101.339	-9.64
1101.758	-4.64
