Data from 20171114-ORNL-Ar_H_NY_Subt18_08-08-05-011.txt Node
Date: Tue Nov 14 08:08:05 EST 2017
User: Ender
Spectrometer: HR+D1039
Trigger mode: 0
Integration Time (sec): 2.730000E-2
Scans to average: 10
Electric dark correction enabled: true
Nonlinearity correction enabled: false
Boxcar width: 0
XAxis mode: Wavelengths
Number of Pixels in Spectrum: 2048
>>>>>Begin Spectral Data<<<<<
187.836	-2.24
188.309	-2.24
188.782	-2.24
189.255	2.16
189.728	-1.14
190.201	3.36
190.674	-0.44
191.147	3.66
191.619	-8.24
192.092	-1.84
192.565	5.16
193.038	1.56
193.511	2.36
193.984	-0.64
194.456	-0.54
194.929	-0.64
195.402	-0.34
195.874	-2.24
196.347	1.96
196.82	-10.04
197.292	9.06
197.765	-0.44
198.237	-8.14
198.71	1.46
199.182	-5.34
199.655	-2.84
200.127	-0.34
200.6	-1.34
201.072	-1.04
201.544	-4.94
202.017	-1.54
202.489	5.36
202.961	1.56
203.433	-1.54
203.906	-2.84
204.378	-9.34
204.85	-2.94
205.322	-6.54
205.794	-4.44
206.266	-3.44
206.739	-9.54
207.211	0.06
207.683	-6.84
208.155	-5.94
208.627	-13.74
209.099	-5.84
209.57	-7.04
210.042	-3.24
210.514	-3.84
210.986	-6.44
211.458	-7.94
211.93	-2.24
212.402	2.16
212.873	-11.24
213.345	-8.54
213.817	-10.44
214.288	-5.24
214.76	-6.04
215.232	0.06
215.703	-4.14
216.175	-3.24
216.646	-4.24
217.118	-10.54
217.589	-2.74
218.061	-0.94
218.532	-9.84
219.004	-3.94
219.475	-6.24
219.946	-7.44
220.418	-8.04
220.889	0.26
221.36	-6.64
221.832	-4.34
222.303	-6.84
222.774	4.46
223.245	-16.04
223.717	-7.04
224.188	-1.44
224.659	-9.64
225.13	-7.04
225.601	-1.74
226.072	4.36
226.543	0.86
227.014	0.66
227.485	-4.24
227.956	-6.54
228.427	-1.14
228.898	4.16
229.369	-1.34
229.839	-4.54
230.31	-9.54
230.781	-3.94
231.252	0.66
231.722	-9.64
232.193	0.06
232.664	-0.64
233.135	1.16
233.605	1.16
234.076	-4.74
234.546	0.96
235.017	6.36
235.487	2.26
235.958	0.76
236.428	1.46
236.899	-3.04
237.369	4.36
237.84	-2.84
238.31	0.56
238.78	4.96
239.251	0.66
239.721	7.16
240.191	-1.24
240.662	1.96
241.132	1.16
241.602	-0.74
242.072	-1.14
242.542	10.96
243.013	0.76
243.483	4.06
243.953	5.56
244.423	1.56
244.893	-2.14
245.363	-3.44
245.833	3.26
246.303	-3.04
246.773	0.86
247.243	3.56
247.712	3.16
248.182	5.26
248.652	9.66
249.122	-0.64
249.592	5.86
250.061	19.16
250.531	30.36
251.001	13.96
251.471	26.36
251.94	21.16
252.41	2.86
252.879	-2.34
253.349	12.06
253.818	6.86
254.288	1.06
254.757	6.36
255.227	3.66
255.696	7.96
256.166	6.56
256.635	6.76
257.105	10.46
257.574	7.86
258.043	7.46
258.513	9.16
258.982	15.36
259.451	9.06
259.92	11.06
260.389	6.06
260.859	12.96
261.328	9.26
261.797	20.36
262.266	6.16
262.735	11.26
263.204	7.06
263.673	-0.84
264.142	6.86
264.611	1.66
265.08	0.76
265.549	-0.24
266.018	1.66
266.487	-0.94
266.955	-3.34
267.424	2.76
267.893	0.66
268.362	-3.74
268.83	4.86
269.299	9.56
269.768	6.46
270.236	9.46
270.705	6.86
271.174	9.26
271.642	8.06
272.111	10.46
272.579	17.16
273.048	21.56
273.516	32.86
273.985	20.36
274.453	25.16
274.922	19.76
275.39	10.26
275.858	4.66
276.327	11.86
276.795	12.16
277.263	12.66
277.731	28.36
278.2	45.46
278.668	57.56
279.136	52.36
279.604	20.96
280.072	13.76
280.54	9.26
281.008	4.16
281.477	15.16
281.945	11.66
282.413	14.96
282.881	12.36
283.348	11.96
283.816	16.76
284.284	13.46
284.752	16.96
285.22	13.76
285.688	19.36
286.156	27.16
286.623	39.86
287.091	49.46
287.559	29.96
288.026	14.06
288.494	19.36
288.962	8.76
289.429	12.56
289.897	20.86
290.364	15.06
290.832	16.76
291.3	12.86
291.767	10.46
292.234	17.56
292.702	16.06
293.169	16.26
293.637	19.06
294.104	18.56
294.571	12.46
295.039	12.06
295.506	15.06
295.973	22.06
296.44	13.76
296.908	22.26
297.375	12.16
297.842	21.86
298.309	15.36
298.776	16.56
299.243	23.06
299.71	16.26
300.177	19.46
300.644	19.56
301.111	20.56
301.578	21.36
302.045	19.06
302.512	15.56
302.979	21.96
303.446	19.86
303.913	20.56
304.379	19.76
304.846	23.26
305.313	25.66
305.78	19.06
306.246	23.26
306.713	26.06
307.18	23.76
307.646	34.26
308.113	33.76
308.579	16.46
309.046	25.76
309.512	22.46
309.979	13.96
310.445	26.76
310.912	27.36
311.378	30.26
311.845	26.96
312.311	24.46
312.777	27.16
313.244	37.06
313.71	36.16
314.176	21.46
314.642	23.96
315.109	33.46
315.575	34.86
316.041	39.06
316.507	29.86
316.973	38.86
317.439	35.56
317.905	37.16
318.371	36.46
318.837	28.36
319.303	40.26
319.769	38.66
320.235	27.76
320.701	36.96
321.167	35.26
321.633	33.26
322.099	35.26
322.564	49.96
323.03	38.26
323.496	40.46
323.962	36.46
324.427	38.66
324.893	44.66
325.359	36.36
325.824	41.16
326.29	32.46
326.755	39.86
327.221	44.36
327.686	43.66
328.152	48.36
328.617	38.36
329.083	45.56
329.548	49.46
330.014	49.56
330.479	35.96
330.944	42.86
331.41	46.06
331.875	42.76
332.34	43.46
332.805	40.46
333.271	48.66
333.736	38.36
334.201	55.46
334.666	50.76
335.131	52.96
335.596	48.56
336.061	46.76
336.526	45.66
336.991	42.86
337.456	51.56
337.921	47.86
338.386	46.96
338.851	44.36
339.316	49.66
339.781	44.86
340.246	52.26
340.711	47.06
341.175	51.86
341.64	46.86
342.105	51.96
342.569	54.96
343.034	53.96
343.499	55.26
343.963	51.46
344.428	65.76
344.893	58.66
345.357	63.96
345.822	61.46
346.286	66.86
346.751	69.56
347.215	66.96
347.679	75.76
348.144	98.36
348.608	77.46
349.073	61.56
349.537	75.86
350.001	82.06
350.465	88.56
350.93	76.06
351.394	81.76
351.858	71.26
352.322	86.66
352.786	85.96
353.25	102.46
353.715	107.76
354.179	101.26
354.643	120.86
355.107	128.26
355.571	102.66
356.035	101.36
356.498	116.06
356.962	121.66
357.426	128.96
357.89	118.76
358.354	89.76
358.818	82.06
359.281	84.36
359.745	76.06
360.209	77.56
360.673	75.46
361.136	84.26
361.6	82.76
362.064	89.06
362.527	86.76
362.991	91.16
363.454	85.46
363.918	75.86
364.381	86.16
364.845	83.26
365.308	88.36
365.772	89.16
366.235	86.66
366.698	86.86
367.162	89.96
367.625	90.86
368.088	90.06
368.552	92.26
369.015	91.06
369.478	100.16
369.941	103.26
370.404	97.76
370.867	106.56
371.331	113.06
371.794	118.06
372.257	111.46
372.72	123.76
373.183	113.36
373.646	111.76
374.109	104.26
374.572	110.86
375.035	109.86
375.497	112.66
375.96	107.96
376.423	104.16
376.886	111.56
377.349	106.76
377.811	109.66
378.274	106.86
378.737	106.66
379.199	114.06
379.662	114.46
380.125	120.16
380.587	117.66
381.05	123.96
381.512	121.66
381.975	138.16
382.437	132.76
382.9	130.86
383.362	131.96
383.825	151.66
384.287	147.96
384.75	144.26
385.212	149.56
385.674	137.16
386.136	134.86
386.599	130.06
387.061	132.06
387.523	132.66
387.985	141.26
388.447	150.36
388.91	150.86
389.372	161.56
389.834	153.86
390.296	147.76
390.758	156.76
391.22	174.76
391.682	215.96
392.144	304.56
392.606	237.06
393.068	175.76
393.529	172.46
393.991	157.36
394.453	152.16
394.915	165.16
395.377	199.56
395.838	215.36
396.3	156.76
396.762	138.26
397.224	133.86
397.685	136.26
398.147	131.26
398.608	133.96
399.07	126.06
399.531	137.76
399.993	141.16
400.454	152.46
400.916	151.26
401.377	149.56
401.839	154.26
402.3	147.96
402.762	160.16
403.223	186.26
403.684	179.66
404.145	171.36
404.607	165.96
405.068	168.46
405.529	174.76
405.99	192.96
406.451	180.86
406.913	180.86
407.374	169.96
407.835	167.86
408.296	171.86
408.757	171.56
409.218	193.66
409.679	184.26
410.14	183.86
410.601	184.46
411.062	188.36
411.522	190.96
411.983	195.16
412.444	183.86
412.905	182.16
413.366	186.36
413.826	193.16
414.287	222.56
414.748	266.16
415.208	257.66
415.669	214.96
416.13	212.06
416.59	200.96
417.051	215.76
417.511	220.86
417.972	240.96
418.432	247.76
418.893	297.56
419.353	265.16
419.814	201.36
420.274	186.16
420.734	181.46
421.195	200.26
421.655	200.06
422.115	201.46
422.576	200.36
423.036	201.96
423.496	217.26
423.956	216.86
424.416	232.06
424.876	271.76
425.336	264.86
425.797	262.36
426.257	258.46
426.717	245.36
427.177	237.06
427.637	229.66
428.097	240.66
428.556	251.36
429.016	273.86
429.476	269.26
429.936	279.86
430.396	285.56
430.856	300.26
431.315	325.06
431.775	361.26
432.235	393.56
432.694	368.06
433.154	369.26
433.614	408.56
434.073	352.86
434.533	285.26
434.993	278.36
435.452	293.06
435.912	301.46
436.371	292.96
436.83	296.66
437.29	276.46
437.749	255.26
438.209	247.26
438.668	287.06
439.127	297.06
439.587	271.16
440.046	252.76
440.505	265.66
440.964	291.66
441.424	328.46
441.883	316.46
442.342	260.06
442.801	230.46
443.26	229.86
443.719	223.26
444.178	225.56
444.637	213.36
445.096	221.36
445.555	228.56
446.014	227.06
446.473	229.66
446.932	237.56
447.391	231.06
447.849	232.46
448.308	219.06
448.767	227.46
449.226	242.86
449.685	236.26
450.143	249.96
450.602	243.76
451.061	227.66
451.519	234.86
451.978	234.56
452.436	238.86
452.895	241.06
453.353	266.06
453.812	249.56
454.27	247.16
454.729	238.46
455.187	244.96
455.646	255.96
456.104	254.46
456.562	265.96
457.021	269.56
457.479	268.26
457.937	273.66
458.395	263.96
458.854	255.96
459.312	266.66
459.77	282.56
460.228	260.06
460.686	249.66
461.144	250.66
461.602	245.76
462.06	244.36
462.518	254.96
462.976	264.86
463.434	261.76
463.892	265.16
464.35	279.46
464.808	293.26
465.266	269.96
465.724	269.76
466.181	274.76
466.639	272.36
467.097	286.56
467.555	303.06
468.012	304.26
468.47	316.16
468.928	336.16
469.385	353.66
469.843	356.66
470.3	354.66
470.758	369.66
471.215	396.46
471.673	416.36
472.13	419.16
472.588	426.86
473.045	385.16
473.503	384.46
473.96	404.46
474.417	412.96
474.875	445.06
475.332	486.16
475.789	459.16
476.246	475.36
476.704	490.16
477.161	517.46
477.618	536.56
478.075	572.36
478.532	619.16
478.989	712.26
479.446	817.86
479.903	790.76
480.36	820.36
480.817	879.66
481.274	984.26
481.731	1096.76
482.188	1177.76
482.645	1317.56
483.102	1420.16
483.558	1567.76
484.015	1614.36
484.472	1588.16
484.929	1537.66
485.385	1492.26
485.842	1441.86
486.299	1385.26
486.755	1316.66
487.212	1116.06
487.668	941.76
488.125	859.26
488.582	779.76
489.038	753.26
489.494	722.56
489.951	690.16
490.407	674.56
490.864	649.76
491.32	649.86
491.776	642.46
492.233	648.56
492.689	623.96
493.145	619.06
493.602	605.06
494.058	617.46
494.514	628.36
494.97	650.76
495.426	657.56
495.882	630.36
496.338	618.26
496.794	629.26
497.251	627.26
497.707	642.06
498.163	644.26
498.618	643.76
499.074	648.86
499.53	679.66
499.986	679.16
500.442	659.06
500.898	640.56
501.354	629.16
501.809	647.36
502.265	652.46
502.721	673.46
503.177	683.16
503.632	668.26
504.088	682.46
504.543	716.56
504.999	716.16
505.455	660.56
505.91	630.06
506.366	630.46
506.821	633.76
507.277	630.96
507.732	624.26
508.187	620.56
508.643	633.56
509.098	638.06
509.553	655.26
510.009	662.66
510.464	673.06
510.919	687.16
511.375	704.36
511.83	711.96
512.285	727.06
512.74	767.56
513.195	786.76
513.65	777.86
514.105	768.56
514.56	776.16
515.015	797.16
515.47	818.46
515.925	794.76
516.38	790.56
516.835	800.26
517.29	783.86
517.745	779.46
518.2	771.06
518.655	758.56
519.109	750.66
519.564	753.16
520.019	741.46
520.474	731.16
520.928	725.86
521.383	725.56
521.838	710.76
522.292	708.96
522.747	710.46
523.201	710.66
523.656	702.46
524.11	701.36
524.565	695.36
525.019	694.66
525.474	718.06
525.928	702.66
526.382	697.76
526.837	697.06
527.291	705.86
527.745	702.66
528.2	709.86
528.654	696.86
529.108	696.56
529.562	695.16
530.016	697.66
530.47	694.26
530.925	706.16
531.379	709.86
531.833	700.66
532.287	718.06
532.741	702.66
533.195	702.06
533.649	719.86
534.103	730.96
534.556	715.56
535.01	717.96
535.464	708.76
535.918	723.86
536.372	727.96
536.826	724.16
537.279	710.06
537.733	713.76
538.187	719.36
538.64	715.86
539.094	727.16
539.548	739.76
540.001	722.96
540.455	730.96
540.908	741.66
541.362	745.36
541.815	751.96
542.269	764.76
542.722	767.66
543.175	772.16
543.629	770.96
544.082	788.26
544.536	791.46
544.989	783.06
545.442	788.16
545.895	785.46
546.349	800.56
546.802	783.46
547.255	799.36
547.708	819.56
548.161	824.16
548.614	832.56
549.067	827.26
549.52	825.46
549.973	810.06
550.426	809.26
550.879	805.16
551.332	806.76
551.785	805.06
552.238	816.76
552.691	819.36
553.144	842.06
553.596	857.56
554.049	868.26
554.502	905.16
554.955	908.16
555.407	924.96
555.86	902.86
556.313	875.06
556.765	883.06
557.218	881.66
557.67	888.66
558.123	875.46
558.576	876.86
559.028	887.56
559.48	887.86
559.933	884.96
560.385	848.96
560.838	813.56
561.29	783.86
561.742	792.26
562.195	771.46
562.647	775.16
563.099	780.36
563.551	773.26
564.004	793.46
564.456	786.26
564.908	773.66
565.36	757.86
565.812	749.66
566.264	739.16
566.716	735.06
567.168	728.76
567.62	736.06
568.072	714.76
568.524	704.16
568.976	696.96
569.428	686.56
569.88	683.26
570.332	691.46
570.784	695.56
571.235	707.86
571.687	712.36
572.139	709.86
572.59	717.66
573.042	720.86
573.494	714.16
573.945	715.06
574.397	690.26
574.849	691.56
575.3	696.16
575.752	685.46
576.203	688.66
576.655	688.56
577.106	679.16
577.557	671.26
578.009	674.96
578.46	669.86
578.912	678.36
579.363	675.86
579.814	671.36
580.265	669.86
580.717	671.26
581.168	675.46
581.619	677.86
582.07	690.06
582.521	684.06
582.972	670.06
583.423	687.56
583.875	695.86
584.326	708.36
584.777	763.76
585.227	842.46
585.678	936.06
586.129	1025.86
586.58	1100.86
587.031	1182.86
587.482	1337.46
587.933	1543.16
588.384	1337.96
588.834	989.26
589.285	809.86
589.736	788.86
590.186	777.96
590.637	769.26
591.088	758.86
591.538	741.26
591.989	731.66
592.439	724.46
592.89	731.96
593.34	710.36
593.791	715.96
594.241	711.66
594.692	725.66
595.142	721.76
595.593	704.66
596.043	713.26
596.493	715.36
596.943	721.96
597.394	728.96
597.844	719.76
598.294	728.66
598.744	763.56
599.195	786.06
599.645	822.36
600.095	865.96
600.545	924.46
600.995	971.86
601.445	1035.76
601.895	1102.66
602.345	1145.66
602.795	1125.86
603.245	1077.06
603.695	1008.96
604.145	964.26
604.594	924.06
605.044	871.46
605.494	803.06
605.944	760.96
606.393	747.56
606.843	736.46
607.293	738.26
607.743	733.46
608.192	756.86
608.642	760.46
609.091	773.36
609.541	771.06
609.99	775.46
610.44	778.26
610.889	731.86
611.339	714.76
611.788	692.26
612.238	717.06
612.687	728.86
613.136	734.56
613.586	744.36
614.035	740.96
614.484	759.16
614.933	784.16
615.383	755.46
615.832	744.76
616.281	733.46
616.73	697.16
617.179	671.36
617.628	666.36
618.077	646.16
618.526	628.46
618.975	629.56
619.424	619.86
619.873	625.16
620.322	629.26
620.771	609.76
621.22	610.76
621.669	595.56
622.118	601.06
622.567	579.56
623.015	582.86
623.464	584.16
623.913	563.26
624.361	550.86
624.81	545.56
625.259	562.76
625.707	562.76
626.156	569.26
626.604	579.46
627.053	569.26
627.501	570.16
627.95	569.66
628.398	582.06
628.847	569.76
629.295	586.16
629.744	578.16
630.192	586.26
630.64	573.16
631.089	569.06
631.537	595.26
631.985	596.86
632.433	615.86
632.881	623.56
633.33	681.36
633.778	652.16
634.226	576.46
634.674	580.56
635.122	585.56
635.57	615.56
636.018	639.96
636.466	587.26
636.914	567.56
637.362	583.56
637.81	581.26
638.258	584.96
638.705	586.36
639.153	616.66
639.601	630.06
640.049	656.06
640.497	684.66
640.944	702.96
641.392	654.86
641.84	636.16
642.287	593.66
642.735	574.46
643.182	580.06
643.63	582.86
644.078	589.76
644.525	603.86
644.973	601.86
645.42	618.76
645.867	640.86
646.315	662.76
646.762	676.26
647.21	699.06
647.657	722.86
648.104	770.96
648.551	794.56
648.999	848.56
649.446	932.86
649.893	1025.56
650.34	1185.96
650.787	1414.26
651.234	1767.26
651.682	2314.76
652.129	3196.46
652.576	4633.66
653.023	6811.46
653.47	9294.06
653.917	11492.26
654.363	13220.06
654.81	14515.26
655.257	13801.36
655.704	9062.16
656.151	5337.36
656.598	3449.06
657.044	2441.06
657.491	1875.86
657.938	1511.16
658.385	1258.06
658.831	1085.96
659.278	969.26
659.724	871.76
660.171	798.16
660.618	731.76
661.064	698.36
661.511	674.96
661.957	670.86
662.404	664.96
662.85	660.26
663.296	630.26
663.743	560.26
664.189	551.86
664.635	538.56
665.082	532.96
665.528	539.66
665.974	529.66
666.42	518.46
666.867	512.26
667.313	494.86
667.759	490.16
668.205	485.86
668.651	496.96
669.097	495.96
669.543	515.76
669.989	482.06
670.435	464.06
670.881	442.96
671.327	450.66
671.773	473.76
672.219	497.16
672.665	549.76
673.11	588.46
673.556	635.06
674.002	673.86
674.448	660.66
674.893	553.16
675.339	478.26
675.785	444.76
676.23	427.96
676.676	402.26
677.122	393.26
677.567	378.46
678.013	372.06
678.458	361.46
678.904	357.96
679.349	357.96
679.794	361.96
680.24	362.36
680.685	356.66
681.131	353.16
681.576	354.96
682.021	358.56
682.466	354.76
682.912	352.86
683.357	357.66
683.802	392.86
684.247	411.36
684.692	465.46
685.137	503.66
685.583	544.26
686.028	569.16
686.473	521.86
686.918	448.86
687.363	416.96
687.807	392.36
688.252	374.16
688.697	366.86
689.142	339.36
689.587	330.46
690.032	334.66
690.477	345.46
690.921	360.56
691.366	388.76
691.811	402.96
692.255	439.06
692.7	467.26
693.145	519.26
693.589	716.66
694.034	1159.86
694.478	1564.86
694.923	1736.56
695.367	2265.36
695.812	1206.56
696.256	508.66
696.701	375.16
697.145	345.56
697.59	340.86
698.034	333.86
698.478	329.56
698.922	331.96
699.367	327.96
699.811	341.36
700.255	361.66
700.699	393.86
701.143	440.96
701.588	483.96
702.032	520.96
702.476	529.76
702.92	497.06
703.364	497.76
703.808	652.86
704.252	1068.76
704.696	1492.06
705.14	1672.56
705.584	2130.76
706.027	1069.86
706.471	527.76
706.915	407.66
707.359	355.16
707.803	321.26
708.246	318.96
708.69	305.86
709.134	313.46
709.577	316.66
710.021	322.86
710.465	313.06
710.908	302.76
711.352	306.26
711.795	314.06
712.239	357.56
712.682	397.46
713.126	425.66
713.569	459.76
714.012	379.16
714.456	320.56
714.899	303.26
715.342	279.06
715.786	260.36
716.229	264.86
716.672	260.06
717.115	255.26
717.558	256.16
718.002	257.06
718.445	270.86
718.888	287.36
719.331	301.56
719.774	314.06
720.217	304.96
720.66	289.56
721.103	271.16
721.546	267.56
721.989	250.86
722.432	236.46
722.874	246.46
723.317	232.66
723.76	244.96
724.203	264.36
724.645	325.16
725.088	455.86
725.531	583.46
725.974	648.96
726.416	553.16
726.859	307.46
727.301	258.76
727.744	240.56
728.187	239.06
728.629	238.16
729.071	253.16
729.514	264.16
729.956	273.26
730.399	291.46
730.841	294.96
731.283	273.86
731.726	265.46
732.168	267.46
732.61	270.46
733.053	289.96
733.495	321.16
733.937	352.26
734.379	401.86
734.821	440.76
735.263	553.66
735.705	856.76
736.148	1638.86
736.59	2628.86
737.032	3039.96
737.474	2473.26
737.916	815.56
738.357	434.16
738.799	328.96
739.241	302.66
739.683	284.26
740.125	291.86
740.567	299.46
741.008	311.96
741.45	315.26
741.892	317.86
742.334	355.56
742.775	361.66
743.217	340.36
743.658	271.76
744.1	256.86
744.542	266.06
744.983	314.86
745.425	343.06
745.866	341.16
746.307	288.06
746.749	283.76
747.19	333.56
747.632	467.56
748.073	915.36
748.514	1930.46
748.956	2879.06
749.397	3617.56
749.838	3003.96
750.279	2938.36
750.72	1496.46
751.162	556.36
751.603	325.46
752.044	254.06
752.485	216.06
752.926	211.66
753.367	207.56
753.808	196.16
754.249	188.66
754.69	185.06
755.131	180.46
755.572	185.76
756.013	187.66
756.453	185.16
756.894	194.56
757.335	194.36
757.776	195.36
758.216	200.06
758.657	204.56
759.098	208.56
759.538	227.06
759.979	271.16
760.42	379.06
760.86	727.96
761.301	1910.16
761.741	4545.96
762.182	6368.96
762.622	4495.36
763.063	1314.96
763.503	543.76
763.943	350.06
764.384	351.96
764.824	416.26
765.264	452.66
765.705	321.56
766.145	220.86
766.585	186.76
767.025	185.96
767.465	193.06
767.906	253.66
768.346	338.86
768.786	358.36
769.226	272.66
769.666	331.16
770.106	652.06
770.546	1616.36
770.986	2663.66
771.426	2348.46
771.866	797.96
772.306	331.16
772.745	216.76
773.185	165.66
773.625	167.06
774.065	169.66
774.505	205.06
774.944	321.66
775.384	706.76
775.824	1249.86
776.263	1190.06
776.703	509.96
777.142	223.26
777.582	167.86
778.021	138.26
778.461	141.06
778.9	145.16
779.34	137.06
779.779	118.56
780.219	112.46
780.658	109.66
781.097	108.56
781.537	112.06
781.976	114.36
782.415	109.36
782.855	103.86
783.294	100.36
783.733	106.86
784.172	113.36
784.611	105.66
785.05	109.66
785.489	111.66
785.928	121.56
786.367	116.76
786.806	121.16
787.245	135.36
787.684	141.86
788.123	145.76
788.562	138.76
789.001	127.46
789.44	128.16
789.879	122.56
790.317	123.16
790.756	129.66
791.195	127.86
791.634	153.06
792.072	207.46
792.511	379.96
792.95	1049.36
793.388	2163.06
793.827	1912.96
794.265	682.76
794.704	284.56
795.142	184.16
795.581	154.36
796.019	139.06
796.458	126.66
796.896	121.76
797.334	129.86
797.773	155.16
798.211	226.56
798.649	456.66
799.087	1048.76
799.526	1619.16
799.964	2032.56
800.402	1993.06
800.84	755.66
801.278	309.96
801.716	188.16
802.154	147.56
802.592	144.06
803.03	137.16
803.468	137.96
803.906	140.46
804.344	153.06
804.782	142.06
805.22	135.76
805.658	131.96
806.096	159.46
806.533	157.56
806.971	179.96
807.409	225.86
807.847	318.26
808.284	687.56
808.722	1919.96
809.16	3292.56
809.597	3197.76
810.035	5487.16
810.472	5681.86
810.91	2073.86
811.347	795.06
811.785	409.76
812.222	257.26
812.66	192.16
813.097	166.66
813.535	137.56
813.972	130.86
814.409	114.96
814.846	112.86
815.284	107.26
815.721	101.86
816.158	103.86
816.595	127.56
817.032	184.66
817.47	192.46
817.907	171.96
818.344	154.06
818.781	121.06
819.218	103.66
819.655	126.86
820.092	186.66
820.529	213.66
820.966	181.16
821.403	130.56
821.839	113.36
822.276	98.76
822.713	121.36
823.15	135.96
823.587	125.76
824.023	161.26
824.46	311.46
824.897	919.36
825.333	1355.16
825.77	582.76
826.206	229.56
826.643	134.76
827.08	105.26
827.516	84.36
827.953	85.56
828.389	77.36
828.825	71.06
829.262	62.36
829.698	70.56
830.135	60.56
830.571	62.66
831.007	66.36
831.443	65.96
831.88	61.16
832.316	63.56
832.752	69.96
833.188	63.16
833.624	60.96
834.06	67.76
834.497	68.26
834.933	72.56
835.369	76.96
835.805	67.26
836.241	79.26
836.677	81.86
837.112	92.36
837.548	108.66
837.984	133.46
838.42	208.36
838.856	519.26
839.292	1546.36
839.727	2291.96
840.163	1075.86
840.599	955.16
841.034	2058.56
841.47	2095.76
841.906	768.86
842.341	342.06
842.777	238.86
843.212	324.26
843.648	310.36
844.083	154.56
844.519	100.46
844.954	71.76
845.39	57.36
845.825	63.56
846.261	65.96
846.696	56.46
847.131	58.86
847.566	51.56
848.002	50.76
848.437	56.36
848.872	61.66
849.307	63.16
849.742	88.76
850.177	185.16
850.613	571.86
851.048	875.46
851.483	381.36
851.918	161.86
852.353	86.76
852.788	66.26
853.223	60.66
853.657	54.66
854.092	49.56
854.527	48.26
854.962	38.16
855.397	44.76
855.832	52.06
856.266	43.06
856.701	45.36
857.136	43.26
857.57	40.36
858.005	51.06
858.44	61.76
858.874	38.56
859.309	56.66
859.743	46.86
860.178	46.06
860.612	42.36
861.047	53.26
861.481	64.86
861.915	73.86
862.35	48.36
862.784	32.16
863.218	40.06
863.653	31.06
864.087	46.56
864.521	53.46
864.955	75.66
865.39	161.06
865.824	179.66
866.258	117.56
866.692	170.16
867.126	171.86
867.56	104.46
867.994	51.96
868.428	41.16
868.862	50.76
869.296	54.26
869.73	58.16
870.164	51.06
870.598	47.46
871.031	39.86
871.465	29.86
871.899	34.26
872.333	25.76
872.766	29.46
873.2	20.86
873.634	37.16
874.067	22.56
874.501	20.26
874.935	33.26
875.368	32.26
875.802	31.76
876.235	23.96
876.669	25.46
877.102	20.26
877.535	29.06
877.969	29.36
878.402	23.76
878.836	20.96
879.269	23.26
879.702	22.66
880.135	19.16
880.569	22.86
881.002	27.46
881.435	23.96
881.868	16.36
882.301	25.96
882.734	12.86
883.167	26.56
883.601	22.46
884.034	15.46
884.467	19.86
884.899	13.06
885.332	16.26
885.765	15.86
886.198	13.56
886.631	19.86
887.064	21.16
887.497	21.76
887.929	26.46
888.362	22.86
888.795	13.36
889.228	17.76
889.66	20.46
890.093	21.66
890.526	19.16
890.958	20.66
891.391	23.26
891.823	22.36
892.256	18.06
892.688	13.96
893.121	11.36
893.553	19.36
893.985	25.76
894.418	14.16
894.85	13.56
895.282	19.06
895.715	10.46
896.147	15.86
896.579	14.56
897.011	12.96
897.444	20.96
897.876	13.36
898.308	17.36
898.74	11.76
899.172	13.26
899.604	20.36
900.036	24.46
900.468	11.46
900.9	12.56
901.332	20.96
901.764	18.06
902.196	22.96
902.628	20.36
903.06	21.56
903.491	28.16
903.923	25.46
904.355	19.86
904.787	24.76
905.218	20.66
905.65	21.26
906.082	12.76
906.513	15.36
906.945	20.96
907.376	11.76
907.808	20.86
908.239	19.06
908.671	20.26
909.102	24.66
909.534	29.46
909.965	52.16
910.397	93.66
910.828	316.16
911.259	466.56
911.691	224.96
912.122	107.56
912.553	59.06
912.984	35.86
913.415	27.36
913.847	23.76
914.278	19.06
914.709	19.56
915.14	9.56
915.571	20.56
916.002	11.66
916.433	18.66
916.864	21.56
917.295	17.86
917.726	24.56
918.157	14.96
918.587	23.86
919.018	20.86
919.449	18.76
919.88	21.76
920.311	30.16
920.741	44.16
921.172	166.66
921.603	155.36
922.033	78.36
922.464	46.76
922.895	25.36
923.325	20.26
923.756	21.46
924.186	17.46
924.617	22.86
925.047	41.36
925.478	48.46
925.908	45.06
926.338	25.36
926.769	16.96
927.199	23.16
927.629	9.06
928.06	15.26
928.49	16.06
928.92	10.56
929.35	4.56
929.78	12.06
930.21	2.66
930.641	5.96
931.071	11.56
931.501	0.16
931.931	10.06
932.361	5.76
932.791	2.16
933.221	5.66
933.651	7.56
934.08	18.86
934.51	32.26
934.94	3.26
935.37	5.36
935.8	8.66
936.229	6.46
936.659	10.86
937.089	0.06
937.519	11.26
937.948	27.36
938.378	20.96
938.807	2.36
939.237	6.16
939.666	11.56
940.096	-3.74
940.525	5.26
940.955	1.56
941.384	4.36
941.814	-7.24
942.243	2.46
942.672	5.76
943.102	3.26
943.531	-4.74
943.96	7.86
944.39	3.46
944.819	1.06
945.248	6.96
945.677	5.16
946.106	7.56
946.535	9.66
946.964	3.16
947.393	3.46
947.822	-2.64
948.251	-3.74
948.68	2.56
949.109	4.46
949.538	9.16
949.967	0.66
950.396	2.96
950.825	-0.04
951.254	-6.64
951.682	-4.94
952.111	4.46
952.54	5.16
952.969	-6.94
953.397	-2.24
953.826	-0.04
954.254	-3.94
954.683	-0.74
955.112	-4.94
955.54	-2.74
955.969	3.26
956.397	0.36
956.826	-3.74
957.254	5.96
957.682	4.66
958.111	-1.14
958.539	-3.64
958.967	-1.84
959.396	0.66
959.824	6.96
960.252	3.26
960.68	-9.54
961.109	-2.64
961.537	-5.84
961.965	-3.84
962.393	-1.74
962.821	-2.44
963.249	-0.04
963.677	7.86
964.105	6.66
964.533	42.06
964.961	41.26
965.389	18.86
965.817	5.36
966.245	4.26
966.672	-2.34
967.1	-5.74
967.528	-2.54
967.956	0.06
968.383	-1.54
968.811	-3.94
969.239	-2.54
969.666	-8.74
970.094	0.66
970.522	1.66
970.949	-3.14
971.377	-4.14
971.804	-2.14
972.232	-3.74
972.659	-3.34
973.087	-7.34
973.514	-5.94
973.941	-12.04
974.369	-0.14
974.796	0.86
975.223	-0.84
975.651	-1.94
976.078	-0.44
976.505	-3.44
976.932	5.26
977.359	14.66
977.786	15.76
978.214	7.26
978.641	-6.44
979.068	-1.94
979.495	-4.84
979.922	0.26
980.349	-6.64
980.776	2.76
981.202	0.36
981.629	4.76
982.056	-1.74
982.483	1.26
982.91	4.36
983.337	-2.94
983.763	4.56
984.19	-7.24
984.617	-7.74
985.043	-8.24
985.47	-2.34
985.897	-2.44
986.323	-9.94
986.75	0.66
987.176	-2.84
987.603	1.36
988.029	-1.44
988.456	-5.24
988.882	3.36
989.308	-9.34
989.735	-8.44
990.161	3.36
990.587	0.36
991.014	-4.24
991.44	3.76
991.866	2.36
992.292	-2.84
992.719	-2.34
993.145	-1.94
993.571	-9.14
993.997	-5.54
994.423	-0.54
994.849	-9.74
995.275	5.06
995.701	-2.54
996.127	-0.24
996.553	2.06
996.979	-4.34
997.405	-1.84
997.83	-3.84
998.256	-7.14
998.682	-6.84
999.108	-8.54
999.534	-5.14
999.959	-4.84
1000.385	-3.84
1000.811	1.56
1001.236	-4.04
1001.662	-3.64
1002.087	-8.14
1002.513	-4.74
1002.938	3.46
1003.364	-2.04
1003.789	-2.84
1004.215	-1.84
1004.64	0.56
1005.066	4.66
1005.491	-0.64
1005.916	-5.04
1006.342	-9.14
1006.767	-4.44
1007.192	7.46
1007.617	-6.64
1008.042	-6.14
1008.468	-5.04
1008.893	-5.14
1009.318	-7.14
1009.743	-4.14
1010.168	0.36
1010.593	2.16
1011.018	-6.74
1011.443	-2.94
1011.868	-5.14
1012.293	-1.14
1012.718	-9.74
1013.143	1.76
1013.567	0.46
1013.992	-3.94
1014.417	-9.94
1014.842	4.66
1015.267	-7.34
1015.691	-5.24
1016.116	4.86
1016.541	-3.14
1016.965	-2.54
1017.39	2.06
1017.814	-2.74
1018.239	-3.94
1018.663	-11.54
1019.088	-7.84
1019.512	-4.94
1019.937	-3.54
1020.361	-3.74
1020.785	-13.24
1021.21	-2.14
1021.634	-3.64
1022.058	-7.04
1022.483	5.26
1022.907	-4.54
1023.331	-5.34
1023.755	-4.24
1024.179	-1.74
1024.604	-4.94
1025.028	-1.24
1025.452	-9.14
1025.876	-4.04
1026.3	-2.94
1026.724	-12.94
1027.148	-6.44
1027.572	-10.54
1027.996	-2.94
1028.42	-4.14
1028.843	-2.64
1029.267	-9.34
1029.691	-4.74
1030.115	-7.04
1030.539	-11.74
1030.962	-7.54
1031.386	-11.64
1031.81	-1.74
1032.233	-1.44
1032.657	-0.04
1033.08	-3.44
1033.504	0.56
1033.927	1.66
1034.351	-4.64
1034.774	-6.84
1035.198	-6.24
1035.621	-7.84
1036.045	-4.04
1036.468	-1.24
1036.891	-12.44
1037.315	-3.74
1037.738	-10.44
1038.161	1.56
1038.584	-9.04
1039.008	-10.24
1039.431	-6.34
1039.854	-6.74
1040.277	-6.64
1040.7	-7.14
1041.123	1.36
1041.546	-10.44
1041.969	-5.14
1042.392	-5.34
1042.815	-4.24
1043.238	-3.04
1043.661	1.76
1044.084	-2.54
1044.507	-11.64
1044.93	-3.54
1045.352	-7.64
1045.775	-1.84
1046.198	-5.04
1046.621	-3.24
1047.043	-0.94
1047.466	6.76
1047.889	-2.54
1048.311	-9.44
1048.734	-2.14
1049.156	-0.24
1049.579	0.16
1050.001	1.96
1050.424	-2.64
1050.846	-2.64
1051.269	-5.54
1051.691	-11.34
1052.113	-4.34
1052.536	-5.44
1052.958	-4.44
1053.38	1.06
1053.802	-12.94
1054.225	-5.34
1054.647	-10.74
1055.069	-5.64
1055.491	-1.04
1055.913	-3.84
1056.335	-2.34
1056.757	-5.04
1057.179	-4.54
1057.601	-2.14
1058.023	-5.44
1058.445	-6.64
1058.867	1.06
1059.289	-2.84
1059.711	-9.74
1060.133	0.46
1060.555	-4.34
1060.976	-11.44
1061.398	-5.44
1061.82	-1.14
1062.241	-12.64
1062.663	-6.04
1063.085	-2.74
1063.506	-1.44
1063.928	-3.24
1064.35	0.76
1064.771	-9.74
1065.193	-9.94
1065.614	-7.84
1066.035	0.36
1066.457	-4.34
1066.878	0.56
1067.3	-2.14
1067.721	-6.04
1068.142	-11.14
1068.564	-0.54
1068.985	-4.04
1069.406	-4.94
1069.827	-4.14
1070.248	-0.94
1070.67	-10.14
1071.091	-10.54
1071.512	-1.14
1071.933	-7.54
1072.354	-6.44
1072.775	-4.04
1073.196	-5.54
1073.617	-9.34
1074.038	-6.34
1074.459	-4.44
1074.88	-7.54
1075.3	-5.54
1075.721	-5.74
1076.142	-6.04
1076.563	-7.64
1076.983	-8.54
1077.404	-7.84
1077.825	-7.74
1078.246	-3.44
1078.666	-15.24
1079.087	-8.54
1079.507	-7.74
1079.928	5.66
1080.348	-2.04
1080.769	-0.44
1081.189	-0.84
1081.61	-0.84
1082.03	-3.44
1082.451	-6.24
1082.871	-4.64
1083.291	-7.54
1083.711	-8.64
1084.132	-10.94
1084.552	-5.34
1084.972	-3.44
1085.392	-8.84
1085.813	-4.44
1086.233	-6.94
1086.653	-7.54
1087.073	-1.64
1087.493	-5.24
1087.913	-4.14
1088.333	-6.74
1088.753	-2.14
1089.173	-3.14
1089.593	-6.64
1090.013	3.86
1090.433	-5.24
1090.852	-5.94
1091.272	-0.64
1091.692	-6.64
1092.112	-4.34
1092.531	-7.14
1092.951	-9.14
1093.371	-7.94
1093.79	1.66
1094.21	-8.14
1094.63	-5.94
1095.049	-12.44
1095.469	-1.54
1095.888	1.56
1096.308	-1.74
1096.727	-0.64
1097.146	-6.04
1097.566	-4.04
1097.985	-9.24
1098.405	-2.74
1098.824	-4.14
1099.243	-3.54
1099.662	-15.44
1100.082	-3.84
1100.501	-0.04
1100.92	-8.74
1101.339	-9.34
1101.758	-4.04
