Data from 20171114-ORNL-Ar_H_NY_Subt18_08-09-18-774.txt Node
Date: Tue Nov 14 08:09:18 EST 2017
User: Ender
Spectrometer: HR+D1039
Trigger mode: 0
Integration Time (sec): 2.730000E-2
Scans to average: 10
Electric dark correction enabled: true
Nonlinearity correction enabled: false
Boxcar width: 0
XAxis mode: Wavelengths
Number of Pixels in Spectrum: 2048
>>>>>Begin Spectral Data<<<<<
187.836	-2.31
188.309	-2.31
188.782	-2.31
189.255	0.49
189.728	-3.31
190.201	3.79
190.674	2.59
191.147	5.49
191.619	-9.91
192.092	2.79
192.565	5.29
193.038	-1.81
193.511	1.49
193.984	-1.11
194.456	0.99
194.929	-1.31
195.402	0.99
195.874	-4.21
196.347	1.79
196.82	-1.91
197.292	2.49
197.765	-2.11
198.237	-4.11
198.71	-3.11
199.182	-5.11
199.655	1.99
200.127	3.79
200.6	-5.71
201.072	-2.41
201.544	-2.91
202.017	-2.91
202.489	3.19
202.961	0.09
203.433	-4.01
203.906	-7.01
204.378	-1.21
204.85	-3.11
205.322	-10.51
205.794	-0.61
206.266	-10.51
206.739	-8.81
207.211	2.99
207.683	-1.71
208.155	-6.31
208.627	-9.51
209.099	-7.81
209.57	-10.61
210.042	-3.71
210.514	-2.91
210.986	-1.71
211.458	-8.51
211.93	-4.61
212.402	1.19
212.873	-5.91
213.345	-11.21
213.817	-11.91
214.288	-3.91
214.76	-6.81
215.232	-3.41
215.703	-5.71
216.175	-0.81
216.646	-5.31
217.118	-5.11
217.589	-4.31
218.061	-1.61
218.532	-2.61
219.004	1.99
219.475	-4.11
219.946	-1.41
220.418	-9.21
220.889	-0.81
221.36	-2.51
221.832	-5.91
222.303	-4.51
222.774	-1.41
223.245	-10.21
223.717	-6.51
224.188	-0.21
224.659	-5.91
225.13	-9.81
225.601	-7.31
226.072	-2.91
226.543	-4.51
227.014	2.29
227.485	-4.21
227.956	-7.31
228.427	-7.91
228.898	-4.41
229.369	4.49
229.839	0.09
230.31	-10.51
230.781	-4.71
231.252	-9.81
231.722	-9.91
232.193	-2.71
232.664	-7.21
233.135	-7.01
233.605	-4.61
234.076	-9.71
234.546	0.49
235.017	0.29
235.487	-1.61
235.958	-3.61
236.428	-8.81
236.899	1.39
237.369	3.89
237.84	-8.71
238.31	1.29
238.78	-4.41
239.251	-5.81
239.721	-4.01
240.191	-1.31
240.662	-10.01
241.132	-8.21
241.602	-7.91
242.072	-4.51
242.542	3.09
243.013	-6.21
243.483	-1.71
243.953	3.59
244.423	-1.91
244.893	-6.41
245.363	-5.61
245.833	-4.01
246.303	-4.81
246.773	2.69
247.243	-0.91
247.712	-2.81
248.182	0.49
248.652	-1.51
249.122	-7.51
249.592	2.19
250.061	5.09
250.531	8.59
251.001	1.59
251.471	-1.51
251.94	10.79
252.41	-1.61
252.879	-12.81
253.349	0.19
253.818	3.09
254.288	4.09
254.757	-1.11
255.227	-4.81
255.696	-3.71
256.166	-0.91
256.635	3.39
257.105	2.89
257.574	-1.61
258.043	2.69
258.513	-0.01
258.982	-1.71
259.451	-3.01
259.92	2.79
260.389	-4.81
260.859	3.59
261.328	-1.71
261.797	4.79
262.266	2.39
262.735	0.69
263.204	-1.31
263.673	-2.51
264.142	3.39
264.611	-4.41
265.08	-4.81
265.549	-4.51
266.018	-2.91
266.487	-13.51
266.955	-9.71
267.424	-4.01
267.893	7.19
268.362	-0.01
268.83	-6.41
269.299	1.89
269.768	2.59
270.236	3.69
270.705	-3.91
271.174	5.39
271.642	0.89
272.111	-2.41
272.579	4.59
273.048	-0.21
273.516	2.39
273.985	-3.11
274.453	0.69
274.922	6.29
275.39	3.49
275.858	-0.41
276.327	7.09
276.795	7.19
277.263	0.89
277.731	10.89
278.2	0.69
278.668	0.29
279.136	1.69
279.604	-2.61
280.072	2.99
280.54	8.79
281.008	-0.21
281.477	6.09
281.945	5.89
282.413	4.69
282.881	10.49
283.348	6.39
283.816	9.59
284.284	-0.11
284.752	13.59
285.22	4.79
285.688	4.29
286.156	4.89
286.623	12.69
287.091	6.99
287.559	9.59
288.026	11.59
288.494	7.79
288.962	-4.21
289.429	2.19
289.897	11.09
290.364	5.69
290.832	7.29
291.3	10.09
291.767	11.89
292.234	7.69
292.702	5.39
293.169	11.29
293.637	15.59
294.104	16.39
294.571	0.39
295.039	1.89
295.506	8.79
295.973	11.39
296.44	9.09
296.908	8.29
297.375	6.29
297.842	6.69
298.309	11.79
298.776	6.19
299.243	11.29
299.71	7.29
300.177	10.69
300.644	16.89
301.111	12.29
301.578	13.59
302.045	4.89
302.512	13.29
302.979	16.39
303.446	7.39
303.913	7.59
304.379	8.59
304.846	14.09
305.313	8.29
305.78	14.19
306.246	18.89
306.713	15.99
307.18	14.99
307.646	13.59
308.113	17.99
308.579	12.09
309.046	18.79
309.512	16.49
309.979	15.49
310.445	15.99
310.912	21.29
311.378	18.99
311.845	17.79
312.311	24.99
312.777	19.69
313.244	23.69
313.71	32.09
314.176	18.69
314.642	11.69
315.109	18.49
315.575	23.89
316.041	26.39
316.507	23.19
316.973	23.59
317.439	20.69
317.905	22.09
318.371	23.79
318.837	25.69
319.303	23.89
319.769	18.59
320.235	24.19
320.701	23.79
321.167	27.89
321.633	24.49
322.099	25.99
322.564	30.59
323.03	27.69
323.496	26.09
323.962	24.09
324.427	29.29
324.893	33.69
325.359	22.29
325.824	22.69
326.29	24.49
326.755	22.79
327.221	24.79
327.686	26.89
328.152	30.59
328.617	24.89
329.083	33.59
329.548	34.59
330.014	38.49
330.479	22.59
330.944	32.49
331.41	18.89
331.875	31.89
332.34	29.49
332.805	31.59
333.271	34.69
333.736	23.49
334.201	36.09
334.666	29.29
335.131	40.69
335.596	40.29
336.061	36.39
336.526	32.29
336.991	32.59
337.456	45.49
337.921	36.69
338.386	34.19
338.851	27.39
339.316	32.29
339.781	28.89
340.246	38.19
340.711	37.19
341.175	42.39
341.64	36.99
342.105	33.39
342.569	42.09
343.034	40.89
343.499	40.59
343.963	45.29
344.428	47.29
344.893	48.39
345.357	48.79
345.822	49.19
346.286	45.99
346.751	51.89
347.215	57.99
347.679	48.09
348.144	70.59
348.608	57.99
349.073	51.59
349.537	57.09
350.001	57.39
350.465	66.29
350.93	59.19
351.394	63.19
351.858	56.89
352.322	69.19
352.786	58.69
353.25	76.29
353.715	84.19
354.179	78.69
354.643	89.39
355.107	85.59
355.571	73.39
356.035	70.29
356.498	82.49
356.962	83.49
357.426	92.09
357.89	88.49
358.354	71.29
358.818	64.49
359.281	59.49
359.745	56.29
360.209	59.29
360.673	58.79
361.136	62.79
361.6	65.29
362.064	61.29
362.527	59.79
362.991	79.89
363.454	61.19
363.918	64.69
364.381	58.89
364.845	68.79
365.308	71.09
365.772	67.09
366.235	64.59
366.698	61.89
367.162	67.49
367.625	70.89
368.088	74.29
368.552	72.19
369.015	74.39
369.478	73.59
369.941	83.09
370.404	72.89
370.867	80.79
371.331	84.39
371.794	92.19
372.257	77.39
372.72	85.09
373.183	79.99
373.646	76.69
374.109	78.79
374.572	83.69
375.035	90.19
375.497	85.19
375.96	93.09
376.423	85.59
376.886	97.09
377.349	98.79
377.811	80.19
378.274	80.59
378.737	81.69
379.199	90.99
379.662	94.89
380.125	100.19
380.587	91.19
381.05	92.19
381.512	99.29
381.975	105.59
382.437	101.99
382.9	94.89
383.362	105.89
383.825	111.29
384.287	102.19
384.75	101.89
385.212	106.29
385.674	118.69
386.136	111.99
386.599	106.99
387.061	103.19
387.523	103.09
387.985	112.49
388.447	119.39
388.91	109.19
389.372	114.59
389.834	110.09
390.296	107.39
390.758	108.99
391.22	124.09
391.682	127.19
392.144	134.09
392.606	125.29
393.068	127.79
393.529	133.59
393.991	124.89
394.453	115.29
394.915	117.49
395.377	115.39
395.838	116.89
396.3	120.39
396.762	124.69
397.224	120.59
397.685	122.89
398.147	125.19
398.608	123.49
399.07	117.09
399.531	122.09
399.993	128.19
400.454	137.29
400.916	138.89
401.377	132.09
401.839	136.99
402.3	136.49
402.762	151.79
403.223	151.09
403.684	148.09
404.145	140.99
404.607	151.49
405.068	142.49
405.529	149.99
405.99	168.69
406.451	153.79
406.913	160.59
407.374	152.59
407.835	145.59
408.296	147.59
408.757	163.69
409.218	169.89
409.679	159.19
410.14	153.99
410.601	163.99
411.062	160.49
411.522	162.09
411.983	165.09
412.444	165.99
412.905	165.99
413.366	167.49
413.826	176.99
414.287	209.79
414.748	249.29
415.208	230.39
415.669	200.99
416.13	203.89
416.59	188.59
417.051	209.59
417.511	204.89
417.972	223.49
418.432	232.49
418.893	278.99
419.353	233.69
419.814	183.09
420.274	178.79
420.734	169.89
421.195	178.99
421.655	182.79
422.115	185.69
422.576	183.59
423.036	190.49
423.496	200.39
423.956	203.29
424.416	216.19
424.876	246.19
425.336	248.09
425.797	241.29
426.257	242.89
426.717	226.59
427.177	227.99
427.637	209.59
428.097	222.69
428.556	236.89
429.016	247.59
429.476	242.89
429.936	252.89
430.396	255.69
430.856	264.99
431.315	287.99
431.775	318.39
432.235	342.19
432.694	321.89
433.154	336.59
433.614	351.19
434.073	302.69
434.533	259.99
434.993	245.59
435.452	255.89
435.912	266.39
436.371	267.29
436.83	258.59
437.29	250.59
437.749	231.09
438.209	234.39
438.668	249.79
439.127	262.29
439.587	254.09
440.046	228.49
440.505	241.09
440.964	257.89
441.424	287.79
441.883	290.99
442.342	242.19
442.801	218.19
443.26	217.49
443.719	213.09
444.178	211.39
444.637	199.19
445.096	212.89
445.555	213.29
446.014	224.89
446.473	223.69
446.932	228.19
447.391	217.09
447.849	218.49
448.308	217.49
448.767	212.29
449.226	229.59
449.685	226.59
450.143	244.79
450.602	227.89
451.061	217.49
451.519	223.59
451.978	221.59
452.436	221.69
452.895	229.39
453.353	233.89
453.812	232.59
454.27	230.49
454.729	238.49
455.187	237.79
455.646	246.49
456.104	240.69
456.562	252.89
457.021	265.39
457.479	254.49
457.937	263.39
458.395	253.59
458.854	246.49
459.312	254.89
459.77	265.99
460.228	255.79
460.686	246.09
461.144	248.69
461.602	238.39
462.06	239.69
462.518	255.39
462.976	249.59
463.434	258.99
463.892	257.69
464.35	268.79
464.808	281.89
465.266	262.69
465.724	269.19
466.181	263.89
466.639	266.49
467.097	292.69
467.555	298.39
468.012	292.89
468.47	299.19
468.928	309.69
469.385	325.99
469.843	342.09
470.3	343.29
470.758	349.09
471.215	373.99
471.673	389.89
472.13	393.09
472.588	397.39
473.045	365.59
473.503	380.19
473.96	388.89
474.417	396.39
474.875	424.09
475.332	464.59
475.789	450.99
476.246	458.19
476.704	472.99
477.161	490.19
477.618	505.99
478.075	542.99
478.532	596.49
478.989	650.89
479.446	764.49
479.903	727.99
480.36	760.29
480.817	796.99
481.274	890.49
481.731	966.79
482.188	1056.99
482.645	1172.49
483.102	1245.09
483.558	1354.79
484.015	1394.39
484.472	1382.89
484.929	1324.89
485.385	1298.29
485.842	1258.29
486.299	1205.09
486.755	1178.19
487.212	1011.29
487.668	867.39
488.125	806.99
488.582	736.29
489.038	704.89
489.494	679.69
489.951	652.49
490.407	646.29
490.864	626.19
491.32	618.29
491.776	623.79
492.233	629.89
492.689	602.39
493.145	580.79
493.602	586.39
494.058	596.19
494.514	589.09
494.97	629.89
495.426	627.59
495.882	607.89
496.338	600.19
496.794	618.39
497.251	598.19
497.707	621.49
498.163	609.79
498.618	622.99
499.074	626.39
499.53	648.49
499.986	649.19
500.442	631.79
500.898	608.49
501.354	597.39
501.809	615.69
502.265	615.09
502.721	625.49
503.177	622.99
503.632	630.69
504.088	634.69
504.543	647.09
504.999	682.89
505.455	637.19
505.91	622.59
506.366	635.69
506.821	624.09
507.277	628.59
507.732	620.89
508.187	623.59
508.643	633.69
509.098	636.89
509.553	665.29
510.009	669.79
510.464	669.19
510.919	688.59
511.375	688.69
511.83	706.09
512.285	706.89
512.74	748.69
513.195	775.89
513.65	764.89
514.105	746.79
514.56	752.69
515.015	773.29
515.47	788.79
515.925	780.59
516.38	776.19
516.835	775.79
517.29	769.19
517.745	770.39
518.2	756.09
518.655	744.29
519.109	736.99
519.564	737.59
520.019	736.89
520.474	714.29
520.928	721.49
521.383	713.49
521.838	705.89
522.292	702.69
522.747	713.29
523.201	701.59
523.656	688.19
524.11	690.49
524.565	689.59
525.019	682.09
525.474	682.89
525.928	692.69
526.382	693.79
526.837	691.39
527.291	702.79
527.745	691.79
528.2	693.59
528.654	700.19
529.108	689.59
529.562	681.29
530.016	687.29
530.47	682.39
530.925	681.69
531.379	683.79
531.833	690.69
532.287	699.89
532.741	687.99
533.195	706.99
533.649	712.09
534.103	711.29
534.556	690.89
535.01	705.89
535.464	704.39
535.918	707.79
536.372	716.79
536.826	700.49
537.279	701.79
537.733	713.59
538.187	721.89
538.64	709.69
539.094	731.29
539.548	722.79
540.001	714.49
540.455	717.39
540.908	733.89
541.362	736.29
541.815	748.79
542.269	756.09
542.722	759.59
543.175	762.49
543.629	769.89
544.082	790.29
544.536	788.09
544.989	787.89
545.442	791.29
545.895	792.19
546.349	799.99
546.802	799.39
547.255	803.39
547.708	814.39
548.161	812.29
548.614	818.79
549.067	832.29
549.52	822.69
549.973	811.19
550.426	809.49
550.879	800.19
551.332	799.79
551.785	815.69
552.238	811.49
552.691	824.39
553.144	835.09
553.596	850.29
554.049	869.89
554.502	894.59
554.955	911.09
555.407	914.59
555.86	903.29
556.313	891.99
556.765	890.19
557.218	876.09
557.67	884.89
558.123	876.69
558.576	873.59
559.028	885.29
559.48	893.59
559.933	876.59
560.385	851.59
560.838	822.69
561.29	793.79
561.742	789.89
562.195	774.69
562.647	778.19
563.099	782.69
563.551	785.29
564.004	786.09
564.456	771.79
564.908	765.89
565.36	747.59
565.812	737.99
566.264	721.99
566.716	730.19
567.168	715.49
567.62	711.29
568.072	708.89
568.524	698.69
568.976	701.49
569.428	682.99
569.88	686.39
570.332	690.99
570.784	689.69
571.235	701.19
571.687	702.29
572.139	713.59
572.59	715.29
573.042	717.39
573.494	728.19
573.945	714.99
574.397	698.59
574.849	688.39
575.3	692.49
575.752	687.89
576.203	686.79
576.655	694.79
577.106	680.79
577.557	671.49
578.009	679.99
578.46	674.29
578.912	665.89
579.363	678.19
579.814	683.79
580.265	663.29
580.717	665.39
581.168	678.99
581.619	684.49
582.07	689.29
582.521	687.99
582.972	681.79
583.423	687.79
583.875	679.49
584.326	692.59
584.777	704.69
585.227	728.29
585.678	725.79
586.129	747.69
586.58	767.49
587.031	786.99
587.482	818.79
587.933	838.39
588.384	823.39
588.834	782.79
589.285	783.69
589.736	783.89
590.186	783.19
590.637	781.39
591.088	752.59
591.538	745.69
591.989	749.69
592.439	730.09
592.89	729.99
593.34	711.19
593.791	712.89
594.241	717.29
594.692	714.09
595.142	705.19
595.593	705.49
596.043	710.79
596.493	718.19
596.943	720.69
597.394	727.99
597.844	733.89
598.294	749.59
598.744	771.19
599.195	785.59
599.645	829.09
600.095	876.69
600.545	936.69
600.995	984.29
601.445	1042.29
601.895	1093.99
602.345	1141.79
602.795	1139.29
603.245	1103.59
603.695	1035.39
604.145	975.99
604.594	920.19
605.044	891.89
605.494	812.89
605.944	772.19
606.393	750.09
606.843	740.69
607.293	735.09
607.743	737.29
608.192	747.59
608.642	777.19
609.091	761.19
609.541	765.19
609.99	767.29
610.44	770.09
610.889	722.79
611.339	711.69
611.788	694.09
612.238	700.99
612.687	716.49
613.136	698.79
613.586	710.59
614.035	710.19
614.484	719.09
614.933	721.39
615.383	714.49
615.832	720.89
616.281	714.39
616.73	686.49
617.179	660.49
617.628	652.89
618.077	634.79
618.526	631.79
618.975	626.69
619.424	614.79
619.873	627.09
620.322	622.79
620.771	607.39
621.22	621.99
621.669	605.19
622.118	596.29
622.567	585.99
623.015	577.39
623.464	582.79
623.913	563.29
624.361	558.09
624.81	564.19
625.259	567.89
625.707	573.09
626.156	564.19
626.604	578.39
627.053	575.59
627.501	570.19
627.95	579.89
628.398	587.69
628.847	587.99
629.295	576.59
629.744	578.39
630.192	565.59
630.64	567.79
631.089	559.29
631.537	543.59
631.985	540.59
632.433	545.39
632.881	536.79
633.33	534.29
633.778	531.49
634.226	531.89
634.674	548.19
635.122	544.39
635.57	562.49
636.018	574.19
636.466	568.49
636.914	566.29
637.362	584.99
637.81	587.29
638.258	589.49
638.705	598.29
639.153	620.19
639.601	627.39
640.049	660.59
640.497	692.09
640.944	715.79
641.392	658.39
641.84	617.49
642.287	598.49
642.735	575.79
643.182	574.49
643.63	577.19
644.078	572.79
644.525	583.69
644.973	596.39
645.42	598.79
645.867	615.99
646.315	648.49
646.762	657.99
647.21	695.49
647.657	711.69
648.104	746.79
648.551	762.59
648.999	820.49
649.446	890.19
649.893	978.59
650.34	1122.29
650.787	1336.99
651.234	1643.79
651.682	2121.09
652.129	2911.29
652.576	4129.79
653.023	5994.69
653.47	8113.09
653.917	10005.59
654.363	11385.59
654.81	12490.39
655.257	11861.79
655.704	7875.29
656.151	4725.29
656.598	3110.19
657.044	2249.09
657.491	1723.89
657.938	1403.29
658.385	1182.69
658.831	1041.39
659.278	929.39
659.724	831.19
660.171	769.29
660.618	711.49
661.064	678.29
661.511	673.19
661.957	646.79
662.404	638.89
662.85	649.59
663.296	624.69
663.743	560.89
664.189	542.19
664.635	538.39
665.082	536.29
665.528	534.49
665.974	524.19
666.42	513.29
666.867	510.09
667.313	495.29
667.759	475.89
668.205	454.59
668.651	458.99
669.097	463.59
669.543	454.29
669.989	460.59
670.435	457.99
670.881	455.69
671.327	461.99
671.773	485.59
672.219	518.19
672.665	574.59
673.11	609.39
673.556	652.29
674.002	690.29
674.448	667.59
674.893	572.09
675.339	494.19
675.785	455.19
676.23	427.59
676.676	408.19
677.122	394.19
677.567	388.59
678.013	380.49
678.458	374.19
678.904	372.99
679.349	359.59
679.794	369.29
680.24	366.89
680.685	371.09
681.131	361.09
681.576	356.09
682.021	374.19
682.466	363.09
682.912	358.39
683.357	365.49
683.802	398.29
684.247	437.39
684.692	476.39
685.137	517.99
685.583	559.39
686.028	589.79
686.473	538.59
686.918	469.29
687.363	439.39
687.807	402.89
688.252	380.59
688.697	364.69
689.142	347.99
689.587	344.59
690.032	334.99
690.477	355.39
690.921	369.49
691.366	397.79
691.811	415.19
692.255	450.39
692.7	479.59
693.145	530.99
693.589	750.69
694.034	1211.39
694.478	1637.59
694.923	1810.29
695.367	2334.69
695.812	1264.59
696.256	520.49
696.701	381.99
697.145	345.79
697.59	340.49
698.034	335.09
698.478	345.69
698.922	329.79
699.367	331.49
699.811	356.19
700.255	364.89
700.699	396.19
701.143	439.09
701.588	493.29
702.032	529.29
702.476	530.69
702.92	518.79
703.364	523.29
703.808	701.29
704.252	1130.99
704.696	1545.79
705.14	1739.29
705.584	2197.79
706.027	1116.69
706.471	547.89
706.915	411.89
707.359	368.29
707.803	334.19
708.246	322.09
708.69	326.89
709.134	330.79
709.577	328.49
710.021	327.09
710.465	319.59
710.908	316.89
711.352	315.69
711.795	325.49
712.239	364.09
712.682	403.69
713.126	426.49
713.569	471.29
714.012	370.09
714.456	311.89
714.899	303.69
715.342	282.79
715.786	272.69
716.229	265.99
716.672	272.29
717.115	257.89
717.558	259.99
718.002	265.09
718.445	269.89
718.888	294.89
719.331	302.79
719.774	318.99
720.217	319.59
720.66	294.49
721.103	276.69
721.546	265.89
721.989	257.59
722.432	243.29
722.874	243.29
723.317	235.79
723.76	252.89
724.203	271.69
724.645	335.99
725.088	478.09
725.531	598.89
725.974	670.69
726.416	568.59
726.859	325.99
727.301	256.89
727.744	242.19
728.187	241.49
728.629	249.09
729.071	247.49
729.514	267.79
729.956	278.29
730.399	293.79
730.841	297.69
731.283	288.99
731.726	277.99
732.168	272.69
732.61	284.09
733.053	298.69
733.495	335.89
733.937	378.49
734.379	413.89
734.821	471.99
735.263	589.29
735.705	933.09
736.148	1736.09
736.59	2753.19
737.032	3163.39
737.474	2583.29
737.916	858.09
738.357	455.19
738.799	347.79
739.241	309.69
739.683	301.79
740.125	311.79
740.567	316.79
741.008	326.39
741.45	330.09
741.892	334.59
742.334	366.99
742.775	379.79
743.217	359.69
743.658	288.69
744.1	266.79
744.542	278.69
744.983	330.19
745.425	365.39
745.866	360.69
746.307	296.29
746.749	295.49
747.19	348.99
747.632	504.69
748.073	992.89
748.514	2045.89
748.956	3011.19
749.397	3792.49
749.838	3133.09
750.279	3073.29
750.72	1570.09
751.162	568.19
751.603	341.59
752.044	262.29
752.485	232.89
752.926	214.99
753.367	216.99
753.808	204.89
754.249	198.99
754.69	196.59
755.131	190.39
755.572	192.79
756.013	184.79
756.453	192.59
756.894	200.09
757.335	204.59
757.776	203.99
758.216	202.59
758.657	212.09
759.098	216.29
759.538	241.79
759.979	284.49
760.42	406.99
760.86	782.59
761.301	2073.79
761.741	4844.79
762.182	6639.59
762.622	4708.99
763.063	1389.29
763.503	571.89
763.943	343.69
764.384	287.49
764.824	259.99
765.264	237.39
765.705	218.49
766.145	195.19
766.585	179.89
767.025	173.99
767.465	174.39
767.906	190.59
768.346	201.69
768.786	212.79
769.226	232.19
769.666	334.29
770.106	690.59
770.546	1726.19
770.986	2765.59
771.426	2420.19
771.866	839.89
772.306	344.09
772.745	212.59
773.185	174.99
773.625	163.09
774.065	153.09
774.505	168.19
774.944	211.39
775.384	387.69
775.824	595.59
776.263	568.99
776.703	279.49
777.142	170.79
777.582	141.79
778.021	131.09
778.461	134.19
778.9	135.99
779.34	127.19
779.779	117.69
780.219	107.79
780.658	114.39
781.097	121.29
781.537	111.59
781.976	111.59
782.415	109.89
782.855	112.69
783.294	107.79
783.733	105.79
784.172	114.89
784.611	105.99
785.05	112.69
785.489	117.69
785.928	123.39
786.367	125.99
786.806	125.99
787.245	134.29
787.684	138.79
788.123	149.89
788.562	136.69
789.001	139.89
789.44	132.89
789.879	119.59
790.317	116.69
790.756	136.39
791.195	137.09
791.634	148.79
792.072	222.79
792.511	404.79
792.95	1120.49
793.388	2248.39
793.827	1956.49
794.265	711.19
794.704	299.49
795.142	190.39
795.581	161.59
796.019	146.59
796.458	131.29
796.896	124.39
797.334	139.79
797.773	164.39
798.211	234.39
798.649	488.69
799.087	1109.19
799.526	1720.89
799.964	2147.29
800.402	2070.29
800.84	795.09
801.278	327.39
801.716	196.39
802.154	162.99
802.592	159.39
803.03	146.49
803.468	144.49
803.906	153.89
804.344	157.59
804.782	149.89
805.22	137.79
805.658	129.09
806.096	155.79
806.533	167.89
806.971	188.89
807.409	235.69
807.847	347.69
808.284	749.79
808.722	2062.49
809.16	3471.89
809.597	3451.59
810.035	5846.79
810.472	5925.19
810.91	2209.69
811.347	858.49
811.785	432.09
812.222	265.99
812.66	209.49
813.097	170.59
813.535	147.39
813.972	133.39
814.409	127.69
814.846	113.09
815.284	114.69
815.721	110.39
816.158	111.09
816.595	117.19
817.032	159.59
817.47	179.89
817.907	128.49
818.344	108.69
818.781	102.99
819.218	99.39
819.655	134.19
820.092	202.59
820.529	220.49
820.966	171.29
821.403	134.29
821.839	103.39
822.276	105.19
822.713	132.29
823.15	145.59
823.587	125.29
824.023	163.79
824.46	341.59
824.897	985.99
825.333	1400.09
825.77	597.89
826.206	243.89
826.643	146.09
827.08	110.09
827.516	94.09
827.953	87.69
828.389	83.49
828.825	70.79
829.262	74.19
829.698	68.29
830.135	68.69
830.571	65.29
831.007	67.09
831.443	68.09
831.88	61.69
832.316	63.29
832.752	63.39
833.188	65.59
833.624	67.39
834.06	67.39
834.497	70.49
834.933	77.79
835.369	79.99
835.805	75.09
836.241	77.59
836.677	83.09
837.112	99.59
837.548	109.99
837.984	142.69
838.42	223.09
838.856	564.39
839.292	1657.19
839.727	2396.79
840.163	1136.49
840.599	1033.29
841.034	2175.69
841.47	2179.89
841.906	811.59
842.341	351.09
842.777	209.99
843.212	214.29
843.648	184.59
844.083	116.79
844.519	82.69
844.954	73.69
845.39	58.19
845.825	58.79
846.261	59.69
846.696	60.19
847.131	55.09
847.566	63.49
848.002	58.39
848.437	51.59
848.872	64.79
849.307	61.69
849.742	84.99
850.177	202.39
850.613	606.39
851.048	911.49
851.483	394.89
851.918	165.79
852.353	82.59
852.788	55.89
853.223	49.69
853.657	52.69
854.092	50.19
854.527	42.29
854.962	48.89
855.397	47.19
855.832	54.29
856.266	43.29
856.701	39.59
857.136	36.79
857.57	44.69
858.005	51.59
858.44	60.99
858.874	42.99
859.309	54.59
859.743	41.09
860.178	54.39
860.612	46.39
861.047	48.69
861.481	70.79
861.915	72.89
862.35	53.39
862.784	32.89
863.218	41.59
863.653	32.59
864.087	44.89
864.521	58.59
864.955	73.39
865.39	166.59
865.824	181.29
866.258	127.99
866.692	179.79
867.126	187.99
867.56	111.69
867.994	57.79
868.428	42.09
868.862	44.99
869.296	56.39
869.73	59.99
870.164	53.59
870.598	47.89
871.031	40.49
871.465	39.99
871.899	30.09
872.333	30.49
872.766	27.99
873.2	24.89
873.634	28.99
874.067	25.19
874.501	22.59
874.935	32.89
875.368	37.09
875.802	27.89
876.235	27.99
876.669	26.89
877.102	24.49
877.535	28.29
877.969	30.99
878.402	28.69
878.836	17.19
879.269	22.39
879.702	29.59
880.135	21.09
880.569	19.89
881.002	23.49
881.435	21.09
881.868	21.29
882.301	26.69
882.734	17.89
883.167	23.29
883.601	21.09
884.034	20.29
884.467	14.99
884.899	23.59
885.332	21.19
885.765	6.69
886.198	21.99
886.631	19.79
887.064	25.79
887.497	24.19
887.929	28.89
888.362	15.29
888.795	14.99
889.228	18.99
889.66	19.69
890.093	13.39
890.526	14.19
890.958	16.79
891.391	14.89
891.823	19.39
892.256	15.59
892.688	11.39
893.121	19.09
893.553	11.69
893.985	25.69
894.418	19.59
894.85	14.89
895.282	19.79
895.715	17.79
896.147	17.29
896.579	21.59
897.011	18.69
897.444	17.79
897.876	14.79
898.308	14.89
898.74	15.09
899.172	15.69
899.604	25.29
900.036	16.39
900.468	16.59
900.9	13.49
901.332	17.89
901.764	10.99
902.196	20.49
902.628	17.79
903.06	14.89
903.491	33.69
903.923	23.89
904.355	20.89
904.787	22.89
905.218	23.79
905.65	22.89
906.082	11.09
906.513	8.19
906.945	9.99
907.376	15.19
907.808	21.79
908.239	20.69
908.671	19.59
909.102	17.99
909.534	26.49
909.965	51.49
910.397	101.59
910.828	338.19
911.259	489.89
911.691	229.99
912.122	123.39
912.553	56.09
912.984	35.49
913.415	24.79
913.847	24.99
914.278	19.59
914.709	12.49
915.14	13.69
915.571	11.99
916.002	12.79
916.433	17.59
916.864	14.89
917.295	10.19
917.726	23.29
918.157	15.79
918.587	24.79
919.018	21.69
919.449	20.79
919.88	24.79
920.311	32.49
920.741	52.09
921.172	177.59
921.603	163.69
922.033	80.79
922.464	53.99
922.895	20.59
923.325	20.59
923.756	12.99
924.186	11.89
924.617	15.29
925.047	17.99
925.478	23.69
925.908	25.49
926.338	9.19
926.769	14.09
927.199	19.79
927.629	10.79
928.06	19.79
928.49	11.19
928.92	10.89
929.35	12.39
929.78	12.39
930.21	4.79
930.641	10.29
931.071	10.09
931.501	3.19
931.931	5.69
932.361	7.89
932.791	6.39
933.221	7.59
933.651	5.79
934.08	18.79
934.51	30.59
934.94	10.69
935.37	6.29
935.8	10.69
936.229	8.99
936.659	13.99
937.089	1.59
937.519	10.49
937.948	19.59
938.378	12.09
938.807	3.39
939.237	1.29
939.666	5.19
940.096	-2.11
940.525	8.79
940.955	0.69
941.384	5.69
941.814	-3.01
942.243	2.69
942.672	7.59
943.102	-0.31
943.531	2.29
943.96	4.29
944.39	-4.81
944.819	-0.41
945.248	6.99
945.677	4.19
946.106	9.39
946.535	4.69
946.964	0.79
947.393	-5.61
947.822	-1.01
948.251	1.19
948.68	5.19
949.109	4.89
949.538	7.49
949.967	1.29
950.396	1.19
950.825	4.49
951.254	1.79
951.682	-6.61
952.111	8.69
952.54	7.09
952.969	-7.01
953.397	-3.01
953.826	1.09
954.254	-4.61
954.683	-0.71
955.112	-1.01
955.54	0.99
955.969	0.39
956.397	2.09
956.826	-2.31
957.254	3.19
957.682	2.79
958.111	-1.91
958.539	0.99
958.967	2.69
959.396	-4.71
959.824	2.79
960.252	-0.61
960.68	-7.71
961.109	-3.31
961.537	-3.01
961.965	4.49
962.393	1.99
962.821	-6.61
963.249	5.29
963.677	4.99
964.105	3.79
964.533	51.59
964.961	41.79
965.389	24.59
965.817	8.39
966.245	1.59
966.672	3.79
967.1	-4.41
967.528	-0.61
967.956	-0.51
968.383	1.49
968.811	6.29
969.239	-6.61
969.666	-9.81
970.094	4.09
970.522	-0.41
970.949	-1.51
971.377	-5.01
971.804	1.69
972.232	-2.11
972.659	-0.91
973.087	-4.21
973.514	-1.91
973.941	-3.81
974.369	5.79
974.796	-1.01
975.223	-6.91
975.651	-4.41
976.078	5.79
976.505	1.59
976.932	6.29
977.359	13.19
977.786	17.79
978.214	-3.41
978.641	-6.31
979.068	-2.41
979.495	-7.01
979.922	3.89
980.349	-4.81
980.776	5.19
981.202	-1.51
981.629	10.09
982.056	4.39
982.483	-1.61
982.91	-0.01
983.337	-10.81
983.763	2.39
984.19	-3.41
984.617	-5.31
985.043	-6.01
985.47	0.19
985.897	-5.31
986.323	-4.01
986.75	3.29
987.176	-2.41
987.603	-1.31
988.029	0.39
988.456	5.99
988.882	2.09
989.308	-4.21
989.735	-10.81
990.161	-3.71
990.587	-9.21
991.014	-5.31
991.44	6.19
991.866	-6.21
992.292	-2.61
992.719	-2.51
993.145	5.79
993.571	-7.01
993.997	-4.91
994.423	-3.71
994.849	0.59
995.275	3.79
995.701	2.79
996.127	-2.01
996.553	6.89
996.979	1.49
997.405	-1.71
997.83	-7.51
998.256	-10.71
998.682	-6.51
999.108	-8.11
999.534	5.79
999.959	-0.51
1000.385	-6.11
1000.811	-2.61
1001.236	-8.31
1001.662	-2.31
1002.087	-10.61
1002.513	-2.71
1002.938	2.39
1003.364	-4.31
1003.789	-1.61
1004.215	-2.41
1004.64	0.19
1005.066	-0.51
1005.491	-2.81
1005.916	-1.31
1006.342	-0.41
1006.767	-11.11
1007.192	5.49
1007.617	-3.71
1008.042	-4.61
1008.468	-1.21
1008.893	-4.91
1009.318	-2.71
1009.743	1.69
1010.168	6.69
1010.593	-0.11
1011.018	-0.41
1011.443	5.09
1011.868	6.09
1012.293	0.19
1012.718	-3.21
1013.143	-1.91
1013.567	-1.01
1013.992	-2.51
1014.417	-7.81
1014.842	3.09
1015.267	-5.71
1015.691	-1.31
1016.116	2.49
1016.541	0.39
1016.965	3.59
1017.39	2.79
1017.814	5.29
1018.239	0.49
1018.663	-6.21
1019.088	-10.51
1019.512	-0.81
1019.937	-0.21
1020.361	-1.91
1020.785	-7.51
1021.21	-3.21
1021.634	-1.91
1022.058	-1.91
1022.483	0.39
1022.907	-3.91
1023.331	-0.31
1023.755	-3.01
1024.179	-5.31
1024.604	-2.91
1025.028	-1.51
1025.452	-4.11
1025.876	-2.71
1026.3	-0.21
1026.724	-10.51
1027.148	-2.11
1027.572	-9.01
1027.996	-4.81
1028.42	-0.91
1028.843	-5.41
1029.267	-6.81
1029.691	-2.01
1030.115	-5.41
1030.539	-10.81
1030.962	-5.21
1031.386	-10.71
1031.81	-2.41
1032.233	0.39
1032.657	-1.81
1033.08	-1.61
1033.504	-3.71
1033.927	-1.31
1034.351	-4.31
1034.774	-4.81
1035.198	-4.11
1035.621	-9.11
1036.045	-6.31
1036.468	-1.11
1036.891	-10.51
1037.315	-5.91
1037.738	-5.51
1038.161	-3.31
1038.584	-8.71
1039.008	-3.11
1039.431	-2.21
1039.854	-1.31
1040.277	-8.71
1040.7	-5.31
1041.123	0.29
1041.546	-8.71
1041.969	-7.81
1042.392	-4.91
1042.815	-3.11
1043.238	-1.81
1043.661	6.29
1044.084	-7.51
1044.507	-7.21
1044.93	-7.71
1045.352	-3.71
1045.775	-1.41
1046.198	0.09
1046.621	-2.61
1047.043	-0.11
1047.466	9.79
1047.889	-4.51
1048.311	-2.91
1048.734	-1.31
1049.156	0.89
1049.579	-7.21
1050.001	-11.31
1050.424	0.39
1050.846	-3.61
1051.269	-6.11
1051.691	-5.01
1052.113	-6.81
1052.536	-2.41
1052.958	-0.31
1053.38	-2.51
1053.802	-13.21
1054.225	2.49
1054.647	-1.91
1055.069	-9.21
1055.491	3.19
1055.913	-7.11
1056.335	-1.21
1056.757	-9.21
1057.179	-5.11
1057.601	-5.01
1058.023	2.79
1058.445	-6.91
1058.867	-7.01
1059.289	-3.41
1059.711	-4.71
1060.133	-3.61
1060.555	-9.41
1060.976	-9.61
1061.398	-4.11
1061.82	-3.71
1062.241	-8.51
1062.663	-9.01
1063.085	-2.41
1063.506	-3.21
1063.928	-2.01
1064.35	-0.01
1064.771	-9.31
1065.193	-0.01
1065.614	-10.31
1066.035	-4.21
1066.457	0.29
1066.878	4.09
1067.3	-4.51
1067.721	-5.51
1068.142	-1.21
1068.564	0.79
1068.985	-6.41
1069.406	-5.91
1069.827	-6.81
1070.248	1.29
1070.67	-6.61
1071.091	-3.11
1071.512	-7.41
1071.933	1.19
1072.354	-6.11
1072.775	-1.91
1073.196	-3.11
1073.617	-1.01
1074.038	-6.51
1074.459	-0.81
1074.88	-7.21
1075.3	-1.01
1075.721	-4.71
1076.142	1.79
1076.563	0.39
1076.983	-12.91
1077.404	-7.71
1077.825	-11.41
1078.246	-3.41
1078.666	-9.31
1079.087	-8.61
1079.507	-5.91
1079.928	-4.11
1080.348	-4.71
1080.769	-8.61
1081.189	-2.11
1081.61	-5.11
1082.03	-6.01
1082.451	-5.21
1082.871	-1.01
1083.291	-3.41
1083.711	-6.31
1084.132	-5.01
1084.552	-4.21
1084.972	-3.11
1085.392	-9.71
1085.813	-7.61
1086.233	-11.01
1086.653	-3.41
1087.073	-0.01
1087.493	-9.11
1087.913	-4.51
1088.333	-5.61
1088.753	-4.81
1089.173	5.39
1089.593	-2.31
1090.013	2.19
1090.433	-3.71
1090.852	-3.81
1091.272	2.99
1091.692	-2.61
1092.112	-4.81
1092.531	-5.11
1092.951	-12.01
1093.371	-2.11
1093.79	0.79
1094.21	-0.81
1094.63	-3.71
1095.049	-5.31
1095.469	-3.31
1095.888	-5.51
1096.308	0.09
1096.727	4.99
1097.146	-7.71
1097.566	-1.61
1097.985	-3.61
1098.405	0.79
1098.824	-7.11
1099.243	-6.61
1099.662	-7.41
1100.082	-3.21
1100.501	-0.81
1100.92	-10.71
1101.339	-2.81
1101.758	-7.01
