Data from 20171114-ORNL-Ar_H_NY_Subt18_08-06-01-353.txt Node
Date: Tue Nov 14 08:06:01 EST 2017
User: Ender
Spectrometer: HR+D1039
Trigger mode: 0
Integration Time (sec): 2.730000E-2
Scans to average: 10
Electric dark correction enabled: true
Nonlinearity correction enabled: false
Boxcar width: 0
XAxis mode: Wavelengths
Number of Pixels in Spectrum: 2048
>>>>>Begin Spectral Data<<<<<
187.836	-1.14
188.309	-1.14
188.782	-1.14
189.255	3.06
189.728	-1.84
190.201	9.56
190.674	-1.44
191.147	2.46
191.619	-7.24
192.092	-5.34
192.565	3.76
193.038	1.86
193.511	0.86
193.984	-3.54
194.456	-2.04
194.929	-0.34
195.402	-3.84
195.874	5.16
196.347	-5.44
196.82	-5.94
197.292	3.76
197.765	-1.64
198.237	-9.34
198.71	0.36
199.182	-3.64
199.655	-3.54
200.127	0.96
200.6	-0.34
201.072	-7.04
201.544	-2.54
202.017	-0.04
202.489	5.06
202.961	-3.34
203.433	-6.14
203.906	-4.04
204.378	-6.64
204.85	-4.84
205.322	-10.74
205.794	-2.64
206.266	-7.24
206.739	-9.44
207.211	2.36
207.683	-8.14
208.155	-5.54
208.627	-7.44
209.099	-4.24
209.57	-9.44
210.042	-4.04
210.514	-6.34
210.986	1.06
211.458	-7.24
211.93	-2.64
212.402	3.56
212.873	-10.34
213.345	-14.14
213.817	-13.14
214.288	-2.24
214.76	-8.54
215.232	0.06
215.703	-2.44
216.175	1.46
216.646	-0.64
217.118	-9.44
217.589	-11.34
218.061	0.66
218.532	-1.84
219.004	0.96
219.475	-1.74
219.946	-8.14
220.418	-4.94
220.889	-0.94
221.36	-1.64
221.832	-5.94
222.303	0.46
222.774	3.46
223.245	-12.84
223.717	-8.34
224.188	-7.94
224.659	-7.04
225.13	-8.04
225.601	-1.34
226.072	-2.54
226.543	-2.64
227.014	-0.34
227.485	-7.34
227.956	-9.34
228.427	-2.44
228.898	0.36
229.369	2.96
229.839	-4.14
230.31	-6.64
230.781	-4.74
231.252	-5.04
231.722	-3.94
232.193	-6.44
232.664	-2.14
233.135	-0.64
233.605	-5.94
234.076	-4.64
234.546	0.16
235.017	-1.04
235.487	1.26
235.958	-4.34
236.428	-7.74
236.899	3.86
237.369	3.36
237.84	-3.14
238.31	9.36
238.78	5.56
239.251	7.06
239.721	2.76
240.191	-2.64
240.662	-1.94
241.132	1.36
241.602	-0.94
242.072	-0.24
242.542	7.06
243.013	-0.04
243.483	-2.74
243.953	-2.14
244.423	2.16
244.893	-0.34
245.363	3.66
245.833	2.06
246.303	1.96
246.773	7.96
247.243	0.06
247.712	1.86
248.182	6.16
248.652	7.86
249.122	-1.74
249.592	14.66
250.061	17.46
250.531	32.16
251.001	13.56
251.471	18.76
251.94	19.96
252.41	9.96
252.879	-4.24
253.349	14.16
253.818	9.46
254.288	2.76
254.757	2.56
255.227	0.16
255.696	3.46
256.166	11.66
256.635	4.76
257.105	9.16
257.574	9.16
258.043	5.26
258.513	9.16
258.982	19.16
259.451	11.86
259.92	15.26
260.389	13.16
260.859	11.36
261.328	12.46
261.797	18.96
262.266	9.16
262.735	14.26
263.204	4.86
263.673	2.36
264.142	5.96
264.611	-5.54
265.08	2.66
265.549	-3.74
266.018	2.26
266.487	-2.24
266.955	-3.44
267.424	2.36
267.893	9.36
268.362	3.76
268.83	2.86
269.299	12.96
269.768	7.16
270.236	2.56
270.705	1.96
271.174	5.56
271.642	12.26
272.111	12.86
272.579	15.26
273.048	25.66
273.516	30.26
273.985	31.66
274.453	26.56
274.922	17.26
275.39	9.56
275.858	-2.94
276.327	11.26
276.795	15.56
277.263	11.86
277.731	26.86
278.2	58.56
278.668	55.46
279.136	52.16
279.604	20.66
280.072	15.16
280.54	13.06
281.008	8.76
281.477	16.86
281.945	11.86
282.413	18.76
282.881	10.56
283.348	3.86
283.816	10.86
284.284	12.86
284.752	22.56
285.22	13.66
285.688	21.86
286.156	19.16
286.623	41.56
287.091	47.56
287.559	26.06
288.026	13.56
288.494	20.36
288.962	6.46
289.429	14.86
289.897	17.66
290.364	17.56
290.832	20.66
291.3	15.36
291.767	22.06
292.234	20.06
292.702	13.06
293.169	21.76
293.637	26.36
294.104	20.96
294.571	10.16
295.039	13.36
295.506	12.06
295.973	18.56
296.44	14.16
296.908	19.16
297.375	22.96
297.842	20.36
298.309	20.46
298.776	12.86
299.243	22.56
299.71	14.06
300.177	17.96
300.644	19.96
301.111	20.16
301.578	19.96
302.045	18.36
302.512	24.56
302.979	24.06
303.446	25.46
303.913	18.16
304.379	24.06
304.846	24.06
305.313	21.46
305.78	21.76
306.246	26.16
306.713	28.16
307.18	24.66
307.646	27.26
308.113	24.26
308.579	23.16
309.046	28.56
309.512	25.06
309.979	20.06
310.445	31.96
310.912	32.16
311.378	29.46
311.845	26.06
312.311	36.26
312.777	32.56
313.244	30.06
313.71	41.56
314.176	34.56
314.642	35.06
315.109	29.96
315.575	34.96
316.041	40.06
316.507	34.56
316.973	44.46
317.439	33.06
317.905	35.26
318.371	38.76
318.837	30.76
319.303	38.76
319.769	37.66
320.235	31.46
320.701	35.16
321.167	35.36
321.633	35.96
322.099	34.16
322.564	42.96
323.03	41.26
323.496	40.96
323.962	43.56
324.427	40.96
324.893	44.36
325.359	39.86
325.824	38.96
326.29	38.06
326.755	39.16
327.221	36.56
327.686	33.06
328.152	44.96
328.617	38.76
329.083	46.16
329.548	52.56
330.014	48.06
330.479	41.46
330.944	46.16
331.41	43.86
331.875	42.96
332.34	43.96
332.805	43.16
333.271	48.06
333.736	43.46
334.201	53.46
334.666	52.06
335.131	54.86
335.596	51.26
336.061	48.96
336.526	47.16
336.991	45.96
337.456	60.66
337.921	49.36
338.386	41.96
338.851	42.16
339.316	44.96
339.781	49.86
340.246	55.06
340.711	49.76
341.175	53.26
341.64	48.06
342.105	54.76
342.569	55.56
343.034	60.66
343.499	52.46
343.963	54.76
344.428	67.96
344.893	63.16
345.357	63.56
345.822	59.76
346.286	68.16
346.751	77.06
347.215	76.16
347.679	75.46
348.144	93.16
348.608	86.06
349.073	63.46
349.537	73.76
350.001	78.36
350.465	88.06
350.93	77.66
351.394	79.86
351.858	74.66
352.322	87.66
352.786	81.56
353.25	100.96
353.715	111.46
354.179	100.66
354.643	122.56
355.107	128.76
355.571	110.26
356.035	104.16
356.498	119.86
356.962	123.36
357.426	132.36
357.89	117.36
358.354	89.16
358.818	80.76
359.281	79.56
359.745	76.96
360.209	79.66
360.673	80.56
361.136	80.46
361.6	91.36
362.064	85.36
362.527	83.96
362.991	89.76
363.454	86.96
363.918	77.06
364.381	78.66
364.845	87.06
365.308	86.86
365.772	88.06
366.235	86.86
366.698	86.96
367.162	88.06
367.625	88.36
368.088	91.76
368.552	89.26
369.015	93.66
369.478	98.16
369.941	104.96
370.404	93.16
370.867	110.56
371.331	114.66
371.794	113.46
372.257	116.26
372.72	116.16
373.183	109.86
373.646	102.26
374.109	102.96
374.572	109.46
375.035	107.26
375.497	111.76
375.96	108.46
376.423	100.86
376.886	109.96
377.349	112.76
377.811	104.36
378.274	113.86
378.737	114.86
379.199	119.06
379.662	117.56
380.125	128.86
380.587	123.96
381.05	134.66
381.512	136.66
381.975	132.36
382.437	127.16
382.9	131.16
383.362	135.46
383.825	146.46
384.287	155.06
384.75	144.16
385.212	143.46
385.674	144.36
386.136	140.16
386.599	128.56
387.061	128.66
387.523	128.66
387.985	138.86
388.447	143.16
388.91	145.76
389.372	169.16
389.834	158.96
390.296	151.76
390.758	163.76
391.22	174.76
391.682	213.56
392.144	304.56
392.606	231.76
393.068	171.16
393.529	168.96
393.991	156.76
394.453	153.36
394.915	161.76
395.377	187.86
395.838	216.46
396.3	156.56
396.762	147.06
397.224	139.76
397.685	125.76
398.147	134.26
398.608	135.86
399.07	128.66
399.531	135.76
399.993	150.36
400.454	155.26
400.916	152.36
401.377	145.46
401.839	156.86
402.3	154.86
402.762	169.66
403.223	183.36
403.684	173.66
404.145	162.86
404.607	162.86
405.068	167.96
405.529	176.96
405.99	193.46
406.451	187.76
406.913	175.86
407.374	171.06
407.835	161.56
408.296	178.86
408.757	180.96
409.218	189.06
409.679	188.66
410.14	179.26
410.601	185.66
411.062	186.26
411.522	191.86
411.983	194.56
412.444	185.36
412.905	182.26
413.366	183.96
413.826	198.26
414.287	220.76
414.748	267.16
415.208	247.46
415.669	213.66
416.13	213.06
416.59	207.16
417.051	216.26
417.511	213.26
417.972	227.86
418.432	246.56
418.893	290.36
419.353	256.86
419.814	204.76
420.274	185.26
420.734	183.26
421.195	203.66
421.655	203.56
422.115	200.56
422.576	200.26
423.036	201.46
423.496	206.16
423.956	221.26
424.416	233.96
424.876	269.66
425.336	266.96
425.797	266.26
426.257	265.26
426.717	251.26
427.177	239.56
427.637	228.46
428.097	244.56
428.556	245.76
429.016	275.66
429.476	272.86
429.936	285.16
430.396	285.56
430.856	300.16
431.315	318.36
431.775	362.46
432.235	399.06
432.694	364.66
433.154	374.16
433.614	406.66
434.073	346.86
434.533	289.16
434.993	287.26
435.452	290.86
435.912	303.36
436.371	302.46
436.83	287.36
437.29	279.46
437.749	250.86
438.209	253.96
438.668	286.56
439.127	293.26
439.587	270.76
440.046	245.76
440.505	262.56
440.964	283.56
441.424	329.46
441.883	314.66
442.342	271.46
442.801	225.26
443.26	220.76
443.719	232.06
444.178	227.66
444.637	217.56
445.096	224.26
445.555	224.16
446.014	230.46
446.473	236.76
446.932	233.76
447.391	230.36
447.849	232.76
448.308	225.66
448.767	219.46
449.226	232.86
449.685	245.16
450.143	253.66
450.602	245.56
451.061	236.36
451.519	241.36
451.978	239.36
452.436	236.76
452.895	244.46
453.353	262.36
453.812	244.56
454.27	244.56
454.729	243.56
455.187	240.86
455.646	252.56
456.104	244.86
456.562	256.06
457.021	275.46
457.479	265.96
457.937	274.16
458.395	269.16
458.854	251.96
459.312	254.96
459.77	291.06
460.228	266.96
460.686	249.26
461.144	256.56
461.602	246.86
462.06	251.86
462.518	258.76
462.976	264.56
463.434	264.36
463.892	267.26
464.35	287.96
464.808	291.36
465.266	277.06
465.724	266.76
466.181	273.56
466.639	279.06
467.097	291.66
467.555	306.36
468.012	311.66
468.47	313.16
468.928	337.26
469.385	338.06
469.843	351.26
470.3	349.26
470.758	378.16
471.215	388.46
471.673	422.36
472.13	417.86
472.588	430.56
473.045	379.46
473.503	382.36
473.96	404.56
474.417	413.06
474.875	433.96
475.332	482.76
475.789	474.26
476.246	473.46
476.704	502.16
477.161	510.26
477.618	530.76
478.075	568.26
478.532	631.66
478.989	706.56
479.446	819.56
479.903	775.06
480.36	831.66
480.817	884.36
481.274	989.66
481.731	1106.96
482.188	1206.96
482.645	1332.26
483.102	1432.66
483.558	1565.46
484.015	1632.36
484.472	1606.26
484.929	1558.66
485.385	1501.46
485.842	1462.76
486.299	1394.06
486.755	1337.96
487.212	1117.06
487.668	949.96
488.125	866.16
488.582	797.76
489.038	761.16
489.494	730.96
489.951	698.76
490.407	671.86
490.864	660.26
491.32	650.36
491.776	657.16
492.233	657.06
492.689	634.26
493.145	612.56
493.602	602.46
494.058	626.56
494.514	623.56
494.97	646.76
495.426	652.26
495.882	636.76
496.338	626.86
496.794	628.86
497.251	633.16
497.707	641.06
498.163	647.36
498.618	648.96
499.074	651.26
499.53	690.96
499.986	691.36
500.442	656.26
500.898	638.56
501.354	632.36
501.809	655.66
502.265	648.96
502.721	667.26
503.177	681.16
503.632	681.26
504.088	683.96
504.543	729.06
504.999	718.86
505.455	657.96
505.91	641.76
506.366	635.86
506.821	634.26
507.277	625.56
507.732	618.46
508.187	634.16
508.643	635.96
509.098	641.56
509.553	672.76
510.009	670.46
510.464	678.06
510.919	689.06
511.375	693.66
511.83	718.36
512.285	718.26
512.74	765.26
513.195	785.66
513.65	786.26
514.105	765.16
514.56	776.16
515.015	794.96
515.47	822.06
515.925	792.66
516.38	798.36
516.835	797.06
517.29	792.26
517.745	778.06
518.2	767.56
518.655	748.56
519.109	748.46
519.564	741.06
520.019	735.76
520.474	726.76
520.928	727.06
521.383	723.96
521.838	713.16
522.292	705.86
522.747	722.96
523.201	712.76
523.656	707.96
524.11	705.16
524.565	707.06
525.019	696.46
525.474	709.16
525.928	704.36
526.382	708.76
526.837	697.06
527.291	710.16
527.745	701.36
528.2	707.36
528.654	694.86
529.108	692.46
529.562	682.36
530.016	696.96
530.47	699.66
530.925	696.46
531.379	702.26
531.833	708.56
532.287	702.36
532.741	704.36
533.195	710.06
533.649	712.06
534.103	719.56
534.556	711.26
535.01	711.06
535.464	705.16
535.918	711.26
536.372	728.96
536.826	725.96
537.279	715.06
537.733	720.16
538.187	720.46
538.64	721.46
539.094	721.46
539.548	729.46
540.001	723.76
540.455	724.96
540.908	737.56
541.362	741.76
541.815	749.06
542.269	757.56
542.722	761.36
543.175	772.76
543.629	770.26
544.082	790.16
544.536	791.96
544.989	787.26
545.442	797.66
545.895	805.26
546.349	789.06
546.802	798.76
547.255	793.26
547.708	803.26
548.161	810.06
548.614	829.06
549.067	833.46
549.52	816.86
549.973	803.36
550.426	810.96
550.879	787.86
551.332	796.76
551.785	805.26
552.238	803.96
552.691	825.16
553.144	837.66
553.596	842.56
554.049	873.36
554.502	887.46
554.955	914.06
555.407	909.46
555.86	892.66
556.313	882.86
556.765	878.56
557.218	877.26
557.67	882.66
558.123	874.76
558.576	874.06
559.028	881.46
559.48	890.96
559.933	873.06
560.385	840.56
560.838	803.96
561.29	785.66
561.742	782.16
562.195	762.66
562.647	753.26
563.099	775.16
563.551	773.66
564.004	778.46
564.456	775.66
564.908	753.46
565.36	740.66
565.812	733.06
566.264	720.06
566.716	719.26
567.168	716.46
567.62	719.36
568.072	696.26
568.524	690.16
568.976	691.66
569.428	674.36
569.88	675.46
570.332	682.26
570.784	695.66
571.235	684.06
571.687	698.26
572.139	693.46
572.59	719.26
573.042	713.66
573.494	705.76
573.945	695.36
574.397	684.66
574.849	683.26
575.3	681.96
575.752	680.56
576.203	672.56
576.655	679.86
577.106	674.56
577.557	663.06
578.009	662.56
578.46	659.86
578.912	666.66
579.363	658.76
579.814	656.56
580.265	661.36
580.717	668.96
581.168	663.86
581.619	669.36
582.07	674.26
582.521	674.36
582.972	671.96
583.423	671.76
583.875	674.76
584.326	698.26
584.777	739.86
585.227	814.96
585.678	909.56
586.129	999.76
586.58	1051.26
587.031	1158.46
587.482	1315.16
587.933	1497.76
588.384	1299.06
588.834	980.06
589.285	800.16
589.736	783.56
590.186	764.76
590.637	755.36
591.088	733.96
591.538	723.46
591.989	726.96
592.439	718.56
592.89	706.96
593.34	704.06
593.791	708.06
594.241	703.66
594.692	699.16
595.142	690.76
595.593	688.26
596.043	710.16
596.493	710.76
596.943	718.46
597.394	716.46
597.844	712.36
598.294	724.36
598.744	739.46
599.195	763.26
599.645	806.16
600.095	845.56
600.545	899.16
600.995	953.36
601.445	1009.06
601.895	1081.66
602.345	1118.66
602.795	1109.26
603.245	1059.56
603.695	996.46
604.145	937.66
604.594	898.46
605.044	857.16
605.494	785.56
605.944	749.66
606.393	733.06
606.843	723.16
607.293	723.66
607.743	728.86
608.192	740.56
608.642	750.66
609.091	758.46
609.541	772.06
609.99	751.76
610.44	758.56
610.889	715.16
611.339	688.76
611.788	675.06
612.238	696.96
612.687	709.06
613.136	715.56
613.586	727.16
614.035	724.86
614.484	749.26
614.933	752.16
615.383	745.46
615.832	730.36
616.281	710.36
616.73	677.06
617.179	660.06
617.628	638.26
618.077	621.56
618.526	615.96
618.975	614.06
619.424	604.96
619.873	608.26
620.322	613.46
620.771	599.56
621.22	594.06
621.669	591.86
622.118	573.76
622.567	566.86
623.015	566.66
623.464	551.86
623.913	549.96
624.361	550.66
624.81	547.36
625.259	548.06
625.707	551.36
626.156	545.26
626.604	551.26
627.053	556.16
627.501	560.46
627.95	558.46
628.398	568.76
628.847	553.06
629.295	557.76
629.744	566.56
630.192	560.66
630.64	561.36
631.089	559.86
631.537	569.36
631.985	570.86
632.433	593.26
632.881	597.26
633.33	647.26
633.778	628.26
634.226	562.26
634.674	560.36
635.122	569.26
635.57	586.36
636.018	615.96
636.466	570.36
636.914	546.26
637.362	555.86
637.81	561.16
638.258	557.46
638.705	566.26
639.153	594.36
639.601	601.56
640.049	624.66
640.497	665.56
640.944	683.26
641.392	640.46
641.84	596.66
642.287	582.26
642.735	549.06
643.182	564.16
643.63	566.26
644.078	560.76
644.525	581.56
644.973	584.06
645.42	589.66
645.867	611.06
646.315	632.56
646.762	651.96
647.21	678.76
647.657	709.26
648.104	730.86
648.551	759.96
648.999	821.16
649.446	896.36
649.893	990.86
650.34	1143.86
650.787	1375.16
651.234	1685.06
651.682	2216.16
652.129	3046.16
652.576	4357.96
653.023	6502.76
653.47	8895.86
653.917	11168.06
654.363	12906.06
654.81	14277.76
655.257	13605.36
655.704	8893.46
656.151	5243.96
656.598	3407.66
657.044	2390.96
657.491	1836.56
657.938	1477.66
658.385	1234.16
658.831	1076.56
659.278	957.06
659.724	844.36
660.171	773.66
660.618	714.56
661.064	678.56
661.511	653.16
661.957	648.46
662.404	629.96
662.85	648.46
663.296	614.96
663.743	556.16
664.189	523.66
664.635	525.86
665.082	527.06
665.528	512.56
665.974	500.16
666.42	498.36
666.867	496.26
667.313	477.26
667.759	467.16
668.205	461.26
668.651	461.76
669.097	472.16
669.543	486.16
669.989	458.06
670.435	441.46
670.881	443.76
671.327	447.76
671.773	451.66
672.219	479.66
672.665	531.36
673.11	556.36
673.556	604.56
674.002	640.96
674.448	645.16
674.893	534.86
675.339	464.56
675.785	435.06
676.23	405.06
676.676	386.26
677.122	374.16
677.567	360.06
678.013	360.96
678.458	347.56
678.904	346.06
679.349	333.86
679.794	332.36
680.24	335.36
680.685	348.36
681.131	342.76
681.576	336.96
682.021	344.16
682.466	339.96
682.912	338.56
683.357	337.76
683.802	367.76
684.247	398.86
684.692	447.36
685.137	471.36
685.583	520.66
686.028	546.36
686.473	507.46
686.918	435.46
687.363	403.96
687.807	380.56
688.252	349.56
688.697	341.76
689.142	330.16
689.587	326.96
690.032	316.76
690.477	332.36
690.921	340.86
691.366	370.16
691.811	397.36
692.255	417.46
692.7	445.06
693.145	484.26
693.589	661.66
694.034	1074.16
694.478	1477.26
694.923	1680.46
695.367	2201.06
695.812	1164.26
696.256	481.76
696.701	361.16
697.145	334.46
697.59	320.06
698.034	308.16
698.478	315.66
698.922	310.46
699.367	319.46
699.811	331.36
700.255	345.66
700.699	376.56
701.143	411.86
701.588	461.66
702.032	500.36
702.476	492.16
702.92	479.16
703.364	475.36
703.808	605.96
704.252	986.66
704.696	1401.06
705.14	1626.76
705.584	2070.06
706.027	1021.76
706.471	496.76
706.915	387.36
707.359	341.66
707.803	307.06
708.246	300.36
708.69	298.96
709.134	305.46
709.577	301.76
710.021	307.36
710.465	296.46
710.908	292.66
711.352	290.96
711.795	298.36
712.239	335.66
712.682	377.06
713.126	400.56
713.569	457.06
714.012	351.76
714.456	310.26
714.899	287.96
715.342	264.76
715.786	253.16
716.229	247.56
716.672	246.96
717.115	246.86
717.558	248.26
718.002	240.76
718.445	252.56
718.888	273.26
719.331	285.96
719.774	293.96
720.217	286.86
720.66	282.36
721.103	259.06
721.546	244.76
721.989	238.56
722.432	228.26
722.874	224.56
723.317	218.76
723.76	227.26
724.203	251.76
724.645	307.26
725.088	428.16
725.531	539.06
725.974	615.56
726.416	525.56
726.859	298.86
727.301	243.66
727.744	233.66
728.187	229.06
728.629	227.96
729.071	228.96
729.514	249.06
729.956	266.56
730.399	273.06
730.841	276.46
731.283	264.96
731.726	255.66
732.168	248.96
732.61	256.46
733.053	269.76
733.495	306.96
733.937	344.06
734.379	391.76
734.821	416.06
735.263	522.26
735.705	795.46
736.148	1512.96
736.59	2479.76
737.032	2961.56
737.474	2390.36
737.916	780.26
738.357	418.06
738.799	307.76
739.241	290.56
739.683	280.16
740.125	276.06
740.567	288.46
741.008	305.06
741.45	304.56
741.892	299.36
742.334	330.56
742.775	345.36
743.217	326.36
743.658	256.66
744.1	248.66
744.542	251.36
744.983	300.56
745.425	337.66
745.866	339.06
746.307	270.26
746.749	272.66
747.19	314.16
747.632	429.36
748.073	835.96
748.514	1774.56
748.956	2751.46
749.397	3413.66
749.838	2845.06
750.279	2854.16
750.72	1461.66
751.162	529.86
751.603	314.56
752.044	243.16
752.485	204.76
752.926	200.66
753.367	191.86
753.808	193.16
754.249	185.56
754.69	174.96
755.131	177.96
755.572	169.16
756.013	175.56
756.453	185.96
756.894	177.96
757.335	183.86
757.776	183.66
758.216	189.26
758.657	184.76
759.098	190.96
759.538	214.06
759.979	259.66
760.42	351.76
760.86	665.96
761.301	1717.56
761.741	4192.26
762.182	6206.56
762.622	4408.96
763.063	1259.16
763.503	518.76
763.943	334.46
764.384	330.36
764.824	384.66
765.264	429.96
765.705	296.76
766.145	201.66
766.585	178.66
767.025	177.66
767.465	184.66
767.906	235.66
768.346	297.06
768.786	331.06
769.226	250.26
769.666	300.26
770.106	586.76
770.546	1484.26
770.986	2569.06
771.426	2282.06
771.866	764.16
772.306	316.46
772.745	210.46
773.185	174.66
773.625	165.06
774.065	163.66
774.505	190.06
774.944	292.36
775.384	665.46
775.824	1228.06
776.263	1199.56
776.703	517.46
777.142	219.66
777.582	148.16
778.021	138.66
778.461	136.36
778.9	130.56
779.34	129.36
779.779	116.86
780.219	102.06
780.658	105.46
781.097	102.26
781.537	108.96
781.976	105.46
782.415	108.96
782.855	106.96
783.294	101.66
783.733	102.16
784.172	101.86
784.611	97.96
785.05	98.36
785.489	106.36
785.928	113.86
786.367	118.06
786.806	112.86
787.245	128.46
787.684	135.96
788.123	139.76
788.562	128.26
789.001	121.76
789.44	120.76
789.879	109.76
790.317	112.56
790.756	121.16
791.195	128.46
791.634	141.36
792.072	190.26
792.511	348.56
792.95	960.06
793.388	2047.36
793.827	1880.96
794.265	655.06
794.704	275.46
795.142	180.16
795.581	148.86
796.019	127.86
796.458	120.46
796.896	118.06
797.334	120.76
797.773	151.96
798.211	210.26
798.649	412.06
799.087	968.06
799.526	1517.76
799.964	1916.06
800.402	1932.06
800.84	729.46
801.278	293.16
801.716	177.66
802.154	147.76
802.592	140.16
803.03	135.26
803.468	127.86
803.906	134.76
804.344	146.26
804.782	127.06
805.22	123.96
805.658	121.76
806.096	137.26
806.533	146.96
806.971	163.96
807.409	208.06
807.847	297.26
808.284	630.36
808.722	1773.46
809.16	3164.96
809.597	2968.56
810.035	5174.16
810.472	5607.16
810.91	2009.06
811.347	766.06
811.785	389.46
812.222	246.46
812.66	183.96
813.097	159.36
813.535	138.66
813.972	119.46
814.409	109.06
814.846	106.56
815.284	105.06
815.721	100.56
816.158	103.96
816.595	113.06
817.032	176.66
817.47	186.26
817.907	161.26
818.344	147.66
818.781	113.56
819.218	98.16
819.655	125.06
820.092	177.96
820.529	210.96
820.966	177.16
821.403	126.86
821.839	102.86
822.276	100.26
822.713	119.26
823.15	132.46
823.587	111.36
824.023	139.16
824.46	281.36
824.897	853.66
825.333	1311.96
825.77	568.06
826.206	223.16
826.643	130.26
827.08	98.66
827.516	77.46
827.953	77.26
828.389	72.46
828.825	70.86
829.262	64.46
829.698	63.56
830.135	63.06
830.571	57.86
831.007	62.16
831.443	58.96
831.88	60.66
832.316	56.16
832.752	68.66
833.188	59.46
833.624	62.56
834.06	62.56
834.497	70.26
834.933	67.36
835.369	74.46
835.805	59.46
836.241	76.96
836.677	75.26
837.112	85.36
837.548	105.56
837.984	128.66
838.42	189.16
838.856	457.36
839.292	1430.76
839.727	2226.76
840.163	1040.06
840.599	880.06
841.034	1928.66
841.47	2058.36
841.906	749.06
842.341	317.16
842.777	221.86
843.212	311.56
843.648	305.66
844.083	146.26
844.519	93.86
844.954	73.46
845.39	54.76
845.825	55.46
846.261	58.66
846.696	55.66
847.131	46.76
847.566	52.96
848.002	51.96
848.437	50.76
848.872	55.06
849.307	58.56
849.742	74.26
850.177	172.46
850.613	531.66
851.048	853.96
851.483	369.16
851.918	153.66
852.353	87.96
852.788	50.86
853.223	54.36
853.657	47.46
854.092	47.16
854.527	40.06
854.962	39.36
855.397	37.36
855.832	47.06
856.266	48.06
856.701	35.46
857.136	33.06
857.57	35.36
858.005	51.96
858.44	54.06
858.874	37.06
859.309	52.76
859.743	37.16
860.178	39.96
860.612	33.86
861.047	50.76
861.481	65.36
861.915	66.46
862.35	45.66
862.784	36.06
863.218	39.66
863.653	31.16
864.087	40.26
864.521	45.36
864.955	63.56
865.39	146.06
865.824	168.16
866.258	107.56
866.692	158.06
867.126	161.86
867.56	100.56
867.994	49.86
868.428	34.66
868.862	44.76
869.296	50.86
869.73	57.66
870.164	52.56
870.598	44.16
871.031	36.26
871.465	30.36
871.899	26.86
872.333	19.96
872.766	21.86
873.2	21.26
873.634	29.66
874.067	22.86
874.501	27.06
874.935	35.16
875.368	30.26
875.802	23.76
876.235	20.86
876.669	19.46
877.102	19.06
877.535	25.56
877.969	25.06
878.402	21.86
878.836	16.16
879.269	18.76
879.702	23.66
880.135	22.26
880.569	20.66
881.002	29.16
881.435	21.66
881.868	12.96
882.301	22.26
882.734	14.46
883.167	23.06
883.601	21.16
884.034	20.26
884.467	18.66
884.899	16.56
885.332	16.36
885.765	16.56
886.198	17.76
886.631	20.36
887.064	16.46
887.497	19.06
887.929	26.46
888.362	8.16
888.795	16.66
889.228	12.16
889.66	20.36
890.093	11.96
890.526	15.86
890.958	11.46
891.391	20.26
891.823	18.76
892.256	13.46
892.688	5.66
893.121	17.06
893.553	11.66
893.985	21.86
894.418	18.06
894.85	7.66
895.282	17.26
895.715	19.76
896.147	18.16
896.579	15.66
897.011	9.06
897.444	18.16
897.876	12.16
898.308	14.46
898.74	11.86
899.172	10.06
899.604	21.56
900.036	20.96
900.468	15.86
900.9	18.96
901.332	17.36
901.764	10.56
902.196	19.46
902.628	10.16
903.06	16.46
903.491	24.46
903.923	18.36
904.355	21.66
904.787	29.06
905.218	22.56
905.65	22.36
906.082	10.96
906.513	13.86
906.945	10.76
907.376	11.06
907.808	21.66
908.239	18.56
908.671	15.46
909.102	20.56
909.534	21.66
909.965	43.06
910.397	91.36
910.828	300.36
911.259	461.46
911.691	204.36
912.122	102.76
912.553	49.76
912.984	31.26
913.415	31.36
913.847	27.36
914.278	17.16
914.709	9.66
915.14	20.56
915.571	17.16
916.002	9.26
916.433	23.16
916.864	21.86
917.295	10.66
917.726	21.06
918.157	18.66
918.587	28.16
919.018	20.66
919.449	15.86
919.88	25.56
920.311	28.76
920.741	40.36
921.172	159.76
921.603	147.36
922.033	73.76
922.464	44.76
922.895	22.96
923.325	18.66
923.756	16.46
924.186	19.26
924.617	21.06
925.047	39.96
925.478	48.96
925.908	44.56
926.338	23.56
926.769	17.26
927.199	14.36
927.629	13.46
928.06	17.06
928.49	11.06
928.92	15.16
929.35	16.36
929.78	10.96
930.21	6.36
930.641	5.76
931.071	7.06
931.501	-0.24
931.931	6.36
932.361	7.16
932.791	3.86
933.221	7.56
933.651	7.96
934.08	14.26
934.51	32.16
934.94	7.76
935.37	8.86
935.8	4.16
936.229	5.16
936.659	6.56
937.089	6.76
937.519	10.86
937.948	21.46
938.378	15.26
938.807	6.56
939.237	5.36
939.666	7.56
940.096	-10.74
940.525	3.86
940.955	-0.74
941.384	9.16
941.814	0.96
942.243	1.36
942.672	2.96
943.102	-4.44
943.531	-5.64
943.96	4.86
944.39	3.26
944.819	2.46
945.248	1.16
945.677	6.26
946.106	6.06
946.535	6.06
946.964	-5.04
947.393	5.86
947.822	3.16
948.251	-3.24
948.68	5.66
949.109	8.56
949.538	-1.64
949.967	3.06
950.396	-1.34
950.825	0.26
951.254	-1.74
951.682	-7.14
952.111	-3.04
952.54	4.76
952.969	-7.84
953.397	-5.84
953.826	-4.24
954.254	-5.84
954.683	-1.54
955.112	-7.54
955.54	-1.84
955.969	1.26
956.397	0.86
956.826	-0.74
957.254	1.26
957.682	0.06
958.111	1.06
958.539	1.36
958.967	1.26
959.396	-1.64
959.824	-0.14
960.252	0.66
960.68	-10.84
961.109	-2.74
961.537	-4.64
961.965	0.76
962.393	-0.14
962.821	-2.54
963.249	-0.44
963.677	6.76
964.105	0.06
964.533	42.66
964.961	39.96
965.389	20.86
965.817	1.86
966.245	2.66
966.672	3.06
967.1	-5.04
967.528	2.76
967.956	1.66
968.383	0.76
968.811	-2.04
969.239	-1.34
969.666	-6.84
970.094	4.26
970.522	-1.24
970.949	-1.94
971.377	-4.54
971.804	-2.04
972.232	0.16
972.659	-0.54
973.087	-5.24
973.514	-3.24
973.941	-5.54
974.369	7.46
974.796	0.36
975.223	-2.34
975.651	-1.84
976.078	4.56
976.505	-5.24
976.932	2.26
977.359	13.16
977.786	12.46
978.214	-3.34
978.641	-1.34
979.068	-5.34
979.495	-8.34
979.922	-5.34
980.349	0.26
980.776	0.86
981.202	-4.44
981.629	7.76
982.056	-0.54
982.483	-2.04
982.91	-0.14
983.337	-0.24
983.763	2.66
984.19	-6.54
984.617	0.96
985.043	-8.94
985.47	-3.54
985.897	-2.84
986.323	-12.24
986.75	3.26
987.176	-1.84
987.603	1.16
988.029	0.76
988.456	1.76
988.882	-0.74
989.308	-1.14
989.735	-3.14
990.161	4.16
990.587	-1.64
991.014	1.26
991.44	10.16
991.866	-2.44
992.292	-11.94
992.719	-5.44
993.145	2.76
993.571	-6.14
993.997	-6.04
994.423	-0.64
994.849	-11.34
995.275	0.76
995.701	-2.64
996.127	-8.64
996.553	3.46
996.979	3.56
997.405	-3.04
997.83	-4.04
998.256	-12.34
998.682	-6.24
999.108	-9.64
999.534	-3.64
999.959	-2.44
1000.385	-8.34
1000.811	2.56
1001.236	-11.24
1001.662	-7.44
1002.087	-5.54
1002.513	9.26
1002.938	-0.74
1003.364	1.56
1003.789	-3.04
1004.215	2.56
1004.64	-1.34
1005.066	7.26
1005.491	-0.64
1005.916	-7.34
1006.342	-3.64
1006.767	-12.84
1007.192	-0.24
1007.617	-5.84
1008.042	-6.34
1008.468	-7.34
1008.893	-8.34
1009.318	0.16
1009.743	-4.14
1010.168	1.86
1010.593	5.06
1011.018	-8.54
1011.443	-4.84
1011.868	-1.54
1012.293	-4.34
1012.718	-5.14
1013.143	2.86
1013.567	-1.74
1013.992	0.36
1014.417	-14.34
1014.842	2.36
1015.267	-7.74
1015.691	-5.04
1016.116	3.16
1016.541	-1.34
1016.965	0.36
1017.39	1.16
1017.814	-1.74
1018.239	-2.74
1018.663	-5.34
1019.088	-3.94
1019.512	-2.44
1019.937	0.56
1020.361	-8.94
1020.785	-15.14
1021.21	-4.14
1021.634	1.86
1022.058	-1.74
1022.483	-2.14
1022.907	0.56
1023.331	-8.54
1023.755	-1.54
1024.179	-3.04
1024.604	-9.84
1025.028	-2.04
1025.452	-3.94
1025.876	-1.14
1026.3	-0.94
1026.724	-11.94
1027.148	-5.64
1027.572	-4.84
1027.996	-4.94
1028.42	-3.54
1028.843	-5.34
1029.267	-7.44
1029.691	-7.44
1030.115	-9.84
1030.539	-7.04
1030.962	-4.04
1031.386	-11.44
1031.81	-7.44
1032.233	-0.74
1032.657	-6.84
1033.08	-10.44
1033.504	-8.54
1033.927	-6.74
1034.351	-2.64
1034.774	-6.24
1035.198	-6.54
1035.621	-4.44
1036.045	-6.24
1036.468	-0.94
1036.891	-9.94
1037.315	-7.24
1037.738	-7.74
1038.161	-0.04
1038.584	-1.44
1039.008	-10.04
1039.431	-6.44
1039.854	-2.84
1040.277	-8.04
1040.7	-11.54
1041.123	-0.44
1041.546	-3.44
1041.969	-6.34
1042.392	-7.94
1042.815	-3.54
1043.238	-0.44
1043.661	-0.04
1044.084	-7.14
1044.507	-5.64
1044.93	-11.24
1045.352	-2.14
1045.775	-4.64
1046.198	-4.44
1046.621	-3.94
1047.043	-0.14
1047.466	12.06
1047.889	-8.04
1048.311	1.06
1048.734	-5.74
1049.156	-3.44
1049.579	-5.54
1050.001	-3.94
1050.424	2.56
1050.846	-2.24
1051.269	-1.44
1051.691	-11.54
1052.113	-6.74
1052.536	-0.24
1052.958	-1.54
1053.38	-1.14
1053.802	-2.74
1054.225	-1.24
1054.647	-7.44
1055.069	-10.84
1055.491	-0.84
1055.913	-6.24
1056.335	-2.24
1056.757	-6.34
1057.179	-9.34
1057.601	-8.44
1058.023	-6.04
1058.445	-2.94
1058.867	-1.94
1059.289	-6.14
1059.711	-4.84
1060.133	-5.24
1060.555	-7.84
1060.976	-10.44
1061.398	-5.64
1061.82	-6.24
1062.241	-7.24
1062.663	-6.54
1063.085	-4.84
1063.506	-4.04
1063.928	-9.54
1064.35	-0.44
1064.771	-11.24
1065.193	-5.04
1065.614	-11.34
1066.035	-0.14
1066.457	-1.34
1066.878	-2.64
1067.3	-3.44
1067.721	-2.64
1068.142	-2.84
1068.564	-4.04
1068.985	-2.44
1069.406	-1.24
1069.827	-8.24
1070.248	-2.34
1070.67	-6.24
1071.091	-6.14
1071.512	-3.64
1071.933	-7.94
1072.354	-5.04
1072.775	-6.14
1073.196	-4.44
1073.617	-2.44
1074.038	0.06
1074.459	-5.44
1074.88	-10.44
1075.3	-1.84
1075.721	-8.24
1076.142	-3.94
1076.563	-0.44
1076.983	-11.04
1077.404	-6.14
1077.825	-5.64
1078.246	-1.44
1078.666	-8.04
1079.087	-4.94
1079.507	-2.64
1079.928	1.36
1080.348	1.56
1080.769	-9.14
1081.189	-1.74
1081.61	-2.64
1082.03	-3.34
1082.451	-7.74
1082.871	-4.34
1083.291	-5.04
1083.711	-11.74
1084.132	-8.44
1084.552	-4.24
1084.972	0.66
1085.392	-12.94
1085.813	-4.44
1086.233	-5.24
1086.653	-2.24
1087.073	2.36
1087.493	-5.24
1087.913	-5.34
1088.333	-6.24
1088.753	-5.54
1089.173	2.36
1089.593	-5.64
1090.013	-0.04
1090.433	-5.34
1090.852	-0.34
1091.272	-3.74
1091.692	-4.44
1092.112	-4.34
1092.531	-12.64
1092.951	-17.34
1093.371	-2.34
1093.79	4.96
1094.21	-7.54
1094.63	-3.44
1095.049	-6.44
1095.469	-2.04
1095.888	-8.64
1096.308	-1.54
1096.727	6.86
1097.146	0.06
1097.566	2.76
1097.985	-10.14
1098.405	0.56
1098.824	-9.24
1099.243	-4.74
1099.662	-4.44
1100.082	-4.34
1100.501	-0.54
1100.92	-8.74
1101.339	-3.14
1101.758	-5.94
