Data from 20171114-ORNL-Ar_H_NY_Subt18_08-07-27-067.txt Node
Date: Tue Nov 14 08:07:27 EST 2017
User: Ender
Spectrometer: HR+D1039
Trigger mode: 0
Integration Time (sec): 2.730000E-2
Scans to average: 10
Electric dark correction enabled: true
Nonlinearity correction enabled: false
Boxcar width: 0
XAxis mode: Wavelengths
Number of Pixels in Spectrum: 2048
>>>>>Begin Spectral Data<<<<<
187.836	-2.01
188.309	-2.01
188.782	-2.01
189.255	3.19
189.728	1.49
190.201	7.09
190.674	1.19
191.147	0.99
191.619	-8.51
192.092	1.49
192.565	1.69
193.038	2.09
193.511	-2.71
193.984	3.29
194.456	-4.61
194.929	-0.61
195.402	-0.21
195.874	-3.91
196.347	-2.81
196.82	-5.01
197.292	1.69
197.765	2.29
198.237	-4.51
198.71	3.49
199.182	-3.71
199.655	-0.11
200.127	-1.41
200.6	-4.81
201.072	-1.61
201.544	-3.41
202.017	-3.51
202.489	5.19
202.961	-5.61
203.433	-0.21
203.906	-1.81
204.378	-7.81
204.85	1.79
205.322	-4.51
205.794	0.09
206.266	-3.91
206.739	-5.31
207.211	2.89
207.683	-7.21
208.155	-2.91
208.627	-2.41
209.099	-3.71
209.57	-4.21
210.042	-5.11
210.514	-3.91
210.986	-0.21
211.458	-6.71
211.93	0.79
212.402	-2.61
212.873	-7.81
213.345	-11.41
213.817	-16.01
214.288	-7.81
214.76	-11.21
215.232	-5.11
215.703	-2.61
216.175	-5.01
216.646	-5.01
217.118	-7.21
217.589	-3.71
218.061	-6.61
218.532	-6.71
219.004	-3.81
219.475	-5.31
219.946	-4.81
220.418	-3.41
220.889	1.99
221.36	-0.81
221.832	-3.61
222.303	-8.71
222.774	1.99
223.245	-9.51
223.717	-3.31
224.188	-9.01
224.659	-3.31
225.13	-8.41
225.601	-1.11
226.072	-1.81
226.543	-3.81
227.014	3.19
227.485	-2.61
227.956	-2.41
228.427	-4.11
228.898	-0.11
229.369	2.09
229.839	2.89
230.31	-4.81
230.781	0.59
231.252	-3.11
231.722	-5.91
232.193	-1.21
232.664	-0.51
233.135	-0.71
233.605	1.39
234.076	-5.11
234.546	-0.81
235.017	3.99
235.487	-3.21
235.958	-4.91
236.428	-4.11
236.899	2.39
237.369	3.39
237.84	-4.61
238.31	6.99
238.78	-0.21
239.251	-4.41
239.721	-3.81
240.191	-6.61
240.662	-2.21
241.132	4.49
241.602	-1.11
242.072	2.29
242.542	5.79
243.013	-3.71
243.483	1.39
243.953	5.09
244.423	5.09
244.893	-2.31
245.363	3.69
245.833	5.69
246.303	-2.01
246.773	4.39
247.243	-0.41
247.712	-1.21
248.182	4.69
248.652	4.19
249.122	-5.61
249.592	6.89
250.061	12.89
250.531	24.29
251.001	7.19
251.471	12.39
251.94	11.19
252.41	7.99
252.879	-2.61
253.349	10.69
253.818	4.69
254.288	-0.71
254.757	4.89
255.227	-10.01
255.696	-3.21
256.166	5.79
256.635	5.79
257.105	0.79
257.574	5.09
258.043	4.79
258.513	3.39
258.982	10.29
259.451	-0.41
259.92	7.79
260.389	7.09
260.859	13.69
261.328	6.19
261.797	10.09
262.266	2.99
262.735	12.59
263.204	4.79
263.673	-0.91
264.142	4.89
264.611	-7.21
265.08	-1.91
265.549	-2.31
266.018	9.29
266.487	-4.61
266.955	-5.41
267.424	-2.11
267.893	3.29
268.362	-4.01
268.83	-0.01
269.299	7.79
269.768	8.29
270.236	9.69
270.705	-3.11
271.174	2.49
271.642	6.59
272.111	3.09
272.579	8.39
273.048	18.39
273.516	13.39
273.985	11.79
274.453	16.79
274.922	18.99
275.39	6.49
275.858	-5.01
276.327	9.39
276.795	9.99
277.263	7.09
277.731	23.09
278.2	35.29
278.668	40.49
279.136	33.49
279.604	15.39
280.072	11.79
280.54	6.09
281.008	4.19
281.477	11.09
281.945	12.79
282.413	10.59
282.881	11.29
283.348	-0.81
283.816	10.99
284.284	4.19
284.752	13.39
285.22	11.89
285.688	9.09
286.156	11.29
286.623	29.09
287.091	35.79
287.559	19.49
288.026	12.59
288.494	10.99
288.962	1.19
289.429	-2.61
289.897	12.69
290.364	11.49
290.832	10.09
291.3	12.29
291.767	13.19
292.234	16.29
292.702	6.29
293.169	12.59
293.637	12.29
294.104	13.19
294.571	3.89
295.039	5.19
295.506	6.89
295.973	5.29
296.44	3.49
296.908	8.59
297.375	13.59
297.842	12.59
298.309	10.49
298.776	6.09
299.243	10.99
299.71	10.19
300.177	12.59
300.644	15.09
301.111	16.89
301.578	16.59
302.045	10.99
302.512	18.39
302.979	23.39
303.446	16.69
303.913	11.99
304.379	5.99
304.846	23.49
305.313	12.29
305.78	12.19
306.246	17.59
306.713	22.09
307.18	14.99
307.646	14.19
308.113	20.39
308.579	18.39
309.046	14.69
309.512	19.29
309.979	12.59
310.445	13.79
310.912	24.59
311.378	18.49
311.845	20.39
312.311	24.49
312.777	20.79
313.244	20.89
313.71	28.89
314.176	25.99
314.642	24.39
315.109	20.69
315.575	26.19
316.041	26.69
316.507	24.79
316.973	30.99
317.439	24.19
317.905	26.09
318.371	24.99
318.837	21.19
319.303	22.59
319.769	26.39
320.235	22.19
320.701	24.29
321.167	27.09
321.633	24.39
322.099	25.89
322.564	29.29
323.03	32.39
323.496	31.49
323.962	24.39
324.427	29.39
324.893	29.89
325.359	29.09
325.824	28.89
326.29	26.19
326.755	24.49
327.221	27.79
327.686	32.09
328.152	33.49
328.617	35.29
329.083	31.89
329.548	35.89
330.014	39.49
330.479	28.49
330.944	33.49
331.41	34.89
331.875	34.09
332.34	32.39
332.805	31.09
333.271	38.19
333.736	31.99
334.201	36.79
334.666	41.99
335.131	37.29
335.596	36.69
336.061	40.69
336.526	34.29
336.991	34.49
337.456	47.99
337.921	35.69
338.386	34.99
338.851	35.19
339.316	33.49
339.781	35.69
340.246	46.29
340.711	35.29
341.175	36.29
341.64	29.19
342.105	42.39
342.569	47.69
343.034	42.49
343.499	44.59
343.963	38.39
344.428	53.09
344.893	51.49
345.357	45.69
345.822	42.29
346.286	52.89
346.751	51.59
347.215	53.79
347.679	52.89
348.144	70.99
348.608	66.59
349.073	48.29
349.537	58.69
350.001	56.29
350.465	68.29
350.93	61.89
351.394	61.49
351.858	53.89
352.322	67.19
352.786	59.49
353.25	75.49
353.715	78.69
354.179	77.59
354.643	94.39
355.107	95.39
355.571	73.99
356.035	76.29
356.498	87.19
356.962	90.49
357.426	99.49
357.89	89.59
358.354	70.39
358.818	65.89
359.281	63.09
359.745	54.09
360.209	63.79
360.673	58.49
361.136	67.09
361.6	64.19
362.064	69.79
362.527	68.49
362.991	76.19
363.454	60.49
363.918	64.79
364.381	68.79
364.845	70.39
365.308	68.89
365.772	69.69
366.235	68.69
366.698	62.19
367.162	69.79
367.625	69.39
368.088	67.59
368.552	73.09
369.015	75.29
369.478	80.19
369.941	80.49
370.404	79.29
370.867	83.39
371.331	86.09
371.794	90.59
372.257	89.89
372.72	97.89
373.183	93.09
373.646	83.69
374.109	84.89
374.572	85.19
375.035	84.39
375.497	92.99
375.96	88.89
376.423	85.49
376.886	98.59
377.349	98.19
377.811	84.59
378.274	85.39
378.737	88.99
379.199	95.59
379.662	95.29
380.125	101.09
380.587	95.19
381.05	103.39
381.512	112.99
381.975	118.69
382.437	110.89
382.9	110.39
383.362	108.49
383.825	121.59
384.287	121.19
384.75	124.69
385.212	117.79
385.674	119.89
386.136	119.49
386.599	106.49
387.061	115.69
387.523	109.89
387.985	116.49
388.447	124.49
388.91	123.39
389.372	136.39
389.834	131.09
390.296	129.49
390.758	129.29
391.22	146.99
391.682	175.29
392.144	258.59
392.606	205.39
393.068	146.59
393.529	143.79
393.991	133.89
394.453	130.39
394.915	135.99
395.377	164.29
395.838	183.69
396.3	130.39
396.762	127.59
397.224	117.09
397.685	114.39
398.147	114.89
398.608	112.89
399.07	105.39
399.531	112.69
399.993	130.29
400.454	138.79
400.916	131.29
401.377	124.29
401.839	124.99
402.3	136.19
402.762	146.99
403.223	154.19
403.684	150.19
404.145	145.59
404.607	144.89
405.068	148.19
405.529	148.69
405.99	160.09
406.451	153.39
406.913	150.79
407.374	144.09
407.835	138.69
408.296	154.09
408.757	156.49
409.218	167.79
409.679	157.79
410.14	155.19
410.601	158.89
411.062	168.89
411.522	165.79
411.983	169.69
412.444	160.09
412.905	157.39
413.366	162.29
413.826	165.19
414.287	194.89
414.748	227.89
415.208	219.29
415.669	190.79
416.13	181.19
416.59	181.39
417.051	195.19
417.511	193.79
417.972	213.59
418.432	217.19
418.893	259.09
419.353	220.99
419.814	181.99
420.274	166.69
420.734	170.09
421.195	183.89
421.655	171.49
422.115	170.29
422.576	177.49
423.036	175.69
423.496	188.29
423.956	188.99
424.416	201.49
424.876	242.49
425.336	234.19
425.797	237.19
426.257	236.09
426.717	215.09
427.177	200.99
427.637	202.89
428.097	218.89
428.556	223.19
429.016	250.29
429.476	242.89
429.936	250.89
430.396	254.09
430.856	258.79
431.315	279.19
431.775	309.79
432.235	339.29
432.694	317.09
433.154	319.49
433.614	350.49
434.073	304.49
434.533	256.59
434.993	244.09
435.452	257.09
435.912	266.19
436.371	259.29
436.83	254.99
437.29	244.89
437.749	223.99
438.209	221.69
438.668	249.19
439.127	253.89
439.587	239.19
440.046	223.19
440.505	237.29
440.964	251.09
441.424	287.09
441.883	275.09
442.342	235.89
442.801	209.49
443.26	203.79
443.719	195.99
444.178	190.39
444.637	187.39
445.096	209.29
445.555	205.69
446.014	201.19
446.473	213.99
446.932	219.39
447.391	201.49
447.849	200.99
448.308	203.89
448.767	202.09
449.226	209.79
449.685	217.09
450.143	221.49
450.602	213.49
451.061	205.09
451.519	213.89
451.978	210.99
452.436	215.39
452.895	216.79
453.353	227.49
453.812	216.49
454.27	217.19
454.729	217.49
455.187	219.89
455.646	219.79
456.104	224.79
456.562	229.19
457.021	246.89
457.479	232.39
457.937	246.29
458.395	237.99
458.854	224.79
459.312	228.29
459.77	249.79
460.228	237.69
460.686	221.99
461.144	230.39
461.602	223.39
462.06	227.39
462.518	238.99
462.976	239.89
463.434	237.19
463.892	241.49
464.35	250.39
464.808	268.89
465.266	244.19
465.724	248.69
466.181	250.69
466.639	253.89
467.097	264.89
467.555	276.29
468.012	278.49
468.47	286.49
468.928	293.49
469.385	306.49
469.843	320.79
470.3	315.49
470.758	338.39
471.215	353.99
471.673	378.19
472.13	376.49
472.588	390.59
473.045	340.19
473.503	349.29
473.96	365.09
474.417	369.39
474.875	393.59
475.332	442.39
475.789	430.19
476.246	424.69
476.704	454.09
477.161	463.99
477.618	479.99
478.075	510.29
478.532	570.09
478.989	635.19
479.446	739.99
479.903	722.29
480.36	758.09
480.817	802.49
481.274	897.49
481.731	985.39
482.188	1087.79
482.645	1213.89
483.102	1296.19
483.558	1426.19
484.015	1476.09
484.472	1467.19
484.929	1412.39
485.385	1366.29
485.842	1317.29
486.299	1260.19
486.755	1195.09
487.212	1002.49
487.668	862.39
488.125	790.29
488.582	715.79
489.038	688.19
489.494	655.29
489.951	632.39
490.407	614.59
490.864	601.49
491.32	585.99
491.776	586.29
492.233	600.19
492.689	570.19
493.145	559.09
493.602	552.99
494.058	566.79
494.514	567.59
494.97	585.89
495.426	600.59
495.882	565.69
496.338	563.49
496.794	568.99
497.251	563.59
497.707	586.09
498.163	591.29
498.618	594.89
499.074	594.19
499.53	617.99
499.986	627.49
500.442	604.49
500.898	574.99
501.354	578.59
501.809	585.49
502.265	592.99
502.721	605.69
503.177	616.19
503.632	611.39
504.088	623.39
504.543	650.79
504.999	661.69
505.455	614.09
505.91	584.99
506.366	595.39
506.821	580.99
507.277	576.99
507.732	588.19
508.187	582.89
508.643	597.19
509.098	592.29
509.553	611.59
510.009	623.89
510.464	622.09
510.919	647.19
511.375	651.19
511.83	666.39
512.285	675.49
512.74	714.49
513.195	723.89
513.65	715.69
514.105	714.29
514.56	714.79
515.015	732.39
515.47	745.49
515.925	744.89
516.38	736.59
516.835	734.19
517.29	721.89
517.745	718.59
518.2	708.19
518.655	692.39
519.109	697.69
519.564	694.69
520.019	680.49
520.474	673.89
520.928	677.79
521.383	667.99
521.838	661.49
522.292	669.39
522.747	664.39
523.201	667.39
523.656	657.79
524.11	650.79
524.565	650.09
525.019	632.69
525.474	653.59
525.928	656.39
526.382	649.49
526.837	645.39
527.291	659.59
527.745	651.29
528.2	651.79
528.654	646.69
529.108	649.99
529.562	639.29
530.016	649.19
530.47	640.69
530.925	651.59
531.379	651.09
531.833	662.39
532.287	654.59
532.741	653.39
533.195	654.19
533.649	661.49
534.103	672.09
534.556	659.39
535.01	667.99
535.464	662.29
535.918	674.89
536.372	682.69
536.826	677.49
537.279	654.79
537.733	662.09
538.187	659.79
538.64	674.59
539.094	682.69
539.548	683.59
540.001	673.49
540.455	680.69
540.908	681.39
541.362	694.59
541.815	704.39
542.269	715.29
542.722	703.49
543.175	725.59
543.629	729.69
544.082	739.89
544.536	729.99
544.989	729.89
545.442	737.99
545.895	744.19
546.349	745.69
546.802	742.29
547.255	749.69
547.708	760.39
548.161	779.29
548.614	769.19
549.067	782.99
549.52	766.19
549.973	762.09
550.426	752.69
550.879	748.29
551.332	754.09
551.785	754.79
552.238	765.39
552.691	766.89
553.144	779.29
553.596	794.19
554.049	816.99
554.502	837.79
554.955	855.99
555.407	859.49
555.86	833.39
556.313	831.29
556.765	826.39
557.218	837.29
557.67	830.39
558.123	830.19
558.576	820.09
559.028	828.49
559.48	830.19
559.933	820.89
560.385	790.59
560.838	751.29
561.29	740.99
561.742	737.89
562.195	716.19
562.647	715.79
563.099	729.69
563.551	721.19
564.004	734.09
564.456	724.59
564.908	726.79
565.36	710.59
565.812	687.69
566.264	673.19
566.716	683.19
567.168	667.19
567.62	684.29
568.072	668.99
568.524	661.89
568.976	644.59
569.428	631.59
569.88	644.69
570.332	649.19
570.784	649.69
571.235	655.39
571.687	653.49
572.139	655.59
572.59	667.29
573.042	668.59
573.494	672.79
573.945	655.49
574.397	645.09
574.849	651.09
575.3	646.39
575.752	643.89
576.203	641.09
576.655	654.49
577.106	636.09
577.557	631.49
578.009	629.59
578.46	627.99
578.912	620.99
579.363	629.09
579.814	630.99
580.265	620.49
580.717	630.99
581.168	635.99
581.619	639.59
582.07	641.99
582.521	642.09
582.972	633.59
583.423	639.79
583.875	638.69
584.326	663.49
584.777	706.59
585.227	769.99
585.678	855.99
586.129	921.89
586.58	1000.29
587.031	1070.79
587.482	1213.39
587.933	1360.69
588.384	1199.99
588.834	912.19
589.285	756.79
589.736	742.79
590.186	724.19
590.637	716.79
591.088	706.39
591.538	705.49
591.989	682.49
592.439	678.99
592.89	675.39
593.34	664.39
593.791	671.89
594.241	669.79
594.692	671.89
595.142	662.29
595.593	672.39
596.043	674.19
596.493	684.39
596.943	670.89
597.394	685.09
597.844	678.59
598.294	695.39
598.744	710.69
599.195	742.29
599.645	779.89
600.095	811.79
600.545	866.49
600.995	914.79
601.445	984.19
601.895	1040.79
602.345	1074.69
602.795	1059.19
603.245	1015.49
603.695	962.09
604.145	906.09
604.594	854.49
605.044	813.19
605.494	754.89
605.944	705.79
606.393	694.59
606.843	682.99
607.293	694.49
607.743	693.29
608.192	709.59
608.642	722.19
609.091	726.69
609.541	729.29
609.99	727.79
610.44	728.39
610.889	679.49
611.339	669.19
611.788	649.19
612.238	666.39
612.687	680.69
613.136	685.89
613.586	699.89
614.035	699.19
614.484	713.19
614.933	720.09
615.383	708.99
615.832	703.79
616.281	689.19
616.73	652.49
617.179	633.29
617.628	619.59
618.077	600.89
618.526	583.99
618.975	584.89
619.424	572.29
619.873	579.09
620.322	579.49
620.771	570.89
621.22	576.19
621.669	563.39
622.118	557.19
622.567	551.89
623.015	545.79
623.464	532.39
623.913	531.99
624.361	525.99
624.81	514.69
625.259	525.09
625.707	527.29
626.156	532.49
626.604	540.59
627.053	536.29
627.501	532.49
627.95	550.39
628.398	554.39
628.847	543.39
629.295	544.59
629.744	540.99
630.192	539.59
630.64	525.59
631.089	534.69
631.537	546.79
631.985	550.19
632.433	558.69
632.881	567.29
633.33	610.99
633.778	587.69
634.226	534.39
634.674	540.49
635.122	534.29
635.57	563.39
636.018	584.39
636.466	546.69
636.914	532.99
637.362	533.39
637.81	548.29
638.258	547.59
638.705	547.19
639.153	577.29
639.601	583.39
640.049	608.49
640.497	637.79
640.944	656.69
641.392	606.39
641.84	580.99
642.287	554.29
642.735	536.89
643.182	550.89
643.63	537.09
644.078	548.49
644.525	564.49
644.973	561.99
645.42	568.99
645.867	589.99
646.315	599.99
646.762	624.89
647.21	650.09
647.657	677.89
648.104	713.69
648.551	727.29
648.999	793.59
649.446	866.29
649.893	962.19
650.34	1100.59
650.787	1327.69
651.234	1648.59
651.682	2172.89
652.129	2971.89
652.576	4293.39
653.023	6374.29
653.47	8682.79
653.917	10826.29
654.363	12509.29
654.81	13826.89
655.257	13153.49
655.704	8516.69
656.151	5012.29
656.598	3237.79
657.044	2294.59
657.491	1756.29
657.938	1413.39
658.385	1173.49
658.831	1037.69
659.278	917.09
659.724	806.59
660.171	745.29
660.618	685.59
661.064	656.19
661.511	624.99
661.957	616.49
662.404	614.99
662.85	611.59
663.296	602.09
663.743	530.39
664.189	512.39
664.635	506.29
665.082	497.19
665.528	504.09
665.974	487.79
666.42	473.09
666.867	478.89
667.313	465.09
667.759	454.69
668.205	452.69
668.651	460.09
669.097	462.09
669.543	465.39
669.989	449.09
670.435	423.19
670.881	416.69
671.327	428.09
671.773	442.99
672.219	473.99
672.665	513.29
673.11	561.89
673.556	593.89
674.002	636.99
674.448	614.29
674.893	515.49
675.339	453.19
675.785	419.79
676.23	403.49
676.676	377.39
677.122	366.09
677.567	356.19
678.013	350.09
678.458	342.19
678.904	342.89
679.349	333.49
679.794	336.69
680.24	324.49
680.685	328.89
681.131	330.99
681.576	333.49
682.021	341.99
682.466	323.69
682.912	332.29
683.357	347.99
683.802	360.09
684.247	390.59
684.692	431.59
685.137	477.59
685.583	509.79
686.028	538.59
686.473	493.19
686.918	422.19
687.363	388.59
687.807	370.79
688.252	349.59
688.697	333.89
689.142	313.49
689.587	314.59
690.032	311.99
690.477	322.09
690.921	336.99
691.366	360.39
691.811	382.69
692.255	406.19
692.7	441.69
693.145	485.29
693.589	666.99
694.034	1084.79
694.478	1481.99
694.923	1645.39
695.367	2153.69
695.812	1140.79
696.256	475.19
696.701	355.79
697.145	324.89
697.59	316.19
698.034	307.09
698.478	310.69
698.922	304.69
699.367	315.59
699.811	320.09
700.255	340.49
700.699	368.79
701.143	407.89
701.588	457.39
702.032	492.09
702.476	489.79
702.92	464.59
703.364	467.79
703.808	621.89
704.252	996.19
704.696	1394.19
705.14	1587.49
705.584	2024.59
706.027	1012.39
706.471	491.29
706.915	384.29
707.359	332.99
707.803	296.29
708.246	296.19
708.69	297.79
709.134	299.69
709.577	302.19
710.021	307.59
710.465	299.89
710.908	285.99
711.352	282.79
711.795	302.29
712.239	333.09
712.682	365.99
713.126	404.39
713.569	438.09
714.012	350.69
714.456	302.69
714.899	290.29
715.342	255.89
715.786	252.19
716.229	250.39
716.672	248.69
717.115	241.39
717.558	238.59
718.002	235.49
718.445	242.29
718.888	268.89
719.331	281.89
719.774	297.79
720.217	295.79
720.66	274.29
721.103	254.59
721.546	242.49
721.989	238.79
722.432	226.59
722.874	232.49
723.317	215.69
723.76	222.79
724.203	245.19
724.645	313.29
725.088	422.79
725.531	548.39
725.974	604.99
726.416	526.69
726.859	298.69
727.301	235.29
727.744	233.59
728.187	227.89
728.629	233.49
729.071	231.69
729.514	247.99
729.956	268.29
730.399	269.39
730.841	272.79
731.283	259.19
731.726	259.89
732.168	252.99
732.61	255.59
733.053	276.99
733.495	298.89
733.937	335.09
734.379	379.79
734.821	413.99
735.263	520.19
735.705	803.49
736.148	1525.69
736.59	2471.69
737.032	2898.49
737.474	2356.69
737.916	768.19
738.357	412.09
738.799	315.39
739.241	282.69
739.683	279.79
740.125	279.59
740.567	282.69
741.008	297.89
741.45	300.19
741.892	307.29
742.334	335.69
742.775	335.89
743.217	325.29
743.658	256.39
744.1	248.19
744.542	246.89
744.983	300.89
745.425	331.39
745.866	328.19
746.307	266.79
746.749	274.19
747.19	312.39
747.632	430.19
748.073	857.39
748.514	1824.99
748.956	2730.29
749.397	3434.99
749.838	2821.79
750.279	2805.39
750.72	1422.69
751.162	518.79
751.603	295.29
752.044	237.49
752.485	212.39
752.926	197.99
753.367	191.49
753.808	183.99
754.249	177.29
754.69	176.09
755.131	171.79
755.572	176.89
756.013	174.09
756.453	174.59
756.894	177.39
757.335	181.89
757.776	187.69
758.216	183.89
758.657	200.99
759.098	199.09
759.538	226.39
759.979	257.99
760.42	360.69
760.86	686.19
761.301	1786.89
761.741	4271.39
762.182	6134.69
762.622	4315.79
763.063	1244.19
763.503	512.59
763.943	326.19
764.384	312.69
764.824	366.99
765.264	392.09
765.705	279.49
766.145	192.49
766.585	184.29
767.025	173.29
767.465	178.59
767.906	225.99
768.346	288.19
768.786	304.39
769.226	241.09
769.666	303.79
770.106	597.69
770.546	1525.09
770.986	2545.69
771.426	2249.59
771.866	753.19
772.306	313.19
772.745	200.89
773.185	168.19
773.625	161.89
774.065	152.39
774.505	185.19
774.944	299.89
775.384	653.69
775.824	1175.89
776.263	1128.59
776.703	480.59
777.142	213.09
777.582	146.29
778.021	131.09
778.461	130.59
778.9	131.19
779.34	128.39
779.779	109.19
780.219	107.19
780.658	106.69
781.097	106.39
781.537	104.99
781.976	105.29
782.415	105.19
782.855	100.29
783.294	94.49
783.733	97.99
784.172	108.49
784.611	98.19
785.05	102.09
785.489	107.49
785.928	108.99
786.367	118.49
786.806	107.79
787.245	123.09
787.684	133.39
788.123	145.99
788.562	130.69
789.001	123.99
789.44	116.29
789.879	114.29
790.317	113.69
790.756	117.59
791.195	121.09
791.634	145.89
792.072	198.89
792.511	358.29
792.95	987.99
793.388	2079.09
793.827	1830.59
794.265	653.09
794.704	265.39
795.142	177.99
795.581	138.69
796.019	129.89
796.458	118.29
796.896	124.19
797.334	127.29
797.773	145.79
798.211	215.19
798.649	424.09
799.087	977.19
799.526	1533.79
799.964	1937.19
800.402	1923.49
800.84	721.99
801.278	294.79
801.716	175.69
802.154	153.79
802.592	136.59
803.03	135.29
803.468	132.09
803.906	139.09
804.344	142.79
804.782	130.79
805.22	126.39
805.658	122.49
806.096	139.19
806.533	150.59
806.971	163.19
807.409	208.89
807.847	308.89
808.284	647.79
808.722	1812.89
809.16	3147.59
809.597	3016.29
810.035	5242.99
810.472	5498.19
810.91	1992.99
811.347	763.99
811.785	384.99
812.222	243.69
812.66	193.49
813.097	158.09
813.535	136.69
813.972	130.59
814.409	112.79
814.846	103.79
815.284	109.79
815.721	94.09
816.158	100.09
816.595	119.39
817.032	169.19
817.47	185.29
817.907	152.49
818.344	135.39
818.781	110.59
819.218	93.39
819.655	119.99
820.092	178.09
820.529	201.39
820.966	163.39
821.403	128.79
821.839	104.39
822.276	101.19
822.713	116.29
823.15	130.09
823.587	109.59
824.023	134.09
824.46	296.89
824.897	877.19
825.333	1279.69
825.77	552.89
826.206	220.49
826.643	125.59
827.08	94.49
827.516	82.99
827.953	71.89
828.389	77.69
828.825	68.29
829.262	65.29
829.698	61.69
830.135	57.29
830.571	56.79
831.007	59.59
831.443	61.89
831.88	58.39
832.316	60.39
832.752	57.79
833.188	58.29
833.624	56.79
834.06	68.59
834.497	65.19
834.933	65.89
835.369	73.19
835.805	70.39
836.241	75.99
836.677	74.39
837.112	87.09
837.548	103.39
837.984	133.29
838.42	193.99
838.856	487.69
839.292	1470.39
839.727	2199.49
840.163	1024.39
840.599	903.59
841.034	1973.99
841.47	2018.99
841.906	746.89
842.341	317.69
842.777	227.59
843.212	304.99
843.648	299.39
844.083	148.89
844.519	91.49
844.954	77.29
845.39	57.79
845.825	56.89
846.261	61.19
846.696	52.89
847.131	53.09
847.566	59.09
848.002	55.09
848.437	53.89
848.872	61.99
849.307	52.39
849.742	79.79
850.177	174.59
850.613	538.79
851.048	843.79
851.483	355.39
851.918	143.79
852.353	80.19
852.788	56.59
853.223	54.29
853.657	47.59
854.092	47.59
854.527	37.89
854.962	42.29
855.397	44.59
855.832	49.59
856.266	39.29
856.701	37.29
857.136	35.79
857.57	38.49
858.005	52.39
858.44	55.09
858.874	45.19
859.309	52.49
859.743	38.19
860.178	44.19
860.612	40.59
861.047	54.09
861.481	65.09
861.915	68.89
862.35	51.69
862.784	28.89
863.218	32.69
863.653	30.79
864.087	40.89
864.521	48.29
864.955	67.59
865.39	147.49
865.824	162.69
866.258	112.29
866.692	153.49
867.126	165.89
867.56	90.39
867.994	47.79
868.428	36.79
868.862	45.79
869.296	50.69
869.73	53.09
870.164	46.99
870.598	39.89
871.031	33.49
871.465	28.89
871.899	34.89
872.333	22.09
872.766	27.09
873.2	23.39
873.634	29.69
874.067	27.69
874.501	25.99
874.935	37.29
875.368	31.39
875.802	20.79
876.235	19.89
876.669	20.29
877.102	25.49
877.535	27.79
877.969	20.19
878.402	20.99
878.836	20.49
879.269	26.19
879.702	25.19
880.135	25.39
880.569	21.49
881.002	26.29
881.435	21.59
881.868	15.29
882.301	15.39
882.734	13.99
883.167	21.29
883.601	18.69
884.034	19.59
884.467	14.09
884.899	15.59
885.332	13.79
885.765	16.19
886.198	16.39
886.631	18.69
887.064	18.89
887.497	18.69
887.929	23.69
888.362	15.79
888.795	15.79
889.228	16.99
889.66	15.59
890.093	21.39
890.526	19.09
890.958	13.59
891.391	21.09
891.823	22.39
892.256	18.59
892.688	18.99
893.121	18.69
893.553	10.89
893.985	22.79
894.418	18.89
894.85	12.49
895.282	16.09
895.715	13.59
896.147	10.19
896.579	18.19
897.011	10.09
897.444	16.29
897.876	15.19
898.308	17.19
898.74	17.69
899.172	13.39
899.604	20.79
900.036	17.59
900.468	14.69
900.9	17.99
901.332	17.69
901.764	10.09
902.196	19.19
902.628	21.29
903.06	17.79
903.491	30.49
903.923	24.49
904.355	18.79
904.787	25.19
905.218	27.49
905.65	17.09
906.082	10.39
906.513	13.79
906.945	14.19
907.376	6.49
907.808	20.99
908.239	15.49
908.671	22.69
909.102	21.39
909.534	25.79
909.965	46.89
910.397	90.69
910.828	310.99
911.259	456.49
911.691	209.19
912.122	101.99
912.553	49.49
912.984	36.89
913.415	29.69
913.847	26.19
914.278	16.19
914.709	18.39
915.14	17.39
915.571	17.49
916.002	11.09
916.433	18.99
916.864	19.99
917.295	11.29
917.726	20.39
918.157	15.89
918.587	25.49
919.018	25.39
919.449	21.09
919.88	22.19
920.311	32.09
920.741	41.19
921.172	158.09
921.603	147.09
922.033	68.09
922.464	44.09
922.895	23.29
923.325	19.99
923.756	15.69
924.186	13.69
924.617	26.39
925.047	34.09
925.478	50.19
925.908	47.09
926.338	26.69
926.769	22.19
927.199	23.89
927.629	15.19
928.06	13.29
928.49	14.89
928.92	14.09
929.35	13.19
929.78	7.49
930.21	5.59
930.641	1.19
931.071	6.49
931.501	1.49
931.931	13.29
932.361	11.69
932.791	3.09
933.221	6.89
933.651	6.99
934.08	24.59
934.51	26.59
934.94	10.29
935.37	8.59
935.8	10.49
936.229	6.29
936.659	15.29
937.089	4.39
937.519	14.09
937.948	22.19
938.378	14.49
938.807	6.19
939.237	6.99
939.666	6.89
940.096	-1.51
940.525	5.69
940.955	4.79
941.384	5.49
941.814	-3.81
942.243	-3.01
942.672	4.39
943.102	-3.21
943.531	7.39
943.96	9.19
944.39	7.89
944.819	0.89
945.248	8.19
945.677	2.19
946.106	7.39
946.535	2.89
946.964	4.09
947.393	0.49
947.822	1.49
948.251	-2.31
948.68	9.99
949.109	3.79
949.538	7.59
949.967	-4.21
950.396	2.79
950.825	1.29
951.254	4.69
951.682	-3.51
952.111	1.19
952.54	4.99
952.969	-2.41
953.397	-3.51
953.826	0.59
954.254	-4.51
954.683	2.79
955.112	2.69
955.54	3.49
955.969	0.69
956.397	0.69
956.826	-5.61
957.254	1.49
957.682	6.79
958.111	2.19
958.539	-2.01
958.967	1.49
959.396	-2.41
959.824	9.09
960.252	1.69
960.68	-1.41
961.109	0.69
961.537	-5.41
961.965	-1.51
962.393	7.79
962.821	-4.91
963.249	0.89
963.677	8.89
964.105	8.79
964.533	44.49
964.961	39.29
965.389	19.59
965.817	6.99
966.245	2.99
966.672	5.49
967.1	-4.41
967.528	-3.31
967.956	-1.31
968.383	-3.91
968.811	-1.81
969.239	-5.61
969.666	0.39
970.094	4.39
970.522	1.89
970.949	0.59
971.377	-3.81
971.804	0.19
972.232	-5.11
972.659	-0.11
973.087	2.39
973.514	-0.51
973.941	-1.91
974.369	1.09
974.796	3.49
975.223	2.89
975.651	1.09
976.078	4.89
976.505	-3.51
976.932	-1.71
977.359	12.79
977.786	13.39
978.214	-0.21
978.641	0.59
979.068	-2.11
979.495	-0.11
979.922	0.79
980.349	1.09
980.776	5.79
981.202	-1.01
981.629	-2.31
982.056	4.49
982.483	-0.71
982.91	0.19
983.337	-3.11
983.763	3.29
984.19	-2.61
984.617	-5.01
985.043	-1.41
985.47	-2.71
985.897	-6.71
986.323	-7.31
986.75	-1.41
987.176	0.19
987.603	1.09
988.029	3.39
988.456	-1.61
988.882	5.99
989.308	-6.71
989.735	-6.81
990.161	-1.11
990.587	-1.31
991.014	-3.01
991.44	4.79
991.866	-0.11
992.292	-12.51
992.719	-1.91
993.145	1.89
993.571	-9.71
993.997	-4.51
994.423	1.09
994.849	-9.01
995.275	2.49
995.701	-2.71
996.127	-6.31
996.553	-1.11
996.979	-7.71
997.405	-2.31
997.83	-3.11
998.256	-12.91
998.682	-6.01
999.108	-3.51
999.534	-3.11
999.959	-8.11
1000.385	-4.51
1000.811	0.39
1001.236	-5.61
1001.662	-8.01
1002.087	-10.21
1002.513	4.59
1002.938	2.69
1003.364	1.39
1003.789	-0.91
1004.215	10.49
1004.64	3.79
1005.066	8.29
1005.491	1.59
1005.916	2.79
1006.342	-5.61
1006.767	-12.01
1007.192	7.29
1007.617	-2.81
1008.042	-6.01
1008.468	-4.91
1008.893	-0.01
1009.318	-6.71
1009.743	2.79
1010.168	3.89
1010.593	0.29
1011.018	-2.81
1011.443	-4.01
1011.868	8.09
1012.293	-2.41
1012.718	-5.91
1013.143	-3.11
1013.567	3.09
1013.992	-6.21
1014.417	-15.11
1014.842	4.59
1015.267	-3.71
1015.691	2.49
1016.116	5.79
1016.541	0.79
1016.965	4.39
1017.39	4.59
1017.814	1.39
1018.239	2.09
1018.663	-3.41
1019.088	-5.51
1019.512	-1.21
1019.937	-0.61
1020.361	-1.01
1020.785	-7.61
1021.21	0.09
1021.634	-1.61
1022.058	-0.41
1022.483	-0.41
1022.907	-3.01
1023.331	-1.51
1023.755	-3.41
1024.179	-2.01
1024.604	-11.01
1025.028	-0.81
1025.452	-0.21
1025.876	0.09
1026.3	3.09
1026.724	-10.81
1027.148	-10.11
1027.572	-8.61
1027.996	-3.11
1028.42	-0.81
1028.843	-5.91
1029.267	-4.51
1029.691	-0.21
1030.115	-8.91
1030.539	-12.21
1030.962	-10.91
1031.386	-13.01
1031.81	1.89
1032.233	2.99
1032.657	-2.91
1033.08	-1.01
1033.504	-6.21
1033.927	-5.31
1034.351	-2.91
1034.774	-8.41
1035.198	-0.61
1035.621	-5.81
1036.045	-5.81
1036.468	2.19
1036.891	-10.41
1037.315	-11.61
1037.738	-11.91
1038.161	-5.31
1038.584	1.89
1039.008	-1.31
1039.431	-1.71
1039.854	-6.41
1040.277	-8.71
1040.7	-13.41
1041.123	-0.81
1041.546	-11.11
1041.969	-4.41
1042.392	-4.31
1042.815	-1.91
1043.238	8.69
1043.661	1.59
1044.084	-6.51
1044.507	-5.61
1044.93	-4.31
1045.352	-6.41
1045.775	-0.11
1046.198	-6.21
1046.621	-3.81
1047.043	0.69
1047.466	3.29
1047.889	-3.81
1048.311	-5.01
1048.734	-5.01
1049.156	-4.11
1049.579	2.69
1050.001	3.89
1050.424	0.29
1050.846	-2.31
1051.269	-3.81
1051.691	-5.61
1052.113	-8.01
1052.536	-7.61
1052.958	-4.61
1053.38	-11.01
1053.802	-12.81
1054.225	3.39
1054.647	-13.41
1055.069	-5.81
1055.491	2.09
1055.913	-3.31
1056.335	1.99
1056.757	-0.21
1057.179	-10.51
1057.601	-2.21
1058.023	-3.21
1058.445	-6.51
1058.867	-4.31
1059.289	-3.41
1059.711	-10.01
1060.133	-1.91
1060.555	-5.41
1060.976	-7.71
1061.398	-8.81
1061.82	-2.31
1062.241	4.19
1062.663	-9.51
1063.085	-3.51
1063.506	4.99
1063.928	-2.91
1064.35	-5.81
1064.771	-7.91
1065.193	-5.01
1065.614	-9.41
1066.035	2.99
1066.457	-1.71
1066.878	-2.71
1067.3	-5.51
1067.721	-3.01
1068.142	-2.71
1068.564	-4.41
1068.985	-3.91
1069.406	-5.31
1069.827	-5.11
1070.248	-3.71
1070.67	-4.11
1071.091	-1.41
1071.512	-5.61
1071.933	-11.41
1072.354	-8.71
1072.775	-6.91
1073.196	-8.91
1073.617	-2.61
1074.038	-4.91
1074.459	2.89
1074.88	-10.91
1075.3	-0.21
1075.721	-7.81
1076.142	0.99
1076.563	-0.01
1076.983	-10.91
1077.404	-1.41
1077.825	-11.71
1078.246	-0.31
1078.666	-6.31
1079.087	-3.71
1079.507	-5.81
1079.928	1.69
1080.348	0.99
1080.769	-3.61
1081.189	-3.61
1081.61	0.29
1082.03	-3.01
1082.451	-4.91
1082.871	-1.01
1083.291	-8.51
1083.711	-11.21
1084.132	-13.61
1084.552	-3.11
1084.972	-0.01
1085.392	-9.11
1085.813	-7.41
1086.233	-4.21
1086.653	0.29
1087.073	2.69
1087.493	-8.31
1087.913	-2.81
1088.333	-9.91
1088.753	-1.21
1089.173	2.49
1089.593	-3.61
1090.013	-0.21
1090.433	3.99
1090.852	-4.81
1091.272	-6.41
1091.692	-2.11
1092.112	0.29
1092.531	-10.61
1092.951	-14.81
1093.371	0.09
1093.79	0.49
1094.21	-3.11
1094.63	-8.81
1095.049	-3.71
1095.469	-2.21
1095.888	-2.51
1096.308	1.19
1096.727	0.69
1097.146	2.69
1097.566	1.19
1097.985	-3.31
1098.405	-7.01
1098.824	-4.51
1099.243	-3.01
1099.662	-2.61
1100.082	-4.91
1100.501	1.09
1100.92	-5.51
1101.339	-5.51
1101.758	-3.71
