Data from 20171114-ORNL-Ar_H_NY_Subt18_08-05-26-958.txt Node
Date: Tue Nov 14 08:05:26 EST 2017
User: Ender
Spectrometer: HR+D1039
Trigger mode: 0
Integration Time (sec): 2.730000E-2
Scans to average: 10
Electric dark correction enabled: true
Nonlinearity correction enabled: false
Boxcar width: 0
XAxis mode: Wavelengths
Number of Pixels in Spectrum: 2048
>>>>>Begin Spectral Data<<<<<
187.836	-0.51
188.309	-0.51
188.782	-0.51
189.255	1.39
189.728	0.29
190.201	2.39
190.674	4.69
191.147	3.69
191.619	-5.51
192.092	1.49
192.565	3.69
193.038	4.39
193.511	-0.21
193.984	2.59
194.456	-7.81
194.929	-3.91
195.402	-4.31
195.874	-2.41
196.347	-0.51
196.82	-5.21
197.292	7.89
197.765	-1.91
198.237	-2.01
198.71	-2.41
199.182	-7.71
199.655	5.69
200.127	8.09
200.6	1.49
201.072	1.19
201.544	-5.61
202.017	-2.91
202.489	1.69
202.961	-0.91
203.433	-3.31
203.906	-6.41
204.378	-1.01
204.85	-4.41
205.322	-9.81
205.794	-2.61
206.266	-1.31
206.739	-8.51
207.211	5.09
207.683	-3.11
208.155	-6.31
208.627	-5.61
209.099	0.69
209.57	-4.71
210.042	-3.71
210.514	-6.11
210.986	-4.51
211.458	-6.41
211.93	2.69
212.402	1.09
212.873	-6.51
213.345	-12.51
213.817	-11.81
214.288	-3.41
214.76	-8.01
215.232	-3.21
215.703	-1.61
216.175	-3.01
216.646	-7.51
217.118	-4.81
217.589	-6.01
218.061	-0.11
218.532	-7.51
219.004	-5.91
219.475	-5.71
219.946	-2.01
220.418	-1.71
220.889	-1.31
221.36	0.99
221.832	-6.91
222.303	-9.61
222.774	-1.61
223.245	-7.61
223.717	-2.91
224.188	-3.01
224.659	-7.71
225.13	-5.41
225.601	-3.21
226.072	-4.61
226.543	-1.51
227.014	-3.11
227.485	1.09
227.956	-4.81
228.427	-2.11
228.898	2.29
229.369	-2.51
229.839	-4.91
230.31	-2.21
230.781	-3.11
231.252	-4.81
231.722	3.59
232.193	-0.71
232.664	0.09
233.135	1.29
233.605	-3.71
234.076	-7.11
234.546	-6.51
235.017	5.99
235.487	1.39
235.958	-0.41
236.428	-5.91
236.899	2.79
237.369	3.99
237.84	2.99
238.31	3.49
238.78	3.19
239.251	0.39
239.721	2.79
240.191	-3.21
240.662	1.09
241.132	1.49
241.602	-2.11
242.072	-0.11
242.542	3.79
243.013	-0.91
243.483	7.79
243.953	-0.21
244.423	-1.01
244.893	-7.21
245.363	-0.91
245.833	-5.31
246.303	1.99
246.773	9.79
247.243	4.29
247.712	5.69
248.182	8.19
248.652	5.19
249.122	1.49
249.592	15.89
250.061	19.99
250.531	38.69
251.001	14.49
251.471	16.39
251.94	19.89
252.41	12.39
252.879	2.99
253.349	10.99
253.818	11.99
254.288	5.59
254.757	6.09
255.227	4.39
255.696	5.49
256.166	11.79
256.635	6.89
257.105	14.79
257.574	10.69
258.043	11.39
258.513	16.89
258.982	18.29
259.451	10.89
259.92	16.59
260.389	13.69
260.859	13.29
261.328	16.59
261.797	20.79
262.266	12.99
262.735	8.19
263.204	4.39
263.673	-4.71
264.142	8.89
264.611	-0.61
265.08	5.59
265.549	2.19
266.018	10.39
266.487	3.99
266.955	0.89
267.424	5.39
267.893	11.59
268.362	5.39
268.83	0.79
269.299	11.69
269.768	15.09
270.236	10.69
270.705	9.09
271.174	3.49
271.642	9.59
272.111	10.29
272.579	21.09
273.048	26.19
273.516	33.69
273.985	26.09
274.453	26.09
274.922	21.89
275.39	18.69
275.858	6.89
276.327	12.29
276.795	20.99
277.263	14.99
277.731	30.19
278.2	60.49
278.668	65.79
279.136	51.59
279.604	19.99
280.072	20.29
280.54	16.89
281.008	10.79
281.477	15.89
281.945	13.59
282.413	22.19
282.881	16.19
283.348	8.79
283.816	10.19
284.284	14.39
284.752	17.49
285.22	13.69
285.688	17.09
286.156	19.49
286.623	48.59
287.091	55.29
287.559	32.39
288.026	17.39
288.494	18.39
288.962	7.99
289.429	9.99
289.897	24.09
290.364	16.89
290.832	25.99
291.3	20.69
291.767	17.59
292.234	22.99
292.702	15.99
293.169	15.99
293.637	26.09
294.104	24.79
294.571	15.79
295.039	14.19
295.506	10.39
295.973	23.59
296.44	18.29
296.908	14.59
297.375	20.79
297.842	24.69
298.309	16.49
298.776	17.89
299.243	23.49
299.71	13.39
300.177	23.79
300.644	24.59
301.111	22.99
301.578	19.09
302.045	25.19
302.512	22.39
302.979	27.09
303.446	22.19
303.913	18.69
304.379	19.69
304.846	26.69
305.313	23.29
305.78	25.19
306.246	26.89
306.713	28.69
307.18	21.69
307.646	27.69
308.113	28.49
308.579	28.39
309.046	32.69
309.512	28.49
309.979	24.69
310.445	30.39
310.912	31.79
311.378	41.79
311.845	29.79
312.311	30.59
312.777	37.49
313.244	33.89
313.71	44.29
314.176	33.19
314.642	33.49
315.109	33.39
315.575	35.89
316.041	38.49
316.507	36.79
316.973	38.69
317.439	39.29
317.905	42.69
318.371	34.39
318.837	35.09
319.303	37.89
319.769	32.09
320.235	36.79
320.701	40.09
321.167	34.39
321.633	30.59
322.099	40.29
322.564	46.89
323.03	43.29
323.496	42.19
323.962	42.49
324.427	37.49
324.893	49.89
325.359	42.29
325.824	40.49
326.29	38.59
326.755	31.29
327.221	40.39
327.686	39.29
328.152	45.79
328.617	43.79
329.083	46.79
329.548	52.69
330.014	44.99
330.479	46.29
330.944	40.79
331.41	43.19
331.875	49.69
332.34	44.29
332.805	41.39
333.271	46.29
333.736	51.79
334.201	54.19
334.666	54.19
335.131	54.99
335.596	52.69
336.061	49.39
336.526	41.79
336.991	47.09
337.456	56.09
337.921	51.59
338.386	47.89
338.851	43.89
339.316	48.99
339.781	47.29
340.246	52.29
340.711	49.99
341.175	51.09
341.64	46.69
342.105	54.89
342.569	60.19
343.034	62.09
343.499	56.59
343.963	53.29
344.428	64.59
344.893	60.59
345.357	58.89
345.822	58.79
346.286	73.49
346.751	73.49
347.215	70.19
347.679	77.59
348.144	102.49
348.608	85.99
349.073	77.09
349.537	69.79
350.001	75.79
350.465	91.39
350.93	80.59
351.394	85.99
351.858	73.09
352.322	92.59
352.786	83.29
353.25	105.39
353.715	109.49
354.179	104.09
354.643	125.59
355.107	127.59
355.571	109.29
356.035	103.29
356.498	123.39
356.962	125.99
357.426	137.19
357.89	121.69
358.354	96.19
358.818	89.09
359.281	88.59
359.745	89.19
360.209	80.89
360.673	78.29
361.136	82.79
361.6	86.19
362.064	86.99
362.527	88.19
362.991	88.09
363.454	84.19
363.918	79.59
364.381	80.69
364.845	83.49
365.308	86.29
365.772	91.19
366.235	88.09
366.698	83.09
367.162	84.49
367.625	86.89
368.088	90.59
368.552	85.99
369.015	94.69
369.478	91.99
369.941	100.19
370.404	96.29
370.867	106.39
371.331	100.99
371.794	115.59
372.257	109.09
372.72	116.29
373.183	107.39
373.646	105.79
374.109	101.99
374.572	104.79
375.035	111.79
375.497	112.79
375.96	105.29
376.423	104.39
376.886	119.29
377.349	110.29
377.811	107.59
378.274	108.79
378.737	106.49
379.199	111.69
379.662	107.39
380.125	117.29
380.587	116.39
381.05	126.19
381.512	126.69
381.975	133.29
382.437	131.79
382.9	129.79
383.362	135.29
383.825	142.19
384.287	153.09
384.75	139.69
385.212	134.79
385.674	137.29
386.136	141.79
386.599	128.99
387.061	132.69
387.523	129.19
387.985	132.99
388.447	146.19
388.91	144.69
389.372	161.79
389.834	155.79
390.296	139.59
390.758	149.09
391.22	172.99
391.682	209.09
392.144	294.59
392.606	225.29
393.068	169.19
393.529	167.99
393.991	150.59
394.453	140.29
394.915	159.19
395.377	194.49
395.838	211.69
396.3	161.19
396.762	145.99
397.224	134.39
397.685	130.99
398.147	131.79
398.608	125.49
399.07	123.49
399.531	128.89
399.993	140.29
400.454	154.39
400.916	149.69
401.377	141.29
401.839	156.79
402.3	148.29
402.762	160.29
403.223	178.29
403.684	164.59
404.145	159.99
404.607	162.69
405.068	167.29
405.529	177.49
405.99	193.99
406.451	174.39
406.913	168.49
407.374	167.49
407.835	163.09
408.296	168.89
408.757	170.89
409.218	189.29
409.679	175.89
410.14	178.29
410.601	179.89
411.062	183.59
411.522	194.09
411.983	189.09
412.444	178.09
412.905	173.89
413.366	187.19
413.826	193.69
414.287	214.89
414.748	257.49
415.208	246.39
415.669	219.39
416.13	205.49
416.59	202.39
417.051	213.09
417.511	213.79
417.972	238.69
418.432	239.19
418.893	281.79
419.353	237.59
419.814	195.99
420.274	177.89
420.734	175.29
421.195	201.19
421.655	201.09
422.115	191.69
422.576	190.39
423.036	199.89
423.496	207.89
423.956	219.09
424.416	232.99
424.876	257.89
425.336	261.99
425.797	262.19
426.257	254.49
426.717	231.59
427.177	223.09
427.637	218.59
428.097	229.39
428.556	243.29
429.016	270.69
429.476	263.29
429.936	275.39
430.396	276.79
430.856	293.09
431.315	315.29
431.775	351.29
432.235	383.49
432.694	347.69
433.154	368.49
433.614	391.59
434.073	336.59
434.533	284.29
434.993	273.39
435.452	278.09
435.912	298.59
436.371	286.99
436.83	285.29
437.29	269.09
437.749	244.89
438.209	248.89
438.668	272.89
439.127	288.99
439.587	269.69
440.046	247.39
440.505	264.29
440.964	280.49
441.424	322.99
441.883	307.29
442.342	258.89
442.801	226.59
443.26	216.59
443.719	222.29
444.178	217.69
444.637	204.69
445.096	216.99
445.555	221.79
446.014	218.99
446.473	220.79
446.932	226.99
447.391	226.99
447.849	225.09
448.308	215.69
448.767	220.49
449.226	230.59
449.685	233.79
450.143	244.89
450.602	230.09
451.061	226.59
451.519	235.29
451.978	228.89
452.436	235.49
452.895	237.79
453.353	248.59
453.812	243.59
454.27	239.19
454.729	234.69
455.187	237.59
455.646	244.39
456.104	238.49
456.562	258.29
457.021	266.49
457.479	263.69
457.937	275.29
458.395	261.99
458.854	249.19
459.312	256.29
459.77	276.09
460.228	256.19
460.686	242.19
461.144	245.69
461.602	247.29
462.06	243.39
462.518	252.69
462.976	261.79
463.434	260.79
463.892	258.69
464.35	274.79
464.808	290.49
465.266	272.09
465.724	269.09
466.181	269.79
466.639	270.99
467.097	286.69
467.555	299.79
468.012	296.69
468.47	313.69
468.928	328.69
469.385	340.59
469.843	349.09
470.3	339.39
470.758	355.19
471.215	384.09
471.673	404.69
472.13	399.69
472.588	409.69
473.045	374.89
473.503	370.29
473.96	389.79
474.417	403.69
474.875	433.29
475.332	481.69
475.789	452.69
476.246	465.09
476.704	485.49
477.161	504.09
477.618	526.69
478.075	559.79
478.532	618.49
478.989	691.09
479.446	817.49
479.903	777.39
480.36	817.69
480.817	859.99
481.274	976.69
481.731	1072.39
482.188	1172.59
482.645	1303.99
483.102	1422.39
483.558	1553.29
484.015	1597.79
484.472	1582.69
484.929	1519.99
485.385	1481.49
485.842	1448.59
486.299	1377.19
486.755	1309.19
487.212	1092.99
487.668	920.39
488.125	849.79
488.582	772.39
489.038	746.29
489.494	712.89
489.951	690.39
490.407	666.49
490.864	648.19
491.32	642.69
491.776	646.39
492.233	643.19
492.689	608.39
493.145	609.49
493.602	596.79
494.058	609.09
494.514	618.09
494.97	636.19
495.426	643.99
495.882	624.89
496.338	608.09
496.794	630.29
497.251	627.39
497.707	635.49
498.163	646.89
498.618	646.19
499.074	648.79
499.53	681.09
499.986	690.29
500.442	649.89
500.898	633.39
501.354	624.69
501.809	630.99
502.265	640.79
502.721	664.19
503.177	677.79
503.632	668.89
504.088	677.29
504.543	715.09
504.999	710.59
505.455	656.99
505.91	638.59
506.366	630.69
506.821	629.89
507.277	629.69
507.732	617.59
508.187	626.89
508.643	628.59
509.098	647.69
509.553	658.59
510.009	657.69
510.464	679.49
510.919	694.99
511.375	696.29
511.83	706.49
512.285	724.99
512.74	757.89
513.195	779.89
513.65	779.89
514.105	776.69
514.56	768.79
515.015	789.79
515.47	812.59
515.925	799.89
516.38	794.59
516.835	797.59
517.29	781.69
517.745	775.79
518.2	758.29
518.655	745.99
519.109	744.09
519.564	745.39
520.019	734.99
520.474	729.79
520.928	729.99
521.383	717.39
521.838	699.89
522.292	706.79
522.747	707.09
523.201	707.09
523.656	691.99
524.11	695.69
524.565	690.79
525.019	692.49
525.474	710.49
525.928	697.29
526.382	693.09
526.837	694.09
527.291	711.39
527.745	697.99
528.2	692.39
528.654	691.69
529.108	680.29
529.562	696.89
530.016	690.29
530.47	689.59
530.925	693.79
531.379	698.19
531.833	697.59
532.287	708.99
532.741	716.99
533.195	707.39
533.649	710.39
534.103	720.99
534.556	710.79
535.01	716.29
535.464	709.19
535.918	719.89
536.372	722.69
536.826	719.09
537.279	716.69
537.733	708.89
538.187	714.99
538.64	711.39
539.094	722.29
539.548	723.89
540.001	712.09
540.455	724.09
540.908	726.89
541.362	736.99
541.815	740.29
542.269	762.39
542.722	755.39
543.175	766.69
543.629	771.89
544.082	783.19
544.536	784.99
544.989	771.69
545.442	778.19
545.895	783.39
546.349	779.79
546.802	784.09
547.255	799.59
547.708	804.49
548.161	820.59
548.614	808.69
549.067	825.49
549.52	820.99
549.973	810.49
550.426	797.99
550.879	796.79
551.332	798.19
551.785	797.59
552.238	804.19
552.691	808.69
553.144	827.79
553.596	856.09
554.049	863.49
554.502	901.19
554.955	914.49
555.407	915.79
555.86	902.29
556.313	895.59
556.765	879.99
557.218	873.19
557.67	877.09
558.123	874.19
558.576	880.59
559.028	876.99
559.48	886.19
559.933	863.19
560.385	837.99
560.838	799.79
561.29	782.69
561.742	773.39
562.195	760.69
562.647	763.39
563.099	768.09
563.551	769.49
564.004	770.99
564.456	768.09
564.908	758.69
565.36	739.19
565.812	734.79
566.264	725.89
566.716	717.09
567.168	705.19
567.62	719.39
568.072	697.69
568.524	689.39
568.976	682.69
569.428	667.79
569.88	662.79
570.332	668.49
570.784	677.19
571.235	683.19
571.687	684.79
572.139	696.39
572.59	697.19
573.042	710.79
573.494	704.19
573.945	693.39
574.397	693.89
574.849	686.49
575.3	686.09
575.752	673.69
576.203	664.99
576.655	684.99
577.106	664.29
577.557	645.89
578.009	661.59
578.46	668.99
578.912	661.49
579.363	654.09
579.814	651.89
580.265	650.29
580.717	662.99
581.168	656.69
581.619	666.09
582.07	681.19
582.521	666.79
582.972	663.79
583.423	661.19
583.875	677.39
584.326	705.29
584.777	733.39
585.227	809.39
585.678	913.39
586.129	992.29
586.58	1060.39
587.031	1147.59
587.482	1300.09
587.933	1481.59
588.384	1285.49
588.834	959.59
589.285	786.29
589.736	766.79
590.186	760.79
590.637	748.59
591.088	736.69
591.538	718.59
591.989	717.79
592.439	711.09
592.89	707.69
593.34	692.99
593.791	698.29
594.241	695.69
594.692	698.79
595.142	693.19
595.593	689.49
596.043	690.59
596.493	705.19
596.943	706.39
597.394	702.99
597.844	697.89
598.294	721.19
598.744	731.19
599.195	751.49
599.645	798.69
600.095	833.49
600.545	892.29
600.995	949.89
601.445	1000.29
601.895	1069.09
602.345	1106.79
602.795	1090.59
603.245	1050.69
603.695	986.89
604.145	935.99
604.594	890.79
605.044	840.39
605.494	784.09
605.944	727.99
606.393	737.89
606.843	715.89
607.293	724.59
607.743	719.19
608.192	726.69
608.642	743.49
609.091	749.79
609.541	750.19
609.99	750.39
610.44	746.89
610.889	694.99
611.339	690.99
611.788	668.49
612.238	682.89
612.687	696.19
613.136	703.59
613.586	719.99
614.035	717.99
614.484	737.39
614.933	735.69
615.383	729.59
615.832	721.69
616.281	710.39
616.73	667.39
617.179	646.19
617.628	634.19
618.077	615.79
618.526	606.99
618.975	603.39
619.424	592.29
619.873	588.19
620.322	594.29
620.771	585.89
621.22	589.29
621.669	579.99
622.118	573.89
622.567	563.09
623.015	549.39
623.464	552.99
623.913	535.09
624.361	539.69
624.81	538.59
625.259	536.99
625.707	544.29
626.156	537.09
626.604	552.19
627.053	540.79
627.501	550.79
627.95	546.09
628.398	570.29
628.847	550.79
629.295	551.09
629.744	543.49
630.192	551.79
630.64	547.29
631.089	546.59
631.537	563.29
631.985	571.59
632.433	579.09
632.881	589.69
633.33	633.09
633.778	614.29
634.226	543.59
634.674	551.39
635.122	555.99
635.57	579.39
636.018	608.19
636.466	560.59
636.914	542.59
637.362	558.49
637.81	548.79
638.258	562.09
638.705	556.49
639.153	592.69
639.601	597.19
640.049	620.99
640.497	650.09
640.944	669.19
641.392	608.59
641.84	589.49
642.287	565.69
642.735	555.89
643.182	549.09
643.63	542.59
644.078	550.89
644.525	564.19
644.973	573.19
645.42	577.09
645.867	591.59
646.315	620.29
646.762	642.89
647.21	661.89
647.657	685.89
648.104	732.89
648.551	743.89
648.999	796.69
649.446	879.39
649.893	974.69
650.34	1113.99
650.787	1325.89
651.234	1653.89
651.682	2156.99
652.129	2953.39
652.576	4233.69
653.023	6269.79
653.47	8637.79
653.917	10833.39
654.363	12591.39
654.81	14026.09
655.257	13335.19
655.704	8710.09
656.151	5142.59
656.598	3331.99
657.044	2353.09
657.491	1798.39
657.938	1453.59
658.385	1203.59
658.831	1057.79
659.278	922.29
659.724	819.69
660.171	756.29
660.618	703.39
661.064	660.59
661.511	636.59
661.957	625.89
662.404	615.59
662.85	619.99
663.296	598.89
663.743	539.89
664.189	514.79
664.635	515.89
665.082	502.49
665.528	508.49
665.974	497.99
666.42	490.89
666.867	489.89
667.313	467.49
667.759	462.79
668.205	458.69
668.651	468.99
669.097	463.49
669.543	486.09
669.989	445.79
670.435	434.39
670.881	433.09
671.327	432.29
671.773	444.39
672.219	463.19
672.665	518.29
673.11	556.89
673.556	597.09
674.002	641.89
674.448	623.19
674.893	527.29
675.339	453.99
675.785	417.49
676.23	400.49
676.676	376.49
677.122	366.09
677.567	358.79
678.013	354.49
678.458	347.59
678.904	341.59
679.349	326.49
679.794	335.29
680.24	339.19
680.685	330.19
681.131	325.89
681.576	339.89
682.021	329.09
682.466	332.59
682.912	330.99
683.357	338.19
683.802	365.09
684.247	385.49
684.692	437.89
685.137	467.89
685.583	511.39
686.028	539.79
686.473	496.69
686.918	423.89
687.363	398.69
687.807	377.29
688.252	341.69
688.697	327.79
689.142	324.59
689.587	317.39
690.032	313.19
690.477	325.89
690.921	327.99
691.366	358.39
691.811	379.79
692.255	411.99
692.7	434.39
693.145	474.79
693.589	642.49
694.034	1042.49
694.478	1443.39
694.923	1653.49
695.367	2182.19
695.812	1144.89
696.256	473.59
696.701	355.49
697.145	326.69
697.59	319.39
698.034	311.89
698.478	317.79
698.922	307.59
699.367	310.19
699.811	311.19
700.255	336.49
700.699	371.59
701.143	397.49
701.588	453.09
702.032	484.09
702.476	490.59
702.92	454.89
703.364	459.99
703.808	588.59
704.252	958.59
704.696	1358.59
705.14	1586.09
705.584	2026.89
706.027	1012.59
706.471	496.39
706.915	377.09
707.359	334.49
707.803	304.19
708.246	298.19
708.69	292.49
709.134	297.79
709.577	293.29
710.021	290.59
710.465	288.69
710.908	276.09
711.352	283.69
711.795	292.89
712.239	328.69
712.682	362.99
713.126	401.79
713.569	449.49
714.012	354.99
714.456	306.59
714.899	280.49
715.342	255.89
715.786	250.99
716.229	248.49
716.672	244.89
717.115	232.69
717.558	237.29
718.002	240.99
718.445	247.59
718.888	273.59
719.331	284.69
719.774	293.69
720.217	285.49
720.66	263.69
721.103	251.69
721.546	243.29
721.989	232.19
722.432	222.89
722.874	222.89
723.317	217.39
723.76	219.19
724.203	242.09
724.645	297.39
725.088	420.19
725.531	530.99
725.974	610.69
726.416	519.29
726.859	290.19
727.301	239.69
727.744	229.89
728.187	227.89
728.629	229.49
729.071	231.19
729.514	239.89
729.956	260.89
730.399	274.39
730.841	274.89
731.283	259.59
731.726	247.39
732.168	247.39
732.61	254.59
733.053	262.49
733.495	297.19
733.937	333.19
734.379	376.29
734.821	406.89
735.263	495.39
735.705	764.29
736.148	1463.39
736.59	2399.99
737.032	2916.69
737.474	2382.79
737.916	762.09
738.357	404.99
738.799	310.39
739.241	282.19
739.683	269.89
740.125	276.99
740.567	281.99
741.008	301.09
741.45	300.89
741.892	297.99
742.334	321.89
742.775	347.09
743.217	321.29
743.658	263.29
744.1	239.69
744.542	244.29
744.983	291.79
745.425	319.09
745.866	324.69
746.307	266.49
746.749	271.89
747.19	299.99
747.632	418.99
748.073	805.99
748.514	1704.09
748.956	2675.39
749.397	3329.69
749.838	2786.99
750.279	2810.79
750.72	1419.49
751.162	513.39
751.603	294.29
752.044	237.49
752.485	204.69
752.926	197.09
753.367	188.29
753.808	179.79
754.249	172.19
754.69	180.99
755.131	170.49
755.572	173.29
756.013	171.49
756.453	168.79
756.894	172.89
757.335	178.59
757.776	176.29
758.216	182.89
758.657	191.49
759.098	197.79
759.538	208.89
759.979	247.09
760.42	342.19
760.86	639.49
761.301	1658.49
761.741	4102.29
762.182	6144.69
762.622	4321.29
763.063	1234.39
763.503	507.49
763.943	329.99
764.384	320.09
764.824	382.79
765.264	428.99
765.705	285.99
766.145	194.59
766.585	178.39
767.025	173.99
767.465	172.39
767.906	226.99
768.346	303.19
768.786	334.59
769.226	255.19
769.666	289.79
770.106	566.99
770.546	1417.69
770.986	2501.49
771.426	2256.29
771.866	741.69
772.306	313.09
772.745	204.49
773.185	163.99
773.625	164.79
774.065	145.89
774.505	185.29
774.944	280.79
775.384	613.09
775.824	1157.49
776.263	1135.69
776.703	484.19
777.142	208.49
777.582	154.59
778.021	131.79
778.461	131.79
778.9	126.99
779.34	127.19
779.779	112.29
780.219	102.79
780.658	101.09
781.097	110.69
781.537	107.49
781.976	103.49
782.415	101.69
782.855	102.79
783.294	96.59
783.733	102.19
784.172	104.69
784.611	95.89
785.05	99.29
785.489	99.09
785.928	108.09
786.367	113.69
786.806	108.19
787.245	124.59
787.684	132.29
788.123	135.69
788.562	128.09
789.001	118.79
789.44	116.69
789.879	113.69
790.317	113.89
790.756	121.29
791.195	120.29
791.634	134.39
792.072	192.29
792.511	339.99
792.95	922.29
793.388	1997.29
793.827	1858.59
794.265	637.89
794.704	267.69
795.142	177.49
795.581	141.49
796.019	131.89
796.458	122.29
796.896	112.99
797.334	119.39
797.773	147.49
798.211	204.29
798.649	406.49
799.087	936.49
799.526	1478.09
799.964	1872.79
800.402	1917.49
800.84	721.89
801.278	284.49
801.716	178.89
802.154	151.69
802.592	133.89
803.03	130.09
803.468	122.79
803.906	128.89
804.344	140.89
804.782	129.69
805.22	130.59
805.658	119.99
806.096	139.19
806.533	148.89
806.971	156.39
807.409	198.19
807.847	292.39
808.284	595.29
808.722	1704.69
809.16	3104.79
809.597	2887.09
810.035	5059.89
810.472	5530.39
810.91	1976.19
811.347	749.09
811.785	381.59
812.222	236.89
812.66	176.29
813.097	153.79
813.535	130.19
813.972	122.99
814.409	111.49
814.846	104.59
815.284	99.89
815.721	94.09
816.158	97.69
816.595	114.39
817.032	167.79
817.47	184.89
817.907	166.79
818.344	139.29
818.781	108.89
819.218	93.89
819.655	117.49
820.092	175.89
820.529	209.49
820.966	165.59
821.403	128.99
821.839	102.19
822.276	104.89
822.713	112.09
823.15	129.99
823.587	111.09
824.023	132.39
824.46	276.29
824.897	818.89
825.333	1285.09
825.77	545.69
826.206	219.79
826.643	131.69
827.08	92.19
827.516	81.09
827.953	74.09
828.389	73.49
828.825	67.89
829.262	58.29
829.698	54.19
830.135	56.19
830.571	60.59
831.007	61.29
831.443	60.19
831.88	62.69
832.316	62.69
832.752	57.59
833.188	52.39
833.624	61.69
834.06	65.59
834.497	65.89
834.933	64.39
835.369	70.69
835.805	65.59
836.241	71.29
836.677	73.69
837.112	82.49
837.548	96.19
837.984	120.89
838.42	181.59
838.856	449.89
839.292	1404.29
839.727	2190.49
840.163	1005.39
840.599	851.99
841.034	1891.69
841.47	2049.89
841.906	735.59
842.341	312.09
842.777	214.49
843.212	294.19
843.648	304.79
844.083	138.79
844.519	88.09
844.954	69.49
845.39	59.59
845.825	58.79
846.261	58.29
846.696	49.59
847.131	56.59
847.566	54.59
848.002	56.79
848.437	51.49
848.872	56.89
849.307	59.09
849.742	70.19
850.177	159.49
850.613	508.69
851.048	828.99
851.483	357.79
851.918	136.49
852.353	85.39
852.788	62.59
853.223	50.39
853.657	55.09
854.092	41.69
854.527	37.99
854.962	37.89
855.397	48.99
855.832	51.09
856.266	34.59
856.701	32.59
857.136	36.99
857.57	42.99
858.005	45.59
858.44	53.39
858.874	41.39
859.309	49.69
859.743	40.89
860.178	45.89
860.612	38.69
861.047	49.79
861.481	57.49
861.915	63.09
862.35	43.39
862.784	31.49
863.218	33.79
863.653	26.09
864.087	39.29
864.521	52.39
864.955	61.29
865.39	144.09
865.824	170.79
866.258	104.79
866.692	151.79
867.126	167.09
867.56	97.49
867.994	45.89
868.428	30.19
868.862	40.19
869.296	53.09
869.73	53.59
870.164	48.29
870.598	41.29
871.031	32.59
871.465	30.29
871.899	25.79
872.333	23.59
872.766	21.69
873.2	17.69
873.634	29.49
874.067	28.09
874.501	26.89
874.935	32.89
875.368	25.69
875.802	23.39
876.235	24.89
876.669	17.09
877.102	19.69
877.535	26.39
877.969	18.09
878.402	25.99
878.836	17.19
879.269	18.39
879.702	22.09
880.135	22.19
880.569	21.99
881.002	30.19
881.435	19.79
881.868	12.89
882.301	17.19
882.734	15.19
883.167	19.99
883.601	16.69
884.034	22.59
884.467	13.59
884.899	18.49
885.332	15.59
885.765	6.09
886.198	15.89
886.631	18.39
887.064	17.19
887.497	21.39
887.929	22.89
888.362	11.49
888.795	9.09
889.228	14.09
889.66	20.59
890.093	16.59
890.526	13.39
890.958	19.39
891.391	18.79
891.823	23.59
892.256	13.39
892.688	17.19
893.121	16.09
893.553	13.59
893.985	20.59
894.418	21.89
894.85	9.99
895.282	12.49
895.715	12.39
896.147	17.49
896.579	14.49
897.011	11.49
897.444	20.19
897.876	12.49
898.308	12.39
898.74	13.39
899.172	10.49
899.604	18.99
900.036	21.89
900.468	13.79
900.9	11.39
901.332	14.39
901.764	5.59
902.196	16.69
902.628	18.39
903.06	14.19
903.491	26.59
903.923	26.29
904.355	14.49
904.787	23.19
905.218	21.39
905.65	18.59
906.082	12.49
906.513	6.89
906.945	14.69
907.376	15.99
907.808	15.09
908.239	19.59
908.671	18.69
909.102	14.19
909.534	21.19
909.965	39.89
910.397	83.79
910.828	289.79
911.259	454.49
911.691	202.49
912.122	97.49
912.553	48.39
912.984	33.69
913.415	27.29
913.847	24.19
914.278	16.99
914.709	11.89
915.14	18.39
915.571	10.49
916.002	15.39
916.433	15.89
916.864	20.89
917.295	15.09
917.726	22.79
918.157	14.19
918.587	28.79
919.018	22.09
919.449	18.69
919.88	21.59
920.311	32.79
920.741	40.49
921.172	154.49
921.603	143.99
922.033	66.69
922.464	47.49
922.895	18.69
923.325	26.89
923.756	8.99
924.186	13.29
924.617	20.29
925.047	37.29
925.478	56.49
925.908	42.19
926.338	27.09
926.769	15.29
927.199	14.39
927.629	9.59
928.06	14.69
928.49	14.09
928.92	11.29
929.35	11.69
929.78	6.79
930.21	8.49
930.641	10.59
931.071	6.29
931.501	-3.01
931.931	4.19
932.361	13.79
932.791	7.79
933.221	1.99
933.651	3.49
934.08	11.59
934.51	33.49
934.94	11.09
935.37	8.99
935.8	9.79
936.229	4.39
936.659	11.49
937.089	1.09
937.519	12.39
937.948	20.39
938.378	18.29
938.807	8.49
939.237	7.09
939.666	3.59
940.096	-4.21
940.525	6.79
940.955	7.59
941.384	-1.41
941.814	-7.51
942.243	-2.21
942.672	5.69
943.102	0.19
943.531	-2.71
943.96	5.59
944.39	1.29
944.819	5.29
945.248	2.49
945.677	1.19
946.106	2.39
946.535	9.79
946.964	-2.71
947.393	3.29
947.822	2.89
948.251	-7.41
948.68	1.29
949.109	3.39
949.538	6.09
949.967	2.79
950.396	1.09
950.825	0.19
951.254	3.69
951.682	-4.71
952.111	3.79
952.54	3.19
952.969	-2.81
953.397	-6.41
953.826	-0.01
954.254	-1.01
954.683	2.19
955.112	-2.31
955.54	7.29
955.969	2.09
956.397	0.19
956.826	-2.71
957.254	13.29
957.682	-0.21
958.111	1.29
958.539	-1.81
958.967	-1.11
959.396	3.39
959.824	5.49
960.252	1.39
960.68	-6.81
961.109	-5.51
961.537	-6.31
961.965	-2.61
962.393	1.49
962.821	-7.91
963.249	-2.51
963.677	-2.41
964.105	6.69
964.533	42.59
964.961	43.49
965.389	21.59
965.817	8.29
966.245	3.19
966.672	-6.11
967.1	1.69
967.528	-6.81
967.956	-4.61
968.383	-1.61
968.811	-4.91
969.239	-5.71
969.666	-12.41
970.094	-5.91
970.522	-3.41
970.949	-3.01
971.377	0.09
971.804	-2.31
972.232	-0.71
972.659	-0.21
973.087	-3.31
973.514	-8.91
973.941	-8.91
974.369	-0.31
974.796	3.19
975.223	-3.21
975.651	0.19
976.078	1.89
976.505	-0.11
976.932	4.39
977.359	17.99
977.786	12.99
978.214	0.89
978.641	-1.51
979.068	-2.01
979.495	-4.21
979.922	-1.71
980.349	2.89
980.776	2.89
981.202	-3.01
981.629	5.29
982.056	3.49
982.483	4.39
982.91	0.99
983.337	-9.41
983.763	4.99
984.19	-8.21
984.617	-3.01
985.043	-11.41
985.47	-2.71
985.897	-7.91
986.323	-3.31
986.75	3.49
987.176	0.39
987.603	-2.01
988.029	-0.31
988.456	-8.01
988.882	-4.81
989.308	-5.91
989.735	-3.61
990.161	-2.21
990.587	-9.61
991.014	-1.01
991.44	8.79
991.866	-1.91
992.292	-6.41
992.719	-4.51
993.145	2.69
993.571	-5.41
993.997	-6.11
994.423	1.19
994.849	-5.41
995.275	1.39
995.701	-5.01
996.127	-1.21
996.553	3.39
996.979	-4.71
997.405	-2.01
997.83	-8.61
998.256	-9.91
998.682	-5.81
999.108	-6.61
999.534	-6.21
999.959	-2.71
1000.385	-10.41
1000.811	-1.31
1001.236	-7.91
1001.662	-8.31
1002.087	-7.41
1002.513	-0.11
1002.938	5.29
1003.364	-5.21
1003.789	1.49
1004.215	2.69
1004.64	2.59
1005.066	5.89
1005.491	-4.71
1005.916	1.29
1006.342	-1.01
1006.767	-6.31
1007.192	8.49
1007.617	-7.71
1008.042	-7.91
1008.468	-5.61
1008.893	-2.41
1009.318	-1.31
1009.743	-1.91
1010.168	1.69
1010.593	2.29
1011.018	0.19
1011.443	-1.81
1011.868	3.69
1012.293	-2.01
1012.718	-7.61
1013.143	1.09
1013.567	2.29
1013.992	-2.11
1014.417	-13.11
1014.842	8.79
1015.267	-6.81
1015.691	-1.81
1016.116	3.99
1016.541	-1.31
1016.965	-3.61
1017.39	4.49
1017.814	1.09
1018.239	-0.61
1018.663	-6.51
1019.088	-8.91
1019.512	-2.41
1019.937	0.29
1020.361	-3.61
1020.785	-5.91
1021.21	3.29
1021.634	-5.91
1022.058	-0.81
1022.483	3.89
1022.907	-5.41
1023.331	-4.91
1023.755	-7.61
1024.179	-5.01
1024.604	-6.11
1025.028	-6.61
1025.452	-3.91
1025.876	-1.01
1026.3	-2.41
1026.724	-16.21
1027.148	-5.81
1027.572	-7.21
1027.996	-5.41
1028.42	-0.41
1028.843	-3.11
1029.267	-5.01
1029.691	-1.91
1030.115	-3.61
1030.539	-6.51
1030.962	0.29
1031.386	-11.51
1031.81	2.49
1032.233	-6.21
1032.657	-2.11
1033.08	-5.01
1033.504	-4.81
1033.927	-3.21
1034.351	-2.51
1034.774	-11.01
1035.198	0.49
1035.621	-5.01
1036.045	-8.81
1036.468	-2.51
1036.891	-9.81
1037.315	-13.21
1037.738	-6.71
1038.161	-3.01
1038.584	-3.81
1039.008	-6.81
1039.431	-0.61
1039.854	-2.01
1040.277	-8.61
1040.7	-10.01
1041.123	-4.81
1041.546	-10.91
1041.969	-5.61
1042.392	-4.51
1042.815	-2.41
1043.238	0.89
1043.661	1.49
1044.084	-3.31
1044.507	-11.01
1044.93	-4.71
1045.352	0.19
1045.775	-1.11
1046.198	-1.21
1046.621	-1.31
1047.043	1.09
1047.466	3.99
1047.889	-3.61
1048.311	-7.01
1048.734	-6.01
1049.156	-2.91
1049.579	-6.51
1050.001	-4.81
1050.424	-2.01
1050.846	-4.31
1051.269	-5.21
1051.691	-4.81
1052.113	-5.71
1052.536	-0.81
1052.958	-6.41
1053.38	-4.61
1053.802	-14.11
1054.225	1.49
1054.647	-5.91
1055.069	-4.31
1055.491	-3.51
1055.913	-7.21
1056.335	-4.71
1056.757	-3.01
1057.179	-4.71
1057.601	-5.51
1058.023	-4.81
1058.445	-3.31
1058.867	-5.91
1059.289	-1.11
1059.711	-3.91
1060.133	-2.11
1060.555	-6.31
1060.976	-8.61
1061.398	-6.61
1061.82	-4.31
1062.241	-2.81
1062.663	-4.71
1063.085	-6.11
1063.506	-4.61
1063.928	-5.81
1064.35	-5.21
1064.771	-8.91
1065.193	-6.41
1065.614	-11.01
1066.035	-1.61
1066.457	-5.41
1066.878	3.59
1067.3	-6.41
1067.721	-5.01
1068.142	-9.61
1068.564	-9.71
1068.985	-2.51
1069.406	0.29
1069.827	-2.51
1070.248	-1.21
1070.67	-11.21
1071.091	-7.61
1071.512	-3.31
1071.933	-6.81
1072.354	-4.51
1072.775	-7.81
1073.196	-9.51
1073.617	-1.31
1074.038	0.49
1074.459	-1.51
1074.88	-10.81
1075.3	0.29
1075.721	-3.01
1076.142	0.29
1076.563	1.79
1076.983	-9.91
1077.404	-9.11
1077.825	-10.41
1078.246	-3.81
1078.666	-12.11
1079.087	-7.11
1079.507	-7.11
1079.928	0.29
1080.348	4.09
1080.769	-7.61
1081.189	-6.11
1081.61	-5.71
1082.03	-5.01
1082.451	-11.91
1082.871	-2.81
1083.291	-4.71
1083.711	-11.81
1084.132	-7.31
1084.552	-4.81
1084.972	-3.21
1085.392	-10.11
1085.813	-10.41
1086.233	-5.21
1086.653	-6.21
1087.073	-2.21
1087.493	-8.81
1087.913	-7.01
1088.333	-6.01
1088.753	-5.71
1089.173	-0.31
1089.593	-6.71
1090.013	-6.61
1090.433	1.99
1090.852	-5.51
1091.272	-0.61
1091.692	-3.21
1092.112	-8.71
1092.531	-9.11
1092.951	-10.91
1093.371	-0.61
1093.79	-4.11
1094.21	-4.11
1094.63	-6.41
1095.049	-2.71
1095.469	0.19
1095.888	-2.31
1096.308	-2.01
1096.727	-1.41
1097.146	-5.21
1097.566	-0.21
1097.985	-7.51
1098.405	-2.11
1098.824	-1.21
1099.243	-9.21
1099.662	-8.11
1100.082	-9.51
1100.501	2.99
1100.92	-7.11
1101.339	-10.81
1101.758	-5.81
