Data from 20171114-ORNL-Ar_H_NY_Subt18_08-08-44-893.txt Node
Date: Tue Nov 14 08:08:44 EST 2017
User: Ender
Spectrometer: HR+D1039
Trigger mode: 0
Integration Time (sec): 2.730000E-2
Scans to average: 10
Electric dark correction enabled: true
Nonlinearity correction enabled: false
Boxcar width: 0
XAxis mode: Wavelengths
Number of Pixels in Spectrum: 2048
>>>>>Begin Spectral Data<<<<<
187.836	-7.17
188.309	-7.17
188.782	-7.17
189.255	2.03
189.728	2.63
190.201	-0.77
190.674	-0.27
191.147	-0.17
191.619	-0.87
192.092	7.23
192.565	6.43
193.038	0.13
193.511	-1.67
193.984	2.63
194.456	-5.57
194.929	0.63
195.402	-6.87
195.874	1.63
196.347	-0.87
196.82	-12.67
197.292	5.53
197.765	-4.67
198.237	-2.47
198.71	-0.27
199.182	-0.57
199.655	1.13
200.127	0.33
200.6	-11.57
201.072	-2.67
201.544	-4.97
202.017	-1.47
202.489	6.83
202.961	-4.17
203.433	-6.17
203.906	-2.27
204.378	-5.87
204.85	1.73
205.322	-6.67
205.794	-3.17
206.266	-3.57
206.739	-7.67
207.211	-4.47
207.683	-6.47
208.155	-7.97
208.627	-8.47
209.099	-1.17
209.57	-6.57
210.042	-0.77
210.514	1.93
210.986	-2.17
211.458	-11.37
211.93	-0.47
212.402	-1.07
212.873	-4.17
213.345	-11.97
213.817	-10.17
214.288	-4.27
214.76	-14.27
215.232	-3.67
215.703	1.93
216.175	0.03
216.646	-3.77
217.118	-8.67
217.589	-4.47
218.061	-3.47
218.532	-0.37
219.004	-2.77
219.475	-1.77
219.946	-3.67
220.418	-5.07
220.889	2.83
221.36	3.03
221.832	2.53
222.303	-3.87
222.774	-0.47
223.245	-6.37
223.717	-11.47
224.188	-4.37
224.659	-9.67
225.13	-8.77
225.601	-0.77
226.072	-2.77
226.543	-8.17
227.014	-2.87
227.485	1.63
227.956	-8.07
228.427	-4.87
228.898	1.53
229.369	1.93
229.839	1.13
230.31	-7.27
230.781	5.13
231.252	-2.57
231.722	-4.17
232.193	-1.07
232.664	-4.37
233.135	-0.07
233.605	-1.37
234.076	-7.37
234.546	-0.37
235.017	6.93
235.487	-4.57
235.958	-7.27
236.428	-3.77
236.899	1.83
237.369	-0.97
237.84	-5.07
238.31	7.83
238.78	0.53
239.251	-4.27
239.721	-3.07
240.191	1.13
240.662	-1.87
241.132	3.03
241.602	-7.17
242.072	-3.67
242.542	1.73
243.013	-3.27
243.483	0.03
243.953	4.53
244.423	5.43
244.893	-11.97
245.363	-6.97
245.833	4.43
246.303	-1.67
246.773	6.73
247.243	-0.87
247.712	-2.27
248.182	1.13
248.652	0.83
249.122	-6.67
249.592	5.33
250.061	6.53
250.531	20.33
251.001	5.63
251.471	8.23
251.94	9.03
252.41	-2.57
252.879	-1.57
253.349	6.43
253.818	5.23
254.288	5.03
254.757	3.03
255.227	-1.27
255.696	-1.47
256.166	1.33
256.635	-5.27
257.105	3.23
257.574	0.03
258.043	7.13
258.513	1.93
258.982	5.93
259.451	-2.17
259.92	-3.57
260.389	2.33
260.859	7.03
261.328	5.13
261.797	6.83
262.266	-4.17
262.735	10.43
263.204	-1.47
263.673	-0.57
264.142	0.93
264.611	-8.07
265.08	-5.97
265.549	-4.87
266.018	8.23
266.487	-3.27
266.955	-7.37
267.424	-2.47
267.893	-2.17
268.362	-3.37
268.83	0.03
269.299	6.03
269.768	1.93
270.236	3.23
270.705	0.93
271.174	2.43
271.642	10.03
272.111	5.23
272.579	4.73
273.048	6.23
273.516	15.63
273.985	15.23
274.453	7.93
274.922	7.33
275.39	6.43
275.858	-1.17
276.327	9.03
276.795	8.53
277.263	0.53
277.731	19.13
278.2	29.33
278.668	28.53
279.136	24.33
279.604	7.03
280.072	7.43
280.54	7.83
281.008	3.23
281.477	2.03
281.945	2.83
282.413	9.53
282.881	13.63
283.348	5.63
283.816	7.43
284.284	10.13
284.752	15.63
285.22	11.83
285.688	10.83
286.156	9.83
286.623	32.03
287.091	28.53
287.559	13.73
288.026	8.53
288.494	8.23
288.962	-2.77
289.429	6.63
289.897	12.03
290.364	7.53
290.832	13.13
291.3	6.93
291.767	14.13
292.234	6.13
292.702	1.83
293.169	13.63
293.637	17.83
294.104	13.53
294.571	1.53
295.039	6.13
295.506	11.83
295.973	7.43
296.44	13.83
296.908	10.13
297.375	5.73
297.842	11.13
298.309	7.43
298.776	8.33
299.243	11.83
299.71	15.03
300.177	23.23
300.644	13.33
301.111	10.53
301.578	16.03
302.045	10.63
302.512	14.83
302.979	15.33
303.446	20.23
303.913	14.63
304.379	7.03
304.846	18.63
305.313	15.73
305.78	8.93
306.246	15.33
306.713	17.23
307.18	14.23
307.646	17.53
308.113	16.13
308.579	11.23
309.046	17.63
309.512	23.73
309.979	11.93
310.445	19.53
310.912	20.33
311.378	21.53
311.845	24.03
312.311	19.33
312.777	28.43
313.244	19.03
313.71	27.53
314.176	26.63
314.642	21.53
315.109	24.93
315.575	22.63
316.041	31.53
316.507	22.63
316.973	30.43
317.439	27.23
317.905	33.13
318.371	30.53
318.837	26.53
319.303	24.53
319.769	21.23
320.235	27.03
320.701	29.73
321.167	26.23
321.633	25.83
322.099	33.13
322.564	28.63
323.03	33.63
323.496	26.63
323.962	26.13
324.427	26.13
324.893	27.33
325.359	27.03
325.824	29.83
326.29	31.93
326.755	26.43
327.221	31.33
327.686	26.83
328.152	31.73
328.617	35.23
329.083	31.03
329.548	44.03
330.014	36.53
330.479	35.53
330.944	31.23
331.41	39.23
331.875	37.43
332.34	36.23
332.805	33.13
333.271	39.73
333.736	36.63
334.201	38.93
334.666	39.83
335.131	43.33
335.596	46.33
336.061	44.93
336.526	34.13
336.991	36.53
337.456	44.53
337.921	36.03
338.386	34.73
338.851	38.33
339.316	41.63
339.781	36.03
340.246	49.73
340.711	38.33
341.175	43.53
341.64	39.23
342.105	45.03
342.569	48.53
343.034	49.03
343.499	47.53
343.963	39.43
344.428	51.33
344.893	54.43
345.357	47.63
345.822	48.03
346.286	56.63
346.751	54.13
347.215	55.43
347.679	59.73
348.144	71.63
348.608	68.43
349.073	59.23
349.537	62.43
350.001	64.93
350.465	78.53
350.93	68.53
351.394	64.53
351.858	66.83
352.322	72.03
352.786	69.93
353.25	84.63
353.715	97.73
354.179	88.03
354.643	97.43
355.107	104.93
355.571	88.23
356.035	85.13
356.498	103.43
356.962	91.23
357.426	106.63
357.89	103.33
358.354	74.83
358.818	76.63
359.281	67.13
359.745	67.13
360.209	68.03
360.673	68.03
361.136	69.93
361.6	73.53
362.064	81.03
362.527	74.53
362.991	79.53
363.454	68.93
363.918	61.93
364.381	70.93
364.845	76.23
365.308	79.23
365.772	78.53
366.235	74.13
366.698	72.63
367.162	78.23
367.625	74.33
368.088	85.43
368.552	79.23
369.015	70.03
369.478	87.33
369.941	91.53
370.404	87.63
370.867	95.13
371.331	91.33
371.794	95.23
372.257	92.23
372.72	97.13
373.183	102.03
373.646	89.73
374.109	92.63
374.572	93.73
375.035	88.03
375.497	96.73
375.96	91.13
376.423	91.33
376.886	101.23
377.349	95.93
377.811	93.33
378.274	97.53
378.737	99.03
379.199	103.63
379.662	102.33
380.125	102.43
380.587	101.13
381.05	104.53
381.512	112.33
381.975	114.13
382.437	118.53
382.9	110.03
383.362	119.63
383.825	121.63
384.287	126.53
384.75	119.63
385.212	124.33
385.674	125.83
386.136	128.23
386.599	110.93
387.061	122.13
387.523	121.23
387.985	127.73
388.447	135.93
388.91	129.03
389.372	134.63
389.834	129.73
390.296	131.73
390.758	137.73
391.22	149.23
391.682	183.93
392.144	235.93
392.606	188.03
393.068	150.23
393.529	153.83
393.991	134.43
394.453	126.63
394.915	142.73
395.377	169.53
395.838	175.43
396.3	141.83
396.762	129.73
397.224	127.43
397.685	128.83
398.147	126.23
398.608	126.03
399.07	125.83
399.531	127.33
399.993	130.43
400.454	143.33
400.916	136.83
401.377	140.53
401.839	147.33
402.3	142.73
402.762	158.23
403.223	170.23
403.684	158.83
404.145	152.63
404.607	154.53
405.068	152.13
405.529	160.33
405.99	173.73
406.451	170.83
406.913	167.43
407.374	157.33
407.835	162.23
408.296	160.63
408.757	169.83
409.218	178.53
409.679	165.63
410.14	168.63
410.601	168.13
411.062	171.43
411.522	185.33
411.983	176.03
412.444	171.83
412.905	176.43
413.366	176.63
413.826	196.63
414.287	214.73
414.748	257.33
415.208	245.83
415.669	207.93
416.13	198.33
416.59	203.03
417.051	214.03
417.511	211.73
417.972	229.03
418.432	247.63
418.893	283.03
419.353	250.43
419.814	196.53
420.274	177.73
420.734	183.03
421.195	193.93
421.655	185.53
422.115	187.03
422.576	193.53
423.036	191.73
423.496	203.93
423.956	214.63
424.416	223.73
424.876	258.53
425.336	258.03
425.797	256.73
426.257	243.13
426.717	236.93
427.177	230.83
427.637	229.93
428.097	227.23
428.556	236.73
429.016	263.53
429.476	259.03
429.936	266.43
430.396	265.83
430.856	277.13
431.315	307.83
431.775	335.83
432.235	361.93
432.694	342.93
433.154	353.33
433.614	378.83
434.073	326.23
434.533	283.23
434.993	258.83
435.452	276.33
435.912	289.93
436.371	274.03
436.83	274.13
437.29	258.73
437.749	244.03
438.209	242.33
438.668	267.23
439.127	281.63
439.587	253.13
440.046	236.53
440.505	255.93
440.964	275.33
441.424	309.53
441.883	296.33
442.342	255.13
442.801	224.43
443.26	217.23
443.719	218.93
444.178	216.53
444.637	208.93
445.096	215.83
445.555	221.03
446.014	223.03
446.473	223.33
446.932	233.33
447.391	226.93
447.849	224.43
448.308	214.93
448.767	218.43
449.226	233.53
449.685	236.43
450.143	250.43
450.602	232.43
451.061	233.33
451.519	231.33
451.978	233.03
452.436	233.43
452.895	235.33
453.353	251.33
453.812	241.53
454.27	231.33
454.729	241.63
455.187	232.33
455.646	243.43
456.104	247.83
456.562	262.53
457.021	266.33
457.479	258.63
457.937	270.93
458.395	266.43
458.854	244.93
459.312	252.83
459.77	277.83
460.228	252.93
460.686	244.83
461.144	246.13
461.602	250.13
462.06	241.33
462.518	250.93
462.976	259.63
463.434	261.73
463.892	261.33
464.35	274.13
464.808	284.83
465.266	262.93
465.724	264.13
466.181	273.63
466.639	270.23
467.097	287.73
467.555	299.13
468.012	300.13
468.47	299.83
468.928	327.83
469.385	338.63
469.843	338.23
470.3	346.33
470.758	361.23
471.215	385.83
471.673	404.63
472.13	398.83
472.588	409.13
473.045	372.33
473.503	374.83
473.96	390.23
474.417	398.83
474.875	432.13
475.332	474.33
475.789	453.63
476.246	461.33
476.704	492.03
477.161	504.93
477.618	522.23
478.075	548.33
478.532	604.13
478.989	671.73
479.446	793.43
479.903	753.13
480.36	782.23
480.817	838.63
481.274	931.03
481.731	1014.23
482.188	1107.03
482.645	1224.73
483.102	1318.63
483.558	1456.23
484.015	1500.13
484.472	1459.13
484.929	1434.03
485.385	1375.73
485.842	1338.43
486.299	1287.23
486.755	1239.93
487.212	1042.13
487.668	890.03
488.125	833.03
488.582	764.13
489.038	725.93
489.494	695.53
489.951	665.73
490.407	647.13
490.864	636.83
491.32	628.33
491.776	645.03
492.233	640.43
492.689	601.83
493.145	593.03
493.602	587.93
494.058	605.23
494.514	606.23
494.97	623.33
495.426	642.03
495.882	619.93
496.338	606.63
496.794	616.93
497.251	619.93
497.707	629.53
498.163	634.13
498.618	631.23
499.074	633.33
499.53	653.23
499.986	659.33
500.442	642.23
500.898	615.53
501.354	622.33
501.809	627.93
502.265	631.73
502.721	637.93
503.177	652.93
503.632	646.03
504.088	665.23
504.543	682.13
504.999	701.33
505.455	648.23
505.91	634.73
506.366	628.23
506.821	625.63
507.277	632.53
507.732	625.43
508.187	623.73
508.643	628.33
509.098	636.53
509.553	650.83
510.009	661.73
510.464	664.93
510.919	695.43
511.375	693.43
511.83	699.43
512.285	716.03
512.74	747.93
513.195	779.83
513.65	769.33
514.105	755.03
514.56	761.33
515.015	783.73
515.47	796.43
515.925	781.43
516.38	781.63
516.835	780.83
517.29	772.43
517.745	767.13
518.2	759.83
518.655	741.13
519.109	737.13
519.564	741.33
520.019	727.13
520.474	725.53
520.928	731.33
521.383	713.63
521.838	706.03
522.292	710.13
522.747	723.23
523.201	712.53
523.656	700.93
524.11	693.03
524.565	690.23
525.019	686.43
525.474	692.93
525.928	703.53
526.382	697.33
526.837	690.93
527.291	716.43
527.745	692.93
528.2	688.93
528.654	685.23
529.108	693.53
529.562	688.33
530.016	684.63
530.47	679.83
530.925	686.23
531.379	698.93
531.833	705.03
532.287	696.23
532.741	696.53
533.195	696.03
533.649	712.53
534.103	712.63
534.556	704.83
535.01	705.13
535.464	701.63
535.918	706.23
536.372	706.53
536.826	716.93
537.279	709.83
537.733	706.93
538.187	709.93
538.64	702.83
539.094	721.33
539.548	726.93
540.001	725.13
540.455	728.63
540.908	730.83
541.362	730.53
541.815	752.13
542.269	762.43
542.722	758.43
543.175	759.93
543.629	771.13
544.082	793.63
544.536	779.23
544.989	780.43
545.442	799.63
545.895	784.13
546.349	795.53
546.802	796.43
547.255	808.23
547.708	802.03
548.161	820.23
548.614	818.23
549.067	837.93
549.52	816.83
549.973	811.63
550.426	807.83
550.879	792.53
551.332	804.63
551.785	813.23
552.238	805.63
552.691	819.83
553.144	838.33
553.596	849.63
554.049	869.73
554.502	889.53
554.955	910.63
555.407	908.53
555.86	899.73
556.313	887.93
556.765	879.43
557.218	890.53
557.67	883.23
558.123	880.23
558.576	868.73
559.028	877.13
559.48	885.33
559.933	875.13
560.385	842.93
560.838	817.83
561.29	790.43
561.742	793.63
562.195	768.53
562.647	775.23
563.099	785.53
563.551	773.23
564.004	797.03
564.456	775.33
564.908	753.73
565.36	745.23
565.812	729.43
566.264	727.43
566.716	723.23
567.168	711.23
567.62	717.23
568.072	709.93
568.524	701.73
568.976	691.83
569.428	676.83
569.88	676.23
570.332	693.23
570.784	681.93
571.235	682.83
571.687	699.73
572.139	714.53
572.59	709.53
573.042	709.43
573.494	711.13
573.945	709.63
574.397	681.23
574.849	693.23
575.3	690.43
575.752	677.73
576.203	676.13
576.655	687.73
577.106	685.23
577.557	666.83
578.009	672.83
578.46	675.13
578.912	660.23
579.363	670.03
579.814	674.03
580.265	663.33
580.717	669.93
581.168	667.73
581.619	679.73
582.07	691.83
582.521	676.43
582.972	677.93
583.423	687.43
583.875	683.23
584.326	702.63
584.777	738.93
585.227	779.83
585.678	847.63
586.129	907.43
586.58	952.63
587.031	1003.33
587.482	1107.63
587.933	1221.53
588.384	1094.33
588.834	901.43
589.285	794.33
589.736	779.13
590.186	781.23
590.637	773.93
591.088	746.73
591.538	735.43
591.989	732.63
592.439	743.03
592.89	725.03
593.34	716.43
593.791	704.33
594.241	710.83
594.692	708.73
595.142	694.53
595.593	695.83
596.043	713.73
596.493	716.63
596.943	718.23
597.394	723.43
597.844	725.33
598.294	739.03
598.744	755.03
599.195	775.33
599.645	834.43
600.095	869.43
600.545	930.33
600.995	975.13
601.445	1029.73
601.895	1104.83
602.345	1146.13
602.795	1119.73
603.245	1078.83
603.695	1018.43
604.145	975.63
604.594	923.33
605.044	870.63
605.494	813.13
605.944	760.23
606.393	755.03
606.843	740.13
607.293	739.63
607.743	740.93
608.192	751.53
608.642	762.33
609.091	765.83
609.541	784.43
609.99	768.63
610.44	773.13
610.889	718.33
611.339	708.13
611.788	694.73
612.238	703.43
612.687	717.13
613.136	716.53
613.586	720.43
614.035	728.33
614.484	731.43
614.933	738.63
615.383	739.53
615.832	721.73
616.281	726.43
616.73	695.13
617.179	668.83
617.628	652.63
618.077	635.53
618.526	631.33
618.975	618.63
619.424	624.53
619.873	624.93
620.322	623.73
620.771	618.13
621.22	608.23
621.669	593.63
622.118	590.53
622.567	592.23
623.015	573.03
623.464	574.23
623.913	565.13
624.361	552.53
624.81	556.63
625.259	565.73
625.707	557.83
626.156	557.83
626.604	586.03
627.053	574.33
627.501	570.83
627.95	583.83
628.398	591.13
628.847	578.93
629.295	587.73
629.744	579.53
630.192	577.23
630.64	567.93
631.089	569.93
631.537	567.63
631.985	575.23
632.433	578.83
632.881	585.43
633.33	617.03
633.778	607.83
634.226	557.03
634.674	569.03
635.122	575.03
635.57	594.33
636.018	612.03
636.466	576.53
636.914	561.53
637.362	582.53
637.81	579.33
638.258	587.73
638.705	590.33
639.153	621.13
639.601	625.83
640.049	647.73
640.497	674.13
640.944	697.33
641.392	649.63
641.84	624.23
642.287	591.93
642.735	579.03
643.182	577.03
643.63	576.63
644.078	574.83
644.525	589.63
644.973	598.63
645.42	606.53
645.867	629.13
646.315	640.83
646.762	675.83
647.21	692.03
647.657	709.43
648.104	742.43
648.551	773.63
648.999	839.83
649.446	911.53
649.893	997.53
650.34	1155.23
650.787	1372.13
651.234	1708.43
651.682	2211.73
652.129	3031.43
652.576	4346.13
653.023	6368.53
653.47	8628.83
653.917	10656.23
654.363	12196.63
654.81	13458.53
655.257	12713.73
655.704	8395.13
656.151	5029.43
656.598	3268.33
657.044	2333.03
657.491	1810.53
657.938	1453.73
658.385	1213.23
658.831	1065.63
659.278	951.53
659.724	850.23
660.171	777.03
660.618	721.43
661.064	687.73
661.511	667.53
661.957	657.53
662.404	646.93
662.85	649.93
663.296	619.73
663.743	561.73
664.189	549.53
664.635	538.53
665.082	535.53
665.528	541.03
665.974	529.13
666.42	519.03
666.867	512.63
667.313	496.13
667.759	480.93
668.205	478.93
668.651	474.83
669.097	472.03
669.543	475.63
669.989	463.03
670.435	459.73
670.881	447.33
671.327	455.13
671.773	482.13
672.219	502.73
672.665	564.03
673.11	618.53
673.556	649.83
674.002	672.73
674.448	665.53
674.893	561.43
675.339	488.93
675.785	444.93
676.23	425.23
676.676	397.43
677.122	385.03
677.567	380.73
678.013	365.13
678.458	357.53
678.904	368.73
679.349	360.03
679.794	370.93
680.24	357.03
680.685	359.63
681.131	353.23
681.576	358.03
682.021	364.23
682.466	352.53
682.912	354.63
683.357	366.23
683.802	392.53
684.247	425.73
684.692	470.73
685.137	503.63
685.583	549.63
686.028	580.33
686.473	527.33
686.918	452.03
687.363	426.13
687.807	403.33
688.252	374.43
688.697	360.83
689.142	338.03
689.587	341.33
690.032	341.53
690.477	354.53
690.921	355.73
691.366	390.93
691.811	408.03
692.255	438.53
692.7	467.33
693.145	531.13
693.589	742.63
694.034	1190.33
694.478	1594.83
694.923	1758.43
695.367	2284.23
695.812	1213.53
696.256	506.03
696.701	381.53
697.145	355.13
697.59	340.43
698.034	328.53
698.478	335.53
698.922	337.03
699.367	337.23
699.811	353.33
700.255	356.03
700.699	394.13
701.143	436.13
701.588	483.33
702.032	524.33
702.476	533.23
702.92	504.43
703.364	515.63
703.808	677.53
704.252	1106.73
704.696	1518.33
705.14	1703.83
705.584	2160.83
706.027	1086.53
706.471	536.43
706.915	404.13
707.359	366.63
707.803	325.63
708.246	322.13
708.69	318.73
709.134	315.13
709.577	316.33
710.021	325.23
710.465	316.53
710.908	307.33
711.352	303.53
711.795	320.03
712.239	363.03
712.682	398.93
713.126	428.43
713.569	464.13
714.012	378.63
714.456	326.53
714.899	300.73
715.342	288.83
715.786	268.13
716.229	264.03
716.672	261.43
717.115	253.63
717.558	257.63
718.002	255.83
718.445	270.83
718.888	295.33
719.331	305.43
719.774	315.93
720.217	314.93
720.66	287.63
721.103	273.93
721.546	258.63
721.989	258.13
722.432	235.53
722.874	249.03
723.317	235.53
723.76	241.23
724.203	255.83
724.645	327.53
725.088	470.93
725.531	592.63
725.974	650.83
726.416	549.43
726.859	312.83
727.301	255.93
727.744	243.53
728.187	236.93
728.629	246.43
729.071	247.23
729.514	272.23
729.956	278.43
730.399	292.43
730.841	301.93
731.283	282.33
731.726	272.53
732.168	269.13
732.61	277.13
733.053	291.83
733.495	332.33
733.937	364.13
734.379	410.53
734.821	454.93
735.263	580.43
735.705	894.33
736.148	1683.63
736.59	2698.23
737.032	3106.13
737.474	2530.63
737.916	839.03
738.357	440.43
738.799	337.63
739.241	311.13
739.683	298.13
740.125	304.43
740.567	303.73
741.008	324.23
741.45	320.33
741.892	327.03
742.334	357.93
742.775	365.33
743.217	350.03
743.658	276.53
744.1	264.33
744.542	277.43
744.983	323.83
745.425	354.53
745.866	352.03
746.307	289.93
746.749	291.33
747.19	331.23
747.632	489.93
748.073	957.63
748.514	1994.93
748.956	2957.13
749.397	3705.63
749.838	3075.43
750.279	2988.33
750.72	1534.13
751.162	561.63
751.603	334.13
752.044	263.43
752.485	216.73
752.926	216.03
753.367	203.63
753.808	205.23
754.249	190.03
754.69	189.53
755.131	193.03
755.572	176.63
756.013	186.03
756.453	180.33
756.894	187.63
757.335	198.43
757.776	200.53
758.216	201.13
758.657	208.33
759.098	202.13
759.538	230.23
759.979	281.33
760.42	398.53
760.86	773.73
761.301	1999.93
761.741	4699.13
762.182	6530.93
762.622	4592.53
763.063	1341.33
763.503	555.63
763.943	348.13
764.384	320.93
764.824	348.93
765.264	351.33
765.705	269.13
766.145	203.13
766.585	194.03
767.025	181.23
767.465	177.53
767.906	229.53
768.346	272.43
768.786	284.43
769.226	250.23
769.666	335.73
770.106	672.43
770.546	1680.33
770.986	2707.83
771.426	2396.03
771.866	810.63
772.306	342.43
772.745	213.03
773.185	172.73
773.625	170.63
774.065	168.73
774.505	188.53
774.944	265.93
775.384	555.63
775.824	926.73
776.263	882.63
776.703	397.83
777.142	183.83
777.582	154.83
778.021	134.13
778.461	128.43
778.9	137.33
779.34	137.43
779.779	118.43
780.219	107.23
780.658	114.43
781.097	114.43
781.537	115.93
781.976	114.23
782.415	107.33
782.855	108.03
783.294	101.53
783.733	108.53
784.172	116.13
784.611	111.43
785.05	121.73
785.489	115.93
785.928	114.13
786.367	124.43
786.806	118.03
787.245	137.73
787.684	135.63
788.123	149.93
788.562	142.13
789.001	134.43
789.44	123.03
789.879	124.43
790.317	122.13
790.756	126.13
791.195	125.93
791.634	151.23
792.072	212.13
792.511	397.63
792.95	1090.33
793.388	2191.33
793.827	1943.83
794.265	685.83
794.704	301.23
795.142	190.43
795.581	151.03
796.019	133.93
796.458	133.83
796.896	130.33
797.334	140.33
797.773	164.83
798.211	236.93
798.649	483.33
799.087	1078.93
799.526	1675.23
799.964	2113.63
800.402	2019.83
800.84	777.43
801.278	320.63
801.716	194.63
802.154	160.53
802.592	142.33
803.03	140.13
803.468	141.63
803.906	138.43
804.344	154.23
804.782	141.73
805.22	138.93
805.658	136.53
806.096	157.43
806.533	160.53
806.971	185.53
807.409	227.53
807.847	338.23
808.284	726.43
808.722	1990.73
809.16	3372.83
809.597	3332.53
810.035	5634.13
810.472	5795.73
810.91	2145.53
811.347	826.13
811.785	415.83
812.222	262.63
812.66	204.83
813.097	165.03
813.535	144.63
813.972	129.13
814.409	123.63
814.846	114.03
815.284	115.33
815.721	102.23
816.158	103.03
816.595	118.43
817.032	171.83
817.47	191.73
817.907	156.83
818.344	124.23
818.781	118.73
819.218	104.13
819.655	124.13
820.092	192.13
820.529	214.83
820.966	175.83
821.403	128.63
821.839	109.63
822.276	105.83
822.713	128.63
823.15	139.53
823.587	121.13
824.023	157.13
824.46	319.83
824.897	944.93
825.333	1373.23
825.77	596.13
826.206	233.63
826.643	142.43
827.08	103.93
827.516	85.13
827.953	84.73
828.389	81.03
828.825	73.23
829.262	60.83
829.698	62.13
830.135	65.43
830.571	62.63
831.007	64.43
831.443	69.93
831.88	64.33
832.316	63.83
832.752	64.63
833.188	67.33
833.624	64.33
834.06	74.03
834.497	69.33
834.933	83.43
835.369	74.03
835.805	73.83
836.241	84.23
836.677	82.03
837.112	90.03
837.548	106.13
837.984	132.13
838.42	212.23
838.856	539.23
839.292	1605.43
839.727	2342.13
840.163	1104.53
840.599	998.33
841.034	2138.73
841.47	2136.13
841.906	791.13
842.341	348.13
842.777	223.33
843.212	266.93
843.648	244.83
844.083	130.33
844.519	94.43
844.954	66.63
845.39	54.73
845.825	56.83
846.261	57.93
846.696	54.83
847.131	53.13
847.566	64.33
848.002	55.93
848.437	55.03
848.872	60.83
849.307	67.33
849.742	92.53
850.177	201.93
850.613	592.13
851.048	887.23
851.483	392.13
851.918	161.73
852.353	89.33
852.788	61.83
853.223	61.53
853.657	57.83
854.092	46.43
854.527	39.63
854.962	37.93
855.397	46.23
855.832	48.33
856.266	41.03
856.701	39.63
857.136	38.93
857.57	44.33
858.005	51.33
858.44	62.43
858.874	45.93
859.309	52.13
859.743	43.73
860.178	48.73
860.612	40.53
861.047	53.13
861.481	71.73
861.915	69.23
862.35	53.13
862.784	37.73
863.218	33.53
863.653	34.83
864.087	46.33
864.521	50.93
864.955	76.93
865.39	159.13
865.824	178.73
866.258	122.13
866.692	166.93
867.126	186.13
867.56	108.33
867.994	53.43
868.428	35.33
868.862	46.03
869.296	57.13
869.73	57.43
870.164	50.93
870.598	44.33
871.031	33.23
871.465	32.53
871.899	34.83
872.333	22.03
872.766	28.03
873.2	18.73
873.634	31.93
874.067	27.33
874.501	33.73
874.935	34.93
875.368	31.53
875.802	25.23
876.235	25.73
876.669	25.23
877.102	25.63
877.535	25.33
877.969	23.33
878.402	29.03
878.836	21.33
879.269	27.43
879.702	21.73
880.135	23.73
880.569	20.73
881.002	31.63
881.435	24.53
881.868	21.83
882.301	24.93
882.734	22.93
883.167	22.03
883.601	15.03
884.034	20.93
884.467	12.63
884.899	26.03
885.332	15.23
885.765	14.43
886.198	13.13
886.631	16.53
887.064	17.33
887.497	23.93
887.929	25.53
888.362	17.33
888.795	13.23
889.228	20.03
889.66	20.73
890.093	13.43
890.526	18.53
890.958	16.33
891.391	18.73
891.823	18.63
892.256	15.63
892.688	17.43
893.121	14.53
893.553	17.23
893.985	24.73
894.418	16.73
894.85	12.13
895.282	15.73
895.715	18.73
896.147	13.93
896.579	14.73
897.011	10.53
897.444	20.63
897.876	14.23
898.308	15.13
898.74	15.23
899.172	6.63
899.604	25.63
900.036	20.43
900.468	18.63
900.9	20.23
901.332	20.43
901.764	12.53
902.196	20.73
902.628	18.23
903.06	12.93
903.491	29.53
903.923	23.13
904.355	16.13
904.787	27.03
905.218	25.23
905.65	19.93
906.082	13.13
906.513	6.73
906.945	13.53
907.376	11.43
907.808	15.13
908.239	26.83
908.671	17.33
909.102	26.93
909.534	24.73
909.965	50.93
910.397	99.43
910.828	339.33
911.259	474.53
911.691	219.03
912.122	111.43
912.553	54.13
912.984	31.23
913.415	26.43
913.847	27.03
914.278	15.93
914.709	10.53
915.14	21.63
915.571	20.43
916.002	19.33
916.433	20.43
916.864	19.63
917.295	14.13
917.726	17.63
918.157	15.63
918.587	27.53
919.018	27.13
919.449	23.03
919.88	22.53
920.311	27.63
920.741	47.13
921.172	163.53
921.603	152.13
922.033	73.93
922.464	48.13
922.895	24.53
923.325	19.03
923.756	14.63
924.186	16.33
924.617	23.03
925.047	31.73
925.478	41.13
925.908	35.93
926.338	23.43
926.769	17.53
927.199	13.83
927.629	7.53
928.06	17.33
928.49	10.53
928.92	8.43
929.35	8.03
929.78	10.13
930.21	4.53
930.641	9.83
931.071	6.13
931.501	5.13
931.931	9.13
932.361	5.13
932.791	3.43
933.221	3.83
933.651	3.03
934.08	21.93
934.51	36.13
934.94	4.13
935.37	10.43
935.8	12.03
936.229	5.33
936.659	10.03
937.089	6.03
937.519	12.13
937.948	22.13
938.378	17.43
938.807	6.43
939.237	2.03
939.666	2.63
940.096	-2.67
940.525	1.63
940.955	-2.97
941.384	3.43
941.814	0.73
942.243	-1.27
942.672	6.13
943.102	-2.37
943.531	1.33
943.96	4.43
944.39	1.13
944.819	2.83
945.248	3.73
945.677	0.93
946.106	6.23
946.535	6.73
946.964	-0.27
947.393	8.03
947.822	2.03
948.251	-7.67
948.68	-1.57
949.109	10.83
949.538	3.63
949.967	2.73
950.396	-0.17
950.825	5.93
951.254	3.33
951.682	-6.77
952.111	2.03
952.54	3.53
952.969	-6.27
953.397	-7.47
953.826	0.23
954.254	-7.67
954.683	5.33
955.112	-3.37
955.54	-0.77
955.969	9.43
956.397	-0.07
956.826	0.53
957.254	6.43
957.682	4.63
958.111	1.43
958.539	-3.07
958.967	-0.87
959.396	0.93
959.824	-3.07
960.252	0.53
960.68	-5.47
961.109	-8.17
961.537	-5.87
961.965	1.83
962.393	1.43
962.821	-0.47
963.249	1.03
963.677	2.43
964.105	6.63
964.533	44.53
964.961	44.03
965.389	23.03
965.817	5.33
966.245	-2.67
966.672	-2.87
967.1	-7.27
967.528	-0.17
967.956	-7.37
968.383	0.33
968.811	0.03
969.239	1.53
969.666	-6.97
970.094	1.33
970.522	4.23
970.949	1.53
971.377	-9.37
971.804	-2.97
972.232	0.13
972.659	-3.57
973.087	-6.87
973.514	-4.77
973.941	-11.87
974.369	2.53
974.796	1.93
975.223	-6.47
975.651	0.73
976.078	5.73
976.505	-1.67
976.932	1.33
977.359	14.93
977.786	14.83
978.214	0.53
978.641	-3.07
979.068	-0.37
979.495	-4.17
979.922	-5.77
980.349	-2.67
980.776	2.43
981.202	2.43
981.629	0.63
982.056	4.73
982.483	-5.57
982.91	3.83
983.337	-6.57
983.763	5.03
984.19	-3.27
984.617	-0.87
985.043	-5.47
985.47	-1.77
985.897	-8.57
986.323	-8.77
986.75	-2.37
987.176	-4.27
987.603	-4.57
988.029	-7.47
988.456	-3.27
988.882	-0.07
989.308	-2.57
989.735	-3.27
990.161	-0.17
990.587	-1.77
991.014	-3.27
991.44	3.53
991.866	-6.17
992.292	-4.87
992.719	-2.17
993.145	1.33
993.571	-8.37
993.997	-5.97
994.423	-2.57
994.849	-4.47
995.275	3.43
995.701	-2.27
996.127	1.13
996.553	2.33
996.979	-3.17
997.405	-5.87
997.83	-9.47
998.256	-8.47
998.682	-4.47
999.108	-7.27
999.534	-0.77
999.959	-1.17
1000.385	-7.67
1000.811	5.03
1001.236	-15.17
1001.662	-8.47
1002.087	-10.47
1002.513	-4.07
1002.938	-0.47
1003.364	-4.67
1003.789	-1.37
1004.215	1.93
1004.64	-7.07
1005.066	0.83
1005.491	2.23
1005.916	-2.17
1006.342	-4.87
1006.767	-8.87
1007.192	6.23
1007.617	-4.37
1008.042	-1.47
1008.468	-8.37
1008.893	-1.07
1009.318	-8.37
1009.743	-3.97
1010.168	0.63
1010.593	-5.47
1011.018	-13.17
1011.443	-1.77
1011.868	2.53
1012.293	-0.07
1012.718	-7.97
1013.143	0.43
1013.567	-5.07
1013.992	-5.77
1014.417	-12.57
1014.842	-1.67
1015.267	-15.17
1015.691	-1.27
1016.116	2.03
1016.541	-7.27
1016.965	7.03
1017.39	-2.67
1017.814	-6.27
1018.239	-1.47
1018.663	-10.67
1019.088	-11.07
1019.512	-0.77
1019.937	-4.07
1020.361	-0.07
1020.785	-6.27
1021.21	-8.07
1021.634	-3.97
1022.058	1.93
1022.483	9.03
1022.907	-5.77
1023.331	-8.97
1023.755	-8.27
1024.179	-1.97
1024.604	-7.57
1025.028	-7.67
1025.452	-3.87
1025.876	-6.27
1026.3	-2.87
1026.724	-10.77
1027.148	-2.27
1027.572	-11.17
1027.996	-5.27
1028.42	-5.57
1028.843	-5.57
1029.267	-11.27
1029.691	-2.97
1030.115	-8.67
1030.539	-3.27
1030.962	-6.67
1031.386	-10.47
1031.81	-4.97
1032.233	-6.57
1032.657	0.73
1033.08	-1.27
1033.504	-3.27
1033.927	-6.27
1034.351	2.33
1034.774	-9.97
1035.198	-5.27
1035.621	-6.17
1036.045	-5.87
1036.468	-0.87
1036.891	-7.87
1037.315	-6.47
1037.738	-8.77
1038.161	-3.17
1038.584	-5.27
1039.008	-10.77
1039.431	-5.57
1039.854	-4.17
1040.277	-8.77
1040.7	-8.77
1041.123	-1.97
1041.546	-10.47
1041.969	-6.57
1042.392	-10.07
1042.815	-1.17
1043.238	0.03
1043.661	-0.77
1044.084	-10.07
1044.507	-13.77
1044.93	-5.57
1045.352	-5.07
1045.775	-4.07
1046.198	-3.57
1046.621	-5.27
1047.043	1.43
1047.466	7.93
1047.889	-4.97
1048.311	-8.47
1048.734	-7.47
1049.156	-6.97
1049.579	-3.37
1050.001	0.93
1050.424	-4.67
1050.846	-3.47
1051.269	-8.17
1051.691	-4.07
1052.113	-3.67
1052.536	-1.57
1052.958	-9.47
1053.38	-7.37
1053.802	-11.27
1054.225	1.53
1054.647	-6.57
1055.069	-6.07
1055.491	-1.37
1055.913	-8.17
1056.335	-2.47
1056.757	-5.07
1057.179	-6.87
1057.601	-5.97
1058.023	-9.07
1058.445	-6.37
1058.867	-1.07
1059.289	-4.97
1059.711	-8.87
1060.133	-3.37
1060.555	-9.47
1060.976	-7.47
1061.398	-1.87
1061.82	-7.87
1062.241	-6.37
1062.663	-8.87
1063.085	-1.77
1063.506	-0.47
1063.928	0.43
1064.35	-1.87
1064.771	-10.47
1065.193	-4.57
1065.614	-12.17
1066.035	-1.87
1066.457	-1.97
1066.878	4.63
1067.3	-4.27
1067.721	-2.37
1068.142	0.03
1068.564	-4.17
1068.985	-8.87
1069.406	-4.87
1069.827	-9.07
1070.248	-5.77
1070.67	-8.57
1071.091	-6.07
1071.512	-3.47
1071.933	-4.27
1072.354	-6.47
1072.775	3.93
1073.196	-6.97
1073.617	-2.87
1074.038	-9.37
1074.459	-2.77
1074.88	-9.67
1075.3	3.13
1075.721	-6.27
1076.142	1.73
1076.563	1.03
1076.983	-9.17
1077.404	-6.87
1077.825	-5.37
1078.246	-7.27
1078.666	-7.17
1079.087	-4.17
1079.507	-1.77
1079.928	5.03
1080.348	-1.77
1080.769	-5.67
1081.189	0.43
1081.61	-6.77
1082.03	-10.87
1082.451	-6.77
1082.871	-5.37
1083.291	-5.07
1083.711	-7.37
1084.132	-4.97
1084.552	-3.77
1084.972	-2.37
1085.392	-10.37
1085.813	-8.27
1086.233	-6.87
1086.653	-10.67
1087.073	-1.97
1087.493	-6.97
1087.913	0.43
1088.333	-11.07
1088.753	0.83
1089.173	8.13
1089.593	-4.37
1090.013	0.93
1090.433	-1.77
1090.852	-0.97
1091.272	-2.37
1091.692	-3.07
1092.112	-4.87
1092.531	-6.97
1092.951	-16.27
1093.371	-7.37
1093.79	-1.17
1094.21	-6.27
1094.63	-14.77
1095.049	-8.67
1095.469	-4.47
1095.888	-8.67
1096.308	0.73
1096.727	-1.07
1097.146	-6.77
1097.566	-3.67
1097.985	-4.57
1098.405	-4.07
1098.824	-6.57
1099.243	-6.67
1099.662	-10.37
1100.082	-5.87
1100.501	-1.77
1100.92	-8.57
1101.339	-6.27
1101.758	-10.07
