Data from 20171114-ORNL-Ar_H_NY_Subt18_08-05-39-788.txt Node
Date: Tue Nov 14 08:05:39 EST 2017
User: Ender
Spectrometer: HR+D1039
Trigger mode: 0
Integration Time (sec): 2.730000E-2
Scans to average: 10
Electric dark correction enabled: true
Nonlinearity correction enabled: false
Boxcar width: 0
XAxis mode: Wavelengths
Number of Pixels in Spectrum: 2048
>>>>>Begin Spectral Data<<<<<
187.836	-2.59
188.309	-2.59
188.782	-2.59
189.255	-2.79
189.728	-5.89
190.201	0.41
190.674	2.51
191.147	4.71
191.619	-7.79
192.092	2.01
192.565	7.21
193.038	1.71
193.511	3.41
193.984	-1.69
194.456	1.21
194.929	4.51
195.402	-3.89
195.874	-2.99
196.347	-2.39
196.82	-3.89
197.292	5.41
197.765	0.81
198.237	-9.09
198.71	3.81
199.182	2.71
199.655	2.31
200.127	4.11
200.6	-1.69
201.072	1.11
201.544	-3.79
202.017	0.31
202.489	8.11
202.961	1.21
203.433	-0.59
203.906	-5.59
204.378	-6.09
204.85	-5.79
205.322	-9.79
205.794	2.11
206.266	-2.19
206.739	-5.59
207.211	8.71
207.683	-3.29
208.155	-3.09
208.627	-7.99
209.099	3.51
209.57	-2.69
210.042	3.11
210.514	2.71
210.986	-2.89
211.458	-4.19
211.93	2.01
212.402	1.31
212.873	-7.39
213.345	-9.19
213.817	-10.89
214.288	-4.39
214.76	-3.19
215.232	-3.89
215.703	0.01
216.175	2.41
216.646	-1.89
217.118	-4.39
217.589	-6.29
218.061	1.91
218.532	-4.29
219.004	-1.69
219.475	-1.39
219.946	0.51
220.418	-2.79
220.889	6.81
221.36	-0.29
221.832	-2.69
222.303	-2.99
222.774	2.01
223.245	-8.79
223.717	-2.79
224.188	-1.19
224.659	-8.49
225.13	0.01
225.601	-3.29
226.072	2.11
226.543	2.11
227.014	2.51
227.485	2.01
227.956	-5.59
228.427	5.51
228.898	0.21
229.369	1.31
229.839	-1.29
230.31	-6.69
230.781	4.21
231.252	0.21
231.722	-3.09
232.193	3.51
232.664	3.11
233.135	3.61
233.605	6.01
234.076	-4.09
234.546	3.41
235.017	14.31
235.487	4.91
235.958	4.81
236.428	-2.49
236.899	1.31
237.369	7.81
237.84	0.21
238.31	11.81
238.78	2.41
239.251	0.91
239.721	-0.39
240.191	6.71
240.662	4.81
241.132	2.91
241.602	-0.39
242.072	1.41
242.542	3.21
243.013	0.91
243.483	3.51
243.953	3.11
244.423	-0.79
244.893	-6.69
245.363	2.01
245.833	2.11
246.303	0.81
246.773	12.61
247.243	1.31
247.712	2.71
248.182	8.51
248.652	6.71
249.122	1.71
249.592	11.91
250.061	26.81
250.531	35.51
251.001	15.11
251.471	20.11
251.94	20.01
252.41	6.81
252.879	0.31
253.349	14.01
253.818	14.71
254.288	6.61
254.757	8.91
255.227	7.71
255.696	6.91
256.166	9.31
256.635	8.91
257.105	15.71
257.574	8.21
258.043	10.11
258.513	10.11
258.982	17.61
259.451	11.81
259.92	20.31
260.389	14.11
260.859	20.21
261.328	11.71
261.797	25.71
262.266	11.31
262.735	14.41
263.204	13.11
263.673	1.01
264.142	14.21
264.611	-0.89
265.08	3.01
265.549	5.11
266.018	11.21
266.487	-1.69
266.955	-2.49
267.424	-0.99
267.893	7.71
268.362	5.01
268.83	6.21
269.299	17.11
269.768	13.51
270.236	12.01
270.705	2.11
271.174	10.21
271.642	9.51
272.111	12.51
272.579	18.51
273.048	24.71
273.516	33.21
273.985	30.21
274.453	24.41
274.922	16.21
275.39	14.41
275.858	5.71
276.327	12.81
276.795	22.11
277.263	11.11
277.731	33.61
278.2	58.31
278.668	59.81
279.136	58.01
279.604	19.61
280.072	15.31
280.54	10.51
281.008	12.41
281.477	16.81
281.945	12.71
282.413	15.31
282.881	21.71
283.348	7.71
283.816	20.01
284.284	20.21
284.752	25.41
285.22	14.91
285.688	20.71
286.156	20.81
286.623	44.41
287.091	54.01
287.559	37.01
288.026	21.31
288.494	21.41
288.962	9.91
289.429	15.61
289.897	20.71
290.364	15.61
290.832	16.31
291.3	22.61
291.767	19.91
292.234	24.61
292.702	17.01
293.169	23.31
293.637	25.91
294.104	22.41
294.571	8.41
295.039	18.71
295.506	18.91
295.973	19.01
296.44	16.81
296.908	19.21
297.375	20.71
297.842	21.31
298.309	17.81
298.776	15.51
299.243	28.21
299.71	17.71
300.177	25.11
300.644	28.61
301.111	26.91
301.578	27.61
302.045	18.31
302.512	25.21
302.979	28.61
303.446	25.41
303.913	21.51
304.379	17.21
304.846	32.71
305.313	28.51
305.78	27.21
306.246	35.11
306.713	25.51
307.18	27.81
307.646	30.41
308.113	29.51
308.579	33.91
309.046	28.11
309.512	25.21
309.979	18.31
310.445	31.61
310.912	36.01
311.378	35.81
311.845	32.71
312.311	30.81
312.777	31.41
313.244	32.91
313.71	44.71
314.176	36.21
314.642	33.21
315.109	37.11
315.575	40.21
316.041	45.51
316.507	38.01
316.973	42.91
317.439	37.21
317.905	38.61
318.371	40.41
318.837	40.81
319.303	37.81
319.769	37.71
320.235	38.01
320.701	39.91
321.167	40.31
321.633	41.51
322.099	47.21
322.564	45.91
323.03	42.11
323.496	40.71
323.962	41.41
324.427	36.51
324.893	48.01
325.359	38.91
325.824	45.41
326.29	43.01
326.755	41.11
327.221	39.91
327.686	45.11
328.152	49.91
328.617	42.21
329.083	56.11
329.548	55.81
330.014	51.91
330.479	45.11
330.944	47.11
331.41	47.21
331.875	46.71
332.34	41.71
332.805	48.41
333.271	48.21
333.736	45.61
334.201	53.31
334.666	54.91
335.131	60.01
335.596	52.31
336.061	49.41
336.526	46.91
336.991	49.51
337.456	60.81
337.921	55.11
338.386	54.71
338.851	49.11
339.316	54.51
339.781	50.91
340.246	55.91
340.711	48.51
341.175	54.41
341.64	50.11
342.105	51.71
342.569	59.71
343.034	63.11
343.499	65.51
343.963	55.81
344.428	75.51
344.893	59.71
345.357	65.31
345.822	66.51
346.286	74.01
346.751	78.91
347.215	72.21
347.679	77.21
348.144	102.11
348.608	88.71
349.073	71.11
349.537	79.41
350.001	86.51
350.465	81.31
350.93	86.51
351.394	85.91
351.858	76.71
352.322	87.51
352.786	90.11
353.25	107.41
353.715	119.41
354.179	107.21
354.643	123.21
355.107	131.41
355.571	106.51
356.035	108.71
356.498	120.91
356.962	132.81
357.426	135.81
357.89	123.91
358.354	93.11
358.818	87.51
359.281	84.01
359.745	78.51
360.209	77.91
360.673	75.11
361.136	79.71
361.6	88.41
362.064	89.61
362.527	91.31
362.991	94.91
363.454	92.21
363.918	86.81
364.381	84.11
364.845	85.41
365.308	82.21
365.772	89.01
366.235	86.71
366.698	86.01
367.162	88.71
367.625	84.51
368.088	91.01
368.552	93.71
369.015	93.31
369.478	99.11
369.941	104.81
370.404	101.91
370.867	107.41
371.331	108.21
371.794	116.41
372.257	114.11
372.72	120.41
373.183	114.81
373.646	105.51
374.109	104.61
374.572	115.91
375.035	112.41
375.497	112.01
375.96	103.61
376.423	105.31
376.886	118.81
377.349	112.31
377.811	104.91
378.274	110.91
378.737	109.71
379.199	118.81
379.662	112.91
380.125	116.51
380.587	118.71
381.05	128.21
381.512	125.31
381.975	137.71
382.437	135.91
382.9	131.51
383.362	127.41
383.825	144.31
384.287	148.21
384.75	145.01
385.212	142.51
385.674	144.51
386.136	142.01
386.599	133.11
387.061	135.41
387.523	131.21
387.985	141.21
388.447	147.51
388.91	145.01
389.372	163.11
389.834	159.71
390.296	147.01
390.758	156.51
391.22	170.11
391.682	207.71
392.144	293.21
392.606	231.01
393.068	167.41
393.529	176.51
393.991	145.11
394.453	147.61
394.915	162.31
395.377	193.71
395.838	217.31
396.3	157.31
396.762	137.11
397.224	133.81
397.685	129.11
398.147	130.61
398.608	134.91
399.07	121.71
399.531	133.81
399.993	141.71
400.454	160.41
400.916	147.91
401.377	147.91
401.839	154.31
402.3	150.61
402.762	169.51
403.223	183.91
403.684	174.91
404.145	164.71
404.607	166.61
405.068	167.61
405.529	170.51
405.99	196.71
406.451	176.61
406.913	180.41
407.374	172.01
407.835	167.71
408.296	165.91
408.757	172.11
409.218	184.01
409.679	182.51
410.14	175.71
410.601	182.61
411.062	191.51
411.522	198.31
411.983	190.21
412.444	176.51
412.905	183.31
413.366	191.51
413.826	190.01
414.287	215.11
414.748	261.11
415.208	253.71
415.669	215.71
416.13	206.61
416.59	200.31
417.051	213.61
417.511	226.11
417.972	240.21
418.432	241.81
418.893	292.31
419.353	249.71
419.814	201.01
420.274	185.51
420.734	187.61
421.195	197.51
421.655	194.51
422.115	196.31
422.576	188.41
423.036	199.41
423.496	203.71
423.956	218.41
424.416	236.21
424.876	266.41
425.336	259.81
425.797	268.91
426.257	260.11
426.717	240.31
427.177	232.51
427.637	223.91
428.097	237.11
428.556	247.91
429.016	279.51
429.476	264.01
429.936	276.21
430.396	279.71
430.856	290.31
431.315	317.41
431.775	354.91
432.235	384.11
432.694	354.11
433.154	372.51
433.614	401.41
434.073	344.41
434.533	289.01
434.993	275.71
435.452	289.21
435.912	299.51
436.371	292.71
436.83	287.11
437.29	276.91
437.749	253.71
438.209	249.31
438.668	277.31
439.127	291.51
439.587	267.81
440.046	252.51
440.505	271.91
440.964	288.31
441.424	325.11
441.883	318.31
442.342	259.81
442.801	230.31
443.26	229.91
443.719	224.01
444.178	226.51
444.637	216.51
445.096	224.01
445.555	229.21
446.014	228.41
446.473	229.81
446.932	235.91
447.391	226.61
447.849	228.91
448.308	220.81
448.767	223.01
449.226	236.21
449.685	239.31
450.143	250.71
450.602	235.01
451.061	229.31
451.519	237.91
451.978	242.51
452.436	239.31
452.895	247.71
453.353	259.41
453.812	248.21
454.27	248.21
454.729	241.11
455.187	248.21
455.646	253.11
456.104	248.51
456.562	260.41
457.021	276.31
457.479	265.61
457.937	279.81
458.395	265.91
458.854	249.91
459.312	259.51
459.77	285.81
460.228	259.81
460.686	250.71
461.144	252.21
461.602	248.81
462.06	246.51
462.518	258.51
462.976	265.61
463.434	262.61
463.892	270.41
464.35	274.91
464.808	298.01
465.266	266.31
465.724	277.51
466.181	279.71
466.639	283.31
467.097	297.51
467.555	300.71
468.012	313.51
468.47	315.51
468.928	332.71
469.385	355.31
469.843	351.11
470.3	357.71
470.758	376.11
471.215	393.81
471.673	414.41
472.13	411.81
472.588	420.71
473.045	377.61
473.503	375.61
473.96	397.41
474.417	410.21
474.875	441.21
475.332	484.31
475.789	475.01
476.246	474.91
476.704	498.11
477.161	512.21
477.618	537.01
478.075	573.81
478.532	632.61
478.989	703.31
479.446	820.21
479.903	777.31
480.36	818.51
480.817	876.41
481.274	974.11
481.731	1086.11
482.188	1174.21
482.645	1324.61
483.102	1427.81
483.558	1559.41
484.015	1614.01
484.472	1577.41
484.929	1540.11
485.385	1498.61
485.842	1452.41
486.299	1392.41
486.755	1318.31
487.212	1112.51
487.668	927.61
488.125	867.11
488.582	796.71
489.038	758.91
489.494	722.61
489.951	702.51
490.407	673.31
490.864	660.41
491.32	655.91
491.776	644.21
492.233	656.41
492.689	610.41
493.145	614.21
493.602	605.41
494.058	623.61
494.514	626.71
494.97	643.51
495.426	658.01
495.882	630.21
496.338	623.71
496.794	641.71
497.251	629.01
497.707	648.71
498.163	649.51
498.618	659.11
499.074	659.91
499.53	686.81
499.986	687.81
500.442	658.01
500.898	645.91
501.354	634.31
501.809	649.81
502.265	657.21
502.721	675.01
503.177	679.01
503.632	676.51
504.088	685.01
504.543	719.51
504.999	721.91
505.455	663.51
505.91	638.01
506.366	650.61
506.821	645.21
507.277	630.11
507.732	642.01
508.187	635.11
508.643	651.11
509.098	644.81
509.553	658.31
510.009	663.21
510.464	674.21
510.919	693.21
511.375	710.01
511.83	716.81
512.285	728.01
512.74	768.11
513.195	788.31
513.65	792.71
514.105	786.11
514.56	785.01
515.015	799.91
515.47	816.51
515.925	793.41
516.38	793.21
516.835	817.91
517.29	785.81
517.745	788.51
518.2	769.11
518.655	761.81
519.109	751.11
519.564	755.61
520.019	748.51
520.474	739.11
520.928	746.71
521.383	736.11
521.838	717.41
522.292	714.71
522.747	726.61
523.201	717.91
523.656	703.61
524.11	711.01
524.565	698.91
525.019	692.61
525.474	707.51
525.928	709.11
526.382	714.01
526.837	711.81
527.291	703.41
527.745	712.61
528.2	706.71
528.654	698.71
529.108	696.91
529.562	695.21
530.016	694.11
530.47	694.91
530.925	700.01
531.379	714.51
531.833	713.91
532.287	715.61
532.741	709.81
533.195	720.41
533.649	722.71
534.103	735.11
534.556	720.91
535.01	722.51
535.464	724.01
535.918	734.21
536.372	724.41
536.826	721.91
537.279	719.91
537.733	720.21
538.187	724.81
538.64	715.81
539.094	726.71
539.548	741.41
540.001	735.11
540.455	735.21
540.908	740.91
541.362	756.91
541.815	754.91
542.269	765.41
542.722	770.71
543.175	781.21
543.629	775.01
544.082	798.11
544.536	797.51
544.989	785.81
545.442	805.41
545.895	799.71
546.349	789.71
546.802	799.41
547.255	812.41
547.708	810.11
548.161	818.61
548.614	837.81
549.067	839.01
549.52	830.21
549.973	821.11
550.426	808.41
550.879	795.81
551.332	808.41
551.785	815.91
552.238	822.41
552.691	828.51
553.144	835.91
553.596	864.11
554.049	877.11
554.502	899.51
554.955	924.51
555.407	933.51
555.86	918.21
556.313	896.51
556.765	893.71
557.218	891.81
557.67	895.11
558.123	889.01
558.576	880.41
559.028	894.21
559.48	890.71
559.933	879.91
560.385	849.51
560.838	805.11
561.29	785.91
561.742	799.41
562.195	771.21
562.647	757.41
563.099	776.51
563.551	776.11
564.004	783.21
564.456	773.71
564.908	768.21
565.36	760.51
565.812	732.91
566.264	727.41
566.716	724.61
567.168	712.31
567.62	727.21
568.072	707.91
568.524	687.51
568.976	687.31
569.428	678.61
569.88	672.21
570.332	684.71
570.784	680.41
571.235	683.71
571.687	700.21
572.139	706.91
572.59	713.51
573.042	715.21
573.494	707.81
573.945	709.51
574.397	688.91
574.849	702.41
575.3	697.91
575.752	695.81
576.203	675.11
576.655	693.21
577.106	684.61
577.557	670.41
578.009	677.41
578.46	656.81
578.912	661.01
579.363	659.41
579.814	669.21
580.265	663.21
580.717	668.81
581.168	671.71
581.619	672.81
582.07	680.11
582.521	674.91
582.972	676.61
583.423	678.41
583.875	680.81
584.326	696.41
584.777	740.51
585.227	813.61
585.678	895.91
586.129	982.61
586.58	1065.81
587.031	1135.81
587.482	1294.31
587.933	1474.11
588.384	1269.41
588.834	964.61
589.285	800.01
589.736	787.81
590.186	767.81
590.637	762.41
591.088	734.91
591.538	727.51
591.989	730.51
592.439	727.41
592.89	716.01
593.34	703.61
593.791	716.31
594.241	698.91
594.692	701.01
595.142	693.41
595.593	697.51
596.043	707.71
596.493	717.41
596.943	707.61
597.394	729.01
597.844	713.01
598.294	723.91
598.744	750.81
599.195	781.61
599.645	811.61
600.095	853.21
600.545	903.11
600.995	958.21
601.445	1014.31
601.895	1080.71
602.345	1126.91
602.795	1101.41
603.245	1063.01
603.695	1002.01
604.145	946.71
604.594	905.11
605.044	852.41
605.494	802.71
605.944	754.81
606.393	727.51
606.843	718.51
607.293	733.71
607.743	726.71
608.192	731.21
608.642	751.81
609.091	769.21
609.541	762.61
609.99	772.81
610.44	765.51
610.889	716.71
611.339	694.61
611.788	669.41
612.238	692.91
612.687	711.01
613.136	700.71
613.586	732.71
614.035	733.11
614.484	747.01
614.933	748.71
615.383	739.41
615.832	741.31
616.281	718.21
616.73	679.61
617.179	653.41
617.628	649.21
618.077	626.71
618.526	619.71
618.975	603.61
619.424	605.41
619.873	602.61
620.322	610.81
620.771	607.11
621.22	602.41
621.669	587.91
622.118	580.91
622.567	579.41
623.015	565.01
623.464	565.01
623.913	559.81
624.361	547.81
624.81	541.31
625.259	544.41
625.707	541.31
626.156	541.61
626.604	549.61
627.053	556.71
627.501	552.51
627.95	566.01
628.398	575.31
628.847	559.11
629.295	557.81
629.744	565.21
630.192	548.81
630.64	561.01
631.089	554.31
631.537	568.21
631.985	565.31
632.433	583.71
632.881	591.31
633.33	638.81
633.778	621.41
634.226	556.91
634.674	560.71
635.122	569.51
635.57	588.41
636.018	613.61
636.466	567.11
636.914	553.21
637.362	558.31
637.81	564.51
638.258	565.31
638.705	570.71
639.153	599.51
639.601	609.51
640.049	619.61
640.497	667.11
640.944	686.41
641.392	629.51
641.84	599.51
642.287	575.21
642.735	563.01
643.182	560.61
643.63	561.31
644.078	562.01
644.525	575.01
644.973	584.21
645.42	600.61
645.867	610.31
646.315	615.51
646.762	647.21
647.21	672.91
647.657	690.21
648.104	723.41
648.551	754.91
648.999	813.01
649.446	893.81
649.893	988.31
650.34	1137.81
650.787	1362.91
651.234	1679.01
651.682	2189.41
652.129	3005.41
652.576	4314.31
653.023	6354.11
653.47	8709.91
653.917	10952.91
654.363	12687.51
654.81	14084.51
655.257	13446.81
655.704	8800.31
656.151	5192.11
656.598	3361.01
657.044	2388.01
657.491	1826.31
657.938	1455.91
658.385	1226.61
658.831	1059.01
659.278	942.51
659.724	836.11
660.171	765.51
660.618	703.91
661.064	680.41
661.511	654.31
661.957	643.41
662.404	633.01
662.85	645.71
663.296	610.81
663.743	555.11
664.189	525.71
664.635	525.41
665.082	512.31
665.528	518.71
665.974	501.61
666.42	498.11
666.867	496.51
667.313	473.01
667.759	474.51
668.205	466.41
668.651	476.11
669.097	473.61
669.543	490.51
669.989	459.21
670.435	443.61
670.881	443.41
671.327	441.31
671.773	461.21
672.219	480.61
672.665	521.61
673.11	568.41
673.556	609.11
674.002	654.61
674.448	629.91
674.893	532.31
675.339	465.21
675.785	429.91
676.23	395.61
676.676	384.31
677.122	381.71
677.567	367.21
678.013	355.31
678.458	348.41
678.904	351.91
679.349	341.51
679.794	343.51
680.24	341.71
680.685	334.01
681.131	339.81
681.576	335.01
682.021	347.21
682.466	344.91
682.912	339.31
683.357	343.91
683.802	369.51
684.247	395.81
684.692	434.81
685.137	484.01
685.583	526.61
686.028	544.91
686.473	494.81
686.918	438.01
687.363	408.01
687.807	377.41
688.252	348.21
688.697	339.61
689.142	328.51
689.587	323.31
690.032	312.31
690.477	329.31
690.921	337.11
691.366	363.51
691.811	391.21
692.255	421.61
692.7	444.51
693.145	482.01
693.589	663.71
694.034	1061.81
694.478	1468.51
694.923	1680.81
695.367	2196.71
695.812	1153.91
696.256	474.21
696.701	355.01
697.145	339.21
697.59	323.21
698.034	306.81
698.478	318.21
698.922	323.11
699.367	319.01
699.811	327.31
700.255	343.91
700.699	367.41
701.143	405.51
701.588	454.51
702.032	499.31
702.476	510.61
702.92	471.91
703.364	472.21
703.808	603.81
704.252	980.61
704.696	1385.51
705.14	1621.51
705.584	2056.61
706.027	1041.81
706.471	503.01
706.915	386.21
707.359	336.11
707.803	310.01
708.246	299.91
708.69	301.01
709.134	304.51
709.577	291.51
710.021	304.81
710.465	297.01
710.908	285.41
711.352	292.11
711.795	291.91
712.239	335.71
712.682	358.51
713.126	403.21
713.569	445.61
714.012	357.61
714.456	311.51
714.899	287.71
715.342	265.81
715.786	244.81
716.229	247.51
716.672	244.81
717.115	236.61
717.558	238.91
718.002	245.11
718.445	254.81
718.888	274.61
719.331	276.11
719.774	298.91
720.217	292.81
720.66	275.21
721.103	248.01
721.546	241.51
721.989	238.41
722.432	225.11
722.874	234.31
723.317	220.31
723.76	226.41
724.203	241.31
724.645	307.11
725.088	422.01
725.531	547.71
725.974	628.71
726.416	524.01
726.859	299.81
727.301	239.41
727.744	229.31
728.187	231.71
728.629	243.21
729.071	225.91
729.514	255.51
729.956	264.61
730.399	274.71
730.841	272.51
731.283	258.21
731.726	251.81
732.168	247.71
732.61	255.71
733.053	275.51
733.495	300.41
733.937	337.21
734.379	382.21
734.821	417.11
735.263	508.61
735.705	780.21
736.148	1480.21
736.59	2451.21
737.032	2954.31
737.474	2410.51
737.916	786.51
738.357	410.61
738.799	309.91
739.241	286.61
739.683	271.41
740.125	285.61
740.567	285.11
741.008	303.31
741.45	303.91
741.892	308.91
742.334	333.21
742.775	344.71
743.217	336.31
743.658	258.31
744.1	249.81
744.542	252.81
744.983	291.41
745.425	332.61
745.866	335.01
746.307	272.51
746.749	271.81
747.19	306.81
747.632	427.11
748.073	824.81
748.514	1747.71
748.956	2734.31
749.397	3416.71
749.838	2839.41
750.279	2867.31
750.72	1434.31
751.162	519.01
751.603	309.81
752.044	238.41
752.485	205.31
752.926	200.01
753.367	197.81
753.808	188.11
754.249	184.61
754.69	178.51
755.131	174.31
755.572	173.41
756.013	172.81
756.453	173.21
756.894	182.41
757.335	182.41
757.776	184.21
758.216	196.61
758.657	187.11
759.098	195.01
759.538	212.21
759.979	255.11
760.42	353.61
760.86	660.71
761.301	1705.31
761.741	4182.21
762.182	6240.11
762.622	4407.21
763.063	1252.31
763.503	519.51
763.943	336.71
764.384	321.11
764.824	376.41
765.264	424.41
765.705	292.71
766.145	203.51
766.585	180.51
767.025	171.11
767.465	180.91
767.906	235.51
768.346	300.91
768.786	324.31
769.226	249.81
769.666	301.81
770.106	584.21
770.546	1444.11
770.986	2534.61
771.426	2286.91
771.866	769.31
772.306	316.01
772.745	193.31
773.185	170.51
773.625	158.21
774.065	163.21
774.505	187.21
774.944	283.41
775.384	622.61
775.824	1147.81
776.263	1119.11
776.703	487.21
777.142	207.91
777.582	156.11
778.021	130.71
778.461	132.81
778.9	139.01
779.34	136.41
779.779	115.91
780.219	110.51
780.658	108.81
781.097	109.71
781.537	108.41
781.976	102.11
782.415	105.91
782.855	97.71
783.294	99.71
783.733	101.41
784.172	103.81
784.611	103.01
785.05	99.41
785.489	109.31
785.928	110.41
786.367	124.91
786.806	114.31
787.245	123.51
787.684	134.11
788.123	142.31
788.562	127.61
789.001	120.01
789.44	116.51
789.879	115.61
790.317	112.01
790.756	124.01
791.195	124.31
791.634	147.21
792.072	196.31
792.511	339.01
792.95	940.11
793.388	2051.91
793.827	1883.21
794.265	651.01
794.704	275.61
795.142	173.61
795.581	150.61
796.019	142.11
796.458	126.81
796.896	120.91
797.334	120.71
797.773	146.21
798.211	210.11
798.649	410.91
799.087	961.91
799.526	1521.51
799.964	1919.91
800.402	1958.11
800.84	727.51
801.278	284.91
801.716	177.21
802.154	144.41
802.592	146.11
803.03	133.51
803.468	124.51
803.906	138.71
804.344	149.01
804.782	134.81
805.22	128.81
805.658	127.61
806.096	140.71
806.533	150.51
806.971	168.81
807.409	208.01
807.847	300.91
808.284	617.21
808.722	1747.41
809.16	3150.81
809.597	2952.21
810.035	5147.31
810.472	5610.81
810.91	2003.51
811.347	757.81
811.785	385.51
812.222	249.01
812.66	186.71
813.097	160.81
813.535	136.81
813.972	127.71
814.409	114.41
814.846	101.21
815.284	105.91
815.721	93.61
816.158	101.21
816.595	113.21
817.032	169.41
817.47	192.31
817.907	160.51
818.344	141.51
818.781	111.91
819.218	95.71
819.655	115.71
820.092	183.91
820.529	208.51
820.966	168.11
821.403	125.31
821.839	100.31
822.276	97.41
822.713	108.61
823.15	127.51
823.587	106.71
824.023	135.11
824.46	275.51
824.897	857.01
825.333	1298.61
825.77	558.41
826.206	216.91
826.643	126.71
827.08	99.11
827.516	75.21
827.953	77.61
828.389	74.21
828.825	73.01
829.262	63.11
829.698	60.91
830.135	62.01
830.571	56.81
831.007	65.31
831.443	66.41
831.88	66.31
832.316	58.11
832.752	63.71
833.188	60.91
833.624	62.31
834.06	58.51
834.497	67.71
834.933	66.31
835.369	71.11
835.805	69.81
836.241	72.11
836.677	78.71
837.112	87.51
837.548	100.21
837.984	126.91
838.42	191.11
838.856	446.61
839.292	1426.01
839.727	2213.51
840.163	1028.31
840.599	870.31
841.034	1913.81
841.47	2059.71
841.906	750.11
842.341	320.41
842.777	221.51
843.212	289.31
843.648	293.91
844.083	145.31
844.519	95.31
844.954	79.11
845.39	62.61
845.825	55.11
846.261	53.81
846.696	53.21
847.131	53.01
847.566	58.31
848.002	49.41
848.437	52.21
848.872	60.71
849.307	59.71
849.742	80.81
850.177	168.51
850.613	518.81
851.048	844.51
851.483	370.61
851.918	152.41
852.353	76.61
852.788	53.91
853.223	54.91
853.657	50.61
854.092	42.91
854.527	46.11
854.962	41.31
855.397	42.51
855.832	48.31
856.266	44.51
856.701	39.91
857.136	33.91
857.57	42.81
858.005	53.51
858.44	54.41
858.874	35.61
859.309	53.81
859.743	36.61
860.178	45.51
860.612	41.01
861.047	43.91
861.481	64.41
861.915	74.01
862.35	46.31
862.784	38.71
863.218	39.61
863.653	36.21
864.087	42.51
864.521	54.31
864.955	64.61
865.39	147.61
865.824	166.21
866.258	108.21
866.692	150.41
867.126	174.61
867.56	107.51
867.994	50.81
868.428	37.51
868.862	43.11
869.296	59.91
869.73	58.81
870.164	51.61
870.598	54.71
871.031	36.11
871.465	31.51
871.899	30.51
872.333	20.91
872.766	28.21
873.2	26.01
873.634	27.01
874.067	26.21
874.501	28.71
874.935	30.71
875.368	28.61
875.802	28.31
876.235	24.41
876.669	24.41
877.102	24.31
877.535	28.01
877.969	27.21
878.402	30.11
878.836	24.01
879.269	21.31
879.702	27.11
880.135	21.81
880.569	27.11
881.002	26.91
881.435	20.51
881.868	17.71
882.301	22.11
882.734	19.21
883.167	24.91
883.601	17.41
884.034	15.71
884.467	24.11
884.899	21.71
885.332	22.01
885.765	16.21
886.198	29.41
886.631	20.61
887.064	14.51
887.497	15.61
887.929	23.41
888.362	13.71
888.795	15.71
889.228	17.31
889.66	21.51
890.093	22.61
890.526	14.91
890.958	14.81
891.391	18.11
891.823	25.51
892.256	17.01
892.688	11.91
893.121	18.61
893.553	16.31
893.985	20.71
894.418	20.11
894.85	18.61
895.282	17.51
895.715	14.51
896.147	16.91
896.579	14.51
897.011	16.41
897.444	18.31
897.876	15.21
898.308	18.31
898.74	19.01
899.172	17.41
899.604	20.91
900.036	21.91
900.468	13.91
900.9	17.01
901.332	20.91
901.764	12.41
902.196	15.51
902.628	12.11
903.06	19.41
903.491	32.51
903.923	28.31
904.355	20.31
904.787	21.71
905.218	20.91
905.65	18.01
906.082	14.11
906.513	13.81
906.945	14.91
907.376	16.21
907.808	21.21
908.239	20.91
908.671	18.61
909.102	20.51
909.534	20.21
909.965	41.01
910.397	86.31
910.828	297.81
911.259	459.61
911.691	214.31
912.122	105.11
912.553	56.21
912.984	27.91
913.415	28.81
913.847	24.01
914.278	19.21
914.709	17.71
915.14	19.01
915.571	21.51
916.002	13.11
916.433	23.61
916.864	19.01
917.295	13.01
917.726	23.71
918.157	16.71
918.587	23.61
919.018	23.01
919.449	24.31
919.88	26.71
920.311	32.71
920.741	51.41
921.172	165.21
921.603	150.71
922.033	72.71
922.464	47.21
922.895	22.51
923.325	21.11
923.756	13.21
924.186	18.71
924.617	20.41
925.047	41.11
925.478	52.91
925.908	44.51
926.338	30.71
926.769	24.11
927.199	23.61
927.629	11.31
928.06	18.11
928.49	17.01
928.92	15.51
929.35	13.01
929.78	14.31
930.21	9.71
930.641	3.41
931.071	14.01
931.501	5.51
931.931	17.91
932.361	12.21
932.791	4.01
933.221	7.91
933.651	3.91
934.08	15.01
934.51	33.61
934.94	12.21
935.37	10.21
935.8	10.41
936.229	7.81
936.659	10.11
937.089	4.01
937.519	15.51
937.948	30.21
938.378	21.21
938.807	3.31
939.237	2.71
939.666	8.01
940.096	-4.49
940.525	5.61
940.955	4.01
941.384	6.01
941.814	-3.49
942.243	-1.59
942.672	10.01
943.102	-2.09
943.531	1.61
943.96	8.51
944.39	4.51
944.819	-0.79
945.248	5.21
945.677	5.11
946.106	6.41
946.535	8.41
946.964	0.51
947.393	3.81
947.822	7.51
948.251	4.21
948.68	7.21
949.109	10.01
949.538	4.11
949.967	4.01
950.396	-2.99
950.825	3.31
951.254	-1.29
951.682	-0.99
952.111	8.01
952.54	2.71
952.969	-1.89
953.397	-2.99
953.826	3.31
954.254	-6.69
954.683	-1.29
955.112	-6.79
955.54	-0.19
955.969	1.71
956.397	5.61
956.826	-2.29
957.254	3.11
957.682	0.21
958.111	6.21
958.539	0.11
958.967	-0.29
959.396	-1.69
959.824	0.11
960.252	7.01
960.68	-1.89
961.109	-6.39
961.537	-1.69
961.965	3.61
962.393	3.51
962.821	0.71
963.249	0.91
963.677	8.31
964.105	9.71
964.533	44.11
964.961	42.11
965.389	26.61
965.817	13.01
966.245	0.41
966.672	-4.29
967.1	-8.29
967.528	6.01
967.956	1.01
968.383	3.81
968.811	-1.39
969.239	3.21
969.666	-7.09
970.094	1.81
970.522	-2.29
970.949	2.61
971.377	-7.39
971.804	0.31
972.232	-1.29
972.659	-0.59
973.087	-3.39
973.514	-2.39
973.941	-4.89
974.369	2.31
974.796	2.21
975.223	-1.59
975.651	1.11
976.078	4.51
976.505	0.81
976.932	-0.29
977.359	14.21
977.786	16.01
978.214	2.81
978.641	-3.29
979.068	-2.19
979.495	1.21
979.922	0.91
980.349	-1.59
980.776	5.11
981.202	-0.39
981.629	5.91
982.056	10.51
982.483	0.41
982.91	10.41
983.337	-4.49
983.763	9.21
984.19	-4.19
984.617	0.11
985.043	2.21
985.47	-0.39
985.897	0.41
986.323	-3.89
986.75	5.01
987.176	3.61
987.603	-1.69
988.029	2.71
988.456	-1.79
988.882	2.11
989.308	1.21
989.735	-5.79
990.161	2.31
990.587	-3.99
991.014	0.51
991.44	-3.09
991.866	-2.49
992.292	1.61
992.719	0.21
993.145	3.71
993.571	-4.59
993.997	-1.79
994.423	-2.49
994.849	-1.99
995.275	6.61
995.701	1.41
996.127	-3.69
996.553	1.91
996.979	-4.69
997.405	6.31
997.83	-1.29
998.256	-2.19
998.682	-1.99
999.108	-5.69
999.534	1.81
999.959	5.31
1000.385	-2.39
1000.811	-0.29
1001.236	-7.29
1001.662	-4.09
1002.087	-4.39
1002.513	0.41
1002.938	4.41
1003.364	-3.79
1003.789	2.91
1004.215	1.41
1004.64	-1.19
1005.066	0.51
1005.491	2.11
1005.916	1.51
1006.342	-4.89
1006.767	-4.99
1007.192	5.31
1007.617	-0.99
1008.042	-2.89
1008.468	-5.29
1008.893	-3.29
1009.318	-1.99
1009.743	1.41
1010.168	1.01
1010.593	2.61
1011.018	-8.49
1011.443	1.31
1011.868	-2.99
1012.293	-5.29
1012.718	-0.99
1013.143	2.11
1013.567	0.11
1013.992	-2.49
1014.417	-12.99
1014.842	-0.49
1015.267	-7.19
1015.691	-6.09
1016.116	5.21
1016.541	0.81
1016.965	1.31
1017.39	6.51
1017.814	-1.19
1018.239	-2.99
1018.663	-1.09
1019.088	-7.89
1019.512	-1.29
1019.937	-0.09
1020.361	-2.69
1020.785	-5.99
1021.21	-2.99
1021.634	-0.79
1022.058	1.81
1022.483	8.71
1022.907	-0.09
1023.331	-0.79
1023.755	-4.89
1024.179	-5.49
1024.604	-0.69
1025.028	-5.99
1025.452	1.21
1025.876	6.91
1026.3	3.41
1026.724	-10.69
1027.148	-0.99
1027.572	-1.29
1027.996	4.31
1028.42	2.01
1028.843	-2.49
1029.267	-2.19
1029.691	-3.49
1030.115	-1.59
1030.539	-5.89
1030.962	-1.29
1031.386	-8.99
1031.81	-0.19
1032.233	-5.19
1032.657	-3.69
1033.08	-2.59
1033.504	-2.49
1033.927	-3.39
1034.351	5.91
1034.774	0.71
1035.198	1.51
1035.621	-3.69
1036.045	-8.59
1036.468	6.21
1036.891	-4.19
1037.315	-5.09
1037.738	-6.79
1038.161	5.01
1038.584	-1.89
1039.008	-2.99
1039.431	-1.19
1039.854	-2.89
1040.277	-10.69
1040.7	-5.59
1041.123	6.71
1041.546	-2.99
1041.969	-2.99
1042.392	2.61
1042.815	2.31
1043.238	0.11
1043.661	1.91
1044.084	-2.89
1044.507	-1.19
1044.93	-4.69
1045.352	-6.99
1045.775	2.11
1046.198	1.41
1046.621	0.01
1047.043	1.31
1047.466	9.01
1047.889	-2.49
1048.311	-2.19
1048.734	-4.29
1049.156	-2.99
1049.579	3.31
1050.001	-0.29
1050.424	-2.49
1050.846	-4.39
1051.269	1.41
1051.691	0.21
1052.113	-5.49
1052.536	-2.69
1052.958	-5.99
1053.38	-7.89
1053.802	-13.59
1054.225	0.41
1054.647	-13.29
1055.069	-5.89
1055.491	1.21
1055.913	-7.99
1056.335	-3.59
1056.757	1.11
1057.179	-0.89
1057.601	-1.39
1058.023	-1.99
1058.445	1.71
1058.867	-2.09
1059.289	-4.69
1059.711	-6.19
1060.133	-2.99
1060.555	-4.29
1060.976	-2.09
1061.398	-7.49
1061.82	-4.99
1062.241	-3.49
1062.663	-10.49
1063.085	-8.49
1063.506	-0.99
1063.928	-4.69
1064.35	0.01
1064.771	-7.79
1065.193	-7.79
1065.614	-5.69
1066.035	-5.39
1066.457	-2.69
1066.878	1.31
1067.3	-4.89
1067.721	-4.69
1068.142	-2.99
1068.564	-6.79
1068.985	-3.59
1069.406	-1.59
1069.827	-3.59
1070.248	0.31
1070.67	-1.39
1071.091	-4.59
1071.512	-3.49
1071.933	-6.39
1072.354	-9.09
1072.775	-7.99
1073.196	-8.59
1073.617	-1.39
1074.038	-2.99
1074.459	-7.09
1074.88	-8.99
1075.3	-3.19
1075.721	-1.19
1076.142	1.81
1076.563	-2.99
1076.983	-14.59
1077.404	-9.09
1077.825	-7.89
1078.246	-4.69
1078.666	-7.29
1079.087	-0.09
1079.507	-3.69
1079.928	0.11
1080.348	-0.49
1080.769	-3.49
1081.189	-0.19
1081.61	0.51
1082.03	-5.69
1082.451	-5.79
1082.871	2.81
1083.291	-4.79
1083.711	-5.89
1084.132	-1.49
1084.552	-6.69
1084.972	2.51
1085.392	-4.59
1085.813	-12.99
1086.233	-7.89
1086.653	-6.99
1087.073	-3.29
1087.493	-4.69
1087.913	1.71
1088.333	-6.49
1088.753	-4.69
1089.173	2.61
1089.593	1.71
1090.013	6.01
1090.433	0.81
1090.852	0.31
1091.272	4.11
1091.692	-2.59
1092.112	-0.39
1092.531	-8.39
1092.951	-9.99
1093.371	-0.59
1093.79	5.11
1094.21	-3.79
1094.63	-3.79
1095.049	-6.99
1095.469	-0.09
1095.888	-0.99
1096.308	2.01
1096.727	9.31
1097.146	-6.49
1097.566	-2.99
1097.985	-2.69
1098.405	-0.09
1098.824	-6.89
1099.243	-7.79
1099.662	-7.49
1100.082	-3.29
1100.501	3.21
1100.92	-6.69
1101.339	-6.49
1101.758	-2.59
