Data from 20171114-ORNL-Ar_H_NY_Subt18_08-06-32-745.txt Node
Date: Tue Nov 14 08:06:32 EST 2017
User: Ender
Spectrometer: HR+D1039
Trigger mode: 0
Integration Time (sec): 2.730000E-2
Scans to average: 10
Electric dark correction enabled: true
Nonlinearity correction enabled: false
Boxcar width: 0
XAxis mode: Wavelengths
Number of Pixels in Spectrum: 2048
>>>>>Begin Spectral Data<<<<<
187.836	-5.13
188.309	-5.13
188.782	-5.13
189.255	-0.33
189.728	1.97
190.201	6.57
190.674	5.17
191.147	5.07
191.619	-11.53
192.092	-0.53
192.565	0.47
193.038	4.17
193.511	-0.13
193.984	-0.03
194.456	2.27
194.929	-2.93
195.402	-3.23
195.874	-1.83
196.347	-1.43
196.82	-9.03
197.292	6.57
197.765	-1.93
198.237	-5.93
198.71	-0.43
199.182	0.37
199.655	2.47
200.127	-0.33
200.6	-6.53
201.072	1.97
201.544	-3.53
202.017	-5.03
202.489	6.87
202.961	-3.73
203.433	-2.43
203.906	-8.23
204.378	-5.53
204.85	-4.43
205.322	-8.13
205.794	0.77
206.266	-6.83
206.739	-11.63
207.211	3.97
207.683	-3.03
208.155	-7.33
208.627	-2.23
209.099	-3.83
209.57	-10.23
210.042	-9.23
210.514	-7.43
210.986	-1.93
211.458	-3.63
211.93	-3.23
212.402	1.57
212.873	-5.23
213.345	-4.23
213.817	-9.43
214.288	-1.23
214.76	-9.33
215.232	-6.33
215.703	0.27
216.175	-0.23
216.646	-5.23
217.118	-7.33
217.589	-7.13
218.061	-5.23
218.532	-5.43
219.004	-6.03
219.475	-3.23
219.946	-5.83
220.418	-3.33
220.889	9.07
221.36	-1.53
221.832	-5.33
222.303	-7.93
222.774	0.27
223.245	-9.13
223.717	-3.53
224.188	-3.83
224.659	-4.93
225.13	-7.23
225.601	0.47
226.072	1.97
226.543	-0.53
227.014	1.97
227.485	-1.93
227.956	-6.33
228.427	-5.73
228.898	-1.03
229.369	7.17
229.839	-2.33
230.31	-2.03
230.781	2.77
231.252	-5.13
231.722	-2.93
232.193	-3.13
232.664	6.17
233.135	-3.03
233.605	-0.13
234.076	-11.43
234.546	8.27
235.017	9.37
235.487	-2.63
235.958	-0.13
236.428	-1.63
236.899	5.87
237.369	-0.53
237.84	-0.83
238.31	3.37
238.78	1.87
239.251	-2.53
239.721	0.57
240.191	-1.73
240.662	-2.33
241.132	-1.03
241.602	-4.83
242.072	-0.43
242.542	7.67
243.013	4.87
243.483	-0.23
243.953	2.77
244.423	1.37
244.893	3.67
245.363	6.57
245.833	-3.33
246.303	-0.83
246.773	2.17
247.243	2.37
247.712	4.37
248.182	4.67
248.652	8.47
249.122	-3.13
249.592	8.07
250.061	12.47
250.531	30.17
251.001	14.37
251.471	18.07
251.94	18.47
252.41	6.37
252.879	7.87
253.349	18.87
253.818	7.87
254.288	2.97
254.757	3.97
255.227	1.57
255.696	-0.63
256.166	5.77
256.635	8.27
257.105	7.37
257.574	8.17
258.043	16.27
258.513	12.97
258.982	12.77
259.451	5.97
259.92	13.67
260.389	12.27
260.859	16.67
261.328	11.77
261.797	15.27
262.266	8.47
262.735	11.67
263.204	6.47
263.673	1.97
264.142	6.57
264.611	-6.63
265.08	2.57
265.549	-3.33
266.018	14.67
266.487	1.77
266.955	-1.43
267.424	7.07
267.893	7.27
268.362	-3.63
268.83	6.77
269.299	16.47
269.768	5.07
270.236	14.37
270.705	6.97
271.174	4.77
271.642	7.97
272.111	3.97
272.579	16.67
273.048	20.27
273.516	25.87
273.985	22.57
274.453	26.57
274.922	17.87
275.39	16.77
275.858	3.97
276.327	12.67
276.795	20.27
277.263	9.57
277.731	30.27
278.2	56.37
278.668	56.07
279.136	49.57
279.604	19.47
280.072	15.77
280.54	8.27
281.008	4.87
281.477	14.27
281.945	14.47
282.413	15.97
282.881	17.67
283.348	10.17
283.816	17.27
284.284	20.47
284.752	18.07
285.22	13.97
285.688	16.77
286.156	18.27
286.623	48.27
287.091	52.17
287.559	24.07
288.026	19.97
288.494	19.87
288.962	6.57
289.429	5.37
289.897	22.47
290.364	15.87
290.832	19.17
291.3	12.87
291.767	19.37
292.234	19.97
292.702	18.87
293.169	21.97
293.637	20.77
294.104	27.47
294.571	6.17
295.039	11.17
295.506	14.17
295.973	22.37
296.44	14.27
296.908	19.37
297.375	24.57
297.842	19.07
298.309	14.27
298.776	14.87
299.243	19.57
299.71	15.77
300.177	21.67
300.644	25.67
301.111	23.57
301.578	24.37
302.045	18.17
302.512	24.87
302.979	25.97
303.446	18.37
303.913	18.17
304.379	18.97
304.846	31.77
305.313	26.47
305.78	25.77
306.246	33.47
306.713	28.97
307.18	27.07
307.646	31.07
308.113	30.87
308.579	28.97
309.046	27.27
309.512	25.67
309.979	19.97
310.445	27.37
310.912	27.97
311.378	32.27
311.845	32.77
312.311	32.07
312.777	33.37
313.244	33.97
313.71	37.47
314.176	35.77
314.642	39.67
315.109	36.47
315.575	36.57
316.041	40.37
316.507	39.67
316.973	39.67
317.439	35.47
317.905	36.67
318.371	39.47
318.837	34.97
319.303	36.87
319.769	34.77
320.235	36.37
320.701	39.67
321.167	42.17
321.633	39.67
322.099	39.07
322.564	48.67
323.03	45.27
323.496	41.07
323.962	40.47
324.427	40.77
324.893	45.07
325.359	38.97
325.824	42.17
326.29	38.37
326.755	41.07
327.221	44.27
327.686	42.97
328.152	50.07
328.617	45.97
329.083	46.17
329.548	49.77
330.014	54.17
330.479	45.47
330.944	43.67
331.41	48.87
331.875	45.97
332.34	40.07
332.805	38.07
333.271	54.37
333.736	44.37
334.201	51.87
334.666	54.77
335.131	54.47
335.596	54.37
336.061	55.37
336.526	47.47
336.991	51.97
337.456	55.37
337.921	50.57
338.386	43.47
338.851	45.47
339.316	48.17
339.781	49.47
340.246	51.47
340.711	46.47
341.175	52.27
341.64	43.87
342.105	60.47
342.569	55.67
343.034	59.47
343.499	61.07
343.963	54.87
344.428	71.27
344.893	67.07
345.357	59.37
345.822	66.37
346.286	68.77
346.751	74.17
347.215	72.57
347.679	77.07
348.144	105.97
348.608	88.47
349.073	63.87
349.537	67.87
350.001	79.77
350.465	94.87
350.93	87.27
351.394	86.27
351.858	75.27
352.322	92.57
352.786	83.87
353.25	103.87
353.715	111.27
354.179	96.47
354.643	131.47
355.107	133.07
355.571	108.97
356.035	105.67
356.498	121.17
356.962	116.97
357.426	125.77
357.89	118.67
358.354	91.57
358.818	87.17
359.281	80.57
359.745	80.17
360.209	77.77
360.673	78.37
361.136	86.07
361.6	92.27
362.064	83.47
362.527	85.67
362.991	95.97
363.454	85.17
363.918	87.47
364.381	86.77
364.845	85.87
365.308	90.07
365.772	85.47
366.235	90.67
366.698	96.17
367.162	85.27
367.625	91.57
368.088	93.57
368.552	87.07
369.015	87.77
369.478	106.47
369.941	106.27
370.404	99.17
370.867	108.67
371.331	108.57
371.794	122.97
372.257	124.27
372.72	124.37
373.183	110.17
373.646	110.07
374.109	111.47
374.572	111.07
375.035	111.37
375.497	112.87
375.96	111.07
376.423	106.07
376.886	115.47
377.349	118.97
377.811	107.67
378.274	108.87
378.737	111.77
379.199	118.37
379.662	118.37
380.125	121.47
380.587	121.97
381.05	125.47
381.512	124.97
381.975	141.37
382.437	133.27
382.9	137.37
383.362	135.57
383.825	149.27
384.287	150.67
384.75	147.67
385.212	150.77
385.674	150.27
386.136	142.57
386.599	138.27
387.061	140.37
387.523	134.67
387.985	141.47
388.447	156.27
388.91	150.07
389.372	169.17
389.834	158.97
390.296	150.67
390.758	164.07
391.22	173.47
391.682	220.47
392.144	311.17
392.606	239.97
393.068	172.47
393.529	173.27
393.991	157.87
394.453	148.07
394.915	167.87
395.377	199.67
395.838	230.77
396.3	165.97
396.762	155.67
397.224	140.17
397.685	138.37
398.147	136.87
398.608	134.77
399.07	133.37
399.531	137.37
399.993	149.87
400.454	157.57
400.916	152.37
401.377	151.07
401.839	158.57
402.3	157.07
402.762	173.17
403.223	191.57
403.684	186.47
404.145	165.67
404.607	165.07
405.068	172.57
405.529	180.37
405.99	200.07
406.451	184.47
406.913	180.97
407.374	172.37
407.835	173.57
408.296	174.67
408.757	172.37
409.218	189.17
409.679	185.37
410.14	187.87
410.601	177.17
411.062	195.47
411.522	200.57
411.983	206.37
412.444	189.97
412.905	178.37
413.366	190.57
413.826	205.27
414.287	222.47
414.748	273.37
415.208	258.57
415.669	217.17
416.13	213.77
416.59	211.47
417.051	227.97
417.511	230.07
417.972	245.07
418.432	265.37
418.893	301.07
419.353	267.47
419.814	207.87
420.274	193.07
420.734	188.77
421.195	213.07
421.655	205.97
422.115	200.77
422.576	205.37
423.036	201.57
423.496	217.77
423.956	223.07
424.416	238.67
424.876	276.47
425.336	278.17
425.797	279.77
426.257	269.57
426.717	257.17
427.177	247.07
427.637	233.87
428.097	259.47
428.556	263.07
429.016	278.47
429.476	273.47
429.936	287.97
430.396	292.57
430.856	300.27
431.315	334.87
431.775	365.77
432.235	395.57
432.694	371.97
433.154	381.17
433.614	415.27
434.073	357.67
434.533	292.57
434.993	289.27
435.452	297.57
435.912	307.27
436.371	300.37
436.83	298.57
437.29	275.57
437.749	265.57
438.209	255.07
438.668	279.37
439.127	295.37
439.587	272.57
440.046	255.37
440.505	270.07
440.964	291.67
441.424	339.77
441.883	322.67
442.342	275.17
442.801	238.17
443.26	228.17
443.719	231.27
444.178	224.67
444.637	218.47
445.096	232.77
445.555	237.77
446.014	229.27
446.473	240.27
446.932	241.67
447.391	235.77
447.849	238.07
448.308	230.37
448.767	232.67
449.226	253.77
449.685	250.07
450.143	260.17
450.602	249.47
451.061	237.17
451.519	241.97
451.978	251.47
452.436	243.87
452.895	249.67
453.353	259.87
453.812	249.17
454.27	247.67
454.729	248.57
455.187	242.37
455.646	262.77
456.104	255.37
456.562	271.37
457.021	277.47
457.479	275.67
457.937	279.97
458.395	274.27
458.854	250.97
459.312	268.27
459.77	287.27
460.228	263.87
460.686	254.07
461.144	258.47
461.602	253.77
462.06	259.07
462.518	265.07
462.976	269.77
463.434	271.17
463.892	271.47
464.35	289.37
464.808	304.37
465.266	277.47
465.724	274.07
466.181	284.77
466.639	289.47
467.097	297.77
467.555	309.87
468.012	314.67
468.47	322.87
468.928	338.67
469.385	344.67
469.843	364.37
470.3	359.67
470.758	373.87
471.215	401.27
471.673	425.27
472.13	431.57
472.588	442.97
473.045	385.17
473.503	397.57
473.96	410.67
474.417	415.77
474.875	452.77
475.332	494.97
475.789	472.17
476.246	490.17
476.704	504.47
477.161	528.17
477.618	551.77
478.075	590.37
478.532	640.57
478.989	723.07
479.446	834.07
479.903	803.17
480.36	832.67
480.817	900.97
481.274	1000.27
481.731	1098.77
482.188	1199.07
482.645	1344.37
483.102	1461.87
483.558	1604.97
484.015	1652.47
484.472	1612.37
484.929	1566.67
485.385	1524.97
485.842	1479.17
486.299	1425.27
486.755	1352.37
487.212	1141.87
487.668	955.47
488.125	885.67
488.582	817.17
489.038	782.07
489.494	733.27
489.951	717.67
490.407	700.57
490.864	677.07
491.32	672.77
491.776	670.47
492.233	671.07
492.689	632.97
493.145	629.07
493.602	626.17
494.058	638.97
494.514	641.97
494.97	662.37
495.426	669.07
495.882	661.97
496.338	636.37
496.794	643.37
497.251	636.27
497.707	655.97
498.163	661.47
498.618	666.67
499.074	670.77
499.53	704.47
499.986	710.17
500.442	673.97
500.898	648.67
501.354	650.87
501.809	667.77
502.265	662.17
502.721	679.47
503.177	694.37
503.632	691.37
504.088	703.97
504.543	728.97
504.999	726.67
505.455	684.27
505.91	658.07
506.366	651.47
506.821	656.47
507.277	650.67
507.732	644.87
508.187	648.37
508.643	654.97
509.098	656.37
509.553	676.77
510.009	695.57
510.464	695.37
510.919	714.27
511.375	719.67
511.83	729.27
512.285	741.57
512.74	796.77
513.195	810.07
513.65	792.17
514.105	787.77
514.56	794.77
515.015	817.07
515.47	832.37
515.925	814.77
516.38	812.57
516.835	828.97
517.29	809.77
517.745	795.27
518.2	784.57
518.655	779.17
519.109	770.37
519.564	759.37
520.019	760.77
520.474	749.37
520.928	750.47
521.383	741.57
521.838	738.97
522.292	733.17
522.747	727.37
523.201	721.87
523.656	726.47
524.11	723.47
524.565	714.27
525.019	709.77
525.474	725.07
525.928	720.77
526.382	712.37
526.837	720.97
527.291	732.97
527.745	727.07
528.2	715.67
528.654	709.87
529.108	715.57
529.562	714.77
530.016	720.27
530.47	717.67
530.925	720.37
531.379	718.87
531.833	732.67
532.287	730.67
532.741	724.97
533.195	712.67
533.649	738.37
534.103	740.67
534.556	727.87
535.01	735.27
535.464	727.47
535.918	742.57
536.372	742.87
536.826	740.87
537.279	720.17
537.733	731.97
538.187	736.57
538.64	739.57
539.094	748.37
539.548	753.77
540.001	747.77
540.455	748.87
540.908	757.67
541.362	765.67
541.815	776.97
542.269	784.67
542.722	782.67
543.175	794.07
543.629	796.77
544.082	815.47
544.536	808.47
544.989	813.97
545.442	823.87
545.895	812.07
546.349	825.07
546.802	820.07
547.255	828.27
547.708	830.37
548.161	851.87
548.614	856.37
549.067	854.27
549.52	847.67
549.973	833.47
550.426	832.67
550.879	827.87
551.332	817.67
551.785	825.67
552.238	829.97
552.691	838.07
553.144	858.87
553.596	865.87
554.049	885.57
554.502	918.77
554.955	941.27
555.407	931.27
555.86	929.47
556.313	918.27
556.765	909.77
557.218	901.17
557.67	909.87
558.123	905.47
558.576	898.07
559.028	901.07
559.48	899.17
559.933	887.07
560.385	869.37
560.838	831.07
561.29	807.07
561.742	802.17
562.195	786.07
562.647	788.97
563.099	794.07
563.551	798.17
564.004	811.27
564.456	795.07
564.908	790.67
565.36	769.67
565.812	756.27
566.264	743.47
566.716	750.97
567.168	738.47
567.62	743.97
568.072	729.57
568.524	724.37
568.976	717.87
569.428	706.47
569.88	693.87
570.332	700.37
570.784	706.87
571.235	701.47
571.687	716.67
572.139	724.67
572.59	731.37
573.042	733.07
573.494	725.07
573.945	725.37
574.397	713.57
574.849	709.87
575.3	711.67
575.752	698.67
576.203	693.47
576.655	701.07
577.106	690.07
577.557	684.67
578.009	689.67
578.46	679.87
578.912	675.57
579.363	680.47
579.814	685.77
580.265	684.57
580.717	684.17
581.168	691.77
581.619	696.97
582.07	695.37
582.521	686.87
582.972	692.67
583.423	702.87
583.875	699.37
584.326	715.27
584.777	771.07
585.227	841.47
585.678	934.37
586.129	1014.77
586.58	1092.97
587.031	1169.07
587.482	1341.27
587.933	1517.77
588.384	1317.97
588.834	993.47
589.285	825.47
589.736	808.97
590.186	796.77
590.637	784.57
591.088	761.27
591.538	751.37
591.989	750.97
592.439	745.77
592.89	742.57
593.34	726.37
593.791	725.37
594.241	728.27
594.692	735.17
595.142	724.07
595.593	722.37
596.043	733.97
596.493	738.67
596.943	729.07
597.394	733.57
597.844	739.47
598.294	753.07
598.744	766.67
599.195	808.17
599.645	842.87
600.095	881.57
600.545	933.47
600.995	986.57
601.445	1058.87
601.895	1116.67
602.345	1170.37
602.795	1147.57
603.245	1091.87
603.695	1034.57
604.145	970.17
604.594	926.77
605.044	887.57
605.494	815.57
605.944	776.77
606.393	756.27
606.843	751.07
607.293	747.87
607.743	759.67
608.192	758.87
608.642	784.47
609.091	793.07
609.541	801.37
609.99	790.87
610.44	787.77
610.889	738.37
611.339	716.77
611.788	703.27
612.238	719.67
612.687	732.17
613.136	731.37
613.586	751.67
614.035	749.77
614.484	773.97
614.933	776.77
615.383	769.77
615.832	759.17
616.281	740.57
616.73	703.87
617.179	676.57
617.628	669.57
618.077	652.17
618.526	638.67
618.975	637.67
619.424	638.57
619.873	627.77
620.322	636.97
620.771	616.77
621.22	613.27
621.669	623.17
622.118	595.87
622.567	596.67
623.015	574.97
623.464	580.47
623.913	572.17
624.361	564.27
624.81	572.47
625.259	565.37
625.707	572.37
626.156	573.07
626.604	582.07
627.053	572.87
627.501	577.17
627.95	586.37
628.398	586.57
628.847	587.37
629.295	581.97
629.744	586.37
630.192	586.37
630.64	577.07
631.089	570.97
631.537	591.07
631.985	596.57
632.433	610.67
632.881	623.27
633.33	670.87
633.778	651.67
634.226	583.97
634.674	584.57
635.122	593.47
635.57	611.67
636.018	641.97
636.466	603.47
636.914	563.37
637.362	585.67
637.81	579.77
638.258	595.27
638.705	596.77
639.153	628.27
639.601	639.47
640.049	662.17
640.497	692.37
640.944	712.87
641.392	655.47
641.84	630.57
642.287	604.47
642.735	581.67
643.182	584.47
643.63	585.97
644.078	591.77
644.525	606.77
644.973	613.77
645.42	615.57
645.867	634.47
646.315	656.87
646.762	675.27
647.21	707.97
647.657	721.27
648.104	753.57
648.551	799.77
648.999	855.67
649.446	938.57
649.893	1031.67
650.34	1172.27
650.787	1418.47
651.234	1764.07
651.682	2293.97
652.129	3147.27
652.576	4555.37
653.023	6705.07
653.47	9193.17
653.917	11432.47
654.363	13231.77
654.81	14549.07
655.257	13900.67
655.704	9065.47
656.151	5389.07
656.598	3478.37
657.044	2470.77
657.491	1901.07
657.938	1523.87
658.385	1269.07
658.831	1094.47
659.278	982.17
659.724	867.37
660.171	809.27
660.618	736.07
661.064	706.37
661.511	680.17
661.957	670.47
662.404	659.07
662.85	668.47
663.296	640.77
663.743	570.97
664.189	552.47
664.635	548.37
665.082	545.07
665.528	538.87
665.974	523.97
666.42	520.17
666.867	515.57
667.313	502.67
667.759	491.07
668.205	491.37
668.651	498.07
669.097	496.37
669.543	517.27
669.989	483.37
670.435	455.17
670.881	452.67
671.327	446.07
671.773	481.07
672.219	497.97
672.665	563.17
673.11	597.97
673.556	645.47
674.002	681.57
674.448	669.27
674.893	549.57
675.339	485.07
675.785	449.17
676.23	423.87
676.676	400.77
677.122	388.57
677.567	372.67
678.013	376.57
678.458	369.27
678.904	371.57
679.349	356.17
679.794	356.17
680.24	362.67
680.685	359.37
681.131	357.17
681.576	355.87
682.021	356.77
682.466	353.07
682.912	355.57
683.357	358.87
683.802	395.37
684.247	426.77
684.692	459.77
685.137	506.97
685.583	545.27
686.028	571.77
686.473	523.47
686.918	450.57
687.363	416.27
687.807	399.27
688.252	374.97
688.697	362.97
689.142	342.97
689.587	340.57
690.032	330.17
690.477	355.37
690.921	358.87
691.366	383.67
691.811	406.07
692.255	433.87
692.7	468.97
693.145	510.67
693.589	705.27
694.034	1143.77
694.478	1556.47
694.923	1757.87
695.367	2294.17
695.812	1207.37
696.256	510.37
696.701	386.37
697.145	352.67
697.59	323.87
698.034	333.57
698.478	327.77
698.922	328.77
699.367	335.37
699.811	353.07
700.255	369.37
700.699	391.47
701.143	441.67
701.588	486.97
702.032	520.77
702.476	517.77
702.92	492.47
703.364	501.47
703.808	646.37
704.252	1053.67
704.696	1475.07
705.14	1706.97
705.584	2166.87
706.027	1080.47
706.471	523.07
706.915	400.07
707.359	363.07
707.803	323.67
708.246	318.07
708.69	319.77
709.134	314.57
709.577	319.87
710.021	328.37
710.465	307.97
710.908	301.87
711.352	297.07
711.795	317.07
712.239	358.57
712.682	386.07
713.126	428.47
713.569	475.47
714.012	378.67
714.456	323.47
714.899	302.77
715.342	286.07
715.786	262.67
716.229	258.47
716.672	265.87
717.115	248.47
717.558	260.07
718.002	254.47
718.445	271.17
718.888	290.57
719.331	297.27
719.774	316.17
720.217	310.47
720.66	289.27
721.103	271.37
721.546	260.37
721.989	259.07
722.432	231.97
722.874	243.67
723.317	240.17
723.76	238.77
724.203	264.07
724.645	322.87
725.088	462.07
725.531	587.07
725.974	652.57
726.416	557.27
726.859	310.07
727.301	252.37
727.744	249.17
728.187	235.77
728.629	236.47
729.071	245.07
729.514	259.37
729.956	276.97
730.399	280.47
730.841	287.57
731.283	279.87
731.726	263.17
732.168	266.57
732.61	269.87
733.053	283.27
733.495	319.57
733.937	359.97
734.379	401.57
734.821	443.57
735.263	545.37
735.705	842.97
736.148	1595.87
736.59	2602.27
737.032	3096.97
737.474	2513.77
737.916	821.27
738.357	441.47
738.799	332.67
739.241	298.57
739.683	285.87
740.125	290.77
740.567	307.97
741.008	318.07
741.45	315.37
741.892	320.77
742.334	348.87
742.775	363.67
743.217	350.37
743.658	270.77
744.1	262.37
744.542	262.47
744.983	307.37
745.425	342.47
745.866	345.77
746.307	290.77
746.749	288.27
747.19	330.67
747.632	468.57
748.073	891.37
748.514	1888.97
748.956	2875.27
749.397	3607.37
749.838	3013.87
750.279	3009.87
750.72	1516.27
751.162	544.57
751.603	325.47
752.044	262.77
752.485	218.87
752.926	218.37
753.367	206.47
753.808	196.57
754.249	199.27
754.69	196.17
755.131	186.17
755.572	180.77
756.013	177.77
756.453	186.27
756.894	194.47
757.335	202.07
757.776	194.57
758.216	197.57
758.657	198.97
759.098	206.97
759.538	231.37
759.979	273.97
760.42	382.97
760.86	709.57
761.301	1852.17
761.741	4459.37
762.182	6500.37
762.622	4558.37
763.063	1307.37
763.503	547.07
763.943	347.97
764.384	352.67
764.824	407.87
765.264	442.37
765.705	299.67
766.145	214.07
766.585	198.67
767.025	186.27
767.465	192.57
767.906	239.37
768.346	321.87
768.786	348.87
769.226	259.27
769.666	329.17
770.106	630.97
770.546	1564.47
770.986	2693.37
771.426	2390.87
771.866	794.77
772.306	326.17
772.745	215.17
773.185	179.47
773.625	169.37
774.065	173.47
774.505	198.37
774.944	314.47
775.384	669.97
775.824	1216.87
776.263	1172.67
776.703	491.67
777.142	220.87
777.582	163.27
778.021	139.37
778.461	142.47
778.9	137.77
779.34	135.07
779.779	117.47
780.219	106.07
780.658	105.57
781.097	117.77
781.537	113.97
781.976	114.97
782.415	115.57
782.855	106.17
783.294	108.97
783.733	107.97
784.172	112.97
784.611	113.97
785.05	112.07
785.489	111.87
785.928	118.57
786.367	130.57
786.806	120.77
787.245	129.57
787.684	142.47
788.123	151.27
788.562	133.47
789.001	130.77
789.44	124.17
789.879	125.27
790.317	120.27
790.756	127.67
791.195	127.57
791.634	150.17
792.072	207.87
792.511	361.27
792.95	1014.27
793.388	2158.37
793.827	1956.17
794.265	689.27
794.704	290.17
795.142	187.97
795.581	152.77
796.019	140.47
796.458	131.67
796.896	119.57
797.334	132.87
797.773	160.87
798.211	221.77
798.649	447.57
799.087	1026.87
799.526	1604.87
799.964	2024.87
800.402	2024.47
800.84	759.77
801.278	302.47
801.716	190.57
802.154	154.37
802.592	149.37
803.03	145.27
803.468	133.47
803.906	147.87
804.344	143.27
804.782	139.77
805.22	135.77
805.658	128.57
806.096	147.67
806.533	167.07
806.971	177.37
807.409	219.97
807.847	313.47
808.284	679.87
808.722	1879.87
809.16	3320.47
809.597	3133.37
810.035	5456.97
810.472	5803.87
810.91	2099.87
811.347	796.27
811.785	404.97
812.222	252.57
812.66	201.67
813.097	164.77
813.535	142.87
813.972	129.97
814.409	127.07
814.846	111.87
815.284	113.47
815.721	108.27
816.158	108.27
816.595	120.47
817.032	184.17
817.47	202.57
817.907	173.17
818.344	152.27
818.781	123.27
819.218	100.37
819.655	124.87
820.092	188.27
820.529	217.47
820.966	180.47
821.403	131.07
821.839	109.07
822.276	102.97
822.713	119.27
823.15	135.87
823.587	122.97
824.023	149.17
824.46	298.37
824.897	903.07
825.333	1374.67
825.77	587.27
826.206	235.97
826.643	137.57
827.08	99.97
827.516	86.27
827.953	78.27
828.389	85.07
828.825	74.67
829.262	68.57
829.698	60.17
830.135	64.47
830.571	64.27
831.007	69.47
831.443	61.87
831.88	60.07
832.316	67.97
832.752	69.97
833.188	71.27
833.624	63.87
834.06	71.07
834.497	71.57
834.933	75.27
835.369	77.37
835.805	68.67
836.241	76.07
836.677	78.07
837.112	95.27
837.548	102.67
837.984	137.67
838.42	203.77
838.856	500.67
839.292	1519.37
839.727	2327.87
840.163	1077.17
840.599	931.47
841.034	2041.67
841.47	2122.17
841.906	783.57
842.341	343.87
842.777	240.57
843.212	314.87
843.648	303.57
844.083	156.27
844.519	98.87
844.954	79.77
845.39	59.87
845.825	55.17
846.261	55.77
846.696	55.17
847.131	54.57
847.566	62.67
848.002	53.17
848.437	57.67
848.872	64.37
849.307	66.37
849.742	89.27
850.177	180.77
850.613	560.77
851.048	888.57
851.483	386.37
851.918	155.07
852.353	86.57
852.788	64.17
853.223	59.27
853.657	58.37
854.092	52.67
854.527	42.47
854.962	41.67
855.397	45.37
855.832	44.67
856.266	44.27
856.701	43.97
857.136	34.77
857.57	44.07
858.005	50.17
858.44	66.67
858.874	40.97
859.309	51.17
859.743	38.07
860.178	49.77
860.612	42.97
861.047	49.97
861.481	71.37
861.915	69.77
862.35	50.97
862.784	39.97
863.218	39.87
863.653	33.57
864.087	44.27
864.521	56.67
864.955	73.87
865.39	157.27
865.824	176.97
866.258	114.97
866.692	166.77
867.126	177.67
867.56	110.07
867.994	56.07
868.428	38.97
868.862	51.17
869.296	54.97
869.73	52.47
870.164	52.17
870.598	48.27
871.031	41.07
871.465	37.27
871.899	38.07
872.333	25.97
872.766	24.37
873.2	24.87
873.634	28.57
874.067	29.17
874.501	31.27
874.935	35.77
875.368	29.07
875.802	30.57
876.235	26.37
876.669	31.97
877.102	19.97
877.535	29.27
877.969	22.37
878.402	19.07
878.836	17.07
879.269	20.67
879.702	24.87
880.135	22.07
880.569	21.87
881.002	25.07
881.435	23.37
881.868	20.27
882.301	24.37
882.734	14.17
883.167	25.87
883.601	20.67
884.034	23.37
884.467	12.37
884.899	22.87
885.332	18.07
885.765	11.47
886.198	23.17
886.631	17.57
887.064	15.77
887.497	12.67
887.929	19.67
888.362	23.47
888.795	18.97
889.228	18.67
889.66	15.77
890.093	14.07
890.526	15.57
890.958	20.07
891.391	14.37
891.823	23.67
892.256	15.57
892.688	17.17
893.121	14.77
893.553	13.57
893.985	24.97
894.418	18.87
894.85	12.77
895.282	21.57
895.715	18.87
896.147	16.77
896.579	20.37
897.011	20.07
897.444	14.57
897.876	13.97
898.308	19.97
898.74	13.57
899.172	12.97
899.604	30.47
900.036	18.37
900.468	20.77
900.9	14.67
901.332	19.07
901.764	15.87
902.196	16.37
902.628	17.27
903.06	18.67
903.491	38.27
903.923	28.47
904.355	21.77
904.787	31.17
905.218	25.07
905.65	21.17
906.082	18.77
906.513	15.27
906.945	16.97
907.376	14.57
907.808	21.07
908.239	24.97
908.671	14.27
909.102	27.07
909.534	27.57
909.965	48.07
910.397	89.67
910.828	310.67
911.259	471.67
911.691	211.47
912.122	111.77
912.553	50.07
912.984	30.17
913.415	30.97
913.847	22.57
914.278	15.97
914.709	14.87
915.14	15.27
915.571	18.37
916.002	14.07
916.433	21.67
916.864	18.97
917.295	11.57
917.726	24.67
918.157	17.07
918.587	27.37
919.018	18.27
919.449	20.17
919.88	22.17
920.311	32.47
920.741	57.07
921.172	170.27
921.603	153.47
922.033	70.07
922.464	45.37
922.895	19.17
923.325	26.67
923.756	18.97
924.186	15.47
924.617	30.67
925.047	37.77
925.478	58.57
925.908	45.47
926.338	30.57
926.769	15.47
927.199	19.17
927.629	13.07
928.06	20.87
928.49	14.67
928.92	12.67
929.35	9.87
929.78	11.47
930.21	10.47
930.641	12.97
931.071	8.67
931.501	2.27
931.931	7.07
932.361	16.27
932.791	-2.23
933.221	7.67
933.651	7.37
934.08	16.37
934.51	33.07
934.94	9.07
935.37	6.87
935.8	9.27
936.229	8.17
936.659	8.07
937.089	5.87
937.519	15.07
937.948	21.27
938.378	11.67
938.807	4.27
939.237	7.67
939.666	3.87
940.096	-4.33
940.525	5.67
940.955	8.47
941.384	7.57
941.814	-3.73
942.243	5.77
942.672	0.67
943.102	1.27
943.531	3.17
943.96	6.97
944.39	5.27
944.819	-5.33
945.248	7.27
945.677	-0.63
946.106	8.77
946.535	7.47
946.964	3.37
947.393	7.57
947.822	1.77
948.251	-1.53
948.68	8.17
949.109	3.87
949.538	7.17
949.967	-1.03
950.396	1.07
950.825	4.07
951.254	2.67
951.682	-3.93
952.111	-0.43
952.54	5.37
952.969	-2.13
953.397	-8.13
953.826	-0.53
954.254	-1.53
954.683	5.77
955.112	-5.03
955.54	-0.33
955.969	-0.53
956.397	5.57
956.826	-0.73
957.254	3.77
957.682	5.37
958.111	3.37
958.539	0.87
958.967	-1.93
959.396	-1.53
959.824	2.17
960.252	6.67
960.68	-4.73
961.109	-0.63
961.537	-5.73
961.965	0.97
962.393	0.07
962.821	-4.43
963.249	1.77
963.677	10.57
964.105	3.87
964.533	50.27
964.961	41.87
965.389	17.37
965.817	13.67
966.245	3.07
966.672	0.17
967.1	-5.13
967.528	-1.53
967.956	1.37
968.383	6.77
968.811	-4.13
969.239	-0.93
969.666	-2.63
970.094	-2.03
970.522	-1.03
970.949	0.27
971.377	-3.73
971.804	2.57
972.232	1.77
972.659	6.07
973.087	-1.53
973.514	1.77
973.941	2.07
974.369	7.37
974.796	2.47
975.223	-1.63
975.651	2.07
976.078	0.07
976.505	2.77
976.932	9.07
977.359	17.57
977.786	14.47
978.214	0.17
978.641	3.17
979.068	-4.83
979.495	-0.63
979.922	1.37
980.349	-2.13
980.776	5.07
981.202	-5.33
981.629	2.47
982.056	4.67
982.483	2.07
982.91	4.27
983.337	-5.03
983.763	3.07
984.19	-0.43
984.617	-6.43
985.043	-1.33
985.47	-5.43
985.897	-5.13
986.323	-9.13
986.75	4.57
987.176	4.97
987.603	1.57
988.029	1.27
988.456	1.07
988.882	6.07
989.308	-4.73
989.735	-7.13
990.161	-0.13
990.587	-0.83
991.014	-4.23
991.44	5.37
991.866	-1.93
992.292	-1.73
992.719	-1.13
993.145	8.57
993.571	-8.83
993.997	-1.53
994.423	2.07
994.849	-2.13
995.275	-0.63
995.701	4.37
996.127	-3.13
996.553	0.67
996.979	2.47
997.405	-2.53
997.83	-4.43
998.256	-5.83
998.682	1.67
999.108	-11.73
999.534	-0.83
999.959	4.87
1000.385	-0.23
1000.811	0.17
1001.236	-2.93
1001.662	-9.23
1002.087	-9.33
1002.513	-1.03
1002.938	-5.23
1003.364	-2.53
1003.789	-2.63
1004.215	1.67
1004.64	0.27
1005.066	-0.03
1005.491	3.47
1005.916	-3.03
1006.342	-6.23
1006.767	-9.43
1007.192	5.87
1007.617	-5.43
1008.042	0.57
1008.468	-7.23
1008.893	-0.73
1009.318	-0.63
1009.743	-4.03
1010.168	3.97
1010.593	2.57
1011.018	-9.73
1011.443	-2.93
1011.868	2.37
1012.293	-4.33
1012.718	-6.93
1013.143	-2.63
1013.567	1.97
1013.992	1.97
1014.417	-11.43
1014.842	4.87
1015.267	-3.83
1015.691	-0.23
1016.116	3.57
1016.541	0.97
1016.965	8.37
1017.39	-0.63
1017.814	-4.23
1018.239	-5.33
1018.663	-1.73
1019.088	-10.63
1019.512	-2.93
1019.937	-3.53
1020.361	-1.53
1020.785	-8.83
1021.21	-1.83
1021.634	-0.13
1022.058	0.67
1022.483	5.47
1022.907	-2.73
1023.331	-8.43
1023.755	-2.63
1024.179	-3.73
1024.604	-7.63
1025.028	-6.43
1025.452	0.57
1025.876	-3.63
1026.3	-3.03
1026.724	-13.23
1027.148	-6.73
1027.572	-9.43
1027.996	-1.83
1028.42	4.17
1028.843	-0.63
1029.267	-8.53
1029.691	-5.13
1030.115	-11.13
1030.539	-10.53
1030.962	-1.63
1031.386	-12.13
1031.81	-3.73
1032.233	2.47
1032.657	-1.43
1033.08	-1.03
1033.504	-6.13
1033.927	-7.23
1034.351	-6.03
1034.774	-0.93
1035.198	-1.93
1035.621	-7.13
1036.045	-7.73
1036.468	2.37
1036.891	-10.53
1037.315	-4.93
1037.738	-8.53
1038.161	-3.73
1038.584	-10.73
1039.008	-4.23
1039.431	-5.23
1039.854	-4.73
1040.277	-9.43
1040.7	-10.43
1041.123	-0.53
1041.546	-7.33
1041.969	-4.13
1042.392	-3.33
1042.815	-4.13
1043.238	-0.33
1043.661	-3.53
1044.084	-6.63
1044.507	-5.93
1044.93	-3.83
1045.352	-3.43
1045.775	0.47
1046.198	-3.53
1046.621	-4.73
1047.043	-3.03
1047.466	2.77
1047.889	-3.33
1048.311	-4.63
1048.734	-6.83
1049.156	-3.73
1049.579	-1.33
1050.001	-5.03
1050.424	3.97
1050.846	2.77
1051.269	-3.43
1051.691	-6.33
1052.113	-4.83
1052.536	0.97
1052.958	-1.43
1053.38	-3.53
1053.802	-5.43
1054.225	3.87
1054.647	-6.43
1055.069	-4.83
1055.491	3.77
1055.913	-8.13
1056.335	-1.23
1056.757	-2.33
1057.179	-2.83
1057.601	-3.53
1058.023	-7.93
1058.445	-0.73
1058.867	-4.43
1059.289	3.27
1059.711	-7.23
1060.133	2.47
1060.555	-5.73
1060.976	-11.03
1061.398	-7.33
1061.82	-6.03
1062.241	-2.23
1062.663	-9.63
1063.085	-2.83
1063.506	-1.23
1063.928	-6.83
1064.35	-4.23
1064.771	-15.73
1065.193	-1.23
1065.614	-8.83
1066.035	-2.73
1066.457	-5.03
1066.878	-1.13
1067.3	-8.13
1067.721	-1.93
1068.142	-0.13
1068.564	-6.03
1068.985	-2.63
1069.406	-1.33
1069.827	-6.53
1070.248	0.07
1070.67	-12.03
1071.091	-1.93
1071.512	-6.13
1071.933	-4.63
1072.354	-9.93
1072.775	-5.03
1073.196	-7.03
1073.617	-1.33
1074.038	-5.13
1074.459	-4.13
1074.88	-1.03
1075.3	-1.23
1075.721	-10.83
1076.142	-2.63
1076.563	2.47
1076.983	-6.03
1077.404	-8.43
1077.825	-6.03
1078.246	-6.03
1078.666	-9.23
1079.087	-4.53
1079.507	-4.63
1079.928	1.67
1080.348	-0.63
1080.769	-6.13
1081.189	-2.03
1081.61	-5.23
1082.03	-0.73
1082.451	-1.23
1082.871	-3.13
1083.291	-4.33
1083.711	-6.83
1084.132	-7.23
1084.552	-5.13
1084.972	3.17
1085.392	-8.43
1085.813	-10.33
1086.233	-9.43
1086.653	-3.63
1087.073	-5.03
1087.493	-11.63
1087.913	-6.03
1088.333	-8.73
1088.753	-6.93
1089.173	4.47
1089.593	6.57
1090.013	1.27
1090.433	-1.03
1090.852	-5.63
1091.272	-0.13
1091.692	-2.73
1092.112	-1.33
1092.531	-5.23
1092.951	-20.33
1093.371	-2.83
1093.79	0.57
1094.21	-7.73
1094.63	-4.93
1095.049	-6.03
1095.469	0.87
1095.888	-9.73
1096.308	-2.33
1096.727	2.97
1097.146	-6.43
1097.566	0.27
1097.985	-9.13
1098.405	-1.33
1098.824	-4.63
1099.243	-5.23
1099.662	-4.03
1100.082	3.67
1100.501	0.07
1100.92	-5.33
1101.339	-6.93
1101.758	-1.43
