Data from 20171114-ORNL-Ar_H_NY_Subt18_08-08-46-531.txt Node
Date: Tue Nov 14 08:08:46 EST 2017
User: Ender
Spectrometer: HR+D1039
Trigger mode: 0
Integration Time (sec): 2.730000E-2
Scans to average: 10
Electric dark correction enabled: true
Nonlinearity correction enabled: false
Boxcar width: 0
XAxis mode: Wavelengths
Number of Pixels in Spectrum: 2048
>>>>>Begin Spectral Data<<<<<
187.836	-1.39
188.309	-1.39
188.782	-1.39
189.255	3.41
189.728	-0.89
190.201	6.31
190.674	1.11
191.147	-3.89
191.619	-8.89
192.092	3.31
192.565	2.71
193.038	-0.59
193.511	-1.49
193.984	2.31
194.456	-3.49
194.929	-2.69
195.402	0.01
195.874	4.21
196.347	-5.99
196.82	-5.79
197.292	6.01
197.765	-2.89
198.237	-7.49
198.71	-2.29
199.182	-4.09
199.655	4.41
200.127	5.71
200.6	-0.89
201.072	-0.09
201.544	-0.69
202.017	-1.19
202.489	-0.79
202.961	6.61
203.433	-0.99
203.906	-5.89
204.378	-6.09
204.85	-3.29
205.322	-12.99
205.794	-5.59
206.266	-1.09
206.739	-8.19
207.211	0.71
207.683	-11.49
208.155	-5.89
208.627	-4.39
209.099	-0.09
209.57	-12.09
210.042	-4.99
210.514	-5.59
210.986	-6.79
211.458	-11.99
211.93	-4.09
212.402	0.51
212.873	-9.99
213.345	-12.99
213.817	-13.89
214.288	-5.49
214.76	-10.69
215.232	-7.59
215.703	-1.79
216.175	-0.49
216.646	1.11
217.118	-4.39
217.589	-7.59
218.061	-1.59
218.532	-4.99
219.004	-7.69
219.475	-6.99
219.946	-6.19
220.418	-7.79
220.889	2.21
221.36	0.11
221.832	-4.29
222.303	-13.59
222.774	-8.99
223.245	-10.39
223.717	-12.79
224.188	-4.89
224.659	-11.89
225.13	-7.19
225.601	0.81
226.072	-2.69
226.543	-6.99
227.014	-1.79
227.485	-6.19
227.956	-3.89
228.427	-3.79
228.898	2.31
229.369	4.41
229.839	-8.89
230.31	-7.39
230.781	4.01
231.252	-7.19
231.722	-6.89
232.193	-2.19
232.664	-7.89
233.135	-5.19
233.605	-1.99
234.076	-6.59
234.546	1.61
235.017	2.91
235.487	-5.99
235.958	-4.29
236.428	-8.99
236.899	-0.89
237.369	1.31
237.84	-1.19
238.31	-1.39
238.78	-6.89
239.251	-3.39
239.721	1.11
240.191	-3.69
240.662	-3.79
241.132	-8.99
241.602	-8.69
242.072	0.21
242.542	5.51
243.013	-2.79
243.483	-7.29
243.953	-3.09
244.423	-0.89
244.893	-4.19
245.363	1.71
245.833	2.31
246.303	-5.19
246.773	0.81
247.243	-3.09
247.712	0.81
248.182	4.31
248.652	5.61
249.122	-6.89
249.592	1.81
250.061	2.71
250.531	14.31
251.001	4.81
251.471	9.31
251.94	4.51
252.41	-4.79
252.879	-11.69
253.349	8.51
253.818	6.81
254.288	5.11
254.757	-4.49
255.227	4.61
255.696	2.71
256.166	4.21
256.635	2.91
257.105	5.41
257.574	-1.39
258.043	1.21
258.513	0.11
258.982	4.61
259.451	0.41
259.92	2.31
260.389	-0.69
260.859	10.11
261.328	5.81
261.797	6.81
262.266	1.01
262.735	9.41
263.204	2.11
263.673	-7.09
264.142	4.01
264.611	-0.89
265.08	-0.59
265.549	-3.99
266.018	4.41
266.487	-5.39
266.955	-8.99
267.424	-0.29
267.893	0.71
268.362	-4.19
268.83	7.61
269.299	5.21
269.768	1.41
270.236	5.31
270.705	0.61
271.174	-1.69
271.642	4.01
272.111	0.71
272.579	3.21
273.048	12.11
273.516	11.51
273.985	14.11
274.453	4.41
274.922	13.41
275.39	6.11
275.858	5.01
276.327	7.01
276.795	15.41
277.263	0.91
277.731	16.51
278.2	24.91
278.668	30.71
279.136	25.41
279.604	10.71
280.072	4.11
280.54	9.81
281.008	0.91
281.477	12.41
281.945	8.51
282.413	5.21
282.881	6.61
283.348	4.51
283.816	11.31
284.284	8.11
284.752	8.01
285.22	6.31
285.688	7.51
286.156	4.51
286.623	23.71
287.091	21.11
287.559	15.01
288.026	5.71
288.494	10.21
288.962	6.71
289.429	3.01
289.897	13.41
290.364	8.11
290.832	12.71
291.3	-1.49
291.767	10.21
292.234	13.81
292.702	7.81
293.169	15.81
293.637	19.31
294.104	9.41
294.571	9.41
295.039	6.71
295.506	6.41
295.973	9.51
296.44	4.91
296.908	9.11
297.375	6.61
297.842	10.91
298.309	7.11
298.776	9.91
299.243	14.01
299.71	11.51
300.177	13.71
300.644	13.21
301.111	18.51
301.578	17.91
302.045	7.41
302.512	13.91
302.979	10.81
303.446	14.31
303.913	10.01
304.379	10.51
304.846	17.11
305.313	17.51
305.78	12.41
306.246	14.21
306.713	24.21
307.18	16.21
307.646	15.11
308.113	20.81
308.579	15.81
309.046	16.11
309.512	21.01
309.979	9.61
310.445	19.31
310.912	15.81
311.378	22.51
311.845	23.01
312.311	22.91
312.777	18.71
313.244	19.61
313.71	29.71
314.176	18.51
314.642	16.01
315.109	18.71
315.575	28.61
316.041	22.51
316.507	22.21
316.973	26.61
317.439	27.31
317.905	29.41
318.371	29.01
318.837	21.11
319.303	19.61
319.769	16.71
320.235	34.91
320.701	30.11
321.167	29.21
321.633	22.71
322.099	28.81
322.564	31.51
323.03	28.01
323.496	23.61
323.962	24.91
324.427	24.31
324.893	31.01
325.359	29.31
325.824	26.21
326.29	27.91
326.755	32.31
327.221	29.61
327.686	31.41
328.152	33.81
328.617	31.81
329.083	37.21
329.548	48.41
330.014	34.51
330.479	29.51
330.944	24.71
331.41	34.31
331.875	35.51
332.34	31.71
332.805	27.71
333.271	29.91
333.736	34.01
334.201	41.31
334.666	45.51
335.131	45.11
335.596	40.91
336.061	37.61
336.526	28.91
336.991	35.51
337.456	45.11
337.921	39.21
338.386	29.11
338.851	35.91
339.316	39.91
339.781	38.41
340.246	42.01
340.711	30.11
341.175	35.61
341.64	37.31
342.105	41.51
342.569	46.31
343.034	45.81
343.499	47.11
343.963	41.01
344.428	44.91
344.893	52.21
345.357	52.21
345.822	46.21
346.286	51.51
346.751	57.91
347.215	55.81
347.679	63.21
348.144	75.11
348.608	64.81
349.073	54.21
349.537	56.41
350.001	63.61
350.465	73.51
350.93	65.31
351.394	65.71
351.858	56.51
352.322	72.51
352.786	66.41
353.25	87.91
353.715	93.21
354.179	84.61
354.643	93.91
355.107	103.01
355.571	88.11
356.035	88.61
356.498	93.71
356.962	91.41
357.426	106.91
357.89	94.11
358.354	74.91
358.818	69.91
359.281	64.11
359.745	67.71
360.209	68.11
360.673	58.61
361.136	67.21
361.6	75.21
362.064	65.41
362.527	66.41
362.991	80.01
363.454	70.31
363.918	62.11
364.381	64.61
364.845	69.31
365.308	70.61
365.772	75.41
366.235	71.31
366.698	73.01
367.162	75.11
367.625	79.81
368.088	72.71
368.552	72.71
369.015	69.91
369.478	79.71
369.941	86.41
370.404	79.51
370.867	91.41
371.331	88.71
371.794	97.81
372.257	87.01
372.72	106.41
373.183	90.11
373.646	87.01
374.109	80.31
374.572	89.01
375.035	90.21
375.497	96.11
375.96	89.61
376.423	82.91
376.886	92.61
377.349	89.41
377.811	95.21
378.274	87.21
378.737	87.81
379.199	89.41
379.662	98.41
380.125	96.01
380.587	94.91
381.05	96.71
381.512	108.41
381.975	110.61
382.437	113.31
382.9	101.91
383.362	114.31
383.825	117.91
384.287	118.01
384.75	119.81
385.212	121.01
385.674	119.71
386.136	118.71
386.599	108.21
387.061	109.01
387.523	114.01
387.985	117.31
388.447	125.91
388.91	124.41
389.372	131.51
389.834	124.61
390.296	127.61
390.758	133.51
391.22	144.51
391.682	167.41
392.144	212.31
392.606	174.41
393.068	137.61
393.529	137.81
393.991	129.31
394.453	122.81
394.915	131.71
395.377	150.81
395.838	171.71
396.3	131.91
396.762	130.51
397.224	123.21
397.685	120.71
398.147	118.71
398.608	117.81
399.07	117.31
399.531	121.01
399.993	131.71
400.454	146.11
400.916	131.01
401.377	137.81
401.839	141.01
402.3	138.51
402.762	148.31
403.223	170.21
403.684	158.91
404.145	150.11
404.607	145.01
405.068	153.21
405.529	155.41
405.99	172.11
406.451	164.11
406.913	157.91
407.374	152.91
407.835	145.91
408.296	153.61
408.757	161.51
409.218	176.31
409.679	165.81
410.14	160.31
410.601	159.51
411.062	169.51
411.522	173.01
411.983	168.11
412.444	155.91
412.905	169.61
413.366	165.31
413.826	181.61
414.287	201.21
414.748	245.01
415.208	234.31
415.669	204.61
416.13	189.71
416.59	192.31
417.051	202.41
417.511	207.81
417.972	223.91
418.432	232.51
418.893	263.91
419.353	239.01
419.814	188.31
420.274	175.61
420.734	162.31
421.195	184.31
421.655	190.01
422.115	186.41
422.576	186.81
423.036	192.41
423.496	195.61
423.956	206.21
424.416	213.61
424.876	249.31
425.336	243.41
425.797	245.31
426.257	243.11
426.717	221.61
427.177	216.51
427.637	208.01
428.097	221.41
428.556	227.21
429.016	255.21
429.476	250.71
429.936	255.61
430.396	262.31
430.856	267.81
431.315	292.71
431.775	323.51
432.235	356.11
432.694	326.71
433.154	337.41
433.614	360.81
434.073	312.61
434.533	263.81
434.993	246.61
435.452	268.81
435.912	275.01
436.371	267.71
436.83	260.71
437.29	258.71
437.749	237.41
438.209	238.41
438.668	262.31
439.127	261.91
439.587	247.01
440.046	243.31
440.505	243.31
440.964	263.11
441.424	305.31
441.883	297.01
442.342	253.31
442.801	217.61
443.26	211.91
443.719	214.71
444.178	211.71
444.637	204.81
445.096	208.41
445.555	211.41
446.014	226.81
446.473	218.61
446.932	223.91
447.391	211.21
447.849	220.41
448.308	207.81
448.767	215.81
449.226	225.71
449.685	229.11
450.143	239.01
450.602	231.91
451.061	220.11
451.519	222.91
451.978	220.61
452.436	232.21
452.895	228.31
453.353	242.91
453.812	231.61
454.27	229.61
454.729	227.01
455.187	227.41
455.646	235.21
456.104	233.51
456.562	247.71
457.021	260.61
457.479	251.21
457.937	258.61
458.395	257.41
458.854	233.41
459.312	245.61
459.77	268.71
460.228	247.91
460.686	242.81
461.144	248.41
461.602	243.01
462.06	232.81
462.518	242.51
462.976	241.51
463.434	254.91
463.892	256.81
464.35	264.61
464.808	279.31
465.266	259.41
465.724	260.21
466.181	267.01
466.639	253.51
467.097	271.71
467.555	291.91
468.012	283.11
468.47	296.21
468.928	316.61
469.385	334.91
469.843	337.31
470.3	331.11
470.758	345.61
471.215	365.21
471.673	387.51
472.13	384.71
472.588	399.31
473.045	358.11
473.503	365.11
473.96	382.21
474.417	386.31
474.875	408.01
475.332	456.21
475.789	437.31
476.246	451.91
476.704	466.51
477.161	491.21
477.618	512.01
478.075	531.11
478.532	581.91
478.989	648.01
479.446	759.41
479.903	730.01
480.36	761.61
480.817	807.81
481.274	900.41
481.731	980.21
482.188	1073.01
482.645	1195.11
483.102	1282.81
483.558	1395.31
484.015	1452.41
484.472	1411.31
484.929	1368.51
485.385	1331.71
485.842	1304.41
486.299	1242.81
486.755	1200.91
487.212	1019.51
487.668	874.51
488.125	799.21
488.582	735.11
489.038	700.01
489.494	668.41
489.951	650.51
490.407	642.91
490.864	615.71
491.32	609.91
491.776	606.51
492.233	618.51
492.689	588.61
493.145	583.71
493.602	575.21
494.058	588.81
494.514	589.81
494.97	611.21
495.426	628.31
495.882	593.41
496.338	579.81
496.794	591.11
497.251	582.61
497.707	599.31
498.163	605.61
498.618	604.61
499.074	604.81
499.53	635.41
499.986	649.71
500.442	625.71
500.898	604.71
501.354	593.31
501.809	606.21
502.265	606.61
502.721	611.01
503.177	638.41
503.632	636.81
504.088	647.71
504.543	659.91
504.999	662.91
505.455	630.31
505.91	605.31
506.366	621.31
506.821	606.21
507.277	606.51
507.732	607.11
508.187	612.11
508.643	613.51
509.098	611.21
509.553	628.41
510.009	643.31
510.464	648.01
510.919	663.81
511.375	663.21
511.83	692.91
512.285	697.71
512.74	725.31
513.195	755.21
513.65	739.71
514.105	735.61
514.56	733.71
515.015	754.01
515.47	769.21
515.925	750.41
516.38	762.81
516.835	765.31
517.29	746.41
517.745	751.51
518.2	740.01
518.655	719.11
519.109	719.11
519.564	706.31
520.019	708.71
520.474	691.21
520.928	698.41
521.383	694.51
521.838	686.01
522.292	687.41
522.747	682.71
523.201	683.51
523.656	669.81
524.11	680.21
524.565	675.01
525.019	672.61
525.474	675.81
525.928	675.41
526.382	669.91
526.837	679.41
527.291	677.41
527.745	672.11
528.2	669.71
528.654	664.51
529.108	669.51
529.562	658.11
530.016	669.61
530.47	665.31
530.925	669.31
531.379	670.41
531.833	681.71
532.287	669.81
532.741	670.41
533.195	682.51
533.649	690.61
534.103	691.61
534.556	689.81
535.01	689.01
535.464	688.11
535.918	698.91
536.372	688.51
536.826	686.91
537.279	677.11
537.733	691.61
538.187	695.31
538.64	684.11
539.094	697.31
539.548	699.01
540.001	714.11
540.455	703.31
540.908	709.61
541.362	726.91
541.815	736.21
542.269	739.01
542.722	734.51
543.175	745.01
543.629	745.01
544.082	766.61
544.536	761.21
544.989	773.71
545.442	769.41
545.895	769.41
546.349	774.71
546.802	771.01
547.255	782.11
547.708	789.81
548.161	798.11
548.614	801.71
549.067	802.71
549.52	794.41
549.973	787.01
550.426	789.11
550.879	779.31
551.332	778.31
551.785	790.51
552.238	791.01
552.691	798.01
553.144	807.31
553.596	828.31
554.049	834.31
554.502	862.11
554.955	887.21
555.407	888.51
555.86	877.01
556.313	867.91
556.765	852.91
557.218	865.81
557.67	856.11
558.123	849.01
558.576	848.51
559.028	847.31
559.48	850.31
559.933	847.11
560.385	824.51
560.838	791.11
561.29	759.71
561.742	774.11
562.195	745.71
562.647	740.41
563.099	763.21
563.551	745.21
564.004	761.31
564.456	743.71
564.908	753.81
565.36	732.31
565.812	710.71
566.264	704.51
566.716	698.51
567.168	689.01
567.62	693.31
568.072	678.01
568.524	690.21
568.976	680.31
569.428	663.61
569.88	663.41
570.332	661.11
570.784	672.31
571.235	664.61
571.687	679.11
572.139	686.51
572.59	699.11
573.042	697.41
573.494	690.31
573.945	692.91
574.397	668.81
574.849	670.61
575.3	678.91
575.752	660.71
576.203	663.21
576.655	673.11
577.106	654.61
577.557	645.61
578.009	650.61
578.46	637.71
578.912	645.81
579.363	650.81
579.814	654.61
580.265	644.31
580.717	650.81
581.168	648.21
581.619	669.31
582.07	661.21
582.521	655.51
582.972	659.41
583.423	669.81
583.875	665.01
584.326	675.41
584.777	707.71
585.227	762.51
585.678	807.81
586.129	873.61
586.58	924.41
587.031	967.91
587.482	1055.21
587.933	1171.71
588.384	1061.61
588.834	860.81
589.285	778.21
589.736	755.91
590.186	753.51
590.637	747.21
591.088	741.41
591.538	734.71
591.989	714.61
592.439	703.61
592.89	707.01
593.34	687.91
593.791	687.51
594.241	683.11
594.692	689.91
595.142	676.21
595.593	679.61
596.043	684.31
596.493	695.71
596.943	697.01
597.394	706.21
597.844	702.61
598.294	717.01
598.744	734.91
599.195	764.51
599.645	802.61
600.095	851.51
600.545	892.91
600.995	953.81
601.445	1000.21
601.895	1072.71
602.345	1114.21
602.795	1094.41
603.245	1047.21
603.695	989.91
604.145	943.51
604.594	894.21
605.044	845.11
605.494	785.01
605.944	749.01
606.393	739.61
606.843	716.01
607.293	717.01
607.743	707.61
608.192	732.81
608.642	738.31
609.091	741.21
609.541	760.51
609.99	746.51
610.44	747.21
610.889	700.41
611.339	687.71
611.788	676.01
612.238	691.71
612.687	702.21
613.136	701.01
613.586	708.01
614.035	711.21
614.484	722.91
614.933	716.41
615.383	717.81
615.832	713.21
616.281	698.51
616.73	668.11
617.179	641.91
617.628	642.71
618.077	617.81
618.526	608.21
618.975	606.61
619.424	606.91
619.873	599.71
620.322	611.61
620.771	592.01
621.22	596.21
621.669	590.31
622.118	582.11
622.567	570.51
623.015	560.71
623.464	559.11
623.913	552.91
624.361	553.71
624.81	549.41
625.259	552.71
625.707	550.81
626.156	547.01
626.604	551.41
627.053	553.41
627.501	559.81
627.95	557.51
628.398	578.31
628.847	566.21
629.295	559.81
629.744	563.81
630.192	557.41
630.64	558.21
631.089	553.71
631.537	553.61
631.985	556.21
632.433	563.81
632.881	557.21
633.33	588.81
633.778	577.01
634.226	534.91
634.674	547.71
635.122	555.91
635.57	579.61
636.018	586.11
636.466	565.21
636.914	547.01
637.362	565.11
637.81	570.31
638.258	572.71
638.705	572.81
639.153	602.41
639.601	613.71
640.049	634.51
640.497	666.11
640.944	687.21
641.392	634.81
641.84	598.01
642.287	561.91
642.735	558.21
643.182	554.31
643.63	568.41
644.078	569.01
644.525	566.11
644.973	579.71
645.42	588.91
645.867	608.81
646.315	631.01
646.762	650.71
647.21	672.31
647.657	697.81
648.104	734.41
648.551	758.51
648.999	809.71
649.446	889.31
649.893	972.71
650.34	1129.81
650.787	1331.51
651.234	1656.01
651.682	2172.01
652.129	2951.71
652.576	4247.21
653.023	6223.21
653.47	8402.31
653.917	10423.11
654.363	11898.81
654.81	13076.41
655.257	12417.01
655.704	8180.11
656.151	4879.21
656.598	3179.71
657.044	2266.81
657.491	1767.11
657.938	1409.21
658.385	1188.11
658.831	1044.41
659.278	921.81
659.724	828.81
660.171	762.01
660.618	703.41
661.064	677.31
661.511	649.31
661.957	642.71
662.404	640.61
662.85	638.61
663.296	615.81
663.743	557.91
664.189	538.81
664.635	529.81
665.082	517.01
665.528	517.81
665.974	516.91
666.42	498.41
666.867	501.71
667.313	484.91
667.759	468.81
668.205	464.31
668.651	467.71
669.097	449.31
669.543	458.41
669.989	451.11
670.435	448.11
670.881	433.21
671.327	442.71
671.773	461.91
672.219	490.31
672.665	542.41
673.11	581.61
673.556	626.61
674.002	670.31
674.448	643.11
674.893	551.11
675.339	475.01
675.785	441.01
676.23	419.91
676.676	388.91
677.122	382.11
677.567	374.51
678.013	354.81
678.458	355.91
678.904	364.31
679.349	350.81
679.794	355.21
680.24	349.21
680.685	347.51
681.131	343.51
681.576	350.11
682.021	346.21
682.466	346.81
682.912	345.51
683.357	356.51
683.802	380.81
684.247	408.11
684.692	453.11
685.137	493.01
685.583	536.91
686.028	559.81
686.473	513.71
686.918	443.91
687.363	415.01
687.807	397.21
688.252	363.81
688.697	359.81
689.142	334.51
689.587	331.21
690.032	330.71
690.477	341.11
690.921	351.31
691.366	377.91
691.811	402.01
692.255	439.81
692.7	463.21
693.145	523.51
693.589	732.21
694.034	1162.51
694.478	1552.21
694.923	1715.71
695.367	2238.31
695.812	1192.31
696.256	500.51
696.701	371.81
697.145	340.71
697.59	320.81
698.034	315.61
698.478	318.71
698.922	320.41
699.367	324.01
699.811	336.81
700.255	348.81
700.699	389.71
701.143	421.91
701.588	474.81
702.032	507.41
702.476	509.61
702.92	493.11
703.364	505.71
703.808	652.31
704.252	1068.61
704.696	1479.51
705.14	1663.41
705.584	2113.31
706.027	1063.41
706.471	527.61
706.915	402.51
707.359	345.61
707.803	315.61
708.246	313.41
708.69	313.41
709.134	310.11
709.577	304.41
710.021	324.61
710.465	302.31
710.908	301.01
711.352	299.61
711.795	310.21
712.239	351.61
712.682	381.81
713.126	415.41
713.569	460.81
714.012	364.71
714.456	306.71
714.899	294.61
715.342	275.61
715.786	257.01
716.229	250.11
716.672	254.91
717.115	248.11
717.558	247.11
718.002	251.91
718.445	256.41
718.888	290.81
719.331	291.51
719.774	308.61
720.217	304.31
720.66	281.01
721.103	268.41
721.546	254.11
721.989	250.01
722.432	234.01
722.874	243.01
723.317	231.71
723.76	230.71
724.203	254.11
724.645	320.91
725.088	449.41
725.531	578.31
725.974	643.21
726.416	546.91
726.859	306.11
727.301	237.41
727.744	236.51
728.187	235.11
728.629	241.41
729.071	248.31
729.514	261.01
729.956	273.11
730.399	285.61
730.841	291.01
731.283	271.41
731.726	262.81
732.168	261.11
732.61	267.21
733.053	288.91
733.495	321.51
733.937	361.31
734.379	404.71
734.821	448.91
735.263	557.11
735.705	869.41
736.148	1645.81
736.59	2610.71
737.032	3012.31
737.474	2466.11
737.916	814.91
738.357	420.41
738.799	331.81
739.241	301.11
739.683	287.61
740.125	298.11
740.567	292.11
741.008	310.81
741.45	320.41
741.892	328.91
742.334	349.71
742.775	364.01
743.217	342.61
743.658	275.41
744.1	249.11
744.542	266.61
744.983	315.71
745.425	342.71
745.866	344.71
746.307	279.31
746.749	279.11
747.19	329.31
747.632	474.71
748.073	925.31
748.514	1934.51
748.956	2859.71
749.397	3619.91
749.838	2990.01
750.279	2912.21
750.72	1504.81
751.162	563.31
751.603	321.81
752.044	254.31
752.485	221.91
752.926	214.41
753.367	204.91
753.808	190.61
754.249	193.91
754.69	184.11
755.131	179.81
755.572	180.11
756.013	177.71
756.453	186.31
756.894	191.41
757.335	191.31
757.776	193.81
758.216	194.61
758.657	199.21
759.098	208.01
759.538	237.81
759.979	269.61
760.42	390.11
760.86	746.11
761.301	1950.81
761.741	4566.71
762.182	6314.11
762.622	4472.21
763.063	1318.81
763.503	540.11
763.943	344.31
764.384	310.81
764.824	325.71
765.264	334.61
765.705	263.01
766.145	200.11
766.585	185.91
767.025	175.71
767.465	177.61
767.906	217.91
768.346	252.91
768.786	268.01
769.226	244.31
769.666	325.61
770.106	655.31
770.546	1629.21
770.986	2630.41
771.426	2343.01
771.866	793.81
772.306	325.51
772.745	209.51
773.185	174.31
773.625	167.91
774.065	164.61
774.505	173.61
774.944	267.91
775.384	534.71
775.824	898.01
776.263	858.51
776.703	385.01
777.142	186.91
777.582	137.71
778.021	133.01
778.461	131.51
778.9	130.91
779.34	129.81
779.779	117.81
780.219	112.21
780.658	108.41
781.097	106.11
781.537	109.11
781.976	106.71
782.415	104.01
782.855	105.91
783.294	106.71
783.733	104.51
784.172	111.11
784.611	107.61
785.05	112.51
785.489	110.61
785.928	119.61
786.367	117.61
786.806	120.11
787.245	126.41
787.684	130.01
788.123	140.11
788.562	136.51
789.001	130.81
789.44	119.61
789.879	118.11
790.317	119.11
790.756	127.61
791.195	129.71
791.634	155.51
792.072	211.91
792.511	385.81
792.95	1057.61
793.388	2139.61
793.827	1877.61
794.265	668.41
794.704	288.31
795.142	187.21
795.581	147.41
796.019	135.61
796.458	136.81
796.896	128.91
797.334	131.11
797.773	156.81
798.211	233.31
798.649	465.41
799.087	1044.71
799.526	1630.91
799.964	2040.21
800.402	1981.91
800.84	764.91
801.278	300.11
801.716	186.41
802.154	154.11
802.592	146.31
803.03	144.91
803.468	132.31
803.906	143.01
804.344	148.91
804.782	144.01
805.22	130.21
805.658	129.81
806.096	152.51
806.533	159.11
806.971	178.51
807.409	222.31
807.847	333.71
808.284	697.41
808.722	1929.71
809.16	3281.11
809.597	3244.11
810.035	5478.41
810.472	5663.11
810.91	2082.21
811.347	813.71
811.785	410.21
812.222	259.11
812.66	202.21
813.097	160.41
813.535	140.41
813.972	133.71
814.409	122.11
814.846	109.81
815.284	108.51
815.721	101.11
816.158	107.41
816.595	118.61
817.032	167.01
817.47	189.31
817.907	140.01
818.344	125.31
818.781	108.91
819.218	99.91
819.655	119.31
820.092	194.21
820.529	213.21
820.966	175.11
821.403	129.61
821.839	101.81
822.276	100.31
822.713	122.61
823.15	131.71
823.587	113.61
824.023	154.91
824.46	313.11
824.897	916.91
825.333	1337.71
825.77	580.01
826.206	232.01
826.643	135.71
827.08	104.31
827.516	85.21
827.953	78.31
828.389	82.21
828.825	78.11
829.262	68.01
829.698	67.21
830.135	65.31
830.571	56.91
831.007	66.71
831.443	66.41
831.88	56.81
832.316	68.91
832.752	65.01
833.188	67.01
833.624	66.61
834.06	69.11
834.497	70.21
834.933	72.61
835.369	74.81
835.805	70.11
836.241	78.11
836.677	75.91
837.112	89.81
837.548	108.51
837.984	138.11
838.42	209.31
838.856	525.61
839.292	1562.61
839.727	2273.01
840.163	1072.21
840.599	965.61
841.034	2064.51
841.47	2074.81
841.906	787.81
842.341	346.31
842.777	218.61
843.212	257.21
843.648	247.51
844.083	129.51
844.519	89.11
844.954	74.41
845.39	57.61
845.825	56.71
846.261	53.01
846.696	55.01
847.131	52.81
847.566	58.61
848.002	53.11
848.437	60.71
848.872	55.01
849.307	63.21
849.742	84.71
850.177	188.71
850.613	571.21
851.048	869.21
851.483	374.31
851.918	154.61
852.353	88.21
852.788	55.81
853.223	52.21
853.657	54.51
854.092	43.51
854.527	40.11
854.962	39.21
855.397	44.51
855.832	52.51
856.266	38.11
856.701	41.91
857.136	38.81
857.57	42.91
858.005	46.21
858.44	58.01
858.874	45.21
859.309	50.71
859.743	40.91
860.178	46.21
860.612	36.01
861.047	54.81
861.481	69.31
861.915	71.91
862.35	53.31
862.784	39.61
863.218	36.91
863.653	33.01
864.087	47.81
864.521	51.41
864.955	73.71
865.39	162.81
865.824	168.81
866.258	120.41
866.692	170.11
867.126	169.61
867.56	104.31
867.994	51.71
868.428	42.01
868.862	46.81
869.296	56.61
869.73	59.71
870.164	53.21
870.598	50.51
871.031	38.51
871.465	32.91
871.899	28.51
872.333	26.41
872.766	24.81
873.2	26.51
873.634	28.11
874.067	21.91
874.501	20.31
874.935	32.41
875.368	29.11
875.802	29.11
876.235	25.11
876.669	19.31
877.102	22.51
877.535	23.01
877.969	23.71
878.402	22.91
878.836	21.11
879.269	27.61
879.702	20.71
880.135	25.21
880.569	22.31
881.002	23.81
881.435	24.81
881.868	15.21
882.301	20.31
882.734	12.71
883.167	21.71
883.601	11.41
884.034	23.51
884.467	13.41
884.899	23.21
885.332	14.51
885.765	16.11
886.198	15.91
886.631	17.11
887.064	18.71
887.497	18.61
887.929	20.01
888.362	12.91
888.795	17.31
889.228	17.51
889.66	22.41
890.093	15.51
890.526	20.21
890.958	14.21
891.391	16.71
891.823	19.51
892.256	23.81
892.688	16.31
893.121	16.11
893.553	20.41
893.985	27.71
894.418	23.31
894.85	11.91
895.282	14.41
895.715	15.81
896.147	16.21
896.579	14.01
897.011	14.71
897.444	11.91
897.876	12.31
898.308	20.61
898.74	16.41
899.172	13.21
899.604	23.61
900.036	25.91
900.468	17.41
900.9	20.81
901.332	16.21
901.764	12.01
902.196	23.41
902.628	22.61
903.06	21.41
903.491	26.01
903.923	21.11
904.355	22.01
904.787	18.81
905.218	23.61
905.65	14.71
906.082	14.91
906.513	17.51
906.945	18.71
907.376	17.41
907.808	21.81
908.239	20.21
908.671	15.01
909.102	22.01
909.534	26.91
909.965	48.31
910.397	99.31
910.828	315.31
911.259	468.51
911.691	210.61
912.122	106.01
912.553	55.81
912.984	33.31
913.415	25.41
913.847	20.11
914.278	13.91
914.709	18.51
915.14	19.21
915.571	15.91
916.002	17.31
916.433	21.51
916.864	12.31
917.295	13.11
917.726	25.61
918.157	19.41
918.587	27.81
919.018	23.91
919.449	21.21
919.88	27.11
920.311	30.61
920.741	50.41
921.172	169.61
921.603	152.11
922.033	72.91
922.464	46.81
922.895	25.11
923.325	20.81
923.756	10.61
924.186	17.61
924.617	23.41
925.047	29.61
925.478	39.01
925.908	30.51
926.338	24.91
926.769	8.81
927.199	15.01
927.629	3.91
928.06	8.81
928.49	17.71
928.92	16.91
929.35	10.31
929.78	11.71
930.21	8.31
930.641	4.31
931.071	9.61
931.501	4.01
931.931	6.41
932.361	11.11
932.791	0.71
933.221	7.01
933.651	7.61
934.08	18.51
934.51	32.81
934.94	11.31
935.37	7.11
935.8	13.11
936.229	2.71
936.659	10.21
937.089	2.71
937.519	15.31
937.948	23.01
938.378	17.81
938.807	9.11
939.237	1.11
939.666	6.21
940.096	-3.69
940.525	0.81
940.955	0.81
941.384	1.91
941.814	-5.59
942.243	-6.59
942.672	1.61
943.102	-5.39
943.531	0.01
943.96	1.91
944.39	2.81
944.819	3.91
945.248	4.61
945.677	4.71
946.106	3.21
946.535	8.61
946.964	0.61
947.393	4.41
947.822	-2.19
948.251	-8.89
948.68	5.31
949.109	2.21
949.538	0.91
949.967	0.11
950.396	-2.59
950.825	-2.89
951.254	-0.99
951.682	-7.19
952.111	9.31
952.54	7.11
952.969	-5.79
953.397	-3.99
953.826	2.51
954.254	-4.39
954.683	-3.39
955.112	-7.79
955.54	-0.59
955.969	2.11
956.397	-2.79
956.826	-5.19
957.254	0.81
957.682	0.31
958.111	8.21
958.539	-1.49
958.967	4.21
959.396	0.71
959.824	-0.09
960.252	4.31
960.68	-5.69
961.109	-1.59
961.537	-3.19
961.965	1.31
962.393	2.61
962.821	2.91
963.249	-3.69
963.677	11.31
964.105	6.61
964.533	40.81
964.961	35.61
965.389	14.71
965.817	12.51
966.245	2.71
966.672	-0.79
967.1	-2.59
967.528	-0.49
967.956	-5.99
968.383	4.51
968.811	-0.29
969.239	0.51
969.666	0.11
970.094	4.71
970.522	-0.29
970.949	1.31
971.377	-6.49
971.804	-1.99
972.232	-4.29
972.659	1.21
973.087	-8.89
973.514	-3.59
973.941	-3.59
974.369	1.51
974.796	3.71
975.223	-1.59
975.651	-4.09
976.078	-1.89
976.505	3.21
976.932	3.81
977.359	13.71
977.786	13.01
978.214	3.01
978.641	-4.79
979.068	-3.29
979.495	-2.89
979.922	-6.49
980.349	0.81
980.776	4.31
981.202	-3.89
981.629	4.81
982.056	7.21
982.483	-6.09
982.91	-1.19
983.337	-10.69
983.763	-1.59
984.19	-3.59
984.617	-1.49
985.043	-6.19
985.47	-2.19
985.897	-1.59
986.323	-8.89
986.75	4.71
987.176	-4.19
987.603	2.61
988.029	-0.19
988.456	-3.09
988.882	2.41
989.308	-11.29
989.735	-1.39
990.161	1.01
990.587	-8.39
991.014	1.91
991.44	2.41
991.866	2.41
992.292	-7.19
992.719	-1.89
993.145	2.91
993.571	-12.29
993.997	-6.09
994.423	2.31
994.849	-6.89
995.275	1.11
995.701	-6.39
996.127	2.91
996.553	2.21
996.979	-1.59
997.405	-5.79
997.83	-6.79
998.256	-6.19
998.682	-7.19
999.108	-7.79
999.534	1.01
999.959	-3.69
1000.385	0.61
1000.811	-2.19
1001.236	-9.39
1001.662	-9.69
1002.087	-3.29
1002.513	-4.99
1002.938	10.51
1003.364	-4.59
1003.789	6.91
1004.215	7.71
1004.64	2.21
1005.066	-0.89
1005.491	-1.99
1005.916	2.21
1006.342	0.41
1006.767	-10.09
1007.192	4.51
1007.617	-1.49
1008.042	-5.49
1008.468	-6.39
1008.893	-2.39
1009.318	0.71
1009.743	-0.29
1010.168	0.41
1010.593	1.51
1011.018	-8.89
1011.443	-6.79
1011.868	-3.09
1012.293	-1.89
1012.718	-5.09
1013.143	0.91
1013.567	6.91
1013.992	-4.99
1014.417	-14.49
1014.842	3.31
1015.267	-7.19
1015.691	2.51
1016.116	6.11
1016.541	-6.99
1016.965	6.01
1017.39	1.11
1017.814	-0.09
1018.239	-2.49
1018.663	-5.69
1019.088	-8.59
1019.512	-4.59
1019.937	-1.29
1020.361	-1.99
1020.785	-6.39
1021.21	-2.09
1021.634	-2.89
1022.058	-0.49
1022.483	1.61
1022.907	-3.49
1023.331	-6.39
1023.755	-5.99
1024.179	0.01
1024.604	-5.09
1025.028	-5.09
1025.452	-6.19
1025.876	0.21
1026.3	2.21
1026.724	-12.89
1027.148	-7.59
1027.572	-9.89
1027.996	-4.89
1028.42	-4.19
1028.843	-7.79
1029.267	-9.99
1029.691	-2.99
1030.115	-8.09
1030.539	-4.49
1030.962	-5.09
1031.386	-9.79
1031.81	0.51
1032.233	2.61
1032.657	-2.69
1033.08	1.01
1033.504	-3.69
1033.927	-0.69
1034.351	-1.49
1034.774	-6.39
1035.198	-3.49
1035.621	-7.99
1036.045	-6.69
1036.468	0.41
1036.891	-8.09
1037.315	-12.09
1037.738	-2.99
1038.161	-4.09
1038.584	-9.39
1039.008	-2.79
1039.431	-0.79
1039.854	-0.89
1040.277	-5.89
1040.7	-11.29
1041.123	-3.29
1041.546	-5.59
1041.969	-3.09
1042.392	-7.59
1042.815	-2.49
1043.238	-1.19
1043.661	-4.09
1044.084	-12.19
1044.507	-7.49
1044.93	-2.09
1045.352	-8.39
1045.775	0.31
1046.198	-1.69
1046.621	-5.09
1047.043	-2.29
1047.466	8.21
1047.889	-8.19
1048.311	-7.19
1048.734	-7.99
1049.156	-3.99
1049.579	-0.09
1050.001	-2.29
1050.424	-0.29
1050.846	-4.19
1051.269	-2.09
1051.691	-7.19
1052.113	-2.99
1052.536	-1.19
1052.958	-0.99
1053.38	1.71
1053.802	-11.29
1054.225	2.11
1054.647	-5.29
1055.069	-3.59
1055.491	3.31
1055.913	-5.69
1056.335	-2.39
1056.757	-4.09
1057.179	-10.69
1057.601	-4.39
1058.023	-7.29
1058.445	-3.59
1058.867	-3.19
1059.289	-0.49
1059.711	-8.19
1060.133	0.11
1060.555	-4.49
1060.976	-1.89
1061.398	-5.69
1061.82	-8.89
1062.241	-2.49
1062.663	-5.69
1063.085	-1.99
1063.506	-1.49
1063.928	-4.19
1064.35	-4.69
1064.771	-11.39
1065.193	-4.29
1065.614	-7.99
1066.035	0.01
1066.457	-4.49
1066.878	-4.29
1067.3	-6.89
1067.721	-0.09
1068.142	-0.49
1068.564	-0.79
1068.985	-2.09
1069.406	-5.99
1069.827	-1.39
1070.248	-3.59
1070.67	-8.19
1071.091	-1.39
1071.512	-1.09
1071.933	-6.39
1072.354	-7.59
1072.775	-5.69
1073.196	-12.69
1073.617	0.11
1074.038	-6.49
1074.459	1.71
1074.88	-10.79
1075.3	2.21
1075.721	-2.69
1076.142	4.61
1076.563	1.51
1076.983	-8.89
1077.404	-10.09
1077.825	-13.89
1078.246	-8.49
1078.666	-13.79
1079.087	-6.19
1079.507	-6.79
1079.928	1.51
1080.348	-3.39
1080.769	-8.59
1081.189	3.71
1081.61	-4.89
1082.03	-5.89
1082.451	-4.09
1082.871	-5.39
1083.291	-5.79
1083.711	-6.49
1084.132	-6.59
1084.552	-3.99
1084.972	-2.19
1085.392	-10.09
1085.813	-11.89
1086.233	-10.89
1086.653	-7.49
1087.073	-1.89
1087.493	-11.29
1087.913	-7.79
1088.333	-9.49
1088.753	-8.49
1089.173	2.11
1089.593	-5.69
1090.013	3.11
1090.433	-3.29
1090.852	-4.89
1091.272	-1.49
1091.692	-1.29
1092.112	-2.49
1092.531	-9.79
1092.951	-7.99
1093.371	-5.09
1093.79	4.71
1094.21	-2.99
1094.63	-3.29
1095.049	-5.19
1095.469	-0.99
1095.888	-7.39
1096.308	-1.09
1096.727	4.51
1097.146	-2.09
1097.566	-0.89
1097.985	-5.19
1098.405	-7.29
1098.824	-11.99
1099.243	-6.79
1099.662	-12.19
1100.082	-5.79
1100.501	-3.59
1100.92	-6.89
1101.339	-5.29
1101.758	-8.19
