Data from 20171114-ORNL-Ar_H_NY_Subt18_08-05-08-941.txt Node
Date: Tue Nov 14 08:05:08 EST 2017
User: Ender
Spectrometer: HR+D1039
Trigger mode: 0
Integration Time (sec): 2.730000E-2
Scans to average: 10
Electric dark correction enabled: true
Nonlinearity correction enabled: false
Boxcar width: 0
XAxis mode: Wavelengths
Number of Pixels in Spectrum: 2048
>>>>>Begin Spectral Data<<<<<
187.836	-4.58
188.309	-4.58
188.782	-4.58
189.255	-3.48
189.728	0.02
190.201	5.52
190.674	4.32
191.147	5.02
191.619	-9.18
192.092	0.82
192.565	7.22
193.038	1.32
193.511	2.92
193.984	-0.08
194.456	-2.38
194.929	0.52
195.402	-4.78
195.874	-3.28
196.347	-2.28
196.82	-4.48
197.292	0.02
197.765	-2.08
198.237	-8.18
198.71	-1.78
199.182	-1.78
199.655	-3.48
200.127	4.72
200.6	-8.08
201.072	-3.08
201.544	-5.98
202.017	-6.88
202.489	4.52
202.961	2.02
203.433	-8.88
203.906	-3.98
204.378	-3.48
204.85	-8.08
205.322	-9.38
205.794	-2.58
206.266	-1.98
206.739	-7.68
207.211	-1.58
207.683	-3.78
208.155	-8.08
208.627	-10.48
209.099	-3.68
209.57	-11.38
210.042	-8.88
210.514	-4.28
210.986	-1.08
211.458	-7.58
211.93	-3.08
212.402	0.92
212.873	-6.28
213.345	-11.98
213.817	-11.68
214.288	-3.38
214.76	-10.58
215.232	3.32
215.703	-3.08
216.175	2.02
216.646	-5.38
217.118	-8.58
217.589	-3.98
218.061	-2.38
218.532	-0.58
219.004	-10.88
219.475	-6.28
219.946	-5.18
220.418	-0.78
220.889	3.22
221.36	2.12
221.832	-4.78
222.303	-7.88
222.774	-5.88
223.245	-12.28
223.717	-13.38
224.188	-11.08
224.659	-3.68
225.13	-4.58
225.601	0.72
226.072	0.02
226.543	-4.18
227.014	2.02
227.485	-3.68
227.956	2.02
228.427	-7.98
228.898	0.72
229.369	2.42
229.839	-5.18
230.31	-8.58
230.781	5.22
231.252	-3.98
231.722	-2.58
232.193	-1.48
232.664	-2.18
233.135	-3.18
233.605	1.52
234.076	-4.98
234.546	-4.38
235.017	1.92
235.487	-1.58
235.958	-4.38
236.428	-0.48
236.899	9.02
237.369	7.62
237.84	-0.98
238.31	3.12
238.78	1.92
239.251	5.02
239.721	9.72
240.191	2.52
240.662	-5.38
241.132	2.72
241.602	-0.78
242.072	2.42
242.542	9.72
243.013	-2.68
243.483	5.62
243.953	1.22
244.423	0.42
244.893	-0.98
245.363	3.42
245.833	5.42
246.303	-0.78
246.773	5.82
247.243	4.72
247.712	3.42
248.182	3.12
248.652	8.82
249.122	2.42
249.592	19.82
250.061	26.72
250.531	40.62
251.001	21.82
251.471	27.02
251.94	23.72
252.41	5.42
252.879	0.92
253.349	10.82
253.818	9.92
254.288	7.52
254.757	2.22
255.227	3.52
255.696	1.52
256.166	5.42
256.635	2.42
257.105	10.62
257.574	4.22
258.043	9.42
258.513	10.22
258.982	16.52
259.451	13.22
259.92	13.92
260.389	14.12
260.859	18.62
261.328	9.12
261.797	16.42
262.266	14.22
262.735	16.92
263.204	5.32
263.673	0.62
264.142	5.02
264.611	3.02
265.08	2.32
265.549	5.22
266.018	5.72
266.487	2.82
266.955	1.12
267.424	0.82
267.893	6.72
268.362	3.12
268.83	4.92
269.299	14.72
269.768	10.52
270.236	3.92
270.705	6.32
271.174	10.42
271.642	10.32
272.111	7.32
272.579	19.62
273.048	29.52
273.516	33.52
273.985	25.32
274.453	24.92
274.922	18.32
275.39	11.62
275.858	7.42
276.327	14.02
276.795	19.92
277.263	14.82
277.731	36.82
278.2	64.02
278.668	63.82
279.136	52.62
279.604	18.22
280.072	15.32
280.54	13.12
281.008	13.82
281.477	17.92
281.945	13.22
282.413	15.32
282.881	11.82
283.348	4.12
283.816	22.22
284.284	18.02
284.752	19.02
285.22	21.32
285.688	19.12
286.156	24.92
286.623	49.12
287.091	54.92
287.559	32.82
288.026	23.52
288.494	16.22
288.962	7.02
289.429	9.32
289.897	20.12
290.364	14.82
290.832	21.32
291.3	20.42
291.767	26.82
292.234	22.22
292.702	15.02
293.169	21.02
293.637	23.02
294.104	20.42
294.571	10.72
295.039	15.12
295.506	15.12
295.973	18.82
296.44	12.22
296.908	20.62
297.375	19.52
297.842	19.52
298.309	20.82
298.776	9.62
299.243	25.22
299.71	13.82
300.177	28.72
300.644	24.62
301.111	24.62
301.578	20.62
302.045	14.22
302.512	23.02
302.979	26.52
303.446	24.42
303.913	18.72
304.379	20.82
304.846	32.82
305.313	22.22
305.78	22.92
306.246	32.22
306.713	25.02
307.18	25.82
307.646	30.32
308.113	28.62
308.579	26.12
309.046	26.72
309.512	30.12
309.979	28.92
310.445	32.12
310.912	32.22
311.378	30.72
311.845	31.82
312.311	30.32
312.777	41.52
313.244	39.32
313.71	42.62
314.176	35.02
314.642	31.32
315.109	34.82
315.575	39.62
316.041	45.52
316.507	31.92
316.973	38.22
317.439	30.42
317.905	42.02
318.371	38.82
318.837	42.12
319.303	37.52
319.769	39.32
320.235	35.82
320.701	36.32
321.167	36.42
321.633	34.92
322.099	48.92
322.564	45.02
323.03	38.22
323.496	35.32
323.962	39.62
324.427	40.92
324.893	50.12
325.359	41.42
325.824	37.32
326.29	38.92
326.755	36.22
327.221	44.32
327.686	39.72
328.152	49.82
328.617	45.12
329.083	48.72
329.548	55.42
330.014	49.02
330.479	44.72
330.944	46.62
331.41	50.72
331.875	48.92
332.34	49.52
332.805	46.22
333.271	49.62
333.736	48.22
334.201	50.72
334.666	57.22
335.131	54.42
335.596	48.12
336.061	49.72
336.526	48.02
336.991	47.52
337.456	57.52
337.921	54.52
338.386	49.12
338.851	52.72
339.316	53.72
339.781	47.32
340.246	53.02
340.711	45.62
341.175	57.12
341.64	54.02
342.105	55.52
342.569	56.12
343.034	64.92
343.499	52.92
343.963	56.92
344.428	58.22
344.893	63.32
345.357	71.32
345.822	66.52
346.286	67.92
346.751	72.12
347.215	71.92
347.679	80.92
348.144	101.22
348.608	89.62
349.073	71.22
349.537	79.32
350.001	78.42
350.465	94.72
350.93	85.02
351.394	79.92
351.858	77.12
352.322	91.02
352.786	81.72
353.25	103.42
353.715	118.62
354.179	96.62
354.643	123.42
355.107	130.22
355.571	107.92
356.035	104.22
356.498	124.42
356.962	125.02
357.426	136.82
357.89	123.32
358.354	93.32
358.818	87.02
359.281	82.22
359.745	79.62
360.209	83.62
360.673	81.02
361.136	83.72
361.6	84.32
362.064	85.82
362.527	84.82
362.991	92.22
363.454	85.12
363.918	81.62
364.381	77.72
364.845	81.02
365.308	88.42
365.772	87.92
366.235	84.62
366.698	86.82
367.162	87.02
367.625	90.12
368.088	90.62
368.552	85.52
369.015	84.32
369.478	100.22
369.941	101.62
370.404	99.22
370.867	107.92
371.331	106.72
371.794	117.22
372.257	110.82
372.72	122.52
373.183	115.12
373.646	101.82
374.109	103.22
374.572	115.22
375.035	111.62
375.497	114.02
375.96	108.82
376.423	107.42
376.886	115.82
377.349	115.62
377.811	95.52
378.274	105.92
378.737	103.42
379.199	115.72
379.662	114.72
380.125	120.42
380.587	117.12
381.05	118.22
381.512	133.02
381.975	137.52
382.437	133.72
382.9	125.22
383.362	130.32
383.825	134.32
384.287	148.22
384.75	147.22
385.212	142.22
385.674	139.12
386.136	135.12
386.599	123.32
387.061	125.72
387.523	135.92
387.985	136.12
388.447	139.72
388.91	142.82
389.372	159.32
389.834	158.12
390.296	138.62
390.758	154.02
391.22	169.32
391.682	208.02
392.144	296.72
392.606	234.32
393.068	169.72
393.529	171.12
393.991	154.62
394.453	146.42
394.915	159.82
395.377	192.72
395.838	213.32
396.3	152.82
396.762	146.52
397.224	134.82
397.685	128.82
398.147	126.22
398.608	127.92
399.07	124.92
399.531	129.52
399.993	143.42
400.454	156.32
400.916	149.12
401.377	147.02
401.839	155.72
402.3	155.62
402.762	164.12
403.223	175.82
403.684	166.02
404.145	159.62
404.607	158.22
405.068	162.62
405.529	176.92
405.99	191.02
406.451	175.62
406.913	170.82
407.374	158.62
407.835	159.62
408.296	165.22
408.757	175.12
409.218	185.82
409.679	172.42
410.14	174.72
410.601	180.72
411.062	183.72
411.522	188.72
411.983	188.12
412.444	170.72
412.905	172.32
413.366	187.52
413.826	189.52
414.287	214.12
414.748	255.02
415.208	244.62
415.669	215.72
416.13	209.82
416.59	203.22
417.051	205.52
417.511	221.92
417.972	233.12
418.432	244.32
418.893	283.82
419.353	255.62
419.814	204.52
420.274	182.92
420.734	180.12
421.195	206.42
421.655	194.32
422.115	187.22
422.576	194.82
423.036	196.12
423.496	213.12
423.956	218.22
424.416	228.02
424.876	265.62
425.336	262.52
425.797	259.42
426.257	255.62
426.717	235.22
427.177	232.92
427.637	221.42
428.097	236.32
428.556	240.62
429.016	269.22
429.476	261.12
429.936	272.02
430.396	278.12
430.856	288.42
431.315	313.02
431.775	357.12
432.235	386.42
432.694	345.02
433.154	372.12
433.614	393.52
434.073	338.72
434.533	283.32
434.993	265.92
435.452	278.12
435.912	292.52
436.371	287.82
436.83	285.72
437.29	269.62
437.749	240.62
438.209	250.32
438.668	272.82
439.127	286.52
439.587	266.82
440.046	250.32
440.505	264.62
440.964	278.62
441.424	322.22
441.883	306.82
442.342	259.32
442.801	215.72
443.26	222.92
443.719	216.92
444.178	214.42
444.637	206.72
445.096	215.22
445.555	223.12
446.014	216.22
446.473	225.32
446.932	229.32
447.391	218.52
447.849	231.82
448.308	215.02
448.767	215.02
449.226	237.32
449.685	239.42
450.143	239.22
450.602	236.22
451.061	222.72
451.519	233.52
451.978	229.42
452.436	236.72
452.895	239.02
453.353	247.22
453.812	238.42
454.27	236.22
454.729	233.32
455.187	238.12
455.646	244.72
456.104	246.62
456.562	254.02
457.021	261.92
457.479	265.22
457.937	266.42
458.395	266.82
458.854	248.42
459.312	252.42
459.77	280.72
460.228	255.32
460.686	243.72
461.144	243.02
461.602	238.82
462.06	236.62
462.518	249.52
462.976	254.52
463.434	251.52
463.892	260.62
464.35	277.92
464.808	291.42
465.266	268.82
465.724	261.72
466.181	275.72
466.639	270.62
467.097	286.82
467.555	295.72
468.012	304.32
468.47	306.62
468.928	323.02
469.385	337.12
469.843	350.22
470.3	343.62
470.758	359.32
471.215	384.92
471.673	404.62
472.13	402.92
472.588	407.52
473.045	367.72
473.503	370.12
473.96	400.72
474.417	400.32
474.875	429.82
475.332	466.32
475.789	456.32
476.246	469.42
476.704	485.02
477.161	502.32
477.618	517.42
478.075	555.82
478.532	607.72
478.989	691.82
479.446	805.02
479.903	769.72
480.36	802.32
480.817	859.02
481.274	961.12
481.731	1065.52
482.188	1169.22
482.645	1301.02
483.102	1411.72
483.558	1536.52
484.015	1590.12
484.472	1567.82
484.929	1521.12
485.385	1463.02
485.842	1443.22
486.299	1363.72
486.755	1297.82
487.212	1077.82
487.668	921.12
488.125	852.12
488.582	769.92
489.038	744.52
489.494	711.32
489.951	694.92
490.407	660.92
490.864	647.62
491.32	649.82
491.776	631.72
492.233	638.42
492.689	603.72
493.145	595.42
493.602	596.92
494.058	613.62
494.514	619.92
494.97	636.62
495.426	650.92
495.882	614.52
496.338	608.62
496.794	619.12
497.251	612.72
497.707	629.72
498.163	635.62
498.618	644.82
499.074	637.62
499.53	671.92
499.986	666.32
500.442	637.72
500.898	617.02
501.354	617.52
501.809	627.12
502.265	632.62
502.721	652.82
503.177	670.12
503.632	658.12
504.088	667.12
504.543	703.62
504.999	697.62
505.455	647.32
505.91	626.62
506.366	628.32
506.821	622.82
507.277	623.72
507.732	624.62
508.187	622.42
508.643	629.42
509.098	615.92
509.553	651.62
510.009	643.42
510.464	661.42
510.919	681.02
511.375	689.12
511.83	701.72
512.285	727.12
512.74	748.42
513.195	775.82
513.65	762.12
514.105	767.02
514.56	771.62
515.015	794.12
515.47	800.92
515.925	780.32
516.38	773.02
516.835	787.02
517.29	779.52
517.745	772.32
518.2	752.32
518.655	749.22
519.109	733.32
519.564	741.32
520.019	728.72
520.474	707.52
520.928	722.22
521.383	708.42
521.838	701.62
522.292	710.42
522.747	702.12
523.201	688.42
523.656	681.92
524.11	679.92
524.565	685.52
525.019	686.52
525.474	698.92
525.928	695.82
526.382	685.22
526.837	689.62
527.291	684.22
527.745	692.62
528.2	686.72
528.654	675.82
529.108	674.32
529.562	677.22
530.016	680.62
530.47	683.42
530.925	682.22
531.379	685.42
531.833	690.82
532.287	684.92
532.741	695.02
533.195	700.72
533.649	702.32
534.103	707.52
534.556	702.92
535.01	696.92
535.464	692.12
535.918	702.32
536.372	698.92
536.826	704.52
537.279	699.32
537.733	704.82
538.187	692.92
538.64	700.02
539.094	718.22
539.548	722.62
540.001	711.52
540.455	708.42
540.908	718.72
541.362	726.32
541.815	731.62
542.269	752.82
542.722	735.22
543.175	755.72
543.629	753.22
544.082	770.02
544.536	770.32
544.989	772.32
545.442	783.32
545.895	772.12
546.349	777.12
546.802	778.02
547.255	784.82
547.708	783.52
548.161	797.02
548.614	797.92
549.067	821.72
549.52	801.32
549.973	793.72
550.426	793.32
550.879	771.32
551.332	786.12
551.785	805.52
552.238	784.52
552.691	795.52
553.144	808.82
553.596	836.42
554.049	839.72
554.502	863.92
554.955	889.32
555.407	891.92
555.86	872.32
556.313	877.42
556.765	861.52
557.218	860.02
557.67	864.92
558.123	856.42
558.576	858.62
559.028	852.92
559.48	871.82
559.933	854.82
560.385	808.32
560.838	786.72
561.29	768.12
561.742	757.02
562.195	735.12
562.647	751.22
563.099	755.92
563.551	747.92
564.004	765.62
564.456	753.32
564.908	743.02
565.36	719.82
565.812	713.62
566.264	710.72
566.716	715.12
567.168	690.52
567.62	696.72
568.072	674.82
568.524	671.62
568.976	660.42
569.428	656.82
569.88	657.72
570.332	652.22
570.784	662.12
571.235	670.42
571.687	671.02
572.139	686.92
572.59	693.62
573.042	690.62
573.494	683.42
573.945	688.62
574.397	664.32
574.849	665.82
575.3	665.92
575.752	664.92
576.203	659.72
576.655	662.22
577.106	657.42
577.557	641.62
578.009	650.82
578.46	642.92
578.912	636.62
579.363	641.22
579.814	644.22
580.265	638.42
580.717	638.42
581.168	652.82
581.619	652.42
582.07	651.72
582.521	641.22
582.972	651.62
583.423	655.32
583.875	662.82
584.326	677.02
584.777	722.72
585.227	793.22
585.678	884.42
586.129	972.92
586.58	1047.22
587.031	1116.32
587.482	1291.02
587.933	1454.02
588.384	1262.02
588.834	946.42
589.285	769.92
589.736	743.12
590.186	746.42
590.637	735.12
591.088	705.32
591.538	710.72
591.989	700.42
592.439	692.32
592.89	688.22
593.34	681.62
593.791	685.72
594.241	676.22
594.692	673.22
595.142	675.02
595.593	671.62
596.043	672.52
596.493	681.72
596.943	680.02
597.394	682.72
597.844	671.92
598.294	695.72
598.744	723.72
599.195	734.22
599.645	782.82
600.095	811.12
600.545	871.82
600.995	924.02
601.445	981.82
601.895	1028.83
602.345	1083.82
602.795	1064.92
603.245	1022.62
603.695	952.72
604.145	912.42
604.594	871.42
605.044	822.82
605.494	769.02
605.944	719.62
606.393	716.52
606.843	690.02
607.293	701.32
607.743	710.62
608.192	707.12
608.642	726.82
609.091	729.52
609.541	731.62
609.99	725.92
610.44	727.82
610.889	685.42
611.339	668.62
611.788	652.42
612.238	668.72
612.687	674.32
613.136	685.02
613.586	703.02
614.035	698.72
614.484	709.52
614.933	707.32
615.383	707.62
615.832	699.22
616.281	691.12
616.73	651.02
617.179	634.52
617.628	622.62
618.077	603.02
618.526	588.02
618.975	590.22
619.424	581.12
619.873	580.42
620.322	583.52
620.771	568.02
621.22	574.32
621.669	558.62
622.118	555.92
622.567	544.82
623.015	538.12
623.464	538.62
623.913	534.92
624.361	521.22
624.81	517.72
625.259	520.92
625.707	531.52
626.156	525.42
626.604	532.62
627.053	525.42
627.501	531.92
627.95	533.82
628.398	548.72
628.847	529.32
629.295	533.62
629.744	540.12
630.192	531.32
630.64	530.22
631.089	532.82
631.537	542.02
631.985	545.52
632.433	552.52
632.881	567.72
633.33	622.92
633.778	602.12
634.226	530.12
634.674	539.82
635.122	543.52
635.57	560.12
636.018	596.62
636.466	546.92
636.914	521.82
637.362	529.02
637.81	542.52
638.258	540.72
638.705	536.22
639.153	562.12
639.601	577.82
640.049	598.12
640.497	627.62
640.944	645.32
641.392	601.12
641.84	576.52
642.287	548.12
642.735	526.72
643.182	541.92
643.63	539.22
644.078	536.22
644.525	553.02
644.973	556.62
645.42	567.12
645.867	580.82
646.315	592.92
646.762	615.92
647.21	652.72
647.657	669.62
648.104	697.12
648.551	728.72
648.999	776.72
649.446	862.12
649.893	939.52
650.34	1072.42
650.787	1290.42
651.234	1597.12
651.682	2085.02
652.129	2834.32
652.576	4083.32
653.023	6061.22
653.47	8317.02
653.917	10459.12
654.363	12217.43
654.81	13637.43
655.257	12971.23
655.704	8478.12
656.151	4983.92
656.598	3218.92
657.044	2282.22
657.491	1759.42
657.938	1391.42
658.385	1163.22
658.831	1003.52
659.278	906.42
659.724	797.12
660.171	738.92
660.618	668.62
661.064	644.02
661.511	625.12
661.957	603.22
662.404	594.22
662.85	596.82
663.296	578.32
663.743	519.42
664.189	501.62
664.635	498.12
665.082	485.62
665.528	492.82
665.974	480.32
666.42	471.12
666.867	465.62
667.313	457.02
667.759	434.42
668.205	436.32
668.651	449.72
669.097	449.12
669.543	463.12
669.989	436.42
670.435	416.82
670.881	420.02
671.327	416.52
671.773	441.72
672.219	452.72
672.665	502.62
673.11	540.12
673.556	575.72
674.002	610.92
674.448	606.22
674.893	504.72
675.339	440.32
675.785	407.72
676.23	385.02
676.676	361.22
677.122	357.32
677.567	341.02
678.013	344.12
678.458	332.12
678.904	333.12
679.349	319.92
679.794	326.62
680.24	323.32
680.685	317.82
681.131	319.42
681.576	318.12
682.021	330.52
682.466	318.52
682.912	317.42
683.357	325.32
683.802	345.32
684.247	379.92
684.692	413.22
685.137	455.72
685.583	494.22
686.028	522.62
686.473	477.62
686.918	407.32
687.363	380.42
687.807	362.82
688.252	327.92
688.697	322.62
689.142	308.32
689.587	310.72
690.032	299.32
690.477	308.42
690.921	318.32
691.366	355.62
691.811	356.42
692.255	394.82
692.7	420.12
693.145	460.92
693.589	618.22
694.034	1011.62
694.478	1406.12
694.923	1597.62
695.367	2101.42
695.812	1098.52
696.256	455.62
696.701	342.12
697.145	310.62
697.59	302.42
698.034	300.92
698.478	306.42
698.922	306.22
699.367	300.72
699.811	311.12
700.255	323.42
700.699	348.82
701.143	383.62
701.588	433.82
702.032	473.52
702.476	471.62
702.92	449.72
703.364	453.22
703.808	574.22
704.252	935.42
704.696	1308.62
705.14	1543.22
705.584	1984.42
706.027	974.42
706.471	477.12
706.915	355.12
707.359	321.92
707.803	294.62
708.246	282.92
708.69	288.12
709.134	289.92
709.577	282.52
710.021	293.92
710.465	279.42
710.908	275.32
711.352	268.92
711.795	279.42
712.239	320.12
712.682	349.52
713.126	383.52
713.569	430.62
714.012	340.02
714.456	290.62
714.899	275.32
715.342	247.92
715.786	240.22
716.229	231.52
716.672	240.82
717.115	228.92
717.558	222.72
718.002	231.02
718.445	237.02
718.888	254.22
719.331	266.12
719.774	283.42
720.217	278.32
720.66	253.42
721.103	240.62
721.546	222.02
721.989	225.92
722.432	219.62
722.874	207.22
723.317	208.22
723.76	214.12
724.203	238.32
724.645	288.92
725.088	407.32
725.531	512.72
725.974	594.52
726.416	505.42
726.859	281.92
727.301	224.52
727.744	217.72
728.187	207.42
728.629	215.22
729.071	217.32
729.514	233.12
729.956	246.32
730.399	256.62
730.841	268.32
731.283	247.82
731.726	245.82
732.168	238.42
732.61	242.82
733.053	259.32
733.495	277.72
733.937	318.02
734.379	356.62
734.821	388.62
735.263	482.92
735.705	743.42
736.148	1401.92
736.59	2329.52
737.032	2818.42
737.474	2305.22
737.916	738.42
738.357	388.52
738.799	300.32
739.241	266.12
739.683	250.42
740.125	263.42
740.567	266.02
741.008	289.12
741.45	290.22
741.892	293.12
742.334	316.72
742.775	328.02
743.217	318.42
743.658	248.62
744.1	233.52
744.542	234.32
744.983	282.42
745.425	317.02
745.866	310.72
746.307	258.62
746.749	248.42
747.19	292.52
747.632	411.32
748.073	764.62
748.514	1650.52
748.956	2605.12
749.397	3232.22
749.838	2700.52
750.279	2744.02
750.72	1387.12
751.162	508.12
751.603	288.92
752.044	230.12
752.485	194.82
752.926	191.12
753.367	182.42
753.808	180.42
754.249	184.62
754.69	168.92
755.131	168.12
755.572	162.92
756.013	161.92
756.453	169.02
756.894	173.72
757.335	170.52
757.776	171.62
758.216	177.42
758.657	175.72
759.098	181.12
759.538	208.02
759.979	242.02
760.42	333.82
760.86	623.42
761.301	1592.32
761.741	3915.43
762.182	5977.73
762.622	4187.93
763.063	1200.12
763.503	484.92
763.943	310.62
764.384	306.92
764.824	372.22
765.264	410.72
765.705	276.72
766.145	188.82
766.585	173.22
767.025	159.62
767.465	167.32
767.906	212.42
768.346	297.32
768.786	316.02
769.226	237.12
769.666	286.42
770.106	534.22
770.546	1363.02
770.986	2418.72
771.426	2200.32
771.866	720.52
772.306	297.82
772.745	182.72
773.185	153.52
773.625	156.32
774.065	150.02
774.505	177.42
774.944	270.62
775.384	596.52
775.824	1127.62
776.263	1113.12
776.703	470.32
777.142	202.92
777.582	145.52
778.021	119.12
778.461	123.52
778.9	127.52
779.34	119.62
779.779	105.62
780.219	99.02
780.658	102.32
781.097	93.52
781.537	105.22
781.976	102.32
782.415	98.22
782.855	93.02
783.294	93.52
783.733	91.72
784.172	95.42
784.611	95.52
785.05	100.72
785.489	100.82
785.928	108.02
786.367	104.22
786.806	100.42
787.245	114.92
787.684	123.42
788.123	135.02
788.562	114.32
789.001	113.82
789.44	108.12
789.879	103.62
790.317	105.92
790.756	117.12
791.195	114.92
791.634	138.52
792.072	186.02
792.511	316.42
792.95	892.52
793.388	1949.32
793.827	1795.82
794.265	626.82
794.704	249.22
795.142	169.12
795.581	140.92
796.019	124.72
796.458	119.32
796.896	113.92
797.334	114.72
797.773	137.42
798.211	193.22
798.649	381.72
799.087	913.42
799.526	1439.02
799.964	1801.52
800.402	1866.32
800.84	692.52
801.278	274.42
801.716	164.52
802.154	138.12
802.592	129.92
803.03	118.92
803.468	124.42
803.906	133.12
804.344	134.82
804.782	128.42
805.22	118.62
805.658	117.72
806.096	130.62
806.533	138.52
806.971	155.82
807.409	201.92
807.847	278.22
808.284	582.02
808.722	1653.02
809.16	2998.42
809.597	2790.82
810.035	4909.12
810.472	5407.62
810.91	1932.42
811.347	725.82
811.785	369.62
812.222	230.82
812.66	168.12
813.097	150.72
813.535	133.22
813.972	112.32
814.409	108.92
814.846	97.72
815.284	99.12
815.721	91.12
816.158	96.12
816.595	110.32
817.032	161.32
817.47	187.92
817.907	152.32
818.344	137.72
818.781	107.12
819.218	90.82
819.655	110.42
820.092	170.12
820.529	197.52
820.966	165.62
821.403	121.52
821.839	101.62
822.276	93.22
822.713	106.42
823.15	117.62
823.587	103.32
824.023	128.12
824.46	260.92
824.897	791.22
825.333	1261.52
825.77	539.32
826.206	212.02
826.643	121.42
827.08	91.52
827.516	75.72
827.953	65.52
828.389	73.02
828.825	54.52
829.262	60.32
829.698	51.92
830.135	60.02
830.571	58.62
831.007	49.62
831.443	58.72
831.88	52.92
832.316	54.22
832.752	61.02
833.188	59.02
833.624	61.52
834.06	59.22
834.497	60.82
834.933	65.62
835.369	71.12
835.805	58.42
836.241	69.62
836.677	68.62
837.112	77.22
837.548	97.12
837.984	123.22
838.42	171.12
838.856	435.62
839.292	1355.02
839.727	2142.52
840.163	982.12
840.599	814.52
841.034	1828.52
841.47	1969.02
841.906	714.12
842.341	304.82
842.777	208.52
843.212	277.02
843.648	289.82
844.083	139.32
844.519	89.02
844.954	68.22
845.39	56.32
845.825	55.32
846.261	53.82
846.696	54.62
847.131	52.42
847.566	55.32
848.002	44.82
848.437	48.92
848.872	53.82
849.307	50.82
849.742	75.92
850.177	159.72
850.613	491.92
851.048	812.82
851.483	350.12
851.918	137.62
852.353	75.02
852.788	53.52
853.223	52.22
853.657	46.02
854.092	36.72
854.527	37.52
854.962	34.42
855.397	45.22
855.832	44.82
856.266	40.12
856.701	35.62
857.136	34.82
857.57	33.62
858.005	44.62
858.44	48.72
858.874	38.02
859.309	49.82
859.743	38.02
860.178	44.42
860.612	38.42
861.047	50.22
861.481	61.52
861.915	66.62
862.35	50.02
862.784	29.82
863.218	33.92
863.653	31.22
864.087	44.52
864.521	46.92
864.955	57.62
865.39	140.82
865.824	158.72
866.258	103.12
866.692	151.42
867.126	159.12
867.56	96.02
867.994	47.12
868.428	32.42
868.862	39.22
869.296	52.72
869.73	50.22
870.164	44.82
870.598	41.32
871.031	37.42
871.465	26.92
871.899	22.82
872.333	19.52
872.766	20.62
873.2	19.42
873.634	33.42
874.067	19.42
874.501	25.62
874.935	29.82
875.368	27.32
875.802	25.32
876.235	19.22
876.669	26.52
877.102	21.32
877.535	26.62
877.969	19.52
878.402	20.62
878.836	17.92
879.269	20.22
879.702	21.62
880.135	21.02
880.569	21.12
881.002	24.52
881.435	21.02
881.868	16.12
882.301	17.12
882.734	12.22
883.167	19.42
883.601	19.72
884.034	20.52
884.467	10.72
884.899	15.72
885.332	12.02
885.765	15.32
886.198	9.92
886.631	18.72
887.064	16.42
887.497	14.02
887.929	20.02
888.362	13.02
888.795	18.12
889.228	20.92
889.66	16.92
890.093	14.02
890.526	15.42
890.958	19.62
891.391	15.92
891.823	22.52
892.256	15.22
892.688	9.92
893.121	12.32
893.553	18.82
893.985	24.22
894.418	18.72
894.85	8.72
895.282	8.52
895.715	15.72
896.147	14.02
896.579	13.52
897.011	11.62
897.444	16.62
897.876	17.22
898.308	19.22
898.74	14.32
899.172	13.82
899.604	18.72
900.036	18.62
900.468	11.02
900.9	14.02
901.332	17.82
901.764	15.42
902.196	20.22
902.628	18.22
903.06	14.62
903.491	34.72
903.923	17.12
904.355	16.32
904.787	25.02
905.218	19.42
905.65	17.32
906.082	9.72
906.513	11.02
906.945	17.22
907.376	10.02
907.808	17.72
908.239	23.62
908.671	19.72
909.102	20.82
909.534	22.02
909.965	41.42
910.397	83.42
910.828	279.12
911.259	440.12
911.691	200.02
912.122	101.32
912.553	50.12
912.984	28.52
913.415	24.72
913.847	26.72
914.278	10.02
914.709	14.42
915.14	14.42
915.571	16.72
916.002	8.22
916.433	19.42
916.864	12.02
917.295	11.82
917.726	20.72
918.157	19.32
918.587	25.92
919.018	25.32
919.449	16.12
919.88	24.12
920.311	31.32
920.741	46.42
921.172	148.92
921.603	132.02
922.033	64.82
922.464	41.52
922.895	21.82
923.325	19.82
923.756	16.72
924.186	8.22
924.617	31.22
925.047	36.92
925.478	49.32
925.908	42.22
926.338	26.62
926.769	16.42
927.199	22.52
927.629	8.32
928.06	17.32
928.49	11.42
928.92	11.12
929.35	10.72
929.78	12.12
930.21	9.22
930.641	6.22
931.071	9.32
931.501	6.62
931.931	11.62
932.361	8.62
932.791	5.92
933.221	6.52
933.651	4.72
934.08	19.02
934.51	29.12
934.94	12.82
935.37	6.32
935.8	9.72
936.229	4.72
936.659	11.02
937.089	9.92
937.519	13.52
937.948	25.02
938.378	20.32
938.807	2.42
939.237	7.92
939.666	6.72
940.096	-6.48
940.525	1.62
940.955	10.82
941.384	0.42
941.814	-3.28
942.243	3.42
942.672	2.02
943.102	1.12
943.531	2.72
943.96	4.52
944.39	2.42
944.819	-1.68
945.248	2.02
945.677	3.72
946.106	1.72
946.535	2.42
946.964	-2.28
947.393	6.22
947.822	1.62
948.251	-12.08
948.68	1.52
949.109	4.62
949.538	6.02
949.967	-2.78
950.396	3.92
950.825	-2.78
951.254	-0.48
951.682	-3.68
952.111	5.32
952.54	3.62
952.969	-0.78
953.397	-3.68
953.826	-0.88
954.254	-4.18
954.683	1.92
955.112	-4.28
955.54	-0.68
955.969	4.32
956.397	3.82
956.826	-3.88
957.254	1.22
957.682	5.22
958.111	7.32
958.539	2.82
958.967	0.02
959.396	0.62
959.824	0.12
960.252	2.82
960.68	-5.68
961.109	1.02
961.537	-5.58
961.965	1.22
962.393	0.42
962.821	-4.98
963.249	5.62
963.677	0.92
964.105	0.82
964.533	38.42
964.961	43.62
965.389	20.42
965.817	6.92
966.245	0.52
966.672	0.22
967.1	-9.48
967.528	-2.58
967.956	-1.78
968.383	3.72
968.811	-6.28
969.239	-1.28
969.666	-1.78
970.094	7.92
970.522	1.52
970.949	-3.68
971.377	-5.38
971.804	0.42
972.232	-6.58
972.659	1.02
973.087	0.42
973.514	-4.48
973.941	-0.28
974.369	4.22
974.796	0.32
975.223	-3.28
975.651	-2.28
976.078	3.92
976.505	-5.18
976.932	2.22
977.359	10.82
977.786	15.12
978.214	-1.88
978.641	-6.38
979.068	-5.28
979.495	-4.88
979.922	-0.58
980.349	-1.28
980.776	6.92
981.202	-0.48
981.629	2.82
982.056	2.12
982.483	-4.68
982.91	-1.88
983.337	-6.28
983.763	3.72
984.19	-1.38
984.617	-4.68
985.043	-9.18
985.47	-3.18
985.897	-2.08
986.323	-5.28
986.75	3.22
987.176	5.52
987.603	1.62
988.029	0.42
988.456	1.52
988.882	0.22
989.308	-7.98
989.735	-4.18
990.161	3.92
990.587	-1.38
991.014	2.02
991.44	8.72
991.866	-0.78
992.292	-10.68
992.719	-2.28
993.145	0.02
993.571	-9.58
993.997	-0.08
994.423	1.42
994.849	-0.88
995.275	4.72
995.701	2.72
996.127	-0.28
996.553	2.52
996.979	1.02
997.405	-3.68
997.83	-2.78
998.256	-2.58
998.682	-3.88
999.108	-14.98
999.534	-1.58
999.959	-3.58
1000.385	-3.48
1000.811	0.12
1001.236	-2.98
1001.662	-5.98
1002.087	-8.88
1002.513	0.32
1002.938	4.32
1003.364	-4.18
1003.789	-4.48
1004.215	3.72
1004.64	-2.18
1005.066	-0.18
1005.491	-4.88
1005.916	-1.58
1006.342	-3.88
1006.767	0.72
1007.192	7.82
1007.617	-3.28
1008.042	-3.78
1008.468	-5.18
1008.893	-5.98
1009.318	-1.58
1009.743	-5.08
1010.168	-0.78
1010.593	5.42
1011.018	-3.48
1011.443	-3.48
1011.868	-3.28
1012.293	-3.08
1012.718	-0.98
1013.143	6.02
1013.567	0.92
1013.992	-3.78
1014.417	-18.18
1014.842	-4.78
1015.267	-7.28
1015.691	-4.98
1016.116	7.22
1016.541	-0.28
1016.965	0.52
1017.39	-4.68
1017.814	-4.98
1018.239	-2.08
1018.663	-9.28
1019.088	-9.98
1019.512	-2.58
1019.937	-0.18
1020.361	-2.28
1020.785	-11.98
1021.21	1.82
1021.634	-0.38
1022.058	-3.58
1022.483	-0.68
1022.907	-3.08
1023.331	-5.78
1023.755	-8.68
1024.179	-0.28
1024.604	-10.18
1025.028	-6.28
1025.452	-7.58
1025.876	-4.08
1026.3	0.02
1026.724	-2.78
1027.148	-12.58
1027.572	-7.68
1027.996	-3.68
1028.42	-2.68
1028.843	-11.98
1029.267	-2.98
1029.691	-4.18
1030.115	-2.18
1030.539	-9.58
1030.962	-6.28
1031.386	-7.98
1031.81	3.02
1032.233	-3.68
1032.657	-0.18
1033.08	-4.68
1033.504	-2.58
1033.927	-7.68
1034.351	-0.38
1034.774	-11.18
1035.198	-3.58
1035.621	-10.08
1036.045	-7.48
1036.468	-0.78
1036.891	-6.18
1037.315	-8.08
1037.738	-8.68
1038.161	1.82
1038.584	-11.08
1039.008	-1.98
1039.431	-3.28
1039.854	-1.68
1040.277	-6.68
1040.7	-11.48
1041.123	-5.38
1041.546	-10.78
1041.969	0.62
1042.392	-5.18
1042.815	1.22
1043.238	3.02
1043.661	3.02
1044.084	-6.28
1044.507	-5.08
1044.93	-11.28
1045.352	-7.78
1045.775	-3.88
1046.198	-1.68
1046.621	1.82
1047.043	2.12
1047.466	7.42
1047.889	-5.28
1048.311	-6.48
1048.734	-4.68
1049.156	-0.78
1049.579	-4.98
1050.001	-1.48
1050.424	0.52
1050.846	0.92
1051.269	-2.88
1051.691	-4.38
1052.113	-13.08
1052.536	-6.68
1052.958	-5.88
1053.38	-1.58
1053.802	-9.08
1054.225	1.02
1054.647	-6.78
1055.069	-1.28
1055.491	2.02
1055.913	-11.18
1056.335	-4.78
1056.757	-5.98
1057.179	-5.78
1057.601	-1.88
1058.023	-1.98
1058.445	-4.88
1058.867	-5.78
1059.289	-1.88
1059.711	-5.88
1060.133	-0.78
1060.555	-4.18
1060.976	-10.28
1061.398	-4.68
1061.82	-6.68
1062.241	-4.88
1062.663	-5.28
1063.085	-3.98
1063.506	4.82
1063.928	-0.18
1064.35	-0.48
1064.771	-8.48
1065.193	-0.98
1065.614	-10.68
1066.035	-10.08
1066.457	-3.98
1066.878	4.22
1067.3	-4.28
1067.721	-0.78
1068.142	-2.08
1068.564	-1.68
1068.985	-5.88
1069.406	-3.08
1069.827	-6.48
1070.248	6.92
1070.67	-4.18
1071.091	-5.68
1071.512	0.82
1071.933	-3.98
1072.354	-1.68
1072.775	-5.78
1073.196	-9.98
1073.617	0.92
1074.038	-6.38
1074.459	-6.58
1074.88	-6.98
1075.3	-3.78
1075.721	-10.28
1076.142	2.62
1076.563	-1.38
1076.983	-17.18
1077.404	-8.58
1077.825	-10.68
1078.246	-3.48
1078.666	-12.88
1079.087	-5.28
1079.507	-8.98
1079.928	5.42
1080.348	-0.88
1080.769	-7.38
1081.189	-3.48
1081.61	-4.18
1082.03	-5.78
1082.451	-6.28
1082.871	-2.68
1083.291	-5.58
1083.711	-4.48
1084.132	-6.78
1084.552	-7.48
1084.972	-2.18
1085.392	-4.98
1085.813	-11.98
1086.233	-9.88
1086.653	-2.68
1087.073	-5.48
1087.493	-4.48
1087.913	-6.18
1088.333	-7.48
1088.753	-1.68
1089.173	-1.08
1089.593	-9.58
1090.013	-2.48
1090.433	4.12
1090.852	2.82
1091.272	-2.28
1091.692	2.42
1092.112	-5.88
1092.531	-8.68
1092.951	-9.38
1093.371	-4.78
1093.79	5.92
1094.21	-4.18
1094.63	-7.78
1095.049	-3.78
1095.469	-3.68
1095.888	0.42
1096.308	-3.38
1096.727	0.82
1097.146	-8.48
1097.566	2.62
1097.985	-1.78
1098.405	-6.18
1098.824	-8.08
1099.243	-5.98
1099.662	-5.08
1100.082	-3.78
1100.501	0.42
1100.92	-6.28
1101.339	-1.38
1101.758	-4.98
