Data from 20171114-ORNL-Ar_H_NY_Subt18_08-07-31-708.txt Node
Date: Tue Nov 14 08:07:31 EST 2017
User: Ender
Spectrometer: HR+D1039
Trigger mode: 0
Integration Time (sec): 2.730000E-2
Scans to average: 10
Electric dark correction enabled: true
Nonlinearity correction enabled: false
Boxcar width: 0
XAxis mode: Wavelengths
Number of Pixels in Spectrum: 2048
>>>>>Begin Spectral Data<<<<<
187.836	-6.48
188.309	-6.48
188.782	-6.48
189.255	0.12
189.728	1.12
190.201	3.62
190.674	-0.88
191.147	5.42
191.619	-3.68
192.092	-2.18
192.565	7.12
193.038	1.32
193.511	0.12
193.984	0.82
194.456	-2.38
194.929	-1.68
195.402	0.22
195.874	-2.58
196.347	-2.68
196.82	-9.98
197.292	4.22
197.765	2.52
198.237	-7.28
198.71	3.62
199.182	-0.88
199.655	7.22
200.127	4.42
200.6	7.52
201.072	3.32
201.544	-0.98
202.017	2.02
202.489	4.42
202.961	2.12
203.433	-4.38
203.906	-3.98
204.378	-2.88
204.85	0.02
205.322	-9.98
205.794	-0.78
206.266	-8.88
206.739	-4.78
207.211	5.82
207.683	-5.58
208.155	-3.88
208.627	-3.78
209.099	2.12
209.57	-7.68
210.042	-0.48
210.514	-2.48
210.986	-4.78
211.458	-5.48
211.93	-1.98
212.402	7.42
212.873	-6.48
213.345	-12.28
213.817	-10.88
214.288	-4.68
214.76	-12.28
215.232	-6.78
215.703	-3.58
216.175	-0.98
216.646	-1.68
217.118	-8.78
217.589	-4.68
218.061	-2.78
218.532	-2.98
219.004	0.32
219.475	-5.48
219.946	-0.58
220.418	-5.48
220.889	3.42
221.36	4.12
221.832	-0.28
222.303	-13.68
222.774	-0.08
223.245	-5.58
223.717	-6.18
224.188	-1.68
224.659	-4.68
225.13	-6.48
225.601	-0.88
226.072	2.72
226.543	1.62
227.014	1.82
227.485	1.12
227.956	-3.78
228.427	-0.48
228.898	1.22
229.369	7.22
229.839	-1.38
230.31	-9.08
230.781	-1.08
231.252	3.22
231.722	-5.48
232.193	2.92
232.664	0.62
233.135	0.92
233.605	0.82
234.076	-2.18
234.546	3.52
235.017	-0.18
235.487	2.42
235.958	4.22
236.428	4.02
236.899	5.12
237.369	8.22
237.84	-5.08
238.31	7.62
238.78	6.52
239.251	-4.48
239.721	2.72
240.191	0.62
240.662	1.12
241.132	-0.88
241.602	-5.98
242.072	-0.08
242.542	0.82
243.013	-1.88
243.483	1.02
243.953	7.42
244.423	-0.18
244.893	-3.28
245.363	5.12
245.833	0.92
246.303	0.82
246.773	7.72
247.243	11.42
247.712	6.32
248.182	11.62
248.652	3.22
249.122	-2.58
249.592	6.32
250.061	19.52
250.531	25.02
251.001	10.72
251.471	15.82
251.94	19.82
252.41	6.42
252.879	-1.78
253.349	14.92
253.818	10.42
254.288	5.32
254.757	5.82
255.227	2.22
255.696	3.72
256.166	-0.38
256.635	11.52
257.105	5.12
257.574	1.92
258.043	2.32
258.513	5.92
258.982	10.92
259.451	6.92
259.92	13.02
260.389	8.12
260.859	14.62
261.328	6.42
261.797	16.22
262.266	8.52
262.735	10.72
263.204	7.72
263.673	0.22
264.142	6.42
264.611	-7.38
265.08	-0.88
265.549	-4.98
266.018	5.82
266.487	-5.38
266.955	-7.68
267.424	-0.88
267.893	-0.48
268.362	-1.78
268.83	2.82
269.299	8.02
269.768	9.32
270.236	0.72
270.705	-2.38
271.174	6.02
271.642	9.62
272.111	9.42
272.579	7.32
273.048	13.82
273.516	19.22
273.985	21.12
274.453	24.32
274.922	14.82
275.39	12.62
275.858	0.52
276.327	12.02
276.795	17.32
277.263	11.62
277.731	25.02
278.2	41.82
278.668	55.72
279.136	47.12
279.604	17.82
280.072	11.02
280.54	6.92
281.008	10.42
281.477	12.02
281.945	16.62
282.413	10.72
282.881	16.42
283.348	5.02
283.816	12.72
284.284	14.52
284.752	18.12
285.22	13.02
285.688	17.12
286.156	18.62
286.623	33.02
287.091	43.12
287.559	20.22
288.026	11.92
288.494	12.02
288.962	-0.58
289.429	6.22
289.897	13.92
290.364	8.12
290.832	15.22
291.3	15.12
291.767	19.82
292.234	17.92
292.702	6.62
293.169	8.22
293.637	19.62
294.104	13.42
294.571	9.02
295.039	3.62
295.506	11.52
295.973	9.52
296.44	11.12
296.908	14.62
297.375	9.72
297.842	17.72
298.309	17.62
298.776	9.22
299.243	14.82
299.71	7.72
300.177	12.82
300.644	16.42
301.111	17.82
301.578	19.72
302.045	12.02
302.512	19.42
302.979	20.82
303.446	16.12
303.913	10.72
304.379	10.52
304.846	24.72
305.313	18.02
305.78	15.22
306.246	25.82
306.713	16.82
307.18	17.72
307.646	21.62
308.113	25.62
308.579	17.02
309.046	24.02
309.512	17.72
309.979	10.72
310.445	22.02
310.912	26.12
311.378	28.32
311.845	24.62
312.311	21.42
312.777	20.92
313.244	26.32
313.71	33.42
314.176	29.32
314.642	24.02
315.109	27.52
315.575	26.62
316.041	29.22
316.507	30.02
316.973	31.32
317.439	28.32
317.905	29.72
318.371	30.02
318.837	32.52
319.303	31.22
319.769	27.62
320.235	25.52
320.701	26.02
321.167	24.92
321.633	29.22
322.099	35.02
322.564	42.92
323.03	30.42
323.496	30.72
323.962	30.72
324.427	34.82
324.893	34.52
325.359	35.72
325.824	34.52
326.29	27.52
326.755	34.82
327.221	29.02
327.686	33.82
328.152	39.72
328.617	35.42
329.083	40.42
329.548	44.42
330.014	38.02
330.479	36.62
330.944	35.32
331.41	35.42
331.875	37.52
332.34	38.22
332.805	41.32
333.271	39.72
333.736	34.52
334.201	46.22
334.666	41.02
335.131	45.92
335.596	42.62
336.061	42.22
336.526	30.02
336.991	40.52
337.456	54.22
337.921	36.52
338.386	38.52
338.851	35.22
339.316	39.22
339.781	41.12
340.246	45.82
340.711	44.62
341.175	43.62
341.64	36.42
342.105	41.72
342.569	42.02
343.034	49.62
343.499	48.62
343.963	43.82
344.428	50.12
344.893	53.72
345.357	56.02
345.822	47.02
346.286	57.42
346.751	63.32
347.215	59.52
347.679	59.02
348.144	77.32
348.608	66.52
349.073	60.12
349.537	65.92
350.001	67.02
350.465	72.12
350.93	70.32
351.394	66.42
351.858	64.12
352.322	74.02
352.786	70.72
353.25	85.42
353.715	89.82
354.179	84.22
354.643	94.72
355.107	100.42
355.571	86.62
356.035	91.72
356.498	97.92
356.962	103.02
357.426	103.32
357.89	98.32
358.354	82.92
358.818	66.12
359.281	70.82
359.745	66.72
360.209	64.52
360.673	61.52
361.136	68.22
361.6	72.62
362.064	76.22
362.527	79.02
362.991	74.02
363.454	73.42
363.918	69.52
364.381	69.72
364.845	67.72
365.308	81.02
365.772	75.72
366.235	72.82
366.698	72.82
367.162	80.02
367.625	73.92
368.088	73.72
368.552	85.02
369.015	79.22
369.478	84.82
369.941	88.72
370.404	86.22
370.867	91.92
371.331	94.82
371.794	100.82
372.257	95.62
372.72	104.12
373.183	94.72
373.646	90.02
374.109	92.32
374.572	96.02
375.035	97.02
375.497	91.82
375.96	92.12
376.423	90.92
376.886	99.32
377.349	101.52
377.811	96.72
378.274	91.82
378.737	91.72
379.199	98.32
379.662	101.72
380.125	99.32
380.587	112.82
381.05	119.42
381.512	115.12
381.975	122.72
382.437	113.82
382.9	104.32
383.362	123.52
383.825	125.12
384.287	134.52
384.75	124.02
385.212	119.12
385.674	126.52
386.136	121.62
386.599	110.12
387.061	116.72
387.523	114.82
387.985	121.12
388.447	127.62
388.91	119.22
389.372	140.62
389.834	134.52
390.296	127.62
390.758	137.22
391.22	150.12
391.682	189.72
392.144	272.12
392.606	212.12
393.068	150.42
393.529	149.72
393.991	145.92
394.453	130.22
394.915	133.72
395.377	176.12
395.838	194.32
396.3	139.72
396.762	124.12
397.224	123.72
397.685	124.12
398.147	123.82
398.608	120.52
399.07	118.62
399.531	126.72
399.993	129.32
400.454	142.02
400.916	134.02
401.377	127.82
401.839	135.22
402.3	137.52
402.762	149.52
403.223	164.22
403.684	155.72
404.145	146.72
404.607	139.72
405.068	148.62
405.529	157.12
405.99	170.52
406.451	158.02
406.913	163.72
407.374	148.82
407.835	160.52
408.296	154.12
408.757	158.12
409.218	166.62
409.679	165.42
410.14	164.02
410.601	164.62
411.062	169.12
411.522	175.72
411.983	175.82
412.444	166.72
412.905	171.02
413.366	167.82
413.826	183.22
414.287	206.62
414.748	239.32
415.208	227.62
415.669	193.12
416.13	193.02
416.59	182.32
417.051	199.32
417.511	204.32
417.972	220.22
418.432	238.22
418.893	264.92
419.353	230.22
419.814	187.42
420.274	168.42
420.734	170.02
421.195	187.12
421.655	183.62
422.115	185.02
422.576	179.62
423.036	185.52
423.496	188.82
423.956	193.62
424.416	222.42
424.876	246.82
425.336	243.22
425.797	247.22
426.257	238.32
426.717	221.02
427.177	222.52
427.637	210.42
428.097	227.02
428.556	227.82
429.016	248.72
429.476	243.72
429.936	253.12
430.396	263.72
430.856	275.02
431.315	297.22
431.775	330.32
432.235	352.12
432.694	327.62
433.154	340.12
433.614	365.72
434.073	308.22
434.533	265.32
434.993	251.32
435.452	262.62
435.912	279.42
436.371	258.92
436.83	259.82
437.29	247.82
437.749	230.72
438.209	229.92
438.668	254.52
439.127	270.22
439.587	241.72
440.046	231.82
440.505	240.52
440.964	257.72
441.424	300.62
441.883	290.62
442.342	235.42
442.801	210.32
443.26	206.92
443.719	210.62
444.178	211.22
444.637	203.12
445.096	207.72
445.555	214.52
446.014	207.82
446.473	216.32
446.932	223.32
447.391	212.62
447.849	215.02
448.308	208.32
448.767	201.22
449.226	224.12
449.685	221.52
450.143	228.22
450.602	221.72
451.061	209.92
451.519	220.62
451.978	219.72
452.436	223.22
452.895	226.82
453.353	240.92
453.812	222.22
454.27	230.22
454.729	222.12
455.187	225.52
455.646	234.12
456.104	239.32
456.562	243.42
457.021	251.82
457.479	255.72
457.937	253.72
458.395	252.62
458.854	233.52
459.312	247.62
459.77	262.42
460.228	245.72
460.686	224.82
461.144	235.82
461.602	238.22
462.06	227.82
462.518	237.22
462.976	238.72
463.434	246.92
463.892	248.02
464.35	258.42
464.808	276.42
465.266	252.72
465.724	251.22
466.181	256.72
466.639	259.22
467.097	281.02
467.555	284.12
468.012	281.32
468.47	293.22
468.928	316.42
469.385	324.92
469.843	329.32
470.3	335.92
470.758	347.72
471.215	362.12
471.673	391.52
472.13	380.72
472.588	399.82
473.045	354.02
473.503	361.02
473.96	383.02
474.417	387.62
474.875	417.22
475.332	459.82
475.789	444.02
476.246	450.22
476.704	463.62
477.161	479.32
477.618	495.22
478.075	529.72
478.532	587.82
478.989	666.22
479.446	768.82
479.903	735.82
480.36	759.82
480.817	824.22
481.274	932.12
481.731	1031.12
482.188	1110.62
482.645	1239.42
483.102	1344.02
483.558	1463.22
484.015	1513.02
484.472	1493.42
484.929	1450.92
485.385	1401.22
485.842	1352.72
486.299	1282.92
486.755	1231.92
487.212	1046.42
487.668	876.02
488.125	808.82
488.582	745.82
489.038	709.32
489.494	676.22
489.951	646.52
490.407	635.92
490.864	618.42
491.32	612.82
491.776	605.02
492.233	619.62
492.689	581.62
493.145	585.02
493.602	573.42
494.058	584.02
494.514	592.62
494.97	615.22
495.426	618.32
495.882	587.92
496.338	582.02
496.794	599.82
497.251	595.22
497.707	609.72
498.163	617.52
498.618	616.92
499.074	622.92
499.53	647.02
499.986	644.92
500.442	628.52
500.898	610.32
501.354	601.32
501.809	605.52
502.265	613.82
502.721	635.52
503.177	652.12
503.632	645.02
504.088	648.72
504.543	672.32
504.999	682.92
505.455	636.82
505.91	606.02
506.366	608.22
506.821	605.92
507.277	601.92
507.732	597.62
508.187	599.82
508.643	620.12
509.098	616.72
509.553	624.62
510.009	634.32
510.464	650.32
510.919	663.32
511.375	667.92
511.83	675.42
512.285	700.22
512.74	733.42
513.195	746.12
513.65	750.02
514.105	736.32
514.56	745.02
515.015	760.02
515.47	774.82
515.925	762.12
516.38	763.12
516.835	766.62
517.29	754.02
517.745	752.72
518.2	735.02
518.655	723.42
519.109	717.32
519.564	714.32
520.019	706.22
520.474	696.92
520.928	707.02
521.383	692.82
521.838	679.42
522.292	692.62
522.747	680.12
523.201	680.32
523.656	677.82
524.11	671.82
524.565	669.82
525.019	673.72
525.474	678.72
525.928	689.62
526.382	673.42
526.837	673.22
527.291	692.72
527.745	676.82
528.2	669.02
528.654	666.22
529.108	666.72
529.562	675.72
530.016	672.52
530.47	674.62
530.925	665.42
531.379	683.82
531.833	689.32
532.287	679.72
532.741	676.02
533.195	680.72
533.649	688.52
534.103	692.22
534.556	671.82
535.01	689.92
535.464	683.82
535.918	704.82
536.372	703.72
536.826	700.72
537.279	688.42
537.733	687.52
538.187	695.82
538.64	690.52
539.094	704.72
539.548	702.12
540.001	698.62
540.455	701.32
540.908	706.22
541.362	713.82
541.815	733.42
542.269	741.02
542.722	736.32
543.175	758.72
543.629	751.42
544.082	761.32
544.536	762.02
544.989	760.42
545.442	770.32
545.895	771.92
546.349	775.22
546.802	773.72
547.255	774.92
547.708	778.82
548.161	792.32
548.614	794.52
549.067	808.52
549.52	791.12
549.973	787.52
550.426	785.82
550.879	763.32
551.332	773.02
551.785	788.42
552.238	784.72
552.691	806.82
553.144	807.82
553.596	819.82
554.049	842.82
554.502	864.92
554.955	879.32
555.407	878.02
555.86	870.52
556.313	867.22
556.765	859.32
557.218	855.72
557.67	848.82
558.123	863.52
558.576	858.72
559.028	858.52
559.48	855.92
559.933	849.42
560.385	825.82
560.838	787.92
561.29	766.12
561.742	771.92
562.195	743.42
562.647	749.52
563.099	752.52
563.551	757.12
564.004	776.92
564.456	750.42
564.908	741.12
565.36	731.72
565.812	720.22
566.264	708.02
566.716	714.82
567.168	702.02
567.62	709.52
568.072	697.22
568.524	676.22
568.976	677.12
569.428	665.62
569.88	671.12
570.332	676.12
570.784	664.32
571.235	655.92
571.687	692.02
572.139	690.52
572.59	699.62
573.042	701.02
573.494	695.82
573.945	695.82
574.397	670.02
574.849	682.22
575.3	681.52
575.752	675.12
576.203	658.62
576.655	662.52
577.106	652.82
577.557	658.02
578.009	651.92
578.46	658.82
578.912	655.32
579.363	651.82
579.814	661.62
580.265	639.42
580.717	658.02
581.168	654.22
581.619	660.52
582.07	664.62
582.521	665.92
582.972	655.72
583.423	673.52
583.875	673.52
584.326	685.42
584.777	728.82
585.227	798.62
585.678	894.82
586.129	974.02
586.58	1035.72
587.031	1121.22
587.482	1261.42
587.933	1420.52
588.384	1244.32
588.834	947.92
589.285	786.92
589.736	766.22
590.186	759.52
590.637	754.22
591.088	726.12
591.538	735.12
591.989	721.02
592.439	715.72
592.89	710.92
593.34	704.42
593.791	699.32
594.241	686.62
594.692	698.72
595.142	691.82
595.593	682.82
596.043	694.32
596.493	705.92
596.943	701.12
597.394	705.52
597.844	709.12
598.294	712.42
598.744	745.82
599.195	762.52
599.645	801.92
600.095	837.12
600.545	892.72
600.995	946.32
601.445	1008.72
601.895	1068.22
602.345	1124.92
602.795	1088.22
603.245	1045.42
603.695	991.62
604.145	941.52
604.594	901.02
605.044	843.42
605.494	788.72
605.944	739.42
606.393	721.92
606.843	711.12
607.293	719.92
607.743	708.12
608.192	738.82
608.642	750.62
609.091	757.02
609.541	747.42
609.99	764.12
610.44	757.82
610.889	703.62
611.339	692.92
611.788	682.32
612.238	688.12
612.687	713.22
613.136	711.32
613.586	733.12
614.035	730.92
614.484	737.12
614.933	747.62
615.383	734.62
615.832	715.32
616.281	708.42
616.73	675.32
617.179	661.52
617.628	638.32
618.077	616.42
618.526	611.12
618.975	610.42
619.424	608.42
619.873	606.42
620.322	610.62
620.771	595.62
621.22	580.42
621.669	583.62
622.118	579.52
622.567	570.32
623.015	570.12
623.464	565.52
623.913	556.22
624.361	545.72
624.81	544.22
625.259	547.12
625.707	548.92
626.156	555.62
626.604	563.92
627.053	552.12
627.501	550.62
627.95	565.22
628.398	566.12
628.847	565.92
629.295	564.62
629.744	556.82
630.192	562.12
630.64	556.42
631.089	554.82
631.537	575.42
631.985	574.52
632.433	593.82
632.881	597.42
633.33	651.62
633.778	634.02
634.226	555.92
634.674	564.82
635.122	575.42
635.57	589.12
636.018	621.52
636.466	576.02
636.914	552.82
637.362	561.62
637.81	566.32
638.258	570.62
638.705	562.42
639.153	601.32
639.601	604.22
640.049	638.02
640.497	652.22
640.944	676.32
641.392	633.62
641.84	616.52
642.287	580.52
642.735	558.62
643.182	565.12
643.63	572.82
644.078	567.52
644.525	579.92
644.973	588.72
645.42	602.22
645.867	607.62
646.315	630.12
646.762	646.62
647.21	687.02
647.657	708.82
648.104	754.72
648.551	766.32
648.999	833.02
649.446	901.12
649.893	997.92
650.34	1160.32
650.787	1380.22
651.234	1711.62
651.682	2222.72
652.129	3058.92
652.576	4411.62
653.023	6524.12
653.47	8940.42
653.917	11123.92
654.363	12734.92
654.81	14045.42
655.257	13371.22
655.704	8711.02
656.151	5173.72
656.598	3346.32
657.044	2373.72
657.491	1832.52
657.938	1461.32
658.385	1223.62
658.831	1055.62
659.278	944.02
659.724	843.32
660.171	786.42
660.618	720.72
661.064	679.52
661.511	665.32
661.957	643.02
662.404	636.92
662.85	644.92
663.296	616.42
663.743	561.12
664.189	541.22
664.635	530.52
665.082	530.52
665.528	521.82
665.974	511.22
666.42	508.52
666.867	501.72
667.313	486.42
667.759	477.52
668.205	467.52
668.651	472.42
669.097	483.02
669.543	489.92
669.989	460.62
670.435	445.02
670.881	442.82
671.327	439.12
671.773	457.52
672.219	483.82
672.665	539.42
673.11	572.42
673.556	614.52
674.002	657.92
674.448	642.22
674.893	546.92
675.339	474.52
675.785	427.72
676.23	413.02
676.676	384.22
677.122	383.12
677.567	364.92
678.013	361.82
678.458	357.42
678.904	358.42
679.349	342.72
679.794	352.72
680.24	351.02
680.685	346.62
681.131	346.72
681.576	347.52
682.021	351.72
682.466	354.52
682.912	345.52
683.357	345.02
683.802	377.32
684.247	407.42
684.692	452.12
685.137	488.92
685.583	528.32
686.028	552.22
686.473	512.92
686.918	439.82
687.363	405.42
687.807	382.62
688.252	360.32
688.697	340.72
689.142	338.72
689.587	325.62
690.032	315.32
690.477	338.92
690.921	353.22
691.366	379.62
691.811	389.12
692.255	424.52
692.7	454.32
693.145	506.82
693.589	695.22
694.034	1127.72
694.478	1524.72
694.923	1700.12
695.367	2201.82
695.812	1164.22
696.256	500.52
696.701	373.42
697.145	338.12
697.59	331.42
698.034	314.42
698.478	327.42
698.922	320.22
699.367	327.72
699.811	329.62
700.255	355.52
700.699	382.92
701.143	425.32
701.588	470.62
702.032	510.82
702.476	501.22
702.92	480.32
703.364	483.42
703.808	626.12
704.252	1033.32
704.696	1438.22
705.14	1636.02
705.584	2099.62
706.027	1042.22
706.471	512.92
706.915	392.12
707.359	343.32
707.803	312.02
708.246	312.62
708.69	307.02
709.134	312.82
709.577	300.02
710.021	316.42
710.465	305.32
710.908	301.72
711.352	293.42
711.795	308.22
712.239	354.32
712.682	383.62
713.126	412.52
713.569	456.62
714.012	365.92
714.456	316.72
714.899	289.52
715.342	279.72
715.786	259.22
716.229	255.42
716.672	248.92
717.115	250.02
717.558	253.62
718.002	255.02
718.445	259.12
718.888	281.82
719.331	291.52
719.774	302.62
720.217	298.62
720.66	280.62
721.103	264.22
721.546	246.62
721.989	248.32
722.432	224.32
722.874	241.32
723.317	224.42
723.76	233.72
724.203	259.12
724.645	314.72
725.088	445.02
725.531	559.52
725.974	634.32
726.416	533.82
726.859	303.52
727.301	236.12
727.744	241.92
728.187	231.42
728.629	232.92
729.071	242.52
729.514	257.22
729.956	273.22
730.399	273.62
730.841	283.42
731.283	264.82
731.726	261.92
732.168	253.62
732.61	259.42
733.053	285.62
733.495	308.92
733.937	353.72
734.379	403.72
734.821	429.22
735.263	541.92
735.705	848.72
736.148	1586.52
736.59	2554.52
737.032	2975.52
737.474	2427.82
737.916	805.62
738.357	427.22
738.799	330.12
739.241	300.82
739.683	274.42
740.125	288.92
740.567	295.82
741.008	308.92
741.45	307.32
741.892	312.32
742.334	350.02
742.775	346.72
743.217	332.42
743.658	270.62
744.1	251.52
744.542	259.42
744.983	310.02
745.425	334.02
745.866	340.82
746.307	281.32
746.749	279.22
747.19	319.92
747.632	462.12
748.073	890.72
748.514	1875.02
748.956	2818.92
749.397	3534.62
749.838	2911.32
750.279	2887.02
750.72	1465.72
751.162	547.42
751.603	313.62
752.044	246.22
752.485	217.62
752.926	216.82
753.367	203.12
753.808	195.62
754.249	189.92
754.69	186.12
755.131	182.32
755.572	186.52
756.013	188.92
756.453	184.12
756.894	192.22
757.335	183.42
757.776	195.92
758.216	195.72
758.657	202.42
759.098	208.52
759.538	229.82
759.979	268.22
760.42	371.92
760.86	707.32
761.301	1837.22
761.741	4411.72
762.182	6287.92
762.622	4414.92
763.063	1300.72
763.503	534.82
763.943	343.42
764.384	339.12
764.824	384.42
765.264	408.12
765.705	287.72
766.145	202.02
766.585	183.82
767.025	184.82
767.465	185.82
767.906	233.12
768.346	303.72
768.786	325.62
769.226	249.62
769.666	319.42
770.106	622.72
770.546	1557.62
770.986	2596.72
771.426	2308.82
771.866	787.02
772.306	325.32
772.745	212.32
773.185	172.42
773.625	173.32
774.065	168.32
774.505	195.82
774.944	292.72
775.384	664.22
775.824	1192.72
776.263	1145.62
776.703	493.22
777.142	212.12
777.582	160.22
778.021	126.42
778.461	142.92
778.9	137.42
779.34	133.82
779.779	118.72
780.219	110.42
780.658	102.52
781.097	117.02
781.537	110.22
781.976	109.42
782.415	108.52
782.855	102.82
783.294	112.12
783.733	108.02
784.172	111.52
784.611	111.42
785.05	108.12
785.489	108.72
785.928	119.92
786.367	122.02
786.806	117.12
787.245	137.12
787.684	142.02
788.123	144.62
788.562	133.72
789.001	122.22
789.44	118.32
789.879	122.92
790.317	119.32
790.756	131.72
791.195	123.62
791.634	146.12
792.072	209.32
792.511	365.42
792.95	1016.12
793.388	2107.32
793.827	1881.72
794.265	673.42
794.704	287.22
795.142	185.72
795.581	150.62
796.019	131.92
796.458	127.62
796.896	121.62
797.334	129.12
797.773	139.42
798.211	221.52
798.649	440.92
799.087	1021.12
799.526	1592.12
799.964	1983.02
800.402	1953.12
800.84	744.72
801.278	298.72
801.716	182.32
802.154	152.62
802.592	145.32
803.03	146.62
803.468	133.52
803.906	142.02
804.344	151.42
804.782	133.22
805.22	131.72
805.658	124.72
806.096	150.02
806.533	154.42
806.971	174.62
807.409	217.32
807.847	322.22
808.284	672.32
808.722	1860.22
809.16	3251.82
809.597	3120.22
810.035	5354.32
810.472	5604.02
810.91	2048.92
811.347	788.02
811.785	393.12
812.222	251.42
812.66	192.72
813.097	164.62
813.535	137.12
813.972	134.92
814.409	118.22
814.846	113.22
815.284	103.32
815.721	106.22
816.158	105.72
816.595	119.62
817.032	174.42
817.47	202.82
817.907	160.12
818.344	143.92
818.781	116.92
819.218	97.12
819.655	126.32
820.092	187.32
820.529	208.82
820.966	169.02
821.403	126.42
821.839	105.42
822.276	102.72
822.713	125.32
823.15	135.52
823.587	117.92
824.023	151.52
824.46	308.62
824.897	910.42
825.333	1326.52
825.77	573.82
826.206	228.62
826.643	133.32
827.08	101.92
827.516	85.12
827.953	73.52
828.389	80.52
828.825	70.32
829.262	63.12
829.698	66.32
830.135	60.12
830.571	66.02
831.007	58.32
831.443	68.22
831.88	63.62
832.316	66.92
832.752	65.32
833.188	66.92
833.624	64.12
834.06	68.32
834.497	76.82
834.933	70.82
835.369	72.72
835.805	69.22
836.241	81.12
836.677	84.72
837.112	90.62
837.548	107.82
837.984	137.02
838.42	199.92
838.856	491.52
839.292	1511.72
839.727	2252.02
840.163	1048.32
840.599	920.72
841.034	2023.12
841.47	2079.62
841.906	760.42
842.341	328.62
842.777	228.82
843.212	318.22
843.648	304.92
844.083	153.62
844.519	90.22
844.954	73.72
845.39	58.32
845.825	60.52
846.261	56.62
846.696	57.12
847.131	52.62
847.566	59.12
848.002	54.92
848.437	56.22
848.872	60.52
849.307	65.62
849.742	79.52
850.177	185.52
850.613	553.62
851.048	858.12
851.483	376.82
851.918	155.42
852.353	92.32
852.788	58.82
853.223	56.12
853.657	57.22
854.092	54.52
854.527	42.72
854.962	44.12
855.397	40.92
855.832	47.82
856.266	47.42
856.701	37.72
857.136	42.42
857.57	42.02
858.005	47.12
858.44	54.12
858.874	45.42
859.309	52.42
859.743	42.22
860.178	51.42
860.612	46.02
861.047	50.22
861.481	70.22
861.915	66.02
862.35	47.62
862.784	42.62
863.218	39.92
863.653	35.82
864.087	46.02
864.521	56.72
864.955	69.42
865.39	156.22
865.824	176.32
866.258	115.62
866.692	167.12
867.126	173.32
867.56	109.72
867.994	50.22
868.428	45.02
868.862	42.42
869.296	50.52
869.73	56.42
870.164	50.52
870.598	49.52
871.031	35.22
871.465	36.32
871.899	33.52
872.333	28.12
872.766	35.12
873.2	19.22
873.634	30.62
874.067	27.32
874.501	28.92
874.935	37.32
875.368	35.52
875.802	28.42
876.235	24.62
876.669	26.22
877.102	17.12
877.535	22.02
877.969	18.82
878.402	26.12
878.836	19.02
879.269	25.82
879.702	26.02
880.135	21.32
880.569	23.12
881.002	33.62
881.435	30.82
881.868	21.72
882.301	21.52
882.734	14.02
883.167	23.62
883.601	20.82
884.034	22.02
884.467	18.42
884.899	26.02
885.332	18.62
885.765	9.52
886.198	11.02
886.631	12.32
887.064	13.52
887.497	23.02
887.929	26.72
888.362	18.42
888.795	15.12
889.228	19.22
889.66	22.42
890.093	15.62
890.526	17.62
890.958	18.92
891.391	16.82
891.823	25.62
892.256	20.02
892.688	11.82
893.121	24.42
893.553	16.42
893.985	20.22
894.418	23.72
894.85	15.92
895.282	18.42
895.715	25.72
896.147	19.32
896.579	17.92
897.011	17.12
897.444	23.82
897.876	18.22
898.308	20.72
898.74	22.52
899.172	16.82
899.604	29.22
900.036	14.22
900.468	14.82
900.9	17.72
901.332	11.82
901.764	16.02
902.196	22.82
902.628	19.22
903.06	16.92
903.491	29.92
903.923	19.92
904.355	19.12
904.787	26.02
905.218	27.42
905.65	22.42
906.082	12.72
906.513	19.72
906.945	22.92
907.376	9.32
907.808	24.72
908.239	21.42
908.671	17.72
909.102	24.42
909.534	27.12
909.965	49.12
910.397	96.32
910.828	311.92
911.259	472.32
911.691	208.92
912.122	111.32
912.553	54.62
912.984	32.52
913.415	28.32
913.847	20.22
914.278	21.62
914.709	17.92
915.14	21.12
915.571	16.62
916.002	13.02
916.433	17.42
916.864	22.22
917.295	22.52
917.726	23.72
918.157	17.72
918.587	22.42
919.018	22.72
919.449	28.62
919.88	26.02
920.311	38.92
920.741	46.32
921.172	168.32
921.603	150.32
922.033	71.12
922.464	40.82
922.895	25.12
923.325	21.32
923.756	17.82
924.186	20.02
924.617	29.52
925.047	39.92
925.478	52.32
925.908	44.72
926.338	25.82
926.769	18.02
927.199	17.72
927.629	16.52
928.06	17.02
928.49	13.32
928.92	15.72
929.35	17.62
929.78	14.72
930.21	5.52
930.641	13.02
931.071	12.42
931.501	9.52
931.931	11.92
932.361	7.92
932.791	1.32
933.221	8.62
933.651	0.62
934.08	17.42
934.51	34.92
934.94	11.82
935.37	11.62
935.8	15.42
936.229	11.42
936.659	7.02
937.089	0.52
937.519	13.22
937.948	27.82
938.378	20.02
938.807	7.52
939.237	5.92
939.666	2.62
940.096	1.92
940.525	3.12
940.955	-0.28
941.384	2.22
941.814	-3.98
942.243	3.32
942.672	3.02
943.102	-0.98
943.531	0.52
943.96	8.32
944.39	7.32
944.819	2.92
945.248	6.22
945.677	1.12
946.106	4.42
946.535	3.12
946.964	5.32
947.393	5.82
947.822	2.12
948.251	-3.78
948.68	4.72
949.109	12.92
949.538	9.52
949.967	4.12
950.396	2.92
950.825	9.52
951.254	5.12
951.682	-7.18
952.111	4.42
952.54	7.32
952.969	1.02
953.397	-6.38
953.826	-1.38
954.254	-5.78
954.683	4.72
955.112	1.82
955.54	-5.18
955.969	4.42
956.397	3.62
956.826	2.72
957.254	6.22
957.682	1.52
958.111	4.82
958.539	-1.48
958.967	4.32
959.396	-0.38
959.824	-0.98
960.252	3.92
960.68	1.42
961.109	-1.48
961.537	-2.38
961.965	-1.38
962.393	1.22
962.821	-4.38
963.249	5.62
963.677	9.32
964.105	7.92
964.533	46.62
964.961	43.32
965.389	23.02
965.817	11.22
966.245	2.12
966.672	4.12
967.1	-3.68
967.528	4.22
967.956	0.02
968.383	3.92
968.811	-2.68
969.239	-3.88
969.666	0.22
970.094	-2.28
970.522	4.12
970.949	3.92
971.377	-5.78
971.804	-1.68
972.232	-2.18
972.659	1.12
973.087	1.62
973.514	-2.58
973.941	-5.68
974.369	5.52
974.796	-0.98
975.223	0.82
975.651	-3.78
976.078	3.22
976.505	-4.68
976.932	3.42
977.359	20.02
977.786	19.92
978.214	-4.18
978.641	2.92
979.068	-3.98
979.495	3.42
979.922	-1.08
980.349	-2.18
980.776	6.32
981.202	1.42
981.629	3.02
982.056	3.82
982.483	3.72
982.91	-1.18
983.337	-4.68
983.763	7.12
984.19	-0.38
984.617	-0.78
985.043	-5.08
985.47	2.72
985.897	-5.78
986.323	-3.78
986.75	3.42
987.176	-2.58
987.603	2.82
988.029	3.32
988.456	-1.38
988.882	1.32
989.308	-4.58
989.735	-3.38
990.161	8.72
990.587	-2.58
991.014	3.22
991.44	7.62
991.866	-2.68
992.292	-4.48
992.719	5.72
993.145	1.12
993.571	-10.68
993.997	1.22
994.423	-1.88
994.849	-3.98
995.275	3.12
995.701	1.02
996.127	-3.98
996.553	9.02
996.979	-1.38
997.405	-0.68
997.83	0.62
998.256	-5.78
998.682	-7.38
999.108	-4.28
999.534	-3.88
999.959	-1.08
1000.385	0.82
1000.811	2.02
1001.236	-9.08
1001.662	-8.08
1002.087	-6.68
1002.513	0.32
1002.938	3.02
1003.364	2.92
1003.789	3.62
1004.215	1.52
1004.64	-1.68
1005.066	6.02
1005.491	5.62
1005.916	-2.38
1006.342	-2.28
1006.767	-9.38
1007.192	3.92
1007.617	-1.18
1008.042	-2.78
1008.468	-10.38
1008.893	-2.38
1009.318	3.32
1009.743	1.52
1010.168	0.12
1010.593	1.82
1011.018	-6.48
1011.443	0.52
1011.868	-4.28
1012.293	-3.08
1012.718	-5.08
1013.143	6.12
1013.567	-0.18
1013.992	-2.18
1014.417	-4.88
1014.842	0.72
1015.267	-5.78
1015.691	-10.08
1016.116	2.72
1016.541	-1.48
1016.965	3.82
1017.39	1.62
1017.814	3.52
1018.239	-0.58
1018.663	-3.38
1019.088	-8.08
1019.512	-2.48
1019.937	-5.08
1020.361	-7.28
1020.785	-10.48
1021.21	-5.68
1021.634	-3.48
1022.058	-0.98
1022.483	8.42
1022.907	3.32
1023.331	-0.78
1023.755	-0.48
1024.179	0.72
1024.604	-5.08
1025.028	-3.58
1025.452	-5.58
1025.876	1.82
1026.3	0.82
1026.724	-2.48
1027.148	-1.48
1027.572	-2.28
1027.996	-1.78
1028.42	-2.58
1028.843	-8.98
1029.267	-0.58
1029.691	-4.48
1030.115	-6.78
1030.539	-7.48
1030.962	-8.18
1031.386	-3.88
1031.81	-1.18
1032.233	2.92
1032.657	-5.38
1033.08	-4.38
1033.504	2.62
1033.927	-2.48
1034.351	0.42
1034.774	-4.68
1035.198	3.42
1035.621	-6.88
1036.045	-7.78
1036.468	2.42
1036.891	-8.08
1037.315	-7.48
1037.738	-7.08
1038.161	-1.38
1038.584	-6.08
1039.008	-5.08
1039.431	-3.58
1039.854	-2.28
1040.277	-12.28
1040.7	-4.58
1041.123	1.92
1041.546	-4.28
1041.969	-1.18
1042.392	-1.18
1042.815	1.72
1043.238	2.92
1043.661	9.52
1044.084	-6.18
1044.507	1.62
1044.93	0.32
1045.352	-4.68
1045.775	-1.18
1046.198	-1.88
1046.621	5.92
1047.043	6.02
1047.466	2.72
1047.889	-1.78
1048.311	-4.18
1048.734	-2.58
1049.156	-2.38
1049.579	3.62
1050.001	0.92
1050.424	-1.18
1050.846	-1.48
1051.269	0.32
1051.691	-1.28
1052.113	-5.38
1052.536	0.12
1052.958	2.52
1053.38	-5.08
1053.802	-7.78
1054.225	-2.18
1054.647	-6.88
1055.069	-4.28
1055.491	-3.58
1055.913	-7.58
1056.335	2.82
1056.757	-6.88
1057.179	-8.98
1057.601	-4.38
1058.023	-1.08
1058.445	1.52
1058.867	-4.18
1059.289	-3.28
1059.711	-7.18
1060.133	-0.98
1060.555	-2.58
1060.976	-1.88
1061.398	-1.08
1061.82	-5.78
1062.241	-6.08
1062.663	-10.98
1063.085	1.02
1063.506	5.42
1063.928	-0.08
1064.35	-0.38
1064.771	-14.98
1065.193	-3.58
1065.614	-3.18
1066.035	-0.88
1066.457	-4.48
1066.878	0.42
1067.3	-6.88
1067.721	-3.88
1068.142	3.22
1068.564	-2.38
1068.985	-8.08
1069.406	-4.98
1069.827	-1.48
1070.248	-0.28
1070.67	-7.78
1071.091	-5.38
1071.512	-6.78
1071.933	-7.48
1072.354	-7.08
1072.775	-4.98
1073.196	-12.98
1073.617	0.72
1074.038	-6.98
1074.459	-3.08
1074.88	-6.88
1075.3	3.32
1075.721	3.12
1076.142	3.62
1076.563	-1.58
1076.983	-5.38
1077.404	-2.48
1077.825	-18.18
1078.246	-2.28
1078.666	-4.78
1079.087	-6.08
1079.507	-4.98
1079.928	4.62
1080.348	3.42
1080.769	-5.18
1081.189	0.22
1081.61	-3.38
1082.03	-0.68
1082.451	-8.08
1082.871	-2.68
1083.291	1.82
1083.711	-8.98
1084.132	-3.18
1084.552	0.92
1084.972	-0.88
1085.392	-10.78
1085.813	-9.68
1086.233	-1.58
1086.653	-5.48
1087.073	-5.48
1087.493	-8.78
1087.913	-0.58
1088.333	-15.08
1088.753	-5.38
1089.173	3.12
1089.593	-4.58
1090.013	-2.08
1090.433	0.92
1090.852	-3.28
1091.272	2.42
1091.692	3.52
1092.112	-1.48
1092.531	-8.38
1092.951	-8.98
1093.371	0.92
1093.79	3.12
1094.21	-2.38
1094.63	-3.58
1095.049	-5.08
1095.469	-1.48
1095.888	2.12
1096.308	4.42
1096.727	9.52
1097.146	-3.38
1097.566	2.02
1097.985	-2.38
1098.405	0.72
1098.824	-2.58
1099.243	-3.58
1099.662	-6.18
1100.082	-6.98
1100.501	0.82
1100.92	-5.38
1101.339	0.82
1101.758	-1.98
