Data from 20171114-ORNL-Ar_H_NY_Subt18_08-08-26-303.txt Node
Date: Tue Nov 14 08:08:26 EST 2017
User: Ender
Spectrometer: HR+D1039
Trigger mode: 0
Integration Time (sec): 2.730000E-2
Scans to average: 10
Electric dark correction enabled: true
Nonlinearity correction enabled: false
Boxcar width: 0
XAxis mode: Wavelengths
Number of Pixels in Spectrum: 2048
>>>>>Begin Spectral Data<<<<<
187.836	-8.37
188.309	-8.37
188.782	-8.37
189.255	1.53
189.728	-3.47
190.201	7.73
190.674	2.03
191.147	1.43
191.619	-6.97
192.092	2.53
192.565	1.03
193.038	2.83
193.511	0.63
193.984	1.03
194.456	-1.07
194.929	4.03
195.402	-3.47
195.874	-1.47
196.347	5.73
196.82	-1.37
197.292	10.93
197.765	-3.87
198.237	1.03
198.71	4.23
199.182	-2.17
199.655	-2.87
200.127	0.33
200.6	0.33
201.072	1.93
201.544	-5.47
202.017	-4.27
202.489	2.53
202.961	-2.57
203.433	-6.47
203.906	-7.17
204.378	-5.17
204.85	-4.37
205.322	-5.17
205.794	1.73
206.266	-3.27
206.739	-3.97
207.211	2.53
207.683	-6.77
208.155	2.33
208.627	-0.77
209.099	-2.67
209.57	-7.77
210.042	-1.97
210.514	0.53
210.986	-0.07
211.458	-3.27
211.93	-3.47
212.402	-1.37
212.873	-4.77
213.345	-8.17
213.817	-4.57
214.288	-2.87
214.76	-9.97
215.232	-4.27
215.703	0.93
216.175	-2.07
216.646	-6.77
217.118	-6.97
217.589	-1.47
218.061	-2.37
218.532	-8.27
219.004	-7.47
219.475	-1.57
219.946	-3.57
220.418	-3.37
220.889	4.23
221.36	2.93
221.832	-3.77
222.303	-2.57
222.774	3.43
223.245	-7.27
223.717	-1.97
224.188	-5.77
224.659	-7.77
225.13	-1.97
225.601	-5.37
226.072	-1.47
226.543	0.13
227.014	1.13
227.485	-5.17
227.956	-5.47
228.427	1.03
228.898	3.53
229.369	2.93
229.839	-5.27
230.31	-6.97
230.781	0.23
231.252	-3.57
231.722	-2.97
232.193	-0.77
232.664	-3.87
233.135	-1.37
233.605	-5.67
234.076	-9.97
234.546	-3.47
235.017	4.03
235.487	6.03
235.958	-0.07
236.428	-0.67
236.899	-2.97
237.369	-2.37
237.84	-7.67
238.31	-0.97
238.78	-3.07
239.251	-3.07
239.721	0.33
240.191	-3.07
240.662	-6.27
241.132	1.13
241.602	-6.87
242.072	0.03
242.542	6.93
243.013	-2.77
243.483	6.63
243.953	2.43
244.423	-4.17
244.893	-4.17
245.363	-2.27
245.833	1.13
246.303	-3.37
246.773	5.83
247.243	-0.97
247.712	2.73
248.182	5.13
248.652	4.43
249.122	-0.87
249.592	4.13
250.061	6.83
250.531	3.73
251.001	-0.27
251.471	11.13
251.94	15.23
252.41	-0.57
252.879	-3.17
253.349	10.73
253.818	7.03
254.288	0.43
254.757	1.23
255.227	-3.57
255.696	0.03
256.166	2.93
256.635	4.43
257.105	3.93
257.574	3.53
258.043	8.63
258.513	2.43
258.982	8.33
259.451	0.23
259.92	4.43
260.389	1.73
260.859	9.53
261.328	3.73
261.797	6.53
262.266	0.73
262.735	6.43
263.204	7.23
263.673	0.43
264.142	10.13
264.611	-0.77
265.08	4.93
265.549	1.53
266.018	1.53
266.487	-7.47
266.955	-1.47
267.424	-2.27
267.893	2.83
268.362	-1.37
268.83	5.23
269.299	10.73
269.768	5.53
270.236	2.53
270.705	2.53
271.174	5.83
271.642	3.03
272.111	5.63
272.579	5.73
273.048	6.23
273.516	14.03
273.985	8.53
274.453	14.13
274.922	11.93
275.39	0.63
275.858	2.23
276.327	13.73
276.795	13.43
277.263	4.73
277.731	22.73
278.2	22.23
278.668	24.83
279.136	23.43
279.604	12.43
280.072	12.73
280.54	11.73
281.008	7.83
281.477	18.03
281.945	14.33
282.413	12.13
282.881	15.23
283.348	7.63
283.816	11.93
284.284	6.63
284.752	18.83
285.22	12.73
285.688	19.23
286.156	18.33
286.623	19.63
287.091	20.83
287.559	19.83
288.026	14.63
288.494	13.63
288.962	6.83
289.429	10.43
289.897	16.53
290.364	11.33
290.832	16.63
291.3	16.83
291.767	14.53
292.234	22.23
292.702	10.13
293.169	19.93
293.637	20.13
294.104	16.63
294.571	7.13
295.039	9.53
295.506	11.63
295.973	17.03
296.44	16.83
296.908	11.33
297.375	15.53
297.842	21.03
298.309	17.23
298.776	12.93
299.243	22.43
299.71	19.93
300.177	23.43
300.644	21.63
301.111	20.83
301.578	25.13
302.045	15.53
302.512	20.83
302.979	29.53
303.446	20.53
303.913	19.93
304.379	14.53
304.846	28.03
305.313	26.43
305.78	16.73
306.246	21.53
306.713	28.03
307.18	25.83
307.646	32.13
308.113	31.83
308.579	23.93
309.046	25.13
309.512	25.63
309.979	19.43
310.445	25.93
310.912	30.93
311.378	37.63
311.845	25.33
312.311	30.23
312.777	34.33
313.244	30.53
313.71	31.63
314.176	27.83
314.642	31.43
315.109	24.73
315.575	32.93
316.041	35.03
316.507	32.33
316.973	35.63
317.439	28.03
317.905	37.33
318.371	37.63
318.837	33.83
319.303	31.13
319.769	38.43
320.235	30.13
320.701	30.43
321.167	34.23
321.633	34.13
322.099	31.33
322.564	35.03
323.03	37.63
323.496	37.33
323.962	43.73
324.427	36.63
324.893	46.03
325.359	44.33
325.824	33.33
326.29	37.73
326.755	42.03
327.221	39.43
327.686	35.83
328.152	50.93
328.617	41.93
329.083	46.73
329.548	50.73
330.014	46.13
330.479	41.73
330.944	44.73
331.41	45.73
331.875	49.03
332.34	39.43
332.805	40.13
333.271	45.23
333.736	43.03
334.201	49.63
334.666	49.53
335.131	45.23
335.596	52.63
336.061	50.03
336.526	38.93
336.991	47.93
337.456	55.93
337.921	53.33
338.386	41.33
338.851	47.83
339.316	48.43
339.781	45.83
340.246	48.33
340.711	46.93
341.175	53.33
341.64	46.43
342.105	48.03
342.569	55.13
343.034	54.73
343.499	58.13
343.963	57.03
344.428	66.83
344.893	62.63
345.357	57.83
345.822	67.53
346.286	72.23
346.751	77.23
347.215	71.53
347.679	78.03
348.144	100.33
348.608	86.13
349.073	75.33
349.537	79.23
350.001	78.93
350.465	89.53
350.93	83.73
351.394	86.63
351.858	74.23
352.322	86.93
352.786	83.73
353.25	108.63
353.715	111.23
354.179	102.13
354.643	122.13
355.107	119.43
355.571	107.23
356.035	104.43
356.498	115.53
356.962	116.93
357.426	134.43
357.89	122.83
358.354	97.13
358.818	84.33
359.281	78.73
359.745	77.93
360.209	78.93
360.673	79.23
361.136	77.03
361.6	87.03
362.064	80.23
362.527	89.53
362.991	90.93
363.454	90.03
363.918	81.93
364.381	79.43
364.845	83.73
365.308	95.13
365.772	94.03
366.235	93.63
366.698	91.13
367.162	87.33
367.625	96.43
368.088	84.13
368.552	89.53
369.015	95.93
369.478	101.53
369.941	100.63
370.404	100.03
370.867	100.63
371.331	104.83
371.794	111.53
372.257	104.03
372.72	111.03
373.183	105.93
373.646	106.33
374.109	105.43
374.572	105.23
375.035	95.73
375.497	112.13
375.96	110.03
376.423	112.63
376.886	116.93
377.349	112.43
377.811	104.13
378.274	116.73
378.737	106.73
379.199	113.23
379.662	119.53
380.125	114.43
380.587	108.33
381.05	119.03
381.512	118.73
381.975	128.93
382.437	129.13
382.9	125.23
383.362	134.83
383.825	132.83
384.287	132.33
384.75	134.53
385.212	135.73
385.674	140.33
386.136	140.53
386.599	124.73
387.061	127.73
387.523	128.93
387.985	129.23
388.447	143.83
388.91	133.23
389.372	137.33
389.834	137.23
390.296	134.03
390.758	142.13
391.22	144.83
391.682	162.73
392.144	186.63
392.606	171.13
393.068	153.23
393.529	161.53
393.991	150.23
394.453	144.43
394.915	150.03
395.377	151.53
395.838	162.03
396.3	150.63
396.762	151.43
397.224	141.63
397.685	138.13
398.147	136.43
398.608	137.83
399.07	140.83
399.531	147.43
399.993	151.93
400.454	157.93
400.916	157.83
401.377	154.33
401.839	169.23
402.3	155.93
402.762	174.63
403.223	192.03
403.684	179.63
404.145	168.13
404.607	169.63
405.068	175.73
405.529	176.73
405.99	198.23
406.451	188.93
406.913	184.13
407.374	176.43
407.835	172.23
408.296	173.93
408.757	179.53
409.218	195.93
409.679	188.93
410.14	181.73
410.601	182.63
411.062	186.83
411.522	193.73
411.983	188.93
412.444	186.03
412.905	186.43
413.366	190.43
413.826	205.13
414.287	226.73
414.748	282.03
415.208	268.03
415.669	223.03
416.13	221.83
416.59	216.73
417.051	230.23
417.511	239.33
417.972	260.93
418.432	263.63
418.893	303.13
419.353	270.13
419.814	216.33
420.274	199.43
420.734	196.73
421.195	206.03
421.655	207.63
422.115	211.53
422.576	205.13
423.036	207.93
423.496	231.13
423.956	228.33
424.416	246.73
424.876	277.83
425.336	280.03
425.797	279.03
426.257	272.83
426.717	255.43
427.177	247.53
427.637	234.53
428.097	247.83
428.556	256.83
429.016	276.93
429.476	272.23
429.936	283.63
430.396	295.43
430.856	306.13
431.315	324.43
431.775	359.43
432.235	399.33
432.694	366.73
433.154	379.43
433.614	412.23
434.073	357.63
434.533	300.53
434.993	280.43
435.452	285.93
435.912	295.73
436.371	307.73
436.83	301.23
437.29	285.73
437.749	260.83
438.209	268.13
438.668	289.73
439.127	299.93
439.587	283.43
440.046	274.93
440.505	278.73
440.964	293.93
441.424	348.53
441.883	331.53
442.342	277.33
442.801	243.13
443.26	247.43
443.719	244.33
444.178	238.83
444.637	231.03
445.096	236.33
445.555	240.03
446.014	243.53
446.473	237.23
446.932	247.43
447.391	239.53
447.849	247.73
448.308	236.63
448.767	233.93
449.226	256.13
449.685	255.43
450.143	267.93
450.602	258.93
451.061	251.53
451.519	254.43
451.978	248.93
452.436	249.73
452.895	264.23
453.353	262.23
453.812	260.63
454.27	255.03
454.729	261.83
455.187	260.03
455.646	263.23
456.104	260.53
456.562	285.83
457.021	289.53
457.479	281.03
457.937	297.03
458.395	279.43
458.854	264.23
459.312	273.33
459.77	299.63
460.228	278.43
460.686	266.83
461.144	270.43
461.602	269.83
462.06	263.83
462.518	268.03
462.976	271.93
463.434	282.73
463.892	280.03
464.35	294.83
464.808	308.93
465.266	287.93
465.724	287.33
466.181	290.43
466.639	286.33
467.097	309.23
467.555	316.73
468.012	327.93
468.47	331.83
468.928	352.33
469.385	364.53
469.843	378.13
470.3	374.13
470.758	381.63
471.215	413.93
471.673	439.43
472.13	439.83
472.588	449.13
473.045	399.43
473.503	403.93
473.96	421.53
474.417	436.53
474.875	463.43
475.332	506.83
475.789	499.13
476.246	496.63
476.704	510.73
477.161	550.23
477.618	550.13
478.075	590.83
478.532	646.73
478.989	719.13
479.446	839.63
479.903	790.23
480.36	830.33
480.817	881.03
481.274	969.43
481.731	1055.83
482.188	1140.43
482.645	1264.33
483.102	1355.23
483.558	1479.63
484.015	1523.63
484.472	1496.13
484.929	1450.83
485.385	1411.93
485.842	1377.33
486.299	1334.33
486.755	1288.33
487.212	1103.33
487.668	936.33
488.125	866.73
488.582	794.53
489.038	773.63
489.494	734.53
489.951	713.93
490.407	695.63
490.864	672.33
491.32	674.83
491.776	669.23
492.233	670.83
492.689	643.73
493.145	641.73
493.602	634.53
494.058	646.03
494.514	650.73
494.97	671.13
495.426	686.43
495.882	663.13
496.338	646.73
496.794	651.33
497.251	645.33
497.707	668.13
498.163	671.03
498.618	683.23
499.074	683.03
499.53	714.03
499.986	705.43
500.442	678.53
500.898	657.73
501.354	652.43
501.809	655.73
502.265	658.63
502.721	662.33
503.177	673.93
503.632	685.03
504.088	689.83
504.543	713.93
504.999	721.33
505.455	696.33
505.91	667.43
506.366	668.83
506.821	667.63
507.277	673.63
507.732	663.33
508.187	665.63
508.643	671.43
509.098	670.93
509.553	696.03
510.009	705.93
510.464	712.63
510.919	727.93
511.375	732.63
511.83	761.33
512.285	763.63
512.74	795.43
513.195	820.33
513.65	801.73
514.105	811.23
514.56	807.63
515.015	822.23
515.47	851.13
515.925	818.23
516.38	830.43
516.835	844.93
517.29	819.13
517.745	821.33
518.2	804.93
518.655	787.23
519.109	792.13
519.564	780.53
520.019	764.13
520.474	767.53
520.928	763.23
521.383	750.13
521.838	751.33
522.292	750.03
522.747	745.33
523.201	741.33
523.656	729.93
524.11	738.53
524.565	735.33
525.019	724.43
525.474	732.93
525.928	735.83
526.382	736.03
526.837	737.73
527.291	744.63
527.745	732.43
528.2	738.33
528.654	735.93
529.108	729.03
529.562	724.93
530.016	719.43
530.47	722.63
530.925	729.73
531.379	733.83
531.833	736.33
532.287	736.33
532.741	744.23
533.195	742.13
533.649	753.63
534.103	751.33
534.556	741.73
535.01	741.73
535.464	746.13
535.918	750.13
536.372	745.33
536.826	757.73
537.279	738.33
537.733	749.73
538.187	747.43
538.64	749.03
539.094	754.93
539.548	764.83
540.001	760.83
540.455	759.63
540.908	767.13
541.362	771.23
541.815	786.63
542.269	797.43
542.722	809.83
543.175	802.13
543.629	807.53
544.082	826.83
544.536	831.23
544.989	829.23
545.442	833.23
545.895	837.83
546.349	827.73
546.802	842.13
547.255	842.03
547.708	855.83
548.161	860.93
548.614	878.13
549.067	865.83
549.52	865.33
549.973	853.93
550.426	854.33
550.879	838.53
551.332	857.83
551.785	855.83
552.238	863.13
552.691	866.13
553.144	878.93
553.596	906.33
554.049	917.33
554.502	936.13
554.955	958.13
555.407	947.93
555.86	961.23
556.313	934.43
556.765	926.13
557.218	936.13
557.67	932.23
558.123	922.73
558.576	913.03
559.028	920.53
559.48	937.13
559.933	924.93
560.385	887.83
560.838	850.03
561.29	843.93
561.742	834.73
562.195	817.13
562.647	815.73
563.099	816.73
563.551	819.53
564.004	828.23
564.456	807.93
564.908	801.43
565.36	788.83
565.812	774.03
566.264	757.83
566.716	753.03
567.168	751.53
567.62	756.03
568.072	735.03
568.524	723.83
568.976	727.13
569.428	717.63
569.88	728.63
570.332	723.23
570.784	725.43
571.235	730.63
571.687	736.43
572.139	745.83
572.59	754.93
573.042	750.63
573.494	746.13
573.945	739.13
574.397	732.33
574.849	727.03
575.3	734.33
575.752	729.83
576.203	717.93
576.655	722.03
577.106	711.73
577.557	701.33
578.009	714.03
578.46	705.23
578.912	700.73
579.363	713.53
579.814	714.23
580.265	704.83
580.717	708.83
581.168	704.73
581.619	717.53
582.07	713.43
582.521	710.83
582.972	698.33
583.423	726.23
583.875	705.73
584.326	733.03
584.777	744.53
585.227	767.83
585.678	805.23
586.129	832.53
586.58	851.73
587.031	891.73
587.482	934.83
587.933	998.93
588.384	948.53
588.834	863.93
589.285	811.63
589.736	815.73
590.186	807.43
590.637	806.63
591.088	785.53
591.538	772.93
591.989	780.13
592.439	769.03
592.89	765.53
593.34	751.53
593.791	742.03
594.241	735.83
594.692	735.33
595.142	746.73
595.593	738.03
596.043	745.63
596.493	747.83
596.943	747.93
597.394	760.33
597.844	756.23
598.294	784.43
598.744	805.93
599.195	825.33
599.645	874.63
600.095	921.53
600.545	984.13
600.995	1017.53
601.445	1073.83
601.895	1152.23
602.345	1198.03
602.795	1169.33
603.245	1131.53
603.695	1059.33
604.145	1018.23
604.594	962.23
605.044	909.43
605.494	843.73
605.944	797.03
606.393	797.33
606.843	766.03
607.293	774.43
607.743	775.53
608.192	784.73
608.642	793.33
609.091	798.13
609.541	807.53
609.99	816.23
610.44	797.93
610.889	752.03
611.339	737.13
611.788	710.23
612.238	732.33
612.687	740.13
613.136	732.13
613.586	750.43
614.035	741.63
614.484	749.93
614.933	751.23
615.383	745.93
615.832	754.73
616.281	745.03
616.73	708.53
617.179	689.03
617.628	674.83
618.077	670.13
618.526	657.13
618.975	652.43
619.424	650.23
619.873	645.23
620.322	654.03
620.771	640.63
621.22	641.33
621.669	625.13
622.118	626.53
622.567	611.13
623.015	608.33
623.464	611.13
623.913	592.13
624.361	585.53
624.81	585.03
625.259	591.63
625.707	578.83
626.156	585.33
626.604	598.63
627.053	581.73
627.501	596.33
627.95	599.93
628.398	617.83
628.847	606.43
629.295	598.13
629.744	604.23
630.192	602.93
630.64	591.83
631.089	576.23
631.537	565.83
631.985	563.23
632.433	572.93
632.881	565.83
633.33	581.43
633.778	572.83
634.226	558.43
634.674	570.53
635.122	575.83
635.57	595.63
636.018	607.83
636.466	599.33
636.914	585.13
637.362	602.93
637.81	609.33
638.258	609.03
638.705	623.63
639.153	645.83
639.601	656.03
640.049	677.93
640.497	714.23
640.944	737.43
641.392	680.53
641.84	651.83
642.287	607.53
642.735	592.03
643.182	599.33
643.63	594.93
644.078	600.33
644.525	603.53
644.973	607.93
645.42	630.93
645.867	650.13
646.315	661.93
646.762	695.73
647.21	720.23
647.657	734.93
648.104	769.03
648.551	799.03
648.999	865.93
649.446	930.63
649.893	1016.73
650.34	1174.53
650.787	1370.63
651.234	1709.83
651.682	2227.03
652.129	3017.83
652.576	4275.13
653.023	6213.33
653.47	8419.63
653.917	10369.83
654.363	11915.43
654.81	13066.43
655.257	12380.03
655.704	8242.03
656.151	4965.63
656.598	3256.43
657.044	2336.73
657.491	1806.43
657.938	1474.53
658.385	1230.53
658.831	1082.03
659.278	967.63
659.724	864.73
660.171	809.33
660.618	736.93
661.064	717.63
661.511	695.23
661.957	685.53
662.404	667.83
662.85	676.13
663.296	660.83
663.743	583.33
664.189	565.63
664.635	565.23
665.082	559.53
665.528	552.73
665.974	545.43
666.42	538.93
666.867	531.03
667.313	511.13
667.759	493.33
668.205	480.03
668.651	478.83
669.097	474.93
669.543	470.33
669.989	468.03
670.435	471.23
670.881	471.63
671.327	473.53
671.773	499.03
672.219	525.83
672.665	583.93
673.11	624.43
673.556	674.73
674.002	704.53
674.448	692.33
674.893	584.43
675.339	507.73
675.785	472.63
676.23	452.23
676.676	417.63
677.122	403.43
677.567	398.53
678.013	391.33
678.458	387.03
678.904	380.03
679.349	373.83
679.794	381.53
680.24	366.23
680.685	371.53
681.131	370.33
681.576	374.73
682.021	380.63
682.466	370.23
682.912	375.03
683.357	379.83
683.802	406.43
684.247	442.13
684.692	483.73
685.137	529.63
685.583	574.23
686.028	597.53
686.473	557.63
686.918	477.53
687.363	440.83
687.807	425.93
688.252	385.13
688.697	381.03
689.142	358.83
689.587	361.93
690.032	343.63
690.477	364.33
690.921	372.13
691.366	408.13
691.811	430.63
692.255	463.63
692.7	490.13
693.145	549.53
693.589	760.03
694.034	1224.53
694.478	1659.83
694.923	1832.43
695.367	2368.53
695.812	1274.43
696.256	528.93
696.701	400.53
697.145	377.03
697.59	343.53
698.034	339.73
698.478	343.13
698.922	339.33
699.367	345.53
699.811	353.43
700.255	372.63
700.699	410.03
701.143	455.93
701.588	505.73
702.032	545.53
702.476	542.33
702.92	531.83
703.364	530.63
703.808	701.33
704.252	1140.13
704.696	1570.83
705.14	1773.93
705.584	2256.03
706.027	1135.83
706.471	552.83
706.915	430.53
707.359	381.83
707.803	350.83
708.246	333.63
708.69	330.83
709.134	330.93
709.577	335.33
710.021	336.53
710.465	329.83
710.908	320.93
711.352	319.73
711.795	334.83
712.239	376.43
712.682	409.93
713.126	438.83
713.569	484.43
714.012	380.43
714.456	326.23
714.899	311.73
715.342	290.33
715.786	280.83
716.229	277.93
716.672	278.63
717.115	269.53
717.558	272.23
718.002	267.93
718.445	281.13
718.888	298.73
719.331	315.93
719.774	324.63
720.217	320.93
720.66	314.23
721.103	291.63
721.546	277.03
721.989	261.23
722.432	254.13
722.874	249.93
723.317	237.13
723.76	253.63
724.203	278.23
724.645	345.73
725.088	483.93
725.531	608.73
725.974	676.13
726.416	582.13
726.859	326.73
727.301	270.33
727.744	252.63
728.187	247.93
728.629	256.63
729.071	255.63
729.514	279.13
729.956	290.23
730.399	299.93
730.841	305.23
731.283	289.03
731.726	279.73
732.168	280.63
732.61	284.43
733.053	310.73
733.495	343.23
733.937	374.73
734.379	419.23
734.821	462.13
735.263	590.33
735.705	912.83
736.148	1741.93
736.59	2788.03
737.032	3215.83
737.474	2631.43
737.916	868.23
738.357	461.03
738.799	352.33
739.241	320.43
739.683	307.73
740.125	305.23
740.567	325.03
741.008	335.73
741.45	337.23
741.892	342.73
742.334	373.73
742.775	380.53
743.217	375.73
743.658	289.63
744.1	269.83
744.542	294.73
744.983	336.13
745.425	372.23
745.866	364.23
746.307	301.23
746.749	303.53
747.19	350.73
747.632	500.13
748.073	992.53
748.514	2046.73
748.956	3030.83
749.397	3843.93
749.838	3184.03
750.279	3117.93
750.72	1595.73
751.162	604.33
751.603	351.93
752.044	275.13
752.485	229.93
752.926	224.13
753.367	216.03
753.808	200.83
754.249	200.63
754.69	194.73
755.131	193.13
755.572	201.73
756.013	191.63
756.453	203.13
756.894	212.03
757.335	206.03
757.776	205.03
758.216	208.83
758.657	207.83
759.098	220.73
759.538	239.73
759.979	296.73
760.42	417.33
760.86	785.83
761.301	2051.43
761.741	4820.93
762.182	6744.83
762.622	4772.73
763.063	1410.03
763.503	577.43
763.943	352.03
764.384	307.93
764.824	302.63
765.264	289.23
765.705	248.13
766.145	204.73
766.585	189.33
767.025	185.93
767.465	176.93
767.906	207.33
768.346	235.33
768.786	242.93
769.226	246.33
769.666	336.63
770.106	686.83
770.546	1717.33
770.986	2790.73
771.426	2479.73
771.866	851.33
772.306	351.53
772.745	217.13
773.185	185.13
773.625	177.83
774.065	167.83
774.505	171.13
774.944	237.13
775.384	424.63
775.824	692.53
776.263	665.53
776.703	323.23
777.142	174.43
777.582	149.83
778.021	130.83
778.461	136.33
778.9	133.23
779.34	135.63
779.779	124.53
780.219	110.63
780.658	118.73
781.097	122.43
781.537	120.03
781.976	113.63
782.415	113.53
782.855	111.03
783.294	111.83
783.733	112.93
784.172	113.83
784.611	116.53
785.05	118.73
785.489	118.53
785.928	124.33
786.367	136.63
786.806	123.53
787.245	139.13
787.684	140.43
788.123	161.53
788.562	147.73
789.001	140.03
789.44	131.03
789.879	128.23
790.317	127.93
790.756	137.93
791.195	135.63
791.634	158.83
792.072	223.03
792.511	405.83
792.95	1101.93
793.388	2238.93
793.827	1992.43
794.265	707.63
794.704	302.63
795.142	198.23
795.581	163.23
796.019	150.13
796.458	135.73
796.896	131.63
797.334	143.13
797.773	167.13
798.211	245.03
798.649	491.13
799.087	1104.73
799.526	1717.93
799.964	2153.93
800.402	2099.23
800.84	810.23
801.278	331.73
801.716	205.63
802.154	167.73
802.592	160.63
803.03	150.13
803.468	148.43
803.906	155.53
804.344	160.13
804.782	147.93
805.22	147.03
805.658	140.43
806.096	151.03
806.533	170.73
806.971	187.23
807.409	242.53
807.847	353.33
808.284	746.43
808.722	2035.53
809.16	3484.13
809.597	3410.43
810.035	5791.83
810.472	5998.73
810.91	2216.93
811.347	858.73
811.785	430.83
812.222	281.83
812.66	215.13
813.097	182.33
813.535	159.03
813.972	136.13
814.409	129.63
814.846	119.63
815.284	117.93
815.721	109.33
816.158	110.73
816.595	116.23
817.032	169.43
817.47	193.93
817.907	140.63
818.344	118.43
818.781	108.83
819.218	102.43
819.655	136.63
820.092	200.63
820.529	222.23
820.966	181.53
821.403	134.03
821.839	103.63
822.276	105.53
822.713	130.13
823.15	155.73
823.587	128.83
824.023	161.23
824.46	329.83
824.897	968.83
825.333	1426.43
825.77	619.83
826.206	247.03
826.643	146.23
827.08	112.43
827.516	92.73
827.953	82.13
828.389	90.03
828.825	75.73
829.262	74.33
829.698	69.83
830.135	65.23
830.571	70.83
831.007	68.83
831.443	67.83
831.88	64.23
832.316	64.93
832.752	66.83
833.188	67.93
833.624	75.53
834.06	68.63
834.497	71.43
834.933	84.23
835.369	84.13
835.805	74.93
836.241	78.63
836.677	86.73
837.112	95.23
837.548	112.53
837.984	147.03
838.42	220.93
838.856	562.13
839.292	1644.83
839.727	2417.63
840.163	1136.13
840.599	1026.63
841.034	2163.43
841.47	2199.03
841.906	814.43
842.341	346.43
842.777	220.93
843.212	229.53
843.648	209.33
844.083	121.33
844.519	86.33
844.954	78.43
845.39	64.93
845.825	55.03
846.261	57.93
846.696	52.23
847.131	55.43
847.566	64.23
848.002	50.03
848.437	55.13
848.872	66.63
849.307	66.63
849.742	95.43
850.177	205.83
850.613	598.83
851.048	913.53
851.483	396.23
851.918	159.83
852.353	89.93
852.788	60.83
853.223	58.83
853.657	53.83
854.092	50.13
854.527	45.63
854.962	42.63
855.397	50.33
855.832	52.13
856.266	45.73
856.701	43.53
857.136	39.33
857.57	47.83
858.005	53.73
858.44	66.13
858.874	49.53
859.309	57.73
859.743	48.43
860.178	50.53
860.612	53.13
861.047	60.33
861.481	76.73
861.915	80.83
862.35	53.93
862.784	33.13
863.218	38.33
863.653	40.83
864.087	54.13
864.521	57.53
864.955	68.63
865.39	162.73
865.824	185.63
866.258	126.83
866.692	186.83
867.126	194.23
867.56	113.93
867.994	54.83
868.428	42.93
868.862	49.73
869.296	53.33
869.73	63.83
870.164	64.13
870.598	58.83
871.031	37.83
871.465	34.33
871.899	29.63
872.333	24.43
872.766	30.13
873.2	26.93
873.634	35.83
874.067	28.33
874.501	29.13
874.935	35.13
875.368	36.73
875.802	30.43
876.235	26.43
876.669	22.93
877.102	23.93
877.535	35.03
877.969	23.23
878.402	26.73
878.836	18.43
879.269	20.33
879.702	26.63
880.135	22.73
880.569	22.83
881.002	25.73
881.435	23.13
881.868	22.23
882.301	25.13
882.734	20.83
883.167	23.43
883.601	22.13
884.034	21.53
884.467	16.43
884.899	21.53
885.332	20.43
885.765	15.63
886.198	19.73
886.631	21.43
887.064	20.33
887.497	20.63
887.929	28.23
888.362	20.93
888.795	15.33
889.228	23.33
889.66	25.13
890.093	21.13
890.526	19.33
890.958	12.03
891.391	19.23
891.823	23.23
892.256	16.13
892.688	13.03
893.121	16.83
893.553	23.63
893.985	24.43
894.418	27.53
894.85	19.63
895.282	20.93
895.715	18.93
896.147	18.33
896.579	17.93
897.011	17.93
897.444	18.03
897.876	15.53
898.308	12.23
898.74	14.93
899.172	19.33
899.604	24.73
900.036	23.23
900.468	18.33
900.9	14.93
901.332	23.33
901.764	17.83
902.196	19.03
902.628	20.73
903.06	17.23
903.491	38.93
903.923	32.33
904.355	24.03
904.787	29.43
905.218	22.53
905.65	19.63
906.082	13.03
906.513	18.33
906.945	16.33
907.376	18.73
907.808	19.33
908.239	23.23
908.671	17.73
909.102	26.13
909.534	26.33
909.965	56.23
910.397	100.93
910.828	340.93
911.259	493.23
911.691	233.63
912.122	119.93
912.553	53.13
912.984	41.13
913.415	30.13
913.847	29.03
914.278	17.33
914.709	9.03
915.14	17.03
915.571	18.03
916.002	17.83
916.433	16.63
916.864	22.03
917.295	13.73
917.726	22.53
918.157	14.03
918.587	27.83
919.018	25.83
919.449	23.03
919.88	27.43
920.311	35.43
920.741	50.73
921.172	174.83
921.603	162.73
922.033	82.43
922.464	48.43
922.895	25.63
923.325	19.93
923.756	19.33
924.186	14.33
924.617	24.13
925.047	22.63
925.478	32.63
925.908	26.43
926.338	20.93
926.769	15.63
927.199	22.43
927.629	7.83
928.06	16.13
928.49	15.73
928.92	14.53
929.35	8.93
929.78	10.73
930.21	8.63
930.641	7.53
931.071	8.43
931.501	3.53
931.931	8.93
932.361	9.03
932.791	4.43
933.221	2.73
933.651	2.43
934.08	19.43
934.51	26.63
934.94	12.03
935.37	10.03
935.8	11.63
936.229	8.83
936.659	9.83
937.089	7.73
937.519	15.03
937.948	23.13
938.378	20.23
938.807	4.33
939.237	5.33
939.666	10.53
940.096	2.43
940.525	3.33
940.955	3.03
941.384	4.03
941.814	-1.37
942.243	-1.27
942.672	5.53
943.102	5.73
943.531	-0.47
943.96	7.23
944.39	7.03
944.819	3.93
945.248	2.83
945.677	1.43
946.106	5.23
946.535	6.43
946.964	1.43
947.393	5.73
947.822	5.13
948.251	-0.97
948.68	7.93
949.109	4.03
949.538	6.63
949.967	0.83
950.396	4.13
950.825	-0.17
951.254	0.83
951.682	-1.07
952.111	7.03
952.54	8.73
952.969	-10.07
953.397	-4.07
953.826	3.53
954.254	-1.47
954.683	7.03
955.112	-2.67
955.54	3.83
955.969	0.73
956.397	0.23
956.826	-1.77
957.254	1.63
957.682	2.13
958.111	4.33
958.539	3.63
958.967	0.13
959.396	-3.77
959.824	5.63
960.252	6.13
960.68	-2.37
961.109	1.13
961.537	-1.67
961.965	0.63
962.393	0.03
962.821	-6.07
963.249	-6.07
963.677	9.73
964.105	11.23
964.533	55.43
964.961	45.63
965.389	19.03
965.817	9.33
966.245	2.23
966.672	1.83
967.1	-8.97
967.528	-0.67
967.956	-1.87
968.383	0.23
968.811	-2.57
969.239	2.03
969.666	-4.97
970.094	3.13
970.522	6.23
970.949	3.93
971.377	-5.17
971.804	1.13
972.232	-2.27
972.659	3.03
973.087	-4.17
973.514	0.93
973.941	-4.87
974.369	3.03
974.796	2.83
975.223	-1.77
975.651	-6.77
976.078	4.33
976.505	-0.57
976.932	6.23
977.359	15.73
977.786	9.83
978.214	-1.17
978.641	-0.57
979.068	0.53
979.495	1.23
979.922	0.63
980.349	0.73
980.776	4.23
981.202	1.13
981.629	6.63
982.056	5.23
982.483	-4.17
982.91	4.63
983.337	-3.37
983.763	2.33
984.19	-6.67
984.617	-2.57
985.043	1.83
985.47	-3.27
985.897	-7.87
986.323	-11.97
986.75	2.43
987.176	2.23
987.603	1.73
988.029	5.33
988.456	-5.67
988.882	4.23
989.308	-4.47
989.735	-6.87
990.161	-2.77
990.587	0.73
991.014	4.33
991.44	4.73
991.866	-0.77
992.292	-2.67
992.719	-2.67
993.145	10.03
993.571	-8.37
993.997	-0.87
994.423	-3.17
994.849	-8.27
995.275	5.53
995.701	-1.57
996.127	4.03
996.553	1.43
996.979	-4.87
997.405	0.93
997.83	-3.77
998.256	-4.07
998.682	-4.77
999.108	-2.87
999.534	-0.37
999.959	-0.07
1000.385	-0.27
1000.811	-3.37
1001.236	-11.37
1001.662	-9.97
1002.087	-0.57
1002.513	1.13
1002.938	4.63
1003.364	1.63
1003.789	-2.47
1004.215	3.93
1004.64	-0.77
1005.066	4.83
1005.491	-0.97
1005.916	-3.27
1006.342	-0.67
1006.767	-1.27
1007.192	6.13
1007.617	-3.67
1008.042	-5.97
1008.468	-7.77
1008.893	-5.17
1009.318	-1.67
1009.743	-1.67
1010.168	-1.17
1010.593	4.03
1011.018	-2.47
1011.443	3.53
1011.868	2.63
1012.293	1.13
1012.718	-7.17
1013.143	3.93
1013.567	4.73
1013.992	-3.97
1014.417	-14.47
1014.842	2.03
1015.267	-0.17
1015.691	-1.17
1016.116	3.53
1016.541	1.23
1016.965	2.13
1017.39	0.53
1017.814	2.93
1018.239	-1.07
1018.663	-10.17
1019.088	-5.27
1019.512	-1.57
1019.937	1.33
1020.361	-1.87
1020.785	-4.87
1021.21	-2.57
1021.634	-5.07
1022.058	3.13
1022.483	6.53
1022.907	-4.17
1023.331	1.23
1023.755	-2.87
1024.179	-1.07
1024.604	-7.37
1025.028	-6.77
1025.452	-5.87
1025.876	-1.47
1026.3	1.83
1026.724	-5.47
1027.148	-1.97
1027.572	-9.07
1027.996	-5.07
1028.42	0.33
1028.843	-7.37
1029.267	-0.07
1029.691	-3.07
1030.115	-9.87
1030.539	-4.17
1030.962	-1.27
1031.386	-11.47
1031.81	1.33
1032.233	-2.57
1032.657	-4.67
1033.08	4.73
1033.504	1.83
1033.927	-1.87
1034.351	1.53
1034.774	-4.77
1035.198	-4.67
1035.621	-4.47
1036.045	-9.17
1036.468	-0.67
1036.891	-10.07
1037.315	-6.27
1037.738	-9.37
1038.161	-3.27
1038.584	-7.37
1039.008	-6.17
1039.431	-5.37
1039.854	-10.87
1040.277	-4.47
1040.7	-6.67
1041.123	0.13
1041.546	-5.67
1041.969	-6.27
1042.392	3.73
1042.815	-3.87
1043.238	2.63
1043.661	2.83
1044.084	-3.17
1044.507	-3.87
1044.93	-4.37
1045.352	-3.37
1045.775	1.33
1046.198	-4.57
1046.621	-4.57
1047.043	-1.17
1047.466	4.53
1047.889	1.83
1048.311	-3.47
1048.734	-2.97
1049.156	0.23
1049.579	-2.67
1050.001	-4.97
1050.424	3.03
1050.846	-3.47
1051.269	-3.67
1051.691	-8.67
1052.113	-2.37
1052.536	1.83
1052.958	-2.67
1053.38	-2.17
1053.802	-7.77
1054.225	-2.77
1054.647	-8.17
1055.069	-3.37
1055.491	-0.37
1055.913	-8.27
1056.335	1.03
1056.757	-7.87
1057.179	0.83
1057.601	-3.27
1058.023	-0.37
1058.445	-4.37
1058.867	-8.17
1059.289	-5.07
1059.711	-6.07
1060.133	-3.67
1060.555	-2.57
1060.976	-4.37
1061.398	-5.37
1061.82	-9.27
1062.241	-5.57
1062.663	-4.47
1063.085	0.63
1063.506	3.33
1063.928	-3.07
1064.35	5.33
1064.771	-13.27
1065.193	-4.87
1065.614	-7.97
1066.035	-0.77
1066.457	-2.97
1066.878	-0.87
1067.3	-6.17
1067.721	0.23
1068.142	-1.57
1068.564	-2.57
1068.985	-0.97
1069.406	-3.97
1069.827	-0.77
1070.248	3.83
1070.67	-6.67
1071.091	-4.17
1071.512	-5.37
1071.933	-4.07
1072.354	-8.77
1072.775	-9.27
1073.196	-0.57
1073.617	-0.57
1074.038	-10.57
1074.459	-2.67
1074.88	-12.07
1075.3	-1.47
1075.721	-5.37
1076.142	0.13
1076.563	-4.67
1076.983	-10.57
1077.404	-5.07
1077.825	-6.57
1078.246	-4.47
1078.666	-12.87
1079.087	-6.77
1079.507	5.13
1079.928	1.43
1080.348	0.73
1080.769	-2.87
1081.189	-4.07
1081.61	-0.67
1082.03	-3.97
1082.451	-3.77
1082.871	-2.77
1083.291	-15.87
1083.711	-7.87
1084.132	-6.57
1084.552	-4.07
1084.972	-4.37
1085.392	-8.77
1085.813	-7.27
1086.233	-7.87
1086.653	1.13
1087.073	-1.17
1087.493	-6.57
1087.913	-3.07
1088.333	-10.87
1088.753	-2.07
1089.173	2.93
1089.593	-5.27
1090.013	1.33
1090.433	1.13
1090.852	-5.77
1091.272	-2.57
1091.692	-0.47
1092.112	-2.97
1092.531	-5.27
1092.951	-10.27
1093.371	-6.67
1093.79	-0.57
1094.21	-8.17
1094.63	-4.67
1095.049	-4.17
1095.469	-5.67
1095.888	-6.37
1096.308	4.73
1096.727	2.03
1097.146	-3.27
1097.566	1.33
1097.985	-5.47
1098.405	-2.07
1098.824	0.73
1099.243	-6.37
1099.662	-7.57
1100.082	-1.47
1100.501	-0.67
1100.92	-5.77
1101.339	0.53
1101.758	-3.57
