Data from 20171114-ORNL-Ar_H_NY_Subt18_08-08-54-175.txt Node
Date: Tue Nov 14 08:08:54 EST 2017
User: Ender
Spectrometer: HR+D1039
Trigger mode: 0
Integration Time (sec): 2.730000E-2
Scans to average: 10
Electric dark correction enabled: true
Nonlinearity correction enabled: false
Boxcar width: 0
XAxis mode: Wavelengths
Number of Pixels in Spectrum: 2048
>>>>>Begin Spectral Data<<<<<
187.836	-4.72
188.309	-4.72
188.782	-4.72
189.255	2.98
189.728	1.08
190.201	1.88
190.674	2.18
191.147	10.28
191.619	-6.32
192.092	-0.72
192.565	4.88
193.038	-3.22
193.511	-5.72
193.984	-0.22
194.456	-2.22
194.929	-0.92
195.402	0.28
195.874	0.48
196.347	0.78
196.82	-3.92
197.292	1.28
197.765	-3.22
198.237	-5.92
198.71	4.38
199.182	3.68
199.655	1.88
200.127	0.78
200.6	-4.52
201.072	-4.52
201.544	-4.52
202.017	-2.92
202.489	4.78
202.961	-6.72
203.433	-6.12
203.906	-9.82
204.378	-6.72
204.85	-5.62
205.322	-3.52
205.794	-1.72
206.266	-4.32
206.739	-14.92
207.211	-0.32
207.683	-9.82
208.155	-3.22
208.627	-6.62
209.099	-4.12
209.57	-7.42
210.042	-3.02
210.514	-7.52
210.986	-4.22
211.458	-8.32
211.93	-5.62
212.402	2.48
212.873	-6.52
213.345	-9.82
213.817	-9.82
214.288	-3.32
214.76	-9.42
215.232	-4.02
215.703	-1.82
216.175	-9.32
216.646	-5.32
217.118	-4.52
217.589	-4.82
218.061	-0.02
218.532	-8.62
219.004	-5.32
219.475	-5.52
219.946	-4.32
220.418	-5.32
220.889	2.68
221.36	1.18
221.832	-1.22
222.303	-6.12
222.774	0.18
223.245	-10.32
223.717	-7.72
224.188	-7.42
224.659	-1.52
225.13	-7.92
225.601	-0.42
226.072	-0.22
226.543	2.18
227.014	-4.22
227.485	0.18
227.956	-9.22
228.427	-4.02
228.898	1.58
229.369	-0.32
229.839	-6.52
230.31	-9.02
230.781	-1.82
231.252	-12.92
231.722	-4.92
232.193	-6.22
232.664	-4.62
233.135	-4.82
233.605	-3.82
234.076	-9.02
234.546	-3.42
235.017	-0.82
235.487	-4.22
235.958	-11.12
236.428	-0.22
236.899	-7.42
237.369	-0.72
237.84	-13.02
238.31	2.18
238.78	-3.42
239.251	-0.92
239.721	-7.12
240.191	-9.92
240.662	-8.42
241.132	-1.72
241.602	-4.22
242.072	2.08
242.542	-1.12
243.013	-1.82
243.483	5.18
243.953	1.08
244.423	-2.22
244.893	-5.22
245.363	-1.42
245.833	-2.32
246.303	-9.82
246.773	5.78
247.243	-4.42
247.712	-1.82
248.182	2.58
248.652	4.18
249.122	-8.32
249.592	0.58
250.061	-3.72
250.531	7.18
251.001	-2.52
251.471	4.98
251.94	6.58
252.41	-0.32
252.879	-4.42
253.349	8.58
253.818	2.58
254.288	-1.12
254.757	1.08
255.227	-3.72
255.696	-5.52
256.166	1.98
256.635	-0.22
257.105	2.08
257.574	-3.32
258.043	-3.22
258.513	-6.62
258.982	3.68
259.451	-5.02
259.92	6.58
260.389	-2.82
260.859	4.68
261.328	3.38
261.797	4.48
262.266	-0.42
262.735	-3.72
263.204	3.78
263.673	-3.42
264.142	5.58
264.611	-8.92
265.08	-2.82
265.549	-5.52
266.018	1.78
266.487	-1.22
266.955	-11.52
267.424	-3.12
267.893	-1.32
268.362	-3.72
268.83	-3.62
269.299	5.18
269.768	-0.42
270.236	5.98
270.705	-4.22
271.174	-0.62
271.642	1.98
272.111	5.68
272.579	-1.52
273.048	3.88
273.516	1.78
273.985	2.88
274.453	7.98
274.922	5.58
275.39	10.48
275.858	-2.92
276.327	2.28
276.795	8.98
277.263	-0.72
277.731	15.18
278.2	8.68
278.668	3.98
279.136	6.48
279.604	-6.02
280.072	8.38
280.54	5.88
281.008	6.08
281.477	7.28
281.945	0.98
282.413	7.58
282.881	10.08
283.348	2.68
283.816	7.28
284.284	8.58
284.752	11.68
285.22	7.08
285.688	7.98
286.156	9.58
286.623	10.78
287.091	1.68
287.559	11.08
288.026	4.28
288.494	7.38
288.962	-2.82
289.429	5.08
289.897	9.48
290.364	12.48
290.832	10.58
291.3	4.28
291.767	7.08
292.234	10.28
292.702	5.08
293.169	14.78
293.637	14.48
294.104	11.78
294.571	-3.42
295.039	6.88
295.506	8.58
295.973	10.18
296.44	4.98
296.908	16.48
297.375	11.28
297.842	11.98
298.309	5.98
298.776	0.98
299.243	9.98
299.71	5.58
300.177	12.78
300.644	11.28
301.111	10.38
301.578	14.68
302.045	11.58
302.512	11.68
302.979	14.38
303.446	11.58
303.913	5.68
304.379	8.28
304.846	22.48
305.313	16.48
305.78	15.88
306.246	13.98
306.713	20.98
307.18	9.48
307.646	12.58
308.113	20.08
308.579	23.28
309.046	17.38
309.512	18.68
309.979	9.38
310.445	13.48
310.912	22.88
311.378	20.08
311.845	20.58
312.311	25.08
312.777	26.18
313.244	19.88
313.71	26.78
314.176	19.48
314.642	21.68
315.109	18.38
315.575	24.78
316.041	30.48
316.507	15.58
316.973	20.68
317.439	21.08
317.905	26.68
318.371	26.38
318.837	26.08
319.303	26.58
319.769	20.98
320.235	20.18
320.701	28.08
321.167	25.48
321.633	20.18
322.099	25.48
322.564	32.68
323.03	27.88
323.496	23.98
323.962	25.58
324.427	21.78
324.893	33.38
325.359	30.88
325.824	31.78
326.29	29.38
326.755	26.98
327.221	29.98
327.686	32.08
328.152	39.08
328.617	32.88
329.083	34.98
329.548	38.78
330.014	35.08
330.479	29.68
330.944	28.68
331.41	31.18
331.875	30.68
332.34	27.28
332.805	35.88
333.271	35.08
333.736	31.48
334.201	39.78
334.666	37.58
335.131	41.18
335.596	40.88
336.061	39.38
336.526	33.48
336.991	32.38
337.456	47.18
337.921	36.78
338.386	36.18
338.851	33.48
339.316	39.28
339.781	33.98
340.246	35.68
340.711	37.88
341.175	40.88
341.64	36.68
342.105	37.08
342.569	43.48
343.034	49.38
343.499	41.98
343.963	40.48
344.428	53.98
344.893	54.18
345.357	47.18
345.822	52.28
346.286	60.28
346.751	60.38
347.215	53.48
347.679	58.38
348.144	74.38
348.608	67.48
349.073	55.48
349.537	58.08
350.001	57.58
350.465	78.28
350.93	62.48
351.394	65.28
351.858	57.48
352.322	66.48
352.786	69.18
353.25	86.58
353.715	85.88
354.179	76.38
354.643	97.38
355.107	94.58
355.571	82.28
356.035	82.18
356.498	91.88
356.962	88.38
357.426	101.88
357.89	97.38
358.354	73.48
358.818	73.48
359.281	68.98
359.745	69.58
360.209	62.88
360.673	61.78
361.136	68.38
361.6	69.58
362.064	68.58
362.527	70.78
362.991	76.68
363.454	67.58
363.918	64.18
364.381	66.28
364.845	78.78
365.308	75.78
365.772	74.88
366.235	76.98
366.698	69.38
367.162	68.38
367.625	69.68
368.088	71.98
368.552	68.18
369.015	77.08
369.478	80.88
369.941	81.58
370.404	81.88
370.867	90.68
371.331	85.08
371.794	94.28
372.257	80.98
372.72	92.78
373.183	97.18
373.646	82.08
374.109	92.28
374.572	86.78
375.035	85.38
375.497	97.88
375.96	82.78
376.423	90.98
376.886	92.88
377.349	94.38
377.811	91.78
378.274	94.58
378.737	91.38
379.199	96.78
379.662	98.18
380.125	93.38
380.587	98.58
381.05	93.38
381.512	107.88
381.975	109.68
382.437	102.48
382.9	98.98
383.362	109.58
383.825	113.88
384.287	114.08
384.75	102.78
385.212	110.58
385.674	115.18
386.136	113.28
386.599	110.88
387.061	108.58
387.523	114.78
387.985	120.58
388.447	119.48
388.91	112.18
389.372	121.28
389.834	116.28
390.296	116.48
390.758	118.68
391.22	130.78
391.682	137.48
392.144	149.58
392.606	129.88
393.068	126.38
393.529	142.48
393.991	137.08
394.453	117.68
394.915	122.48
395.377	123.78
395.838	133.68
396.3	133.68
396.762	132.08
397.224	127.58
397.685	113.98
398.147	125.78
398.608	121.88
399.07	125.28
399.531	124.38
399.993	134.28
400.454	147.98
400.916	132.18
401.377	136.18
401.839	140.58
402.3	140.68
402.762	153.48
403.223	171.18
403.684	149.28
404.145	146.68
404.607	147.78
405.068	155.58
405.529	160.58
405.99	173.48
406.451	160.28
406.913	162.98
407.374	154.08
407.835	148.88
408.296	153.88
408.757	160.48
409.218	168.68
409.679	173.28
410.14	164.68
410.601	166.98
411.062	173.98
411.522	170.18
411.983	168.78
412.444	165.78
412.905	175.48
413.366	183.18
413.826	194.68
414.287	209.48
414.748	255.98
415.208	243.68
415.669	206.38
416.13	207.48
416.59	199.88
417.051	207.88
417.511	210.08
417.972	231.58
418.432	239.08
418.893	282.88
419.353	241.88
419.814	193.48
420.274	175.78
420.734	184.08
421.195	191.08
421.655	190.78
422.115	187.18
422.576	190.18
423.036	196.38
423.496	205.68
423.956	212.28
424.416	229.58
424.876	260.98
425.336	251.78
425.797	255.18
426.257	245.68
426.717	229.48
427.177	229.98
427.637	217.88
428.097	229.88
428.556	233.68
429.016	256.58
429.476	251.68
429.936	260.08
430.396	262.48
430.856	280.08
431.315	300.98
431.775	323.88
432.235	364.88
432.694	332.48
433.154	347.78
433.614	378.88
434.073	317.88
434.533	274.38
434.993	259.78
435.452	274.18
435.912	278.58
436.371	271.18
436.83	267.98
437.29	253.98
437.749	242.58
438.209	246.18
438.668	270.68
439.127	283.08
439.587	261.88
440.046	239.98
440.505	249.28
440.964	273.48
441.424	309.68
441.883	303.88
442.342	253.88
442.801	223.18
443.26	224.08
443.719	219.88
444.178	215.98
444.637	204.88
445.096	215.68
445.555	230.18
446.014	219.88
446.473	224.68
446.932	237.48
447.391	221.58
447.849	227.08
448.308	217.58
448.767	219.08
449.226	236.88
449.685	234.28
450.143	244.58
450.602	236.88
451.061	230.38
451.519	229.38
451.978	231.28
452.436	235.18
452.895	239.58
453.353	252.48
453.812	243.78
454.27	234.48
454.729	240.88
455.187	244.58
455.646	242.98
456.104	246.18
456.562	262.48
457.021	261.88
457.479	254.18
457.937	277.28
458.395	261.98
458.854	257.28
459.312	266.68
459.77	273.98
460.228	258.78
460.686	240.98
461.144	244.18
461.602	246.48
462.06	248.88
462.518	257.28
462.976	255.38
463.434	262.28
463.892	268.08
464.35	281.08
464.808	287.88
465.266	270.68
465.724	269.98
466.181	272.78
466.639	269.68
467.097	288.38
467.555	300.28
468.012	311.08
468.47	314.48
468.928	328.18
469.385	341.88
469.843	339.98
470.3	349.48
470.758	370.88
471.215	390.08
471.673	407.78
472.13	403.78
472.588	418.48
473.045	374.68
473.503	377.28
473.96	392.68
474.417	401.98
474.875	430.58
475.332	479.78
475.789	465.58
476.246	471.38
476.704	486.08
477.161	506.78
477.618	525.88
478.075	554.68
478.532	608.98
478.989	677.48
479.446	784.08
479.903	740.38
480.36	774.08
480.817	824.78
481.274	904.68
481.731	1003.38
482.188	1081.48
482.645	1184.18
483.102	1266.28
483.558	1397.68
484.015	1433.68
484.472	1410.28
484.929	1366.38
485.385	1326.98
485.842	1289.58
486.299	1256.78
486.755	1217.08
487.212	1040.78
487.668	888.08
488.125	819.88
488.582	753.78
489.038	717.58
489.494	692.68
489.951	673.38
490.407	664.38
490.864	644.48
491.32	635.48
491.776	631.08
492.233	639.48
492.689	609.68
493.145	601.48
493.602	596.88
494.058	611.88
494.514	602.08
494.97	635.68
495.426	645.38
495.882	620.28
496.338	610.08
496.794	613.98
497.251	610.58
497.707	633.08
498.163	625.78
498.618	636.78
499.074	636.78
499.53	674.88
499.986	666.08
500.442	641.68
500.898	622.38
501.354	608.38
501.809	624.78
502.265	620.88
502.721	635.08
503.177	638.98
503.632	643.18
504.088	639.38
504.543	660.98
504.999	690.28
505.455	658.18
505.91	641.48
506.366	642.68
506.821	639.28
507.277	636.38
507.732	645.28
508.187	637.28
508.643	641.68
509.098	644.28
509.553	667.98
510.009	664.68
510.464	683.18
510.919	692.38
511.375	707.88
511.83	719.48
512.285	731.28
512.74	763.38
513.195	787.98
513.65	772.88
514.105	771.78
514.56	773.38
515.015	800.68
515.47	807.28
515.925	776.18
516.38	787.68
516.835	793.58
517.29	788.88
517.745	779.38
518.2	768.78
518.655	755.38
519.109	747.18
519.564	746.28
520.019	729.58
520.474	730.98
520.928	733.38
521.383	733.98
521.838	712.28
522.292	722.18
522.747	728.08
523.201	718.48
523.656	710.48
524.11	698.88
524.565	712.48
525.019	706.28
525.474	701.18
525.928	700.78
526.382	709.68
526.837	715.38
527.291	709.08
527.745	714.88
528.2	705.58
528.654	693.68
529.108	682.48
529.562	699.28
530.016	701.58
530.47	692.78
530.925	688.08
531.379	702.18
531.833	703.28
532.287	698.18
532.741	709.78
533.195	714.78
533.649	719.48
534.103	716.48
534.556	705.88
535.01	715.48
535.464	707.88
535.918	727.18
536.372	727.28
536.826	726.28
537.279	710.78
537.733	718.28
538.187	724.18
538.64	720.48
539.094	736.48
539.548	736.18
540.001	732.58
540.455	721.88
540.908	737.78
541.362	750.88
541.815	753.58
542.269	770.88
542.722	760.98
543.175	779.08
543.629	790.28
544.082	805.88
544.536	802.98
544.989	799.88
545.442	809.18
545.895	807.88
546.349	805.38
546.802	807.98
547.255	801.88
547.708	818.98
548.161	838.48
548.614	828.98
549.067	839.38
549.52	831.78
549.973	826.48
550.426	820.08
550.879	816.08
551.332	811.08
551.785	819.58
552.238	830.88
552.691	841.58
553.144	851.68
553.596	861.88
554.049	875.28
554.502	900.88
554.955	934.28
555.407	919.08
555.86	913.68
556.313	923.78
556.765	888.68
557.218	900.48
557.67	900.48
558.123	905.78
558.576	888.78
559.028	893.88
559.48	898.38
559.933	892.78
560.385	858.88
560.838	833.68
561.29	812.78
561.742	813.18
562.195	787.88
562.647	789.88
563.099	790.68
563.551	788.98
564.004	798.08
564.456	786.48
564.908	765.88
565.36	758.78
565.812	745.18
566.264	736.78
566.716	724.58
567.168	724.28
567.62	720.28
568.072	711.08
568.524	709.38
568.976	705.18
569.428	690.68
569.88	696.28
570.332	701.78
570.784	695.78
571.235	707.68
571.687	719.58
572.139	716.18
572.59	730.98
573.042	723.98
573.494	733.68
573.945	723.78
574.397	701.38
574.849	705.78
575.3	715.48
575.752	700.88
576.203	690.78
576.655	694.78
577.106	684.78
577.557	696.08
578.009	696.38
578.46	687.48
578.912	677.38
579.363	677.48
579.814	674.08
580.265	682.78
580.717	689.38
581.168	692.28
581.619	692.88
582.07	700.78
582.521	687.28
582.972	691.78
583.423	689.28
583.875	695.58
584.326	705.48
584.777	720.98
585.227	738.38
585.678	765.78
586.129	770.18
586.58	806.98
587.031	822.78
587.482	860.38
587.933	900.08
588.384	872.68
588.834	813.88
589.285	797.18
589.736	798.28
590.186	791.98
590.637	780.88
591.088	750.08
591.538	747.08
591.989	746.18
592.439	738.58
592.89	740.08
593.34	723.08
593.791	723.08
594.241	715.18
594.692	726.58
595.142	716.08
595.593	713.98
596.043	718.88
596.493	723.08
596.943	725.28
597.394	728.98
597.844	738.98
598.294	759.98
598.744	781.98
599.195	792.88
599.645	844.48
600.095	887.08
600.545	947.88
600.995	999.08
601.445	1057.58
601.895	1113.28
602.345	1163.48
602.795	1157.38
603.245	1103.68
603.695	1041.28
604.145	983.88
604.594	932.88
605.044	890.08
605.494	822.98
605.944	777.08
606.393	763.18
606.843	751.98
607.293	755.28
607.743	743.28
608.192	765.48
608.642	776.48
609.091	773.68
609.541	782.38
609.99	781.68
610.44	772.88
610.889	725.98
611.339	716.38
611.788	699.08
612.238	712.88
612.687	727.28
613.136	721.98
613.586	731.48
614.035	718.58
614.484	740.18
614.933	728.88
615.383	722.68
615.832	727.28
616.281	716.58
616.73	691.28
617.179	671.78
617.628	651.08
618.077	655.08
618.526	646.98
618.975	639.58
619.424	630.08
619.873	621.38
620.322	626.88
620.771	611.08
621.22	616.98
621.669	600.68
622.118	608.78
622.567	598.18
623.015	583.48
623.464	578.28
623.913	577.58
624.361	571.58
624.81	566.28
625.259	572.28
625.707	574.28
626.156	577.18
626.604	580.98
627.053	575.48
627.501	585.88
627.95	585.58
628.398	602.48
628.847	589.98
629.295	589.58
629.744	587.78
630.192	582.38
630.64	576.78
631.089	571.58
631.537	551.68
631.985	546.58
632.433	552.88
632.881	544.18
633.33	550.38
633.778	540.98
634.226	528.78
634.674	551.28
635.122	555.08
635.57	571.78
636.018	582.08
636.466	580.18
636.914	576.68
637.362	590.88
637.81	594.38
638.258	598.78
638.705	605.68
639.153	629.38
639.601	642.48
640.049	671.08
640.497	697.08
640.944	702.08
641.392	668.78
641.84	626.28
642.287	602.78
642.735	590.98
643.182	572.08
643.63	583.98
644.078	584.58
644.525	600.08
644.973	595.98
645.42	611.08
645.867	631.08
646.315	647.88
646.762	668.68
647.21	696.48
647.657	732.28
648.104	754.18
648.551	776.38
648.999	835.38
649.446	909.28
649.893	998.38
650.34	1125.88
650.787	1359.18
651.234	1676.88
651.682	2170.28
652.129	2941.28
652.576	4172.68
653.023	6090.68
653.47	8184.28
653.917	10084.28
654.363	11598.28
654.81	12646.08
655.257	12025.78
655.704	7978.18
656.151	4793.58
656.598	3144.38
657.044	2268.58
657.491	1772.68
657.938	1428.08
658.385	1203.18
658.831	1051.98
659.278	952.58
659.724	839.08
660.171	791.58
660.618	721.38
661.064	690.08
661.511	668.78
661.957	664.68
662.404	652.48
662.85	664.98
663.296	635.88
663.743	564.98
664.189	551.38
664.635	548.68
665.082	543.78
665.528	544.98
665.974	540.08
666.42	531.98
666.867	522.38
667.313	500.58
667.759	486.98
668.205	466.28
668.651	466.38
669.097	465.28
669.543	456.38
669.989	460.48
670.435	457.38
670.881	458.78
671.327	469.58
671.773	485.28
672.219	510.18
672.665	566.88
673.11	608.28
673.556	654.08
674.002	690.68
674.448	688.48
674.893	570.28
675.339	492.98
675.785	461.48
676.23	435.98
676.676	405.28
677.122	395.18
677.567	392.48
678.013	392.58
678.458	383.38
678.904	376.98
679.349	364.18
679.794	363.38
680.24	365.48
680.685	366.18
681.131	371.18
681.576	363.78
682.021	369.58
682.466	366.48
682.912	370.28
683.357	379.08
683.802	407.08
684.247	434.08
684.692	482.08
685.137	520.78
685.583	567.48
686.028	594.58
686.473	545.08
686.918	462.78
687.363	439.98
687.807	420.48
688.252	382.48
688.697	365.88
689.142	351.88
689.587	350.38
690.032	345.98
690.477	357.18
690.921	368.88
691.366	398.78
691.811	427.78
692.255	458.18
692.7	482.28
693.145	538.68
693.589	749.38
694.034	1224.98
694.478	1627.98
694.923	1815.98
695.367	2336.08
695.812	1246.38
696.256	526.48
696.701	389.18
697.145	364.98
697.59	345.18
698.034	329.98
698.478	334.78
698.922	336.48
699.367	335.18
699.811	348.08
700.255	364.78
700.699	403.78
701.143	455.18
701.588	499.38
702.032	539.38
702.476	531.78
702.92	512.38
703.364	523.98
703.808	696.58
704.252	1136.78
704.696	1554.58
705.14	1745.08
705.584	2223.98
706.027	1111.28
706.471	548.58
706.915	415.08
707.359	369.98
707.803	338.28
708.246	325.68
708.69	330.58
709.134	333.18
709.577	326.98
710.021	329.68
710.465	324.48
710.908	312.38
711.352	312.88
711.795	322.68
712.239	372.48
712.682	402.68
713.126	433.88
713.569	473.88
714.012	380.88
714.456	308.98
714.899	303.08
715.342	285.68
715.786	274.68
716.229	264.78
716.672	264.78
717.115	257.08
717.558	261.48
718.002	262.78
718.445	271.08
718.888	296.68
719.331	304.38
719.774	316.18
720.217	320.28
720.66	297.88
721.103	280.58
721.546	264.18
721.989	258.68
722.432	244.98
722.874	250.28
723.317	239.88
723.76	242.48
724.203	269.38
724.645	341.88
725.088	474.38
725.531	607.18
725.974	672.48
726.416	570.08
726.859	320.38
727.301	257.48
727.744	244.98
728.187	248.78
728.629	243.88
729.071	257.18
729.514	267.68
729.956	288.08
730.399	295.98
730.841	307.28
731.283	284.98
731.726	275.38
732.168	269.88
732.61	279.98
733.053	303.98
733.495	336.28
733.937	378.58
734.379	423.68
734.821	463.88
735.263	590.58
735.705	918.28
736.148	1728.28
736.59	2765.38
737.032	3174.28
737.474	2606.88
737.916	862.58
738.357	456.68
738.799	341.48
739.241	308.38
739.683	299.48
740.125	302.18
740.567	312.48
741.008	332.38
741.45	326.78
741.892	335.58
742.334	377.48
742.775	374.88
743.217	370.78
743.658	286.08
744.1	272.78
744.542	282.98
744.983	334.08
745.425	362.58
745.866	360.48
746.307	288.48
746.749	294.08
747.19	344.28
747.632	495.08
748.073	983.18
748.514	2044.78
748.956	3026.48
749.397	3809.38
749.838	3166.28
750.279	3068.08
750.72	1581.38
751.162	594.98
751.603	337.08
752.044	271.58
752.485	231.68
752.926	219.98
753.367	210.08
753.808	206.58
754.249	194.18
754.69	195.58
755.131	197.38
755.572	193.38
756.013	191.68
756.453	195.48
756.894	198.18
757.335	197.88
757.776	210.28
758.216	204.98
758.657	203.68
759.098	209.18
759.538	234.98
759.979	286.58
760.42	407.98
760.86	798.18
761.301	2060.98
761.741	4819.38
762.182	6667.48
762.622	4732.78
763.063	1392.68
763.503	563.28
763.943	348.58
764.384	286.58
764.824	270.78
765.264	251.38
765.705	220.08
766.145	189.08
766.585	184.98
767.025	179.58
767.465	174.08
767.906	190.68
768.346	211.98
768.786	224.58
769.226	235.58
769.666	331.08
770.106	686.68
770.546	1721.18
770.986	2761.28
771.426	2460.78
771.866	831.58
772.306	352.68
772.745	215.48
773.185	179.08
773.625	165.88
774.065	161.58
774.505	168.28
774.944	218.68
775.384	389.68
775.824	623.78
776.263	588.78
776.703	292.18
777.142	168.78
777.582	139.98
778.021	128.18
778.461	136.08
778.9	130.28
779.34	137.08
779.779	120.38
780.219	112.18
780.658	107.48
781.097	114.48
781.537	116.48
781.976	112.18
782.415	105.38
782.855	103.38
783.294	109.48
783.733	116.38
784.172	114.68
784.611	106.78
785.05	115.28
785.489	115.58
785.928	112.18
786.367	127.08
786.806	126.48
787.245	129.78
787.684	144.28
788.123	151.28
788.562	139.08
789.001	133.58
789.44	126.78
789.879	118.38
790.317	119.78
790.756	135.08
791.195	137.98
791.634	157.68
792.072	219.88
792.511	403.58
792.95	1102.38
793.388	2236.08
793.827	1974.58
794.265	708.58
794.704	297.58
795.142	195.58
795.581	153.78
796.019	142.58
796.458	133.28
796.896	133.88
797.334	135.18
797.773	167.18
798.211	244.48
798.649	483.58
799.087	1102.48
799.526	1701.08
799.964	2139.68
800.402	2080.18
800.84	797.38
801.278	321.98
801.716	202.38
802.154	164.98
802.592	149.58
803.03	147.58
803.468	146.08
803.906	148.88
804.344	159.28
804.782	151.68
805.22	144.08
805.658	134.58
806.096	160.48
806.533	170.08
806.971	190.28
807.409	238.78
807.847	354.48
808.284	737.98
808.722	2036.78
809.16	3483.38
809.597	3440.68
810.035	5838.78
810.472	5958.38
810.91	2214.08
811.347	853.88
811.785	438.08
812.222	276.08
812.66	212.28
813.097	174.18
813.535	148.68
813.972	134.58
814.409	118.18
814.846	120.68
815.284	119.18
815.721	105.18
816.158	113.58
816.595	116.18
817.032	166.08
817.47	184.38
817.907	134.78
818.344	104.18
818.781	103.88
819.218	95.98
819.655	133.58
820.092	200.38
820.529	225.08
820.966	177.28
821.403	130.28
821.839	97.88
822.276	98.88
822.713	132.28
823.15	142.88
823.587	120.28
824.023	161.48
824.46	340.38
824.897	976.58
825.333	1400.38
825.77	619.08
826.206	247.68
826.643	149.88
827.08	116.28
827.516	88.28
827.953	82.08
828.389	90.08
828.825	73.08
829.262	67.68
829.698	63.48
830.135	67.88
830.571	68.38
831.007	67.68
831.443	64.68
831.88	61.38
832.316	63.08
832.752	69.98
833.188	65.98
833.624	56.28
834.06	68.08
834.497	70.28
834.933	77.88
835.369	78.08
835.805	68.18
836.241	81.48
836.677	78.48
837.112	87.78
837.548	110.38
837.984	143.58
838.42	214.28
838.856	547.68
839.292	1648.78
839.727	2391.48
840.163	1135.28
840.599	1026.08
841.034	2186.98
841.47	2191.78
841.906	823.58
842.341	356.78
842.777	209.48
843.212	210.58
843.648	191.48
844.083	115.38
844.519	85.18
844.954	76.08
845.39	57.28
845.825	62.08
846.261	62.18
846.696	59.78
847.131	52.58
847.566	60.08
848.002	51.38
848.437	51.38
848.872	63.68
849.307	65.98
849.742	93.98
850.177	199.58
850.613	606.28
851.048	914.08
851.483	400.08
851.918	162.98
852.353	89.08
852.788	57.88
853.223	53.38
853.657	59.28
854.092	50.48
854.527	41.98
854.962	44.38
855.397	43.48
855.832	51.48
856.266	42.78
856.701	43.68
857.136	47.78
857.57	39.88
858.005	56.98
858.44	60.38
858.874	45.88
859.309	54.88
859.743	37.58
860.178	52.78
860.612	41.78
861.047	51.78
861.481	68.78
861.915	74.28
862.35	51.78
862.784	34.78
863.218	36.58
863.653	32.28
864.087	49.78
864.521	51.68
864.955	74.68
865.39	162.58
865.824	183.68
866.258	121.08
866.692	184.18
867.126	186.98
867.56	116.08
867.994	58.28
868.428	38.98
868.862	50.38
869.296	60.88
869.73	61.98
870.164	58.98
870.598	51.18
871.031	36.18
871.465	30.38
871.899	34.88
872.333	25.88
872.766	19.78
873.2	19.28
873.634	29.38
874.067	28.68
874.501	25.68
874.935	30.38
875.368	36.08
875.802	28.08
876.235	26.48
876.669	27.78
877.102	26.38
877.535	25.08
877.969	24.58
878.402	23.08
878.836	19.68
879.269	23.28
879.702	20.88
880.135	23.28
880.569	20.58
881.002	24.88
881.435	21.68
881.868	21.98
882.301	25.98
882.734	18.78
883.167	25.18
883.601	19.18
884.034	23.28
884.467	10.98
884.899	19.98
885.332	21.28
885.765	18.68
886.198	18.78
886.631	22.68
887.064	19.68
887.497	18.78
887.929	31.68
888.362	12.58
888.795	12.28
889.228	18.28
889.66	21.78
890.093	16.48
890.526	15.08
890.958	15.68
891.391	18.38
891.823	21.28
892.256	17.48
892.688	9.78
893.121	11.58
893.553	13.68
893.985	24.18
894.418	13.48
894.85	8.78
895.282	20.58
895.715	13.68
896.147	20.88
896.579	18.38
897.011	13.48
897.444	12.38
897.876	15.68
898.308	17.48
898.74	10.38
899.172	11.18
899.604	24.68
900.036	19.48
900.468	13.38
900.9	13.48
901.332	19.08
901.764	19.78
902.196	17.78
902.628	18.98
903.06	22.88
903.491	29.78
903.923	24.28
904.355	17.28
904.787	24.58
905.218	26.18
905.65	24.98
906.082	9.08
906.513	13.78
906.945	12.58
907.376	16.98
907.808	21.98
908.239	27.28
908.671	19.78
909.102	21.68
909.534	27.88
909.965	48.08
910.397	99.38
910.828	334.38
911.259	494.18
911.691	225.18
912.122	113.68
912.553	61.68
912.984	34.18
913.415	30.18
913.847	27.48
914.278	20.98
914.709	12.28
915.14	20.18
915.571	20.78
916.002	13.28
916.433	17.28
916.864	14.28
917.295	14.88
917.726	17.78
918.157	14.38
918.587	30.78
919.018	26.28
919.449	21.88
919.88	27.88
920.311	39.48
920.741	56.48
921.172	174.58
921.603	155.28
922.033	75.58
922.464	49.08
922.895	23.48
923.325	23.28
923.756	14.88
924.186	8.98
924.617	17.78
925.047	20.98
925.478	24.98
925.908	16.58
926.338	7.18
926.769	8.98
927.199	15.38
927.629	7.68
928.06	15.38
928.49	16.08
928.92	8.38
929.35	8.98
929.78	10.98
930.21	6.58
930.641	6.58
931.071	10.18
931.501	7.48
931.931	11.58
932.361	12.78
932.791	7.58
933.221	9.08
933.651	5.08
934.08	14.48
934.51	28.78
934.94	15.58
935.37	6.98
935.8	8.58
936.229	11.48
936.659	10.28
937.089	5.18
937.519	12.28
937.948	25.18
938.378	21.08
938.807	15.98
939.237	7.08
939.666	9.68
940.096	-10.12
940.525	3.78
940.955	0.08
941.384	6.28
941.814	-6.52
942.243	0.58
942.672	1.98
943.102	-3.62
943.531	4.58
943.96	8.58
944.39	0.98
944.819	-1.72
945.248	1.28
945.677	2.68
946.106	5.98
946.535	5.58
946.964	-1.32
947.393	4.78
947.822	-1.52
948.251	-4.22
948.68	5.18
949.109	4.38
949.538	5.08
949.967	-3.12
950.396	0.78
950.825	-1.02
951.254	3.08
951.682	-5.02
952.111	1.48
952.54	11.28
952.969	-7.82
953.397	-3.52
953.826	-1.02
954.254	-6.22
954.683	2.98
955.112	-0.62
955.54	2.38
955.969	-1.62
956.397	-3.72
956.826	-2.42
957.254	4.58
957.682	-1.52
958.111	0.88
958.539	-0.72
958.967	0.98
959.396	-3.92
959.824	1.88
960.252	6.88
960.68	-6.62
961.109	-1.62
961.537	-0.92
961.965	1.78
962.393	4.58
962.821	-5.82
963.249	1.18
963.677	1.78
964.105	7.38
964.533	51.08
964.961	41.38
965.389	18.58
965.817	6.38
966.245	4.48
966.672	1.78
967.1	-8.82
967.528	-5.42
967.956	-3.22
968.383	2.68
968.811	-3.32
969.239	-7.22
969.666	-6.02
970.094	5.68
970.522	6.48
970.949	-0.12
971.377	-2.92
971.804	-9.52
972.232	-3.62
972.659	-2.82
973.087	-0.12
973.514	-1.02
973.941	-0.92
974.369	0.08
974.796	0.68
975.223	4.78
975.651	0.28
976.078	1.88
976.505	-3.12
976.932	-1.32
977.359	16.78
977.786	10.88
978.214	-1.92
978.641	-7.72
979.068	-4.42
979.495	2.78
979.922	1.88
980.349	-10.22
980.776	5.48
981.202	-2.62
981.629	6.18
982.056	5.38
982.483	-4.02
982.91	2.08
983.337	-10.62
983.763	-0.12
984.19	-7.52
984.617	-5.72
985.043	-7.32
985.47	-1.92
985.897	-5.22
986.323	-12.92
986.75	3.58
987.176	2.28
987.603	-1.22
988.029	-2.42
988.456	-2.32
988.882	2.88
989.308	-3.82
989.735	-1.72
990.161	1.48
990.587	-4.12
991.014	-6.72
991.44	3.48
991.866	-6.22
992.292	-5.62
992.719	-7.12
993.145	4.78
993.571	-10.22
993.997	-0.12
994.423	-4.52
994.849	-3.22
995.275	-1.52
995.701	-0.22
996.127	-3.92
996.553	3.18
996.979	-4.22
997.405	-2.82
997.83	-8.42
998.256	-3.02
998.682	-7.52
999.108	-4.72
999.534	-3.92
999.959	4.08
1000.385	-5.72
1000.811	-2.32
1001.236	-10.22
1001.662	-11.42
1002.087	-5.62
1002.513	4.28
1002.938	1.98
1003.364	-1.62
1003.789	-0.92
1004.215	-1.22
1004.64	-7.12
1005.066	-1.22
1005.491	3.98
1005.916	-0.82
1006.342	-5.82
1006.767	-7.02
1007.192	1.68
1007.617	-3.62
1008.042	-9.12
1008.468	-4.32
1008.893	-5.92
1009.318	-5.32
1009.743	-6.32
1010.168	2.08
1010.593	3.18
1011.018	-5.12
1011.443	-4.72
1011.868	3.98
1012.293	1.28
1012.718	-8.42
1013.143	3.68
1013.567	1.98
1013.992	-1.02
1014.417	-9.62
1014.842	-3.52
1015.267	-4.82
1015.691	-0.32
1016.116	5.58
1016.541	0.88
1016.965	1.58
1017.39	-3.12
1017.814	-9.12
1018.239	-5.12
1018.663	-4.02
1019.088	-11.72
1019.512	-7.22
1019.937	-3.42
1020.361	-5.32
1020.785	-8.52
1021.21	0.28
1021.634	-4.12
1022.058	-0.72
1022.483	5.58
1022.907	-4.82
1023.331	-3.12
1023.755	-6.82
1024.179	-0.42
1024.604	-6.92
1025.028	-5.92
1025.452	-2.52
1025.876	3.68
1026.3	2.28
1026.724	-12.22
1027.148	-3.42
1027.572	-6.52
1027.996	-8.42
1028.42	-6.02
1028.843	-0.32
1029.267	-8.32
1029.691	-10.42
1030.115	-9.92
1030.539	-11.62
1030.962	-3.32
1031.386	-12.02
1031.81	-4.52
1032.233	0.48
1032.657	-2.82
1033.08	-4.62
1033.504	-4.02
1033.927	-7.12
1034.351	-1.42
1034.774	-8.52
1035.198	-5.42
1035.621	-5.72
1036.045	-10.92
1036.468	4.18
1036.891	-9.42
1037.315	-8.92
1037.738	-11.72
1038.161	-0.42
1038.584	-7.92
1039.008	-2.72
1039.431	-7.12
1039.854	-1.32
1040.277	-7.12
1040.7	-7.82
1041.123	0.18
1041.546	-12.02
1041.969	-1.52
1042.392	-6.62
1042.815	-4.02
1043.238	-0.92
1043.661	-2.22
1044.084	-9.72
1044.507	-10.72
1044.93	-7.02
1045.352	-8.92
1045.775	-0.92
1046.198	0.58
1046.621	-0.82
1047.043	-2.72
1047.466	3.28
1047.889	-2.12
1048.311	-8.42
1048.734	-0.12
1049.156	-1.42
1049.579	-8.32
1050.001	-7.92
1050.424	-1.32
1050.846	-5.42
1051.269	-8.82
1051.691	-10.02
1052.113	-7.12
1052.536	-9.42
1052.958	3.98
1053.38	-2.92
1053.802	-11.32
1054.225	-1.92
1054.647	-8.22
1055.069	-7.02
1055.491	-3.12
1055.913	-7.32
1056.335	0.28
1056.757	-11.72
1057.179	-8.62
1057.601	-5.22
1058.023	0.18
1058.445	-4.42
1058.867	-3.92
1059.289	-9.72
1059.711	-10.72
1060.133	-1.02
1060.555	-4.92
1060.976	-11.22
1061.398	-11.72
1061.82	-5.92
1062.241	-4.52
1062.663	-12.52
1063.085	-14.62
1063.506	1.78
1063.928	-4.62
1064.35	-1.22
1064.771	-9.62
1065.193	-3.62
1065.614	-14.22
1066.035	0.58
1066.457	-3.62
1066.878	-0.32
1067.3	-8.12
1067.721	-5.62
1068.142	-3.12
1068.564	-2.32
1068.985	-9.42
1069.406	-3.32
1069.827	-1.52
1070.248	-0.42
1070.67	-4.52
1071.091	-1.22
1071.512	-4.82
1071.933	-5.72
1072.354	-8.02
1072.775	-6.42
1073.196	-4.02
1073.617	-2.42
1074.038	-4.62
1074.459	-1.92
1074.88	-4.32
1075.3	-0.52
1075.721	-1.82
1076.142	1.68
1076.563	5.18
1076.983	-14.92
1077.404	-7.52
1077.825	-9.12
1078.246	-3.72
1078.666	-11.02
1079.087	-8.82
1079.507	-9.92
1079.928	-3.52
1080.348	-1.32
1080.769	-9.62
1081.189	-0.72
1081.61	-3.32
1082.03	-5.82
1082.451	-8.72
1082.871	-6.32
1083.291	-8.92
1083.711	-8.12
1084.132	-9.12
1084.552	-2.42
1084.972	-1.02
1085.392	-12.32
1085.813	-14.92
1086.233	-9.62
1086.653	-11.22
1087.073	-1.52
1087.493	-2.02
1087.913	-7.52
1088.333	-8.42
1088.753	-2.92
1089.173	2.38
1089.593	-0.12
1090.013	0.68
1090.433	0.48
1090.852	-4.12
1091.272	-3.72
1091.692	-6.72
1092.112	-10.52
1092.531	-12.52
1092.951	-15.32
1093.371	-7.42
1093.79	-2.72
1094.21	-5.22
1094.63	-6.82
1095.049	-5.62
1095.469	-0.42
1095.888	0.68
1096.308	3.38
1096.727	4.88
1097.146	-11.72
1097.566	2.98
1097.985	-7.02
1098.405	-4.42
1098.824	-3.52
1099.243	-1.92
1099.662	-9.52
1100.082	-2.82
1100.501	-2.72
1100.92	-6.92
1101.339	-5.12
1101.758	-6.12
