Data from 20171114-ORNL-Ar_H_NY_Subt18_08-07-42-354.txt Node
Date: Tue Nov 14 08:07:42 EST 2017
User: Ender
Spectrometer: HR+D1039
Trigger mode: 0
Integration Time (sec): 2.730000E-2
Scans to average: 10
Electric dark correction enabled: true
Nonlinearity correction enabled: false
Boxcar width: 0
XAxis mode: Wavelengths
Number of Pixels in Spectrum: 2048
>>>>>Begin Spectral Data<<<<<
187.836	-7.57
188.309	-7.57
188.782	-7.57
189.255	2.23
189.728	-3.77
190.201	4.93
190.674	1.13
191.147	2.03
191.619	-3.17
192.092	5.33
192.565	5.73
193.038	0.33
193.511	-1.87
193.984	-0.27
194.456	-5.37
194.929	3.43
195.402	-3.87
195.874	0.73
196.347	0.03
196.82	-3.57
197.292	3.33
197.765	-4.67
198.237	-8.07
198.71	1.03
199.182	-3.57
199.655	0.33
200.127	5.03
200.6	-1.67
201.072	-4.07
201.544	-4.27
202.017	-0.47
202.489	1.73
202.961	0.03
203.433	-1.57
203.906	-6.97
204.378	-5.27
204.85	-1.27
205.322	-12.17
205.794	-3.77
206.266	-6.67
206.739	-8.87
207.211	-0.27
207.683	-5.97
208.155	-4.37
208.627	-3.67
209.099	-4.27
209.57	-11.87
210.042	-11.97
210.514	-3.47
210.986	2.43
211.458	-12.27
211.93	-4.97
212.402	1.33
212.873	-6.77
213.345	-8.47
213.817	-10.67
214.288	-2.37
214.76	-13.27
215.232	-1.67
215.703	-5.07
216.175	-9.17
216.646	-4.87
217.118	-7.47
217.589	-5.87
218.061	-2.17
218.532	-6.37
219.004	-0.67
219.475	-3.57
219.946	-3.27
220.418	-5.17
220.889	0.03
221.36	-1.97
221.832	-0.07
222.303	-6.57
222.774	-0.37
223.245	-10.27
223.717	-11.67
224.188	-4.47
224.659	-6.67
225.13	-11.77
225.601	-1.67
226.072	-5.17
226.543	0.73
227.014	-0.87
227.485	4.73
227.956	-8.57
228.427	-3.87
228.898	4.53
229.369	7.73
229.839	-3.97
230.31	-3.97
230.781	1.13
231.252	-1.87
231.722	-3.67
232.193	-4.17
232.664	1.73
233.135	5.83
233.605	3.93
234.076	-0.47
234.546	0.33
235.017	8.33
235.487	-0.47
235.958	-5.57
236.428	-1.67
236.899	2.03
237.369	1.53
237.84	-2.57
238.31	4.23
238.78	2.93
239.251	-4.67
239.721	2.23
240.191	-7.37
240.662	0.93
241.132	2.63
241.602	-5.27
242.072	2.53
242.542	3.13
243.013	1.23
243.483	-0.47
243.953	3.73
244.423	-5.17
244.893	-5.47
245.363	2.53
245.833	-1.47
246.303	-4.27
246.773	13.63
247.243	-2.47
247.712	6.43
248.182	5.53
248.652	8.13
249.122	-2.07
249.592	13.03
250.061	12.23
250.531	29.73
251.001	16.33
251.471	19.23
251.94	14.43
252.41	3.03
252.879	5.03
253.349	9.23
253.818	10.63
254.288	3.93
254.757	1.03
255.227	0.13
255.696	2.23
256.166	0.03
256.635	-1.37
257.105	5.23
257.574	4.63
258.043	7.63
258.513	8.13
258.982	14.83
259.451	3.83
259.92	11.43
260.389	4.33
260.859	10.83
261.328	15.03
261.797	15.63
262.266	2.03
262.735	16.13
263.204	4.43
263.673	5.23
264.142	5.13
264.611	-2.37
265.08	0.23
265.549	2.13
266.018	6.63
266.487	-3.57
266.955	-3.97
267.424	-2.97
267.893	3.43
268.362	-1.87
268.83	2.53
269.299	5.43
269.768	6.83
270.236	5.73
270.705	6.23
271.174	1.63
271.642	7.43
272.111	3.03
272.579	12.13
273.048	19.93
273.516	27.33
273.985	26.63
274.453	21.23
274.922	15.53
275.39	3.73
275.858	3.03
276.327	4.23
276.795	11.43
277.263	11.63
277.731	20.23
278.2	46.13
278.668	48.13
279.136	41.63
279.604	18.33
280.072	13.93
280.54	13.23
281.008	12.13
281.477	13.83
281.945	7.53
282.413	15.33
282.881	11.43
283.348	6.23
283.816	10.13
284.284	13.73
284.752	19.03
285.22	7.53
285.688	13.83
286.156	19.63
286.623	37.83
287.091	40.23
287.559	23.93
288.026	16.03
288.494	10.23
288.962	4.63
289.429	9.23
289.897	16.33
290.364	10.23
290.832	15.23
291.3	14.63
291.767	15.03
292.234	14.63
292.702	14.33
293.169	14.73
293.637	26.03
294.104	13.23
294.571	6.63
295.039	12.43
295.506	9.33
295.973	18.63
296.44	12.43
296.908	14.33
297.375	14.83
297.842	14.93
298.309	9.13
298.776	3.63
299.243	18.23
299.71	8.23
300.177	14.23
300.644	15.63
301.111	14.83
301.578	16.93
302.045	19.73
302.512	21.83
302.979	22.93
303.446	25.33
303.913	14.83
304.379	13.63
304.846	24.73
305.313	19.43
305.78	15.93
306.246	17.53
306.713	23.23
307.18	25.03
307.646	23.23
308.113	29.03
308.579	17.33
309.046	19.93
309.512	22.43
309.979	10.53
310.445	25.23
310.912	25.63
311.378	29.63
311.845	23.13
312.311	23.13
312.777	28.43
313.244	22.73
313.71	30.23
314.176	24.23
314.642	27.03
315.109	27.93
315.575	25.13
316.041	35.43
316.507	31.63
316.973	33.93
317.439	24.83
317.905	26.63
318.371	30.33
318.837	29.23
319.303	26.83
319.769	36.53
320.235	28.23
320.701	30.03
321.167	31.23
321.633	34.83
322.099	33.23
322.564	42.23
323.03	35.43
323.496	34.03
323.962	34.53
324.427	29.53
324.893	42.43
325.359	38.73
325.824	33.83
326.29	28.23
326.755	27.03
327.221	36.33
327.686	37.93
328.152	40.63
328.617	31.33
329.083	41.13
329.548	39.33
330.014	44.93
330.479	35.03
330.944	33.73
331.41	40.73
331.875	39.23
332.34	39.43
332.805	42.63
333.271	45.43
333.736	38.83
334.201	39.83
334.666	47.43
335.131	55.93
335.596	50.13
336.061	47.13
336.526	38.33
336.991	49.03
337.456	46.73
337.921	43.53
338.386	33.83
338.851	44.33
339.316	36.13
339.781	44.03
340.246	42.13
340.711	37.83
341.175	39.73
341.64	39.73
342.105	42.23
342.569	51.33
343.034	51.63
343.499	57.33
343.963	47.33
344.428	62.13
344.893	54.23
345.357	53.33
345.822	55.23
346.286	59.53
346.751	66.83
347.215	55.43
347.679	62.83
348.144	91.43
348.608	70.23
349.073	61.53
349.537	69.53
350.001	62.03
350.465	80.03
350.93	67.53
351.394	77.63
351.858	70.23
352.322	83.43
352.786	71.13
353.25	83.83
353.715	100.33
354.179	87.13
354.643	108.23
355.107	106.83
355.571	96.13
356.035	87.63
356.498	103.93
356.962	113.03
357.426	117.33
357.89	108.33
358.354	80.83
358.818	73.33
359.281	68.53
359.745	68.93
360.209	73.93
360.673	67.93
361.136	77.53
361.6	77.93
362.064	78.23
362.527	75.23
362.991	84.13
363.454	73.13
363.918	63.93
364.381	64.03
364.845	78.13
365.308	81.83
365.772	74.33
366.235	78.93
366.698	73.23
367.162	76.53
367.625	73.23
368.088	80.03
368.552	76.13
369.015	80.33
369.478	86.23
369.941	89.73
370.404	89.83
370.867	100.63
371.331	99.73
371.794	102.13
372.257	102.43
372.72	103.33
373.183	100.73
373.646	88.93
374.109	92.43
374.572	100.43
375.035	98.93
375.497	104.73
375.96	93.03
376.423	97.73
376.886	102.53
377.349	102.63
377.811	95.63
378.274	102.63
378.737	95.23
379.199	100.03
379.662	101.03
380.125	104.23
380.587	114.23
381.05	118.83
381.512	120.33
381.975	119.43
382.437	118.13
382.9	118.93
383.362	125.33
383.825	133.33
384.287	142.13
384.75	129.03
385.212	124.03
385.674	126.93
386.136	129.83
386.599	119.73
387.061	115.73
387.523	123.93
387.985	125.83
388.447	131.53
388.91	134.43
389.372	142.73
389.834	146.33
390.296	134.93
390.758	145.53
391.22	159.83
391.682	194.03
392.144	274.23
392.606	216.63
393.068	158.03
393.529	159.53
393.991	140.03
394.453	135.63
394.915	143.83
395.377	180.43
395.838	208.43
396.3	143.93
396.762	138.63
397.224	124.53
397.685	117.73
398.147	131.53
398.608	123.73
399.07	123.13
399.531	136.33
399.993	127.33
400.454	142.53
400.916	131.53
401.377	134.83
401.839	140.93
402.3	142.33
402.762	157.03
403.223	167.13
403.684	162.93
404.145	152.63
404.607	150.63
405.068	152.13
405.529	158.23
405.99	176.13
406.451	169.43
406.913	169.13
407.374	147.43
407.835	152.53
408.296	157.43
408.757	165.73
409.218	177.23
409.679	168.83
410.14	162.13
410.601	168.43
411.062	171.63
411.522	184.53
411.983	173.63
412.444	163.03
412.905	172.93
413.366	171.63
413.826	188.03
414.287	206.23
414.748	247.73
415.208	233.93
415.669	203.83
416.13	187.63
416.59	188.03
417.051	198.03
417.511	207.03
417.972	229.53
418.432	232.53
418.893	268.33
419.353	237.13
419.814	187.73
420.274	176.03
420.734	171.93
421.195	187.93
421.655	187.23
422.115	177.43
422.576	182.83
423.036	186.63
423.496	193.93
423.956	210.73
424.416	215.93
424.876	247.43
425.336	246.43
425.797	247.43
426.257	238.93
426.717	228.83
427.177	226.63
427.637	205.53
428.097	229.63
428.556	232.63
429.016	259.83
429.476	256.03
429.936	264.63
430.396	264.43
430.856	278.73
431.315	301.73
431.775	331.73
432.235	367.13
432.694	335.13
433.154	335.43
433.614	379.03
434.073	319.43
434.533	269.43
434.993	256.93
435.452	271.13
435.912	288.13
436.371	273.83
436.83	271.03
437.29	261.83
437.749	234.03
438.209	241.23
438.668	259.73
439.127	268.93
439.587	252.43
440.046	239.13
440.505	253.13
440.964	259.83
441.424	309.53
441.883	299.43
442.342	254.83
442.801	215.23
443.26	218.23
443.719	209.73
444.178	205.33
444.637	199.33
445.096	212.63
445.555	213.43
446.014	215.93
446.473	215.13
446.932	222.43
447.391	219.93
447.849	223.53
448.308	206.93
448.767	210.63
449.226	223.33
449.685	225.03
450.143	235.53
450.602	228.53
451.061	210.03
451.519	219.03
451.978	222.33
452.436	225.23
452.895	230.93
453.353	247.53
453.812	234.63
454.27	234.43
454.729	223.73
455.187	231.63
455.646	236.73
456.104	244.43
456.562	254.33
457.021	250.33
457.479	249.23
457.937	262.23
458.395	252.33
458.854	235.43
459.312	243.83
459.77	263.73
460.228	246.83
460.686	230.33
461.144	242.63
461.602	236.73
462.06	232.93
462.518	245.13
462.976	249.43
463.434	249.43
463.892	253.63
464.35	264.83
464.808	282.33
465.266	259.63
465.724	254.33
466.181	257.23
466.639	260.13
467.097	274.33
467.555	290.83
468.012	283.93
468.47	291.13
468.928	308.53
469.385	326.43
469.843	337.93
470.3	331.03
470.758	349.93
471.215	370.53
471.673	387.53
472.13	395.13
472.588	406.63
473.045	362.13
473.503	357.83
473.96	370.83
474.417	391.53
474.875	415.73
475.332	454.93
475.789	444.13
476.246	457.43
476.704	470.33
477.161	491.53
477.618	501.93
478.075	538.53
478.532	600.33
478.989	666.03
479.446	770.43
479.903	747.23
480.36	777.93
480.817	824.93
481.274	924.83
481.731	1034.33
482.188	1105.83
482.645	1249.83
483.102	1349.23
483.558	1464.63
484.015	1521.13
484.472	1502.83
484.929	1456.43
485.385	1406.23
485.842	1361.43
486.299	1290.33
486.755	1247.93
487.212	1053.63
487.668	894.53
488.125	816.63
488.582	755.23
489.038	715.03
489.494	684.63
489.951	655.03
490.407	638.83
490.864	620.93
491.32	614.43
491.776	613.03
492.233	619.03
492.689	588.93
493.145	583.63
493.602	583.23
494.058	587.53
494.514	602.03
494.97	626.63
495.426	620.33
495.882	603.83
496.338	587.33
496.794	599.23
497.251	591.63
497.707	602.73
498.163	616.23
498.618	625.23
499.074	621.93
499.53	645.43
499.986	646.03
500.442	627.13
500.898	609.53
501.354	597.33
501.809	610.73
502.265	619.23
502.721	637.43
503.177	650.53
503.632	646.73
504.088	661.53
504.543	694.73
504.999	681.03
505.455	632.73
505.91	613.23
506.366	616.03
506.821	599.63
507.277	604.83
507.732	596.63
508.187	598.23
508.643	609.43
509.098	614.23
509.553	631.83
510.009	639.63
510.464	652.23
510.919	660.13
511.375	667.03
511.83	692.63
512.285	704.43
512.74	732.53
513.195	754.73
513.65	750.83
514.105	742.43
514.56	746.13
515.015	763.23
515.47	789.43
515.925	764.43
516.38	762.83
516.835	768.53
517.29	766.53
517.745	749.53
518.2	733.83
518.655	726.63
519.109	715.83
519.564	723.13
520.019	709.53
520.474	702.03
520.928	695.93
521.383	692.03
521.838	680.83
522.292	683.83
522.747	694.23
523.201	678.13
523.656	665.43
524.11	662.03
524.565	666.83
525.019	666.33
525.474	678.33
525.928	680.23
526.382	675.53
526.837	675.13
527.291	677.23
527.745	678.63
528.2	679.63
528.654	661.33
529.108	670.33
529.562	672.53
530.016	660.73
530.47	665.13
530.925	666.93
531.379	672.23
531.833	676.73
532.287	680.13
532.741	678.13
533.195	691.63
533.649	690.03
534.103	696.33
534.556	696.33
535.01	687.73
535.464	687.73
535.918	699.03
536.372	694.63
536.826	697.43
537.279	675.73
537.733	689.33
538.187	698.53
538.64	700.63
539.094	698.03
539.548	707.33
540.001	696.63
540.455	699.33
540.908	708.13
541.362	722.13
541.815	727.63
542.269	741.63
542.722	736.83
543.175	745.23
543.629	745.83
544.082	758.33
544.536	770.23
544.989	760.03
545.442	766.03
545.895	770.43
546.349	764.03
546.802	768.43
547.255	775.83
547.708	791.53
548.161	793.53
548.614	792.93
549.067	811.83
549.52	789.53
549.973	784.93
550.426	782.93
550.879	775.73
551.332	774.23
551.785	773.83
552.238	791.83
552.691	798.03
553.144	803.53
553.596	823.03
554.049	838.93
554.502	868.53
554.955	887.13
555.407	873.13
555.86	886.33
556.313	860.43
556.765	860.33
557.218	859.53
557.67	850.03
558.123	851.43
558.576	856.93
559.028	849.63
559.48	863.63
559.933	849.23
560.385	814.83
560.838	793.93
561.29	773.93
561.742	757.63
562.195	752.43
562.647	740.93
563.099	750.93
563.551	752.33
564.004	756.23
564.456	753.63
564.908	738.63
565.36	734.43
565.812	716.53
566.264	702.93
566.716	721.23
567.168	699.03
567.62	705.83
568.072	693.83
568.524	683.93
568.976	673.73
569.428	655.13
569.88	651.53
570.332	660.53
570.784	669.33
571.235	674.63
571.687	675.93
572.139	692.23
572.59	690.73
573.042	687.93
573.494	684.53
573.945	692.33
574.397	663.43
574.849	673.63
575.3	676.63
575.752	662.53
576.203	661.73
576.655	669.53
577.106	659.03
577.557	652.53
578.009	649.93
578.46	660.03
578.912	648.13
579.363	649.93
579.814	650.33
580.265	638.13
580.717	653.33
581.168	655.53
581.619	662.43
582.07	659.53
582.521	659.23
582.972	654.43
583.423	663.13
583.875	671.93
584.326	686.13
584.777	737.03
585.227	811.93
585.678	887.93
586.129	975.73
586.58	1034.83
587.031	1108.43
587.482	1263.13
587.933	1436.33
588.384	1250.13
588.834	935.83
589.285	786.03
589.736	763.23
590.186	763.63
590.637	758.73
591.088	730.93
591.538	717.73
591.989	706.43
592.439	713.83
592.89	708.43
593.34	700.53
593.791	698.43
594.241	691.73
594.692	697.53
595.142	683.33
595.593	687.43
596.043	697.43
596.493	706.23
596.943	702.13
597.394	702.83
597.844	700.13
598.294	719.73
598.744	735.83
599.195	754.13
599.645	796.63
600.095	836.83
600.545	896.23
600.995	949.13
601.445	1010.13
601.895	1057.13
602.345	1105.23
602.795	1092.53
603.245	1041.43
603.695	991.23
604.145	935.53
604.594	888.43
605.044	845.13
605.494	786.93
605.944	745.73
606.393	732.33
606.843	709.43
607.293	706.93
607.743	718.93
608.192	725.73
608.642	748.13
609.091	751.43
609.541	766.83
609.99	753.53
610.44	757.33
610.889	709.33
611.339	683.03
611.788	668.53
612.238	687.83
612.687	698.33
613.136	706.53
613.586	718.73
614.035	730.13
614.484	742.03
614.933	744.33
615.383	737.93
615.832	733.83
616.281	701.03
616.73	674.33
617.179	653.83
617.628	639.03
618.077	619.53
618.526	615.23
618.975	600.33
619.424	602.63
619.873	597.73
620.322	606.03
620.771	596.33
621.22	595.43
621.669	581.13
622.118	580.53
622.567	570.53
623.015	563.63
623.464	565.33
623.913	549.03
624.361	544.33
624.81	544.83
625.259	544.93
625.707	539.23
626.156	549.73
626.604	559.33
627.053	550.23
627.501	562.03
627.95	552.13
628.398	568.53
628.847	554.03
629.295	568.43
629.744	560.63
630.192	556.23
630.64	560.13
631.089	555.33
631.537	565.63
631.985	575.93
632.433	589.33
632.881	596.53
633.33	639.93
633.778	633.23
634.226	559.13
634.674	568.53
635.122	559.63
635.57	585.23
636.018	602.03
636.466	572.93
636.914	556.93
637.362	568.03
637.81	563.93
638.258	573.13
638.705	573.13
639.153	596.93
639.601	602.33
640.049	630.33
640.497	668.63
640.944	674.23
641.392	631.43
641.84	597.13
642.287	572.23
642.735	555.03
643.182	559.13
643.63	573.53
644.078	571.53
644.525	586.43
644.973	592.73
645.42	587.53
645.867	617.93
646.315	623.83
646.762	653.93
647.21	678.23
647.657	708.13
648.104	738.93
648.551	758.13
648.999	827.23
649.446	910.43
649.893	994.43
650.34	1144.43
650.787	1377.73
651.234	1708.43
651.682	2225.83
652.129	3055.63
652.576	4431.43
653.023	6496.83
653.47	8875.23
653.917	11046.13
654.363	12725.13
654.81	13974.53
655.257	13300.63
655.704	8698.13
656.151	5158.43
656.598	3341.13
657.044	2350.33
657.491	1825.93
657.938	1446.53
658.385	1214.83
658.831	1061.33
659.278	946.33
659.724	844.63
660.171	781.93
660.618	703.73
661.064	676.53
661.511	651.63
661.957	638.53
662.404	627.43
662.85	651.13
663.296	617.33
663.743	550.43
664.189	536.43
664.635	520.03
665.082	516.13
665.528	516.93
665.974	513.23
666.42	509.03
666.867	493.53
667.313	484.63
667.759	469.43
668.205	472.63
668.651	471.83
669.097	473.83
669.543	487.93
669.989	464.23
670.435	447.73
670.881	434.43
671.327	440.53
671.773	448.63
672.219	477.23
672.665	535.73
673.11	575.13
673.556	617.13
674.002	653.83
674.448	643.63
674.893	541.13
675.339	469.03
675.785	428.33
676.23	412.13
676.676	387.13
677.122	377.43
677.567	367.53
678.013	365.53
678.458	349.13
678.904	354.83
679.349	331.43
679.794	345.33
680.24	342.13
680.685	345.53
681.131	348.33
681.576	350.23
682.021	348.43
682.466	342.03
682.912	346.63
683.357	351.73
683.802	383.13
684.247	404.53
684.692	443.03
685.137	493.03
685.583	519.93
686.028	554.73
686.473	507.43
686.918	438.63
687.363	403.93
687.807	379.33
688.252	357.03
688.697	344.83
689.142	330.73
689.587	332.83
690.032	332.03
690.477	347.33
690.921	347.23
691.366	376.03
691.811	393.83
692.255	428.03
692.7	454.53
693.145	494.63
693.589	690.33
694.034	1113.93
694.478	1518.83
694.923	1692.13
695.367	2203.43
695.812	1164.23
696.256	488.63
696.701	366.83
697.145	340.23
697.59	326.13
698.034	322.03
698.478	324.13
698.922	328.33
699.367	327.73
699.811	333.33
700.255	345.63
700.699	378.03
701.143	419.73
701.588	473.13
702.032	512.53
702.476	505.03
702.92	482.13
703.364	487.43
703.808	630.73
704.252	1032.63
704.696	1450.93
705.14	1626.13
705.584	2062.73
706.027	1043.53
706.471	508.83
706.915	387.53
707.359	348.83
707.803	313.23
708.246	306.73
708.69	308.13
709.134	314.33
709.577	307.13
710.021	316.13
710.465	305.83
710.908	300.13
711.352	294.73
711.795	310.93
712.239	346.73
712.682	382.13
713.126	409.93
713.569	452.53
714.012	365.53
714.456	308.73
714.899	294.03
715.342	268.13
715.786	253.53
716.229	256.03
716.672	250.83
717.115	246.53
717.558	247.33
718.002	257.43
718.445	260.63
718.888	281.73
719.331	286.53
719.774	312.83
720.217	290.83
720.66	281.53
721.103	265.83
721.546	246.93
721.989	243.93
722.432	231.73
722.874	241.93
723.317	230.93
723.76	231.33
724.203	251.53
724.645	309.83
725.088	440.43
725.531	564.93
725.974	635.73
726.416	544.43
726.859	306.03
727.301	243.63
727.744	238.83
728.187	230.83
728.629	240.03
729.071	241.13
729.514	256.73
729.956	271.83
730.399	277.83
730.841	288.63
731.283	266.73
731.726	264.23
732.168	257.13
732.61	266.63
733.053	279.53
733.495	312.03
733.937	344.03
734.379	394.43
734.821	426.63
735.263	538.53
735.705	831.93
736.148	1570.93
736.59	2554.43
737.032	2963.33
737.474	2427.23
737.916	791.33
738.357	423.13
738.799	322.43
739.241	288.13
739.683	282.53
740.125	293.93
740.567	294.83
741.008	309.53
741.45	307.43
741.892	306.23
742.334	344.03
742.775	351.33
743.217	341.23
743.658	273.73
744.1	260.23
744.542	263.03
744.983	303.73
745.425	344.43
745.866	327.43
746.307	277.73
746.749	285.13
747.19	326.93
747.632	462.33
748.073	887.73
748.514	1848.53
748.956	2795.83
749.397	3510.23
749.838	2921.73
750.279	2883.93
750.72	1464.73
751.162	542.93
751.603	317.83
752.044	247.43
752.485	208.03
752.926	203.13
753.367	200.63
753.808	192.93
754.249	193.43
754.69	182.43
755.131	177.53
755.572	177.73
756.013	173.33
756.453	187.43
756.894	185.23
757.335	192.53
757.776	192.03
758.216	195.53
758.657	192.73
759.098	197.33
759.538	221.83
759.979	271.23
760.42	366.53
760.86	707.73
761.301	1846.83
761.741	4384.23
762.182	6235.93
762.622	4374.83
763.063	1279.13
763.503	531.43
763.943	342.83
764.384	336.53
764.824	384.13
765.264	424.03
765.705	293.53
766.145	204.53
766.585	182.23
767.025	173.93
767.465	190.03
767.906	233.33
768.346	300.43
768.786	330.53
769.226	257.63
769.666	317.93
770.106	621.63
770.546	1559.13
770.986	2585.03
771.426	2293.23
771.866	784.03
772.306	332.23
772.745	199.63
773.185	174.13
773.625	169.13
774.065	167.13
774.505	191.23
774.944	309.23
775.384	652.03
775.824	1176.03
776.263	1135.63
776.703	485.33
777.142	217.23
777.582	150.33
778.021	133.53
778.461	138.93
778.9	139.63
779.34	129.03
779.779	113.13
780.219	110.93
780.658	109.73
781.097	112.33
781.537	119.03
781.976	109.03
782.415	110.53
782.855	103.33
783.294	108.43
783.733	102.23
784.172	111.03
784.611	107.43
785.05	112.33
785.489	114.53
785.928	115.63
786.367	117.13
786.806	113.83
787.245	126.43
787.684	132.93
788.123	149.43
788.562	134.03
789.001	119.83
789.44	121.83
789.879	123.03
790.317	119.63
790.756	130.33
791.195	120.73
791.634	148.43
792.072	201.33
792.511	369.33
792.95	1014.53
793.388	2079.13
793.827	1882.93
794.265	662.73
794.704	275.93
795.142	180.63
795.581	156.83
796.019	135.13
796.458	123.53
796.896	123.63
797.334	124.73
797.773	154.83
798.211	222.23
798.649	445.33
799.087	1016.13
799.526	1568.33
799.964	1975.03
800.402	1936.23
800.84	736.03
801.278	292.23
801.716	188.43
802.154	152.83
802.592	144.03
803.03	141.53
803.468	129.63
803.906	143.53
804.344	141.33
804.782	140.73
805.22	137.73
805.658	129.43
806.096	147.83
806.533	155.53
806.971	170.93
807.409	219.03
807.847	320.13
808.284	665.13
808.722	1855.63
809.16	3215.13
809.597	3120.03
810.035	5328.33
810.472	5565.73
810.91	2035.73
811.347	774.43
811.785	394.13
812.222	244.43
812.66	197.23
813.097	157.73
813.535	137.73
813.972	126.63
814.409	119.93
814.846	107.83
815.284	101.63
815.721	98.23
816.158	103.73
816.595	115.83
817.032	181.03
817.47	195.33
817.907	156.43
818.344	144.23
818.781	113.93
819.218	98.23
819.655	127.43
820.092	187.83
820.529	209.13
820.966	171.43
821.403	133.03
821.839	103.63
822.276	95.73
822.713	119.23
823.15	131.13
823.587	113.33
824.023	143.43
824.46	304.63
824.897	895.93
825.333	1309.63
825.77	557.73
826.206	226.73
826.643	135.73
827.08	104.83
827.516	85.53
827.953	77.93
828.389	82.23
828.825	70.33
829.262	65.33
829.698	58.93
830.135	64.53
830.571	59.23
831.007	59.03
831.443	70.33
831.88	67.93
832.316	58.83
832.752	64.83
833.188	62.13
833.624	63.03
834.06	67.83
834.497	70.13
834.933	79.93
835.369	71.23
835.805	67.93
836.241	80.53
836.677	84.73
837.112	91.73
837.548	108.53
837.984	132.63
838.42	196.53
838.856	505.73
839.292	1493.33
839.727	2228.73
840.163	1044.13
840.599	920.83
841.034	2002.63
841.47	2048.83
841.906	764.43
842.341	331.53
842.777	228.33
843.212	312.13
843.648	295.43
844.083	149.23
844.519	90.23
844.954	74.23
845.39	58.03
845.825	58.73
846.261	57.13
846.696	58.13
847.131	53.83
847.566	58.53
848.002	54.23
848.437	53.63
848.872	64.23
849.307	60.83
849.742	87.53
850.177	189.73
850.613	550.23
851.048	846.43
851.483	371.03
851.918	153.33
852.353	84.93
852.788	62.93
853.223	55.53
853.657	56.13
854.092	46.33
854.527	40.13
854.962	44.23
855.397	42.83
855.832	50.33
856.266	45.73
856.701	39.23
857.136	36.53
857.57	44.23
858.005	51.43
858.44	61.33
858.874	44.93
859.309	48.63
859.743	38.43
860.178	43.93
860.612	42.53
861.047	49.93
861.481	68.33
861.915	67.03
862.35	48.73
862.784	31.83
863.218	39.03
863.653	37.03
864.087	48.23
864.521	57.63
864.955	71.53
865.39	159.83
865.824	169.93
866.258	114.43
866.692	162.73
867.126	167.93
867.56	99.73
867.994	50.93
868.428	40.23
868.862	45.43
869.296	52.33
869.73	62.23
870.164	55.33
870.598	53.93
871.031	37.63
871.465	30.43
871.899	25.83
872.333	29.63
872.766	25.73
873.2	21.53
873.634	30.83
874.067	24.03
874.501	22.43
874.935	36.23
875.368	26.03
875.802	24.63
876.235	25.03
876.669	24.13
877.102	24.43
877.535	26.93
877.969	26.53
878.402	24.33
878.836	22.23
879.269	21.43
879.702	24.43
880.135	23.43
880.569	20.73
881.002	25.33
881.435	24.43
881.868	16.63
882.301	20.43
882.734	17.93
883.167	23.93
883.601	18.73
884.034	24.43
884.467	14.63
884.899	22.53
885.332	20.73
885.765	17.83
886.198	13.83
886.631	18.43
887.064	17.23
887.497	24.23
887.929	22.83
888.362	17.73
888.795	13.53
889.228	16.43
889.66	20.43
890.093	16.03
890.526	17.43
890.958	13.13
891.391	19.93
891.823	23.73
892.256	13.73
892.688	17.53
893.121	13.53
893.553	16.63
893.985	21.43
894.418	23.63
894.85	16.93
895.282	17.83
895.715	17.83
896.147	17.83
896.579	18.53
897.011	17.83
897.444	20.23
897.876	14.63
898.308	12.53
898.74	14.03
899.172	15.33
899.604	28.93
900.036	21.83
900.468	15.93
900.9	16.63
901.332	18.43
901.764	14.83
902.196	16.73
902.628	15.53
903.06	13.83
903.491	23.03
903.923	18.73
904.355	27.93
904.787	26.83
905.218	27.03
905.65	17.33
906.082	19.33
906.513	12.13
906.945	16.53
907.376	14.03
907.808	20.33
908.239	25.83
908.671	16.63
909.102	27.93
909.534	25.83
909.965	49.43
910.397	90.23
910.828	311.93
911.259	462.63
911.691	223.63
912.122	105.03
912.553	51.23
912.984	38.23
913.415	30.93
913.847	22.53
914.278	11.13
914.709	14.93
915.14	16.53
915.571	18.23
916.002	15.03
916.433	22.23
916.864	15.83
917.295	9.33
917.726	19.73
918.157	16.23
918.587	22.73
919.018	20.53
919.449	20.23
919.88	27.43
920.311	30.83
920.741	50.03
921.172	164.43
921.603	154.73
922.033	72.93
922.464	48.33
922.895	21.33
923.325	21.73
923.756	17.73
924.186	19.73
924.617	26.13
925.047	43.23
925.478	53.33
925.908	43.73
926.338	25.03
926.769	12.33
927.199	24.33
927.629	9.53
928.06	13.03
928.49	15.73
928.92	10.53
929.35	11.83
929.78	15.63
930.21	4.33
930.641	4.53
931.071	4.03
931.501	0.33
931.931	7.23
932.361	6.73
932.791	1.13
933.221	4.03
933.651	2.13
934.08	11.73
934.51	32.33
934.94	8.83
935.37	8.73
935.8	16.63
936.229	13.63
936.659	9.33
937.089	3.93
937.519	9.83
937.948	23.13
938.378	16.03
938.807	6.83
939.237	2.93
939.666	11.33
940.096	-1.47
940.525	2.53
940.955	6.33
941.384	-1.07
941.814	-7.97
942.243	-5.97
942.672	3.93
943.102	-6.37
943.531	-4.97
943.96	4.03
944.39	1.43
944.819	-0.17
945.248	4.93
945.677	2.93
946.106	3.73
946.535	7.43
946.964	2.23
947.393	8.33
947.822	1.03
948.251	-3.07
948.68	3.73
949.109	0.63
949.538	3.83
949.967	2.43
950.396	3.63
950.825	-4.67
951.254	-1.67
951.682	-9.37
952.111	4.53
952.54	8.93
952.969	-3.97
953.397	-7.37
953.826	-3.67
954.254	-5.17
954.683	-0.17
955.112	-3.37
955.54	1.03
955.969	2.93
956.397	-2.97
956.826	-2.27
957.254	5.73
957.682	1.43
958.111	8.93
958.539	1.63
958.967	0.03
959.396	1.13
959.824	1.93
960.252	6.13
960.68	-4.37
961.109	-1.77
961.537	-1.67
961.965	5.33
962.393	3.33
962.821	-4.07
963.249	1.53
963.677	0.53
964.105	3.73
964.533	47.03
964.961	46.03
965.389	16.03
965.817	7.53
966.245	6.13
966.672	2.83
967.1	-7.17
967.528	1.03
967.956	-0.07
968.383	1.73
968.811	4.73
969.239	-3.47
969.666	-8.37
970.094	-1.57
970.522	1.83
970.949	-1.37
971.377	-2.57
971.804	-2.07
972.232	2.13
972.659	2.23
973.087	-4.77
973.514	0.93
973.941	-2.77
974.369	3.03
974.796	0.03
975.223	-0.27
975.651	1.73
976.078	2.73
976.505	2.93
976.932	-0.97
977.359	9.73
977.786	14.23
978.214	5.73
978.641	-3.97
979.068	1.33
979.495	1.23
979.922	-5.17
980.349	-0.17
980.776	6.33
981.202	-1.07
981.629	-3.67
982.056	6.73
982.483	-3.77
982.91	-1.07
983.337	-6.57
983.763	-0.77
984.19	-4.97
984.617	-10.97
985.043	-2.37
985.47	-1.77
985.897	-5.37
986.323	-11.17
986.75	8.93
987.176	-1.17
987.603	-0.37
988.029	1.03
988.456	-3.47
988.882	1.93
989.308	-2.17
989.735	-5.37
990.161	3.03
990.587	-3.27
991.014	-2.87
991.44	5.83
991.866	-1.57
992.292	-2.67
992.719	-5.47
993.145	-2.87
993.571	-3.37
993.997	2.83
994.423	-2.67
994.849	-5.57
995.275	0.83
995.701	6.03
996.127	-8.67
996.553	-1.07
996.979	-5.17
997.405	-4.47
997.83	-2.97
998.256	-4.07
998.682	-4.67
999.108	-7.17
999.534	-2.97
999.959	-3.57
1000.385	-3.97
1000.811	-1.97
1001.236	-9.27
1001.662	-6.27
1002.087	-7.17
1002.513	1.03
1002.938	3.63
1003.364	-3.97
1003.789	-3.97
1004.215	5.43
1004.64	-9.97
1005.066	-0.57
1005.491	3.43
1005.916	-5.17
1006.342	-3.47
1006.767	-10.37
1007.192	1.03
1007.617	-7.27
1008.042	-8.37
1008.468	-10.87
1008.893	-8.97
1009.318	-7.47
1009.743	-2.37
1010.168	1.83
1010.593	4.13
1011.018	-9.17
1011.443	-4.67
1011.868	1.53
1012.293	-6.57
1012.718	-8.07
1013.143	-4.57
1013.567	0.43
1013.992	-2.57
1014.417	-17.87
1014.842	-4.77
1015.267	-8.07
1015.691	-2.77
1016.116	5.23
1016.541	-6.27
1016.965	0.13
1017.39	1.53
1017.814	0.23
1018.239	2.33
1018.663	-2.87
1019.088	-7.97
1019.512	-4.87
1019.937	-2.47
1020.361	-3.77
1020.785	-6.07
1021.21	0.23
1021.634	0.73
1022.058	-1.77
1022.483	2.93
1022.907	-7.77
1023.331	-1.47
1023.755	-2.77
1024.179	-5.97
1024.604	-4.47
1025.028	-9.77
1025.452	-8.07
1025.876	1.13
1026.3	-1.87
1026.724	-16.67
1027.148	-7.57
1027.572	-9.17
1027.996	-5.57
1028.42	-6.07
1028.843	-4.67
1029.267	-8.37
1029.691	-5.97
1030.115	-5.37
1030.539	-7.47
1030.962	-2.27
1031.386	-9.97
1031.81	-2.17
1032.233	-0.47
1032.657	-0.57
1033.08	-3.37
1033.504	-3.17
1033.927	2.53
1034.351	-3.77
1034.774	-5.37
1035.198	-5.57
1035.621	-4.47
1036.045	-9.17
1036.468	-0.47
1036.891	-11.17
1037.315	-8.07
1037.738	-8.77
1038.161	-2.47
1038.584	-7.17
1039.008	-5.67
1039.431	-2.57
1039.854	-4.67
1040.277	-3.77
1040.7	-8.77
1041.123	-2.67
1041.546	-4.77
1041.969	-7.47
1042.392	-6.87
1042.815	-2.67
1043.238	4.03
1043.661	-1.67
1044.084	-10.37
1044.507	-2.77
1044.93	-7.67
1045.352	-5.37
1045.775	0.23
1046.198	-4.67
1046.621	-4.17
1047.043	0.13
1047.466	3.73
1047.889	0.73
1048.311	-7.77
1048.734	-1.77
1049.156	-3.87
1049.579	0.63
1050.001	-5.17
1050.424	-4.77
1050.846	-5.07
1051.269	-1.57
1051.691	-7.97
1052.113	-9.27
1052.536	-4.27
1052.958	-5.07
1053.38	-4.37
1053.802	-9.97
1054.225	0.03
1054.647	-5.07
1055.069	-8.47
1055.491	0.73
1055.913	-10.07
1056.335	-5.87
1056.757	2.03
1057.179	-8.27
1057.601	-6.67
1058.023	-5.67
1058.445	-4.07
1058.867	2.43
1059.289	-4.27
1059.711	-7.67
1060.133	-3.87
1060.555	-8.47
1060.976	-7.87
1061.398	-0.67
1061.82	-10.87
1062.241	-8.97
1062.663	-9.47
1063.085	-4.07
1063.506	-2.57
1063.928	-5.77
1064.35	-5.77
1064.771	-14.27
1065.193	0.53
1065.614	-6.07
1066.035	0.33
1066.457	-4.97
1066.878	-1.07
1067.3	-6.17
1067.721	-4.17
1068.142	-7.37
1068.564	-1.17
1068.985	-6.27
1069.406	-3.27
1069.827	-4.67
1070.248	-4.27
1070.67	-7.27
1071.091	-3.97
1071.512	-5.17
1071.933	-13.77
1072.354	-9.67
1072.775	-6.17
1073.196	-8.87
1073.617	-3.27
1074.038	-9.97
1074.459	-5.17
1074.88	-10.87
1075.3	1.03
1075.721	-5.97
1076.142	1.13
1076.563	-2.87
1076.983	-15.87
1077.404	-6.77
1077.825	-11.87
1078.246	-2.37
1078.666	-10.57
1079.087	-5.77
1079.507	-9.67
1079.928	-4.17
1080.348	-4.57
1080.769	-4.77
1081.189	-1.17
1081.61	-3.97
1082.03	2.53
1082.451	-10.27
1082.871	-1.57
1083.291	-10.57
1083.711	-9.57
1084.132	-9.97
1084.552	-7.27
1084.972	-0.47
1085.392	-12.77
1085.813	-5.57
1086.233	-11.97
1086.653	-7.77
1087.073	-5.17
1087.493	-5.77
1087.913	-9.37
1088.333	-7.07
1088.753	-7.17
1089.173	-1.27
1089.593	-6.37
1090.013	0.13
1090.433	-0.27
1090.852	0.33
1091.272	-2.47
1091.692	-4.47
1092.112	-6.97
1092.531	-10.97
1092.951	-17.47
1093.371	-5.67
1093.79	-4.07
1094.21	-7.07
1094.63	-6.97
1095.049	-7.37
1095.469	-4.27
1095.888	-2.97
1096.308	0.93
1096.727	2.53
1097.146	-8.87
1097.566	2.33
1097.985	-3.97
1098.405	-9.07
1098.824	-10.17
1099.243	-6.07
1099.662	-10.47
1100.082	-4.47
1100.501	-0.97
1100.92	-6.57
1101.339	-4.57
1101.758	-5.67
