Data from 20171114-ORNL-Ar_H_NY_Subt18_08-08-33-673.txt Node
Date: Tue Nov 14 08:08:33 EST 2017
User: Ender
Spectrometer: HR+D1039
Trigger mode: 0
Integration Time (sec): 2.730000E-2
Scans to average: 10
Electric dark correction enabled: true
Nonlinearity correction enabled: false
Boxcar width: 0
XAxis mode: Wavelengths
Number of Pixels in Spectrum: 2048
>>>>>Begin Spectral Data<<<<<
187.836	-3.21
188.309	-3.21
188.782	-3.21
189.255	0.69
189.728	-2.41
190.201	5.59
190.674	0.49
191.147	0.19
191.619	-9.31
192.092	-0.81
192.565	8.19
193.038	-0.41
193.511	3.29
193.984	1.49
194.456	0.09
194.929	-0.61
195.402	-3.11
195.874	-0.11
196.347	-2.11
196.82	-7.71
197.292	5.99
197.765	-0.21
198.237	-6.01
198.71	0.39
199.182	-8.01
199.655	-2.31
200.127	9.09
200.6	2.49
201.072	1.79
201.544	-6.71
202.017	-7.41
202.489	2.09
202.961	-7.21
203.433	-3.01
203.906	-2.41
204.378	-10.61
204.85	-0.11
205.322	-5.81
205.794	-1.11
206.266	-4.81
206.739	-5.81
207.211	2.89
207.683	-6.61
208.155	-7.11
208.627	-3.51
209.099	-4.31
209.57	-6.31
210.042	-8.71
210.514	-7.01
210.986	-3.21
211.458	-7.01
211.93	-1.91
212.402	1.09
212.873	-7.71
213.345	-6.11
213.817	-10.31
214.288	-8.41
214.76	-8.81
215.232	-1.21
215.703	-2.81
216.175	-9.81
216.646	-6.31
217.118	-11.61
217.589	-3.61
218.061	-5.31
218.532	-5.61
219.004	-3.51
219.475	1.19
219.946	-0.71
220.418	-6.71
220.889	-2.81
221.36	-1.71
221.832	-3.61
222.303	-7.51
222.774	-0.81
223.245	-2.81
223.717	-5.41
224.188	-9.21
224.659	-8.41
225.13	-7.11
225.601	-7.41
226.072	-0.71
226.543	0.99
227.014	-5.41
227.485	-4.81
227.956	-7.51
228.427	-1.81
228.898	0.59
229.369	0.69
229.839	-8.31
230.31	-6.11
230.781	0.29
231.252	-5.01
231.722	-0.91
232.193	0.89
232.664	-3.71
233.135	-1.51
233.605	0.49
234.076	-8.71
234.546	-1.81
235.017	2.89
235.487	-10.01
235.958	-5.01
236.428	-2.81
236.899	6.59
237.369	3.19
237.84	-3.91
238.31	6.09
238.78	4.69
239.251	-0.71
239.721	-4.11
240.191	-3.61
240.662	2.09
241.132	-1.51
241.602	-3.11
242.072	-3.31
242.542	3.29
243.013	-0.11
243.483	4.09
243.953	3.99
244.423	-5.91
244.893	-3.21
245.363	3.09
245.833	-1.11
246.303	-9.61
246.773	4.89
247.243	-0.81
247.712	3.39
248.182	5.19
248.652	0.49
249.122	-8.31
249.592	5.99
250.061	14.09
250.531	19.99
251.001	1.79
251.471	8.99
251.94	17.39
252.41	4.49
252.879	-2.11
253.349	5.39
253.818	7.79
254.288	-0.51
254.757	-0.71
255.227	-4.51
255.696	2.09
256.166	2.99
256.635	4.39
257.105	3.49
257.574	-2.81
258.043	2.99
258.513	1.99
258.982	8.99
259.451	2.09
259.92	10.39
260.389	1.49
260.859	8.69
261.328	6.09
261.797	12.39
262.266	5.39
262.735	8.49
263.204	1.09
263.673	4.39
264.142	1.29
264.611	-8.21
265.08	-3.41
265.549	-5.11
266.018	0.99
266.487	-3.31
266.955	-1.31
267.424	1.79
267.893	1.19
268.362	1.79
268.83	4.89
269.299	6.69
269.768	1.69
270.236	2.99
270.705	1.89
271.174	4.09
271.642	2.19
272.111	3.09
272.579	11.29
273.048	12.19
273.516	14.69
273.985	15.49
274.453	17.19
274.922	7.59
275.39	4.09
275.858	0.29
276.327	8.69
276.795	12.29
277.263	7.79
277.731	22.89
278.2	36.39
278.668	32.19
279.136	29.39
279.604	8.69
280.072	12.69
280.54	6.69
281.008	10.99
281.477	11.39
281.945	10.29
282.413	11.79
282.881	13.59
283.348	6.79
283.816	10.89
284.284	2.39
284.752	15.59
285.22	9.49
285.688	14.79
286.156	12.29
286.623	29.09
287.091	30.09
287.559	23.59
288.026	9.99
288.494	8.39
288.962	7.99
289.429	6.79
289.897	12.39
290.364	7.29
290.832	14.69
291.3	12.09
291.767	11.49
292.234	14.09
292.702	11.79
293.169	9.19
293.637	11.59
294.104	17.89
294.571	11.49
295.039	12.59
295.506	12.99
295.973	10.39
296.44	14.39
296.908	19.09
297.375	21.29
297.842	19.59
298.309	8.69
298.776	7.59
299.243	13.99
299.71	9.49
300.177	16.79
300.644	18.79
301.111	19.19
301.578	19.89
302.045	7.69
302.512	13.29
302.979	21.79
303.446	17.09
303.913	18.49
304.379	13.29
304.846	22.29
305.313	15.29
305.78	14.29
306.246	19.09
306.713	17.89
307.18	18.79
307.646	25.09
308.113	24.79
308.579	20.49
309.046	19.69
309.512	20.19
309.979	19.99
310.445	19.89
310.912	18.69
311.378	27.99
311.845	24.99
312.311	30.79
312.777	22.49
313.244	25.39
313.71	31.69
314.176	25.89
314.642	20.39
315.109	26.49
315.575	26.19
316.041	26.89
316.507	32.99
316.973	34.09
317.439	33.09
317.905	38.09
318.371	33.39
318.837	22.99
319.303	31.39
319.769	31.59
320.235	30.39
320.701	28.49
321.167	27.29
321.633	27.99
322.099	27.39
322.564	35.69
323.03	37.89
323.496	39.09
323.962	36.29
324.427	33.09
324.893	36.49
325.359	32.09
325.824	33.59
326.29	35.19
326.755	35.29
327.221	38.89
327.686	38.29
328.152	42.69
328.617	40.79
329.083	43.59
329.548	41.29
330.014	46.99
330.479	33.19
330.944	36.49
331.41	33.99
331.875	45.49
332.34	34.89
332.805	42.89
333.271	43.19
333.736	34.69
334.201	48.19
334.666	44.59
335.131	49.59
335.596	46.99
336.061	43.39
336.526	37.69
336.991	45.19
337.456	48.09
337.921	43.69
338.386	38.59
338.851	44.39
339.316	43.79
339.781	40.69
340.246	50.59
340.711	42.89
341.175	48.19
341.64	37.89
342.105	46.99
342.569	53.79
343.034	55.59
343.499	49.79
343.963	44.59
344.428	63.49
344.893	57.79
345.357	60.99
345.822	51.29
346.286	60.29
346.751	65.49
347.215	65.89
347.679	67.59
348.144	84.29
348.608	68.89
349.073	55.59
349.537	69.19
350.001	80.29
350.465	83.69
350.93	71.79
351.394	77.89
351.858	64.89
352.322	80.09
352.786	72.49
353.25	92.69
353.715	95.59
354.179	93.89
354.643	110.09
355.107	112.19
355.571	98.79
356.035	95.69
356.498	115.29
356.962	113.29
357.426	119.09
357.89	105.59
358.354	86.59
358.818	82.39
359.281	74.59
359.745	75.19
360.209	68.79
360.673	69.19
361.136	72.69
361.6	81.49
362.064	82.69
362.527	75.69
362.991	85.49
363.454	75.59
363.918	69.39
364.381	71.59
364.845	78.19
365.308	74.89
365.772	81.49
366.235	82.09
366.698	79.59
367.162	79.39
367.625	82.59
368.088	91.89
368.552	86.79
369.015	84.19
369.478	91.49
369.941	94.99
370.404	91.29
370.867	102.29
371.331	105.09
371.794	117.99
372.257	110.89
372.72	109.29
373.183	100.89
373.646	99.79
374.109	94.49
374.572	103.29
375.035	105.89
375.497	103.19
375.96	103.19
376.423	101.29
376.886	114.69
377.349	111.29
377.811	94.79
378.274	100.39
378.737	104.99
379.199	116.49
379.662	100.89
380.125	107.59
380.587	116.19
381.05	111.49
381.512	121.29
381.975	124.69
382.437	128.59
382.9	118.99
383.362	127.19
383.825	136.89
384.287	132.09
384.75	132.69
385.212	132.19
385.674	135.39
386.136	130.49
386.599	120.49
387.061	122.99
387.523	121.79
387.985	132.09
388.447	140.79
388.91	142.09
389.372	145.89
389.834	141.39
390.296	137.79
390.758	153.29
391.22	159.09
391.682	193.99
392.144	264.89
392.606	211.99
393.068	157.39
393.529	166.59
393.991	150.99
394.453	146.69
394.915	146.69
395.377	186.39
395.838	193.29
396.3	154.19
396.762	139.69
397.224	133.29
397.685	129.99
398.147	133.19
398.608	128.59
399.07	124.79
399.531	135.59
399.993	136.69
400.454	153.69
400.916	143.89
401.377	145.09
401.839	153.39
402.3	148.69
402.762	166.69
403.223	175.09
403.684	167.59
404.145	158.99
404.607	165.09
405.068	164.69
405.529	169.59
405.99	187.49
406.451	177.69
406.913	175.59
407.374	167.29
407.835	169.59
408.296	161.49
408.757	173.09
409.218	187.19
409.679	182.59
410.14	181.99
410.601	179.79
411.062	189.19
411.522	187.39
411.983	190.19
412.444	178.39
412.905	178.09
413.366	182.69
413.826	196.79
414.287	212.79
414.748	269.49
415.208	250.39
415.669	218.59
416.13	214.59
416.59	205.09
417.051	219.89
417.511	218.99
417.972	244.89
418.432	251.99
418.893	297.19
419.353	248.09
419.814	202.99
420.274	189.19
420.734	191.39
421.195	208.69
421.655	207.89
422.115	198.59
422.576	200.49
423.036	204.49
423.496	206.59
423.956	213.69
424.416	229.39
424.876	269.99
425.336	258.49
425.797	261.99
426.257	260.29
426.717	235.89
427.177	240.99
427.637	228.69
428.097	245.99
428.556	247.49
429.016	272.89
429.476	267.29
429.936	275.59
430.396	283.09
430.856	292.99
431.315	312.69
431.775	352.79
432.235	384.19
432.694	355.19
433.154	370.59
433.614	400.69
434.073	347.99
434.533	288.69
434.993	272.69
435.452	284.49
435.912	299.79
436.371	289.19
436.83	281.79
437.29	277.29
437.749	253.39
438.209	254.19
438.668	279.09
439.127	286.49
439.587	268.39
440.046	247.09
440.505	257.19
440.964	279.49
441.424	322.69
441.883	319.09
442.342	261.09
442.801	227.79
443.26	222.69
443.719	227.09
444.178	228.89
444.637	222.09
445.096	227.89
445.555	239.49
446.014	230.89
446.473	230.69
446.932	239.39
447.391	227.29
447.849	234.99
448.308	218.49
448.767	229.99
449.226	239.69
449.685	244.49
450.143	249.89
450.602	246.09
451.061	227.59
451.519	239.69
451.978	242.19
452.436	240.69
452.895	244.09
453.353	260.39
453.812	247.39
454.27	244.79
454.729	241.89
455.187	242.39
455.646	251.59
456.104	248.49
456.562	266.99
457.021	271.59
457.479	264.29
457.937	274.99
458.395	271.89
458.854	259.19
459.312	259.49
459.77	280.69
460.228	260.09
460.686	248.99
461.144	247.89
461.602	244.49
462.06	245.29
462.518	261.49
462.976	260.49
463.434	270.69
463.892	264.59
464.35	273.59
464.808	293.59
465.266	269.19
465.724	275.89
466.181	277.79
466.639	275.99
467.097	295.19
467.555	310.09
468.012	305.29
468.47	316.49
468.928	340.59
469.385	346.49
469.843	352.49
470.3	351.89
470.758	364.99
471.215	385.69
471.673	410.59
472.13	412.89
472.588	429.09
473.045	385.79
473.503	383.69
473.96	405.49
474.417	407.99
474.875	447.99
475.332	488.39
475.789	467.69
476.246	475.19
476.704	492.39
477.161	508.29
477.618	525.99
478.075	564.69
478.532	622.49
478.989	699.99
479.446	817.39
479.903	770.29
480.36	808.89
480.817	868.69
481.274	957.99
481.731	1059.49
482.188	1145.09
482.645	1261.49
483.102	1370.89
483.558	1504.89
484.015	1556.49
484.472	1525.79
484.929	1475.59
485.385	1428.29
485.842	1394.59
486.299	1346.59
486.755	1294.69
487.212	1086.89
487.668	925.79
488.125	856.59
488.582	767.29
489.038	744.29
489.494	708.59
489.951	679.59
490.407	673.09
490.864	650.99
491.32	647.89
491.776	648.39
492.233	648.19
492.689	607.89
493.145	610.29
493.602	606.29
494.058	614.99
494.514	621.49
494.97	640.19
495.426	649.49
495.882	633.79
496.338	617.79
496.794	618.99
497.251	619.49
497.707	629.29
498.163	633.89
498.618	636.59
499.074	645.69
499.53	677.09
499.986	669.79
500.442	665.49
500.898	636.39
501.354	629.29
501.809	638.19
502.265	642.99
502.721	649.69
503.177	677.09
503.632	662.49
504.088	659.89
504.543	696.49
504.999	711.99
505.455	660.59
505.91	645.79
506.366	634.59
506.821	627.09
507.277	628.69
507.732	633.29
508.187	645.99
508.643	645.99
509.098	641.49
509.553	669.89
510.009	668.89
510.464	685.99
510.919	689.49
511.375	698.89
511.83	713.49
512.285	719.39
512.74	762.69
513.195	786.09
513.65	777.89
514.105	767.29
514.56	762.39
515.015	788.99
515.47	804.29
515.925	791.19
516.38	785.09
516.835	792.09
517.29	778.99
517.745	779.99
518.2	771.29
518.655	760.19
519.109	740.39
519.564	747.19
520.019	729.99
520.474	728.09
520.928	722.69
521.383	715.49
521.838	722.19
522.292	715.99
522.747	716.59
523.201	710.89
523.656	701.09
524.11	702.29
524.565	705.89
525.019	698.99
525.474	706.29
525.928	702.79
526.382	705.69
526.837	700.49
527.291	701.09
527.745	698.69
528.2	701.39
528.654	699.79
529.108	692.29
529.562	693.89
530.016	696.49
530.47	690.19
530.925	699.79
531.379	697.69
531.833	712.99
532.287	707.79
532.741	702.99
533.195	702.79
533.649	710.49
534.103	718.49
534.556	704.79
535.01	712.79
535.464	709.79
535.918	722.39
536.372	716.39
536.826	713.79
537.279	706.29
537.733	717.49
538.187	715.29
538.64	721.29
539.094	733.69
539.548	739.19
540.001	729.69
540.455	729.39
540.908	734.79
541.362	742.79
541.815	753.99
542.269	769.99
542.722	765.39
543.175	785.19
543.629	781.99
544.082	793.79
544.536	786.39
544.989	794.99
545.442	797.99
545.895	806.79
546.349	805.09
546.802	814.09
547.255	807.09
547.708	808.49
548.161	823.29
548.614	828.09
549.067	827.49
549.52	831.39
549.973	827.39
550.426	814.39
550.879	797.39
551.332	801.29
551.785	811.39
552.238	814.99
552.691	829.99
553.144	834.79
553.596	857.39
554.049	861.79
554.502	900.39
554.955	912.59
555.407	909.49
555.86	899.09
556.313	891.09
556.765	881.49
557.218	886.39
557.67	884.19
558.123	880.59
558.576	877.79
559.028	888.99
559.48	891.79
559.933	880.79
560.385	847.99
560.838	814.89
561.29	788.29
561.742	794.09
562.195	781.59
562.647	773.19
563.099	788.89
563.551	779.49
564.004	785.79
564.456	780.59
564.908	770.29
565.36	756.29
565.812	730.39
566.264	724.29
566.716	728.79
567.168	718.79
567.62	734.79
568.072	704.19
568.524	700.89
568.976	701.29
569.428	682.99
569.88	677.69
570.332	688.59
570.784	687.89
571.235	684.69
571.687	709.29
572.139	705.29
572.59	718.09
573.042	718.59
573.494	711.69
573.945	711.69
574.397	690.99
574.849	688.99
575.3	691.59
575.752	688.59
576.203	680.39
576.655	692.19
577.106	678.79
577.557	669.09
578.009	670.39
578.46	679.99
578.912	667.59
579.363	665.29
579.814	664.39
580.265	666.29
580.717	670.79
581.168	682.69
581.619	688.09
582.07	683.39
582.521	679.29
582.972	676.49
583.423	683.59
583.875	693.99
584.326	704.69
584.777	745.19
585.227	795.39
585.678	882.89
586.129	954.19
586.58	988.99
587.031	1049.99
587.482	1174.09
587.933	1323.29
588.384	1165.69
588.834	925.59
589.285	810.59
589.736	785.89
590.186	783.69
590.637	779.09
591.088	754.09
591.538	751.59
591.989	740.59
592.439	736.69
592.89	724.59
593.34	716.09
593.791	708.49
594.241	710.49
594.692	715.69
595.142	708.59
595.593	709.19
596.043	717.09
596.493	713.39
596.943	722.89
597.394	739.19
597.844	720.19
598.294	738.39
598.744	764.99
599.195	786.99
599.645	826.69
600.095	872.39
600.545	921.69
600.995	979.69
601.445	1030.89
601.895	1110.69
602.345	1151.39
602.795	1128.09
603.245	1071.79
603.695	1014.69
604.145	968.09
604.594	911.19
605.044	857.29
605.494	808.79
605.944	762.99
606.393	755.59
606.843	737.59
607.293	747.59
607.743	728.19
608.192	746.69
608.642	769.49
609.091	779.49
609.541	774.09
609.99	776.49
610.44	768.19
610.889	728.29
611.339	707.69
611.788	685.29
612.238	697.49
612.687	725.59
613.136	722.29
613.586	739.99
614.035	732.29
614.484	749.09
614.933	756.29
615.383	743.89
615.832	743.49
616.281	728.09
616.73	695.99
617.179	675.89
617.628	650.09
618.077	638.79
618.526	630.79
618.975	626.79
619.424	617.39
619.873	622.59
620.322	622.99
620.771	603.89
621.22	612.09
621.669	607.69
622.118	599.09
622.567	581.69
623.015	576.49
623.464	566.59
623.913	569.79
624.361	557.19
624.81	555.89
625.259	564.39
625.707	559.69
626.156	558.09
626.604	569.19
627.053	567.69
627.501	572.69
627.95	584.99
628.398	586.29
628.847	574.69
629.295	577.59
629.744	582.89
630.192	577.99
630.64	567.89
631.089	563.19
631.537	568.69
631.985	577.69
632.433	581.89
632.881	586.49
633.33	623.29
633.778	612.39
634.226	566.79
634.674	559.89
635.122	565.69
635.57	588.99
636.018	628.19
636.466	577.49
636.914	566.89
637.362	577.29
637.81	578.99
638.258	582.39
638.705	583.39
639.153	612.69
639.601	616.49
640.049	649.89
640.497	675.59
640.944	701.49
641.392	647.89
641.84	617.99
642.287	592.19
642.735	580.09
643.182	585.09
643.63	581.09
644.078	585.79
644.525	604.49
644.973	603.49
645.42	616.39
645.867	633.99
646.315	641.39
646.762	676.89
647.21	700.49
647.657	712.49
648.104	756.69
648.551	781.29
648.999	847.59
649.446	922.29
649.893	1020.49
650.34	1167.29
650.787	1398.59
651.234	1742.59
651.682	2269.29
652.129	3110.99
652.576	4460.99
653.023	6527.49
653.47	8863.99
653.917	10975.19
654.363	12587.09
654.81	13836.89
655.257	13151.69
655.704	8654.09
656.151	5150.69
656.598	3333.29
657.044	2375.29
657.491	1838.09
657.938	1468.79
658.385	1238.09
658.831	1077.09
659.278	960.59
659.724	854.39
660.171	793.99
660.618	719.29
661.064	689.19
661.511	673.09
661.957	665.19
662.404	652.39
662.85	657.99
663.296	635.99
663.743	568.09
664.189	547.09
664.635	536.39
665.082	538.59
665.528	542.89
665.974	524.09
666.42	506.39
666.867	520.29
667.313	499.79
667.759	484.89
668.205	480.59
668.651	487.29
669.097	479.39
669.543	482.99
669.989	473.09
670.435	448.49
670.881	456.39
671.327	449.69
671.773	479.49
672.219	501.59
672.665	554.09
673.11	603.09
673.556	640.19
674.002	676.19
674.448	657.09
674.893	556.59
675.339	483.09
675.785	451.09
676.23	411.99
676.676	398.59
677.122	386.59
677.567	383.99
678.013	375.59
678.458	369.89
678.904	361.19
679.349	354.09
679.794	363.09
680.24	352.99
680.685	359.79
681.131	356.09
681.576	360.79
682.021	368.79
682.466	354.29
682.912	355.99
683.357	363.09
683.802	394.19
684.247	418.59
684.692	459.09
685.137	501.89
685.583	543.69
686.028	573.79
686.473	529.79
686.918	440.79
687.363	423.09
687.807	404.49
688.252	377.29
688.697	363.19
689.142	343.99
689.587	347.39
690.032	333.49
690.477	352.89
690.921	356.89
691.366	392.29
691.811	405.49
692.255	444.09
692.7	465.49
693.145	513.39
693.589	732.49
694.034	1183.19
694.478	1582.49
694.923	1744.79
695.367	2282.29
695.812	1227.09
696.256	513.59
696.701	379.49
697.145	351.59
697.59	333.59
698.034	332.49
698.478	335.39
698.922	332.49
699.367	325.39
699.811	344.59
700.255	370.09
700.699	402.79
701.143	435.29
701.588	480.39
702.032	526.09
702.476	523.19
702.92	505.39
703.364	512.09
703.808	671.29
704.252	1094.89
704.696	1501.69
705.14	1684.79
705.584	2142.09
706.027	1085.49
706.471	532.59
706.915	409.99
707.359	351.19
707.803	333.49
708.246	316.49
708.69	323.09
709.134	323.39
709.577	318.69
710.021	316.69
710.465	309.79
710.908	305.79
711.352	309.09
711.795	325.39
712.239	361.89
712.682	401.89
713.126	421.49
713.569	463.29
714.012	369.29
714.456	321.69
714.899	290.79
715.342	281.69
715.786	261.69
716.229	259.19
716.672	264.49
717.115	252.39
717.558	257.69
718.002	249.19
718.445	266.79
718.888	293.89
719.331	301.99
719.774	311.69
720.217	314.89
720.66	280.59
721.103	269.19
721.546	256.59
721.989	247.99
722.432	240.89
722.874	239.29
723.317	230.09
723.76	240.89
724.203	262.39
724.645	333.19
725.088	460.19
725.531	581.69
725.974	644.39
726.416	558.69
726.859	309.39
727.301	251.79
727.744	232.19
728.187	234.09
728.629	249.79
729.071	250.69
729.514	259.89
729.956	274.19
730.399	289.79
730.841	290.69
731.283	275.09
731.726	270.59
732.168	266.79
732.61	271.59
733.053	289.99
733.495	317.69
733.937	367.59
734.379	406.59
734.821	445.59
735.263	563.09
735.705	880.99
736.148	1676.79
736.59	2681.69
737.032	3067.49
737.474	2521.69
737.916	830.99
738.357	426.09
738.799	338.29
739.241	304.79
739.683	286.99
740.125	302.69
740.567	303.79
741.008	321.39
741.45	324.09
741.892	323.79
742.334	357.19
742.775	361.59
743.217	351.59
743.658	276.59
744.1	255.59
744.542	266.69
744.983	323.19
745.425	344.39
745.866	351.89
746.307	289.99
746.749	294.19
747.19	331.39
747.632	478.59
748.073	940.29
748.514	1975.99
748.956	2931.59
749.397	3700.89
749.838	3049.69
750.279	2973.89
750.72	1515.19
751.162	557.09
751.603	334.49
752.044	258.59
752.485	221.09
752.926	215.49
753.367	208.49
753.808	200.49
754.249	196.89
754.69	194.69
755.131	189.09
755.572	175.29
756.013	177.09
756.453	188.19
756.894	192.49
757.335	196.09
757.776	207.69
758.216	202.89
758.657	199.19
759.098	210.09
759.538	224.49
759.979	273.79
760.42	392.19
760.86	755.29
761.301	1963.79
761.741	4663.69
762.182	6453.59
762.622	4550.59
763.063	1333.89
763.503	551.69
763.943	352.39
764.384	339.69
764.824	372.19
765.264	381.49
765.705	282.39
766.145	204.89
766.585	188.49
767.025	182.29
767.465	182.59
767.906	232.39
768.346	291.09
768.786	304.39
769.226	260.99
769.666	330.19
770.106	668.69
770.546	1659.09
770.986	2675.39
771.426	2388.19
771.866	815.49
772.306	340.29
772.745	213.49
773.185	170.59
773.625	174.79
774.065	164.29
774.505	189.79
774.944	287.59
775.384	600.89
775.824	1026.79
776.263	1000.19
776.703	441.69
777.142	208.39
777.582	146.99
778.021	133.99
778.461	137.19
778.9	135.19
779.34	134.79
779.779	117.19
780.219	115.09
780.658	111.19
781.097	118.69
781.537	115.39
781.976	104.59
782.415	103.09
782.855	102.89
783.294	106.39
783.733	101.69
784.172	107.49
784.611	108.69
785.05	108.09
785.489	117.09
785.928	125.79
786.367	124.79
786.806	120.89
787.245	127.29
787.684	142.09
788.123	148.69
788.562	137.59
789.001	135.99
789.44	122.29
789.879	122.19
790.317	118.69
790.756	134.59
791.195	129.39
791.634	158.19
792.072	208.89
792.511	384.89
792.95	1062.89
793.388	2185.29
793.827	1934.99
794.265	692.79
794.704	281.19
795.142	180.89
795.581	155.29
796.019	133.19
796.458	127.09
796.896	124.39
797.334	129.69
797.773	164.69
798.211	230.79
798.649	474.39
799.087	1067.19
799.526	1654.49
799.964	2079.39
800.402	2007.69
800.84	768.09
801.278	321.79
801.716	196.09
802.154	158.59
802.592	148.59
803.03	139.69
803.468	135.59
803.906	145.99
804.344	150.39
804.782	142.89
805.22	132.89
805.658	131.59
806.096	146.39
806.533	161.19
806.971	179.89
807.409	235.29
807.847	333.59
808.284	723.69
808.722	1960.79
809.16	3348.09
809.597	3292.69
810.035	5589.59
810.472	5762.09
810.91	2109.59
811.347	815.39
811.785	418.39
812.222	259.99
812.66	205.39
813.097	166.29
813.535	148.79
813.972	134.39
814.409	115.49
814.846	107.39
815.284	113.49
815.721	103.19
816.158	100.79
816.595	118.29
817.032	164.59
817.47	194.89
817.907	149.09
818.344	134.89
818.781	109.89
819.218	98.59
819.655	125.09
820.092	188.69
820.529	213.29
820.966	171.09
821.403	131.09
821.839	104.89
822.276	103.59
822.713	127.79
823.15	132.89
823.587	122.99
824.023	154.19
824.46	322.39
824.897	948.39
825.333	1361.49
825.77	588.09
826.206	232.29
826.643	138.89
827.08	104.69
827.516	91.19
827.953	81.79
828.389	81.89
828.825	71.49
829.262	70.89
829.698	62.99
830.135	67.09
830.571	63.89
831.007	69.89
831.443	68.69
831.88	61.09
832.316	63.59
832.752	65.99
833.188	66.99
833.624	62.69
834.06	65.09
834.497	65.79
834.933	68.39
835.369	75.19
835.805	64.09
836.241	70.89
836.677	86.59
837.112	94.39
837.548	111.59
837.984	132.79
838.42	212.99
838.856	524.19
839.292	1587.99
839.727	2307.99
840.163	1087.99
840.599	979.89
841.034	2099.69
841.47	2123.89
841.906	789.79
842.341	346.19
842.777	229.69
843.212	283.59
843.648	277.39
844.083	143.29
844.519	94.99
844.954	76.69
845.39	64.49
845.825	57.09
846.261	59.99
846.696	57.79
847.131	53.89
847.566	62.49
848.002	57.59
848.437	57.29
848.872	62.79
849.307	60.49
849.742	88.09
850.177	193.89
850.613	577.79
851.048	878.39
851.483	384.19
851.918	158.69
852.353	85.49
852.788	62.09
853.223	57.39
853.657	56.39
854.092	49.79
854.527	42.19
854.962	40.39
855.397	42.09
855.832	57.09
856.266	46.59
856.701	44.39
857.136	41.89
857.57	44.59
858.005	53.09
858.44	58.79
858.874	41.99
859.309	52.59
859.743	41.39
860.178	44.49
860.612	50.39
861.047	62.29
861.481	73.29
861.915	70.89
862.35	44.99
862.784	35.09
863.218	33.09
863.653	33.09
864.087	45.29
864.521	53.89
864.955	72.49
865.39	160.69
865.824	172.99
866.258	117.09
866.692	171.29
867.126	177.49
867.56	110.29
867.994	49.89
868.428	39.29
868.862	44.69
869.296	50.29
869.73	59.99
870.164	54.49
870.598	46.09
871.031	38.89
871.465	26.49
871.899	26.19
872.333	22.29
872.766	28.29
873.2	31.29
873.634	21.89
874.067	26.69
874.501	28.29
874.935	34.99
875.368	26.29
875.802	25.99
876.235	21.39
876.669	26.69
877.102	20.99
877.535	28.29
877.969	20.49
878.402	27.59
878.836	20.59
879.269	28.29
879.702	27.89
880.135	22.49
880.569	23.29
881.002	23.99
881.435	18.49
881.868	14.39
882.301	21.79
882.734	21.39
883.167	18.79
883.601	27.39
884.034	27.99
884.467	13.39
884.899	22.79
885.332	18.39
885.765	14.69
886.198	23.69
886.631	20.79
887.064	23.09
887.497	21.39
887.929	23.09
888.362	13.29
888.795	12.69
889.228	19.59
889.66	22.79
890.093	19.09
890.526	16.69
890.958	13.39
891.391	15.09
891.823	28.89
892.256	15.39
892.688	13.39
893.121	14.79
893.553	20.69
893.985	19.19
894.418	16.99
894.85	12.99
895.282	20.69
895.715	18.89
896.147	21.69
896.579	15.09
897.011	13.29
897.444	13.79
897.876	12.89
898.308	18.39
898.74	13.59
899.172	12.69
899.604	20.79
900.036	17.69
900.468	15.29
900.9	10.79
901.332	18.69
901.764	15.29
902.196	13.39
902.628	17.89
903.06	15.19
903.491	25.49
903.923	22.29
904.355	22.39
904.787	21.59
905.218	23.09
905.65	18.69
906.082	14.99
906.513	4.89
906.945	15.19
907.376	16.19
907.808	22.39
908.239	16.29
908.671	17.29
909.102	21.29
909.534	30.09
909.965	56.79
910.397	106.59
910.828	324.49
911.259	473.39
911.691	216.49
912.122	107.19
912.553	54.29
912.984	41.39
913.415	28.69
913.847	25.39
914.278	19.89
914.709	16.69
915.14	17.59
915.571	16.99
916.002	15.99
916.433	13.69
916.864	16.39
917.295	13.29
917.726	19.49
918.157	16.99
918.587	26.19
919.018	19.99
919.449	26.09
919.88	24.49
920.311	38.09
920.741	50.09
921.172	172.59
921.603	152.89
922.033	69.89
922.464	46.99
922.895	23.89
923.325	25.19
923.756	13.09
924.186	11.39
924.617	21.19
925.047	37.09
925.478	46.89
925.908	42.39
926.338	23.49
926.769	15.59
927.199	20.69
927.629	7.19
928.06	19.29
928.49	12.29
928.92	8.09
929.35	13.09
929.78	10.49
930.21	9.19
930.641	4.09
931.071	12.39
931.501	7.49
931.931	5.69
932.361	4.29
932.791	2.69
933.221	2.39
933.651	1.49
934.08	21.99
934.51	25.49
934.94	16.09
935.37	6.69
935.8	8.09
936.229	7.99
936.659	11.29
937.089	1.59
937.519	9.99
937.948	20.79
938.378	19.19
938.807	4.99
939.237	1.99
939.666	10.99
940.096	-3.81
940.525	0.19
940.955	6.49
941.384	5.89
941.814	-6.21
942.243	-4.61
942.672	0.09
943.102	3.09
943.531	4.49
943.96	3.19
944.39	1.89
944.819	1.59
945.248	2.69
945.677	3.29
946.106	6.99
946.535	1.89
946.964	-1.81
947.393	1.09
947.822	2.69
948.251	2.29
948.68	-0.21
949.109	5.09
949.538	8.29
949.967	2.39
950.396	3.09
950.825	-1.41
951.254	2.39
951.682	-7.81
952.111	-0.21
952.54	8.99
952.969	-8.11
953.397	-6.91
953.826	4.69
954.254	-5.71
954.683	1.49
955.112	0.99
955.54	-4.61
955.969	-2.31
956.397	-1.41
956.826	-1.11
957.254	0.09
957.682	5.29
958.111	4.79
958.539	-1.01
958.967	2.69
959.396	-7.21
959.824	2.09
960.252	-0.71
960.68	-1.41
961.109	-1.61
961.537	-6.51
961.965	4.99
962.393	0.29
962.821	-1.41
963.249	2.09
963.677	0.59
964.105	9.69
964.533	41.19
964.961	38.99
965.389	20.49
965.817	11.29
966.245	5.19
966.672	1.79
967.1	-1.81
967.528	-5.01
967.956	-5.61
968.383	-5.21
968.811	-3.71
969.239	-2.71
969.666	-2.71
970.094	1.19
970.522	-2.11
970.949	-2.01
971.377	2.69
971.804	-4.01
972.232	-2.21
972.659	-2.91
973.087	-6.31
973.514	-8.61
973.941	-6.61
974.369	2.29
974.796	0.69
975.223	-2.11
975.651	1.69
976.078	3.89
976.505	-4.71
976.932	3.79
977.359	10.99
977.786	15.09
978.214	5.29
978.641	-1.81
979.068	-10.51
979.495	-8.91
979.922	-4.51
980.349	0.59
980.776	5.89
981.202	0.39
981.629	0.69
982.056	3.89
982.483	-5.81
982.91	3.09
983.337	-5.51
983.763	4.99
984.19	-6.81
984.617	-3.21
985.043	1.89
985.47	-6.21
985.897	-8.11
986.323	-11.41
986.75	0.29
987.176	-5.71
987.603	1.29
988.029	-7.41
988.456	-4.01
988.882	2.89
989.308	-0.71
989.735	-3.11
990.161	1.29
990.587	0.09
991.014	1.39
991.44	1.69
991.866	-2.61
992.292	-8.71
992.719	-2.81
993.145	3.99
993.571	-9.31
993.997	2.09
994.423	-1.01
994.849	-8.31
995.275	0.79
995.701	1.99
996.127	-5.31
996.553	-2.61
996.979	-1.61
997.405	-4.01
997.83	-7.41
998.256	-6.81
998.682	-5.91
999.108	-4.21
999.534	-1.41
999.959	1.29
1000.385	-2.71
1000.811	1.19
1001.236	-3.81
1001.662	-3.31
1002.087	-8.81
1002.513	0.99
1002.938	4.39
1003.364	-7.21
1003.789	1.89
1004.215	0.39
1004.64	-3.31
1005.066	7.59
1005.491	0.89
1005.916	-3.91
1006.342	-5.31
1006.767	-8.01
1007.192	-0.01
1007.617	-6.31
1008.042	-3.51
1008.468	-7.81
1008.893	-3.41
1009.318	-7.51
1009.743	-0.31
1010.168	3.29
1010.593	1.39
1011.018	-5.31
1011.443	1.69
1011.868	-0.11
1012.293	-4.41
1012.718	-4.11
1013.143	-1.51
1013.567	2.99
1013.992	-4.91
1014.417	-14.31
1014.842	6.99
1015.267	-7.51
1015.691	-3.21
1016.116	2.49
1016.541	-3.11
1016.965	5.99
1017.39	0.99
1017.814	2.69
1018.239	-2.71
1018.663	-11.91
1019.088	-12.91
1019.512	-0.01
1019.937	2.19
1020.361	0.39
1020.785	-8.01
1021.21	-3.31
1021.634	-5.51
1022.058	4.49
1022.483	4.39
1022.907	-7.31
1023.331	-1.21
1023.755	-7.51
1024.179	-4.41
1024.604	-5.51
1025.028	-7.31
1025.452	-5.81
1025.876	-6.21
1026.3	-1.11
1026.724	-10.11
1027.148	-6.41
1027.572	-11.61
1027.996	-5.71
1028.42	-4.11
1028.843	-0.61
1029.267	-7.81
1029.691	4.49
1030.115	-5.41
1030.539	-4.81
1030.962	-7.51
1031.386	-13.91
1031.81	-0.81
1032.233	-3.41
1032.657	-6.01
1033.08	-5.11
1033.504	-3.71
1033.927	-6.71
1034.351	-0.11
1034.774	-5.31
1035.198	-1.21
1035.621	-7.51
1036.045	-9.81
1036.468	5.49
1036.891	-3.41
1037.315	-9.31
1037.738	-10.51
1038.161	-0.71
1038.584	-6.41
1039.008	-8.71
1039.431	-2.71
1039.854	-6.11
1040.277	-11.81
1040.7	-12.11
1041.123	0.29
1041.546	-7.11
1041.969	-5.71
1042.392	-2.11
1042.815	-5.11
1043.238	0.99
1043.661	3.69
1044.084	-6.01
1044.507	-2.31
1044.93	-6.01
1045.352	-8.11
1045.775	-3.61
1046.198	-3.21
1046.621	-4.21
1047.043	-1.11
1047.466	6.49
1047.889	-5.81
1048.311	-6.51
1048.734	-4.71
1049.156	-2.41
1049.579	-1.91
1050.001	-8.81
1050.424	2.59
1050.846	-4.41
1051.269	-5.11
1051.691	-6.21
1052.113	-5.61
1052.536	-0.81
1052.958	-1.51
1053.38	-4.61
1053.802	-11.41
1054.225	0.49
1054.647	-12.91
1055.069	-8.81
1055.491	1.19
1055.913	-7.41
1056.335	0.79
1056.757	-5.41
1057.179	-7.31
1057.601	-7.11
1058.023	-2.51
1058.445	-3.41
1058.867	-3.71
1059.289	-4.61
1059.711	-7.01
1060.133	-6.21
1060.555	-11.11
1060.976	-8.51
1061.398	-1.81
1061.82	-6.71
1062.241	-8.41
1062.663	-5.51
1063.085	-1.51
1063.506	-0.01
1063.928	0.99
1064.35	-5.31
1064.771	-13.91
1065.193	0.29
1065.614	-8.61
1066.035	-2.61
1066.457	-0.51
1066.878	-0.41
1067.3	-5.71
1067.721	-2.31
1068.142	-0.51
1068.564	-3.81
1068.985	-5.51
1069.406	-2.41
1069.827	-2.31
1070.248	-1.91
1070.67	-0.11
1071.091	-1.21
1071.512	-4.91
1071.933	-3.71
1072.354	-8.21
1072.775	-6.61
1073.196	-7.91
1073.617	-2.61
1074.038	-7.51
1074.459	-5.41
1074.88	-7.61
1075.3	-2.21
1075.721	-8.11
1076.142	-0.61
1076.563	0.29
1076.983	-10.51
1077.404	-12.41
1077.825	-12.91
1078.246	0.09
1078.666	-11.31
1079.087	-11.71
1079.507	-2.91
1079.928	0.19
1080.348	-6.11
1080.769	-8.81
1081.189	-1.71
1081.61	-1.11
1082.03	-4.81
1082.451	-1.91
1082.871	-5.21
1083.291	-11.11
1083.711	-17.21
1084.132	-3.71
1084.552	-6.01
1084.972	-7.21
1085.392	-3.11
1085.813	-12.21
1086.233	-10.81
1086.653	-2.21
1087.073	-2.31
1087.493	-11.61
1087.913	-12.51
1088.333	-8.71
1088.753	-6.41
1089.173	3.49
1089.593	-1.11
1090.013	1.59
1090.433	0.59
1090.852	-8.11
1091.272	-4.01
1091.692	-4.21
1092.112	-9.61
1092.531	-13.51
1092.951	-13.61
1093.371	-6.01
1093.79	-3.01
1094.21	-7.71
1094.63	-6.11
1095.049	-4.71
1095.469	0.89
1095.888	-5.31
1096.308	-0.41
1096.727	1.69
1097.146	-1.71
1097.566	-0.41
1097.985	-9.81
1098.405	-3.31
1098.824	-7.31
1099.243	-13.11
1099.662	-8.81
1100.082	-7.01
1100.501	-7.51
1100.92	-10.01
1101.339	-2.01
1101.758	-2.11
