Data from 20171114-ORNL-Ar_H_NY_Subt18_08-06-18-004.txt Node
Date: Tue Nov 14 08:06:18 EST 2017
User: Ender
Spectrometer: HR+D1039
Trigger mode: 0
Integration Time (sec): 2.730000E-2
Scans to average: 10
Electric dark correction enabled: true
Nonlinearity correction enabled: false
Boxcar width: 0
XAxis mode: Wavelengths
Number of Pixels in Spectrum: 2048
>>>>>Begin Spectral Data<<<<<
187.836	-3.84
188.309	-3.84
188.782	-3.84
189.255	2.76
189.728	2.56
190.201	6.16
190.674	2.36
191.147	1.76
191.619	-3.84
192.092	0.36
192.565	4.26
193.038	-3.64
193.511	-2.34
193.984	-0.14
194.456	-0.44
194.929	1.86
195.402	-4.14
195.874	-3.64
196.347	-0.54
196.82	-9.74
197.292	1.96
197.765	-1.14
198.237	-4.44
198.71	4.76
199.182	-6.14
199.655	2.66
200.127	0.16
200.6	-0.84
201.072	-0.94
201.544	-1.64
202.017	-2.64
202.489	3.66
202.961	3.96
203.433	2.16
203.906	-4.04
204.378	-3.24
204.85	-0.14
205.322	-6.64
205.794	-3.94
206.266	-2.64
206.739	-10.14
207.211	-0.44
207.683	-4.54
208.155	0.26
208.627	-9.54
209.099	-2.44
209.57	-16.14
210.042	-9.74
210.514	-2.44
210.986	-5.24
211.458	-2.84
211.93	-1.94
212.402	2.16
212.873	-8.44
213.345	-7.54
213.817	-12.34
214.288	-5.14
214.76	-13.54
215.232	-4.04
215.703	-1.84
216.175	-1.64
216.646	-7.74
217.118	-3.64
217.589	0.16
218.061	7.06
218.532	-3.64
219.004	-1.74
219.475	-3.74
219.946	1.46
220.418	-7.64
220.889	-1.04
221.36	6.56
221.832	-5.14
222.303	-6.24
222.774	-0.34
223.245	-7.04
223.717	-5.24
224.188	-2.24
224.659	-6.04
225.13	-1.84
225.601	1.76
226.072	1.96
226.543	-1.64
227.014	-1.24
227.485	0.16
227.956	-3.74
228.427	-5.14
228.898	-3.84
229.369	3.86
229.839	-4.84
230.31	-6.14
230.781	-2.24
231.252	-4.04
231.722	-4.54
232.193	-4.14
232.664	1.56
233.135	-0.64
233.605	3.46
234.076	-3.94
234.546	-3.24
235.017	0.86
235.487	0.96
235.958	4.56
236.428	-5.84
236.899	3.86
237.369	1.26
237.84	-2.64
238.31	5.46
238.78	2.96
239.251	-1.34
239.721	-0.14
240.191	-0.34
240.662	-0.44
241.132	3.16
241.602	-7.94
242.072	1.06
242.542	2.26
243.013	-1.14
243.483	2.96
243.953	3.46
244.423	2.16
244.893	-2.44
245.363	6.36
245.833	3.06
246.303	2.36
246.773	11.96
247.243	4.36
247.712	5.16
248.182	2.96
248.652	7.56
249.122	-4.24
249.592	10.46
250.061	20.76
250.531	27.06
251.001	19.56
251.471	19.76
251.94	18.56
252.41	10.66
252.879	1.86
253.349	13.76
253.818	13.16
254.288	5.46
254.757	5.16
255.227	-0.34
255.696	3.06
256.166	5.16
256.635	6.26
257.105	13.56
257.574	9.06
258.043	11.06
258.513	10.76
258.982	19.06
259.451	9.36
259.92	15.46
260.389	8.46
260.859	17.06
261.328	12.26
261.797	13.76
262.266	13.26
262.735	12.66
263.204	10.86
263.673	2.36
264.142	5.56
264.611	0.66
265.08	0.66
265.549	0.66
266.018	2.76
266.487	2.56
266.955	-1.94
267.424	3.76
267.893	4.36
268.362	0.66
268.83	0.06
269.299	13.26
269.768	5.16
270.236	6.56
270.705	9.86
271.174	8.86
271.642	9.46
272.111	8.66
272.579	20.96
273.048	23.06
273.516	26.26
273.985	24.66
274.453	27.76
274.922	18.96
275.39	9.86
275.858	8.56
276.327	13.86
276.795	22.86
277.263	9.76
277.731	31.36
278.2	50.76
278.668	49.06
279.136	49.76
279.604	20.26
280.072	17.66
280.54	12.46
281.008	10.76
281.477	12.46
281.945	18.46
282.413	15.46
282.881	16.06
283.348	8.56
283.816	12.46
284.284	19.46
284.752	21.26
285.22	17.76
285.688	14.56
286.156	19.86
286.623	44.26
287.091	45.26
287.559	31.96
288.026	18.16
288.494	18.76
288.962	6.16
289.429	10.36
289.897	20.26
290.364	14.56
290.832	17.66
291.3	21.16
291.767	18.26
292.234	14.16
292.702	12.76
293.169	19.26
293.637	22.06
294.104	16.96
294.571	14.86
295.039	11.96
295.506	15.16
295.973	21.76
296.44	9.66
296.908	20.96
297.375	25.16
297.842	22.46
298.309	18.46
298.776	15.66
299.243	23.46
299.71	9.36
300.177	20.56
300.644	22.76
301.111	23.86
301.578	22.66
302.045	18.16
302.512	19.36
302.979	24.86
303.446	17.96
303.913	18.26
304.379	14.46
304.846	20.76
305.313	23.06
305.78	21.16
306.246	28.56
306.713	29.16
307.18	29.06
307.646	26.86
308.113	34.06
308.579	23.36
309.046	28.16
309.512	28.16
309.979	25.06
310.445	29.86
310.912	31.06
311.378	34.36
311.845	26.36
312.311	30.86
312.777	37.86
313.244	30.86
313.71	43.46
314.176	26.76
314.642	32.96
315.109	32.86
315.575	38.46
316.041	38.56
316.507	31.86
316.973	42.76
317.439	34.56
317.905	32.76
318.371	36.16
318.837	35.56
319.303	24.76
319.769	38.86
320.235	39.76
320.701	37.36
321.167	37.56
321.633	35.46
322.099	40.06
322.564	37.46
323.03	42.16
323.496	37.96
323.962	44.16
324.427	35.36
324.893	45.26
325.359	34.26
325.824	33.66
326.29	38.46
326.755	37.36
327.221	40.56
327.686	42.96
328.152	48.16
328.617	42.46
329.083	55.76
329.548	56.46
330.014	48.26
330.479	42.46
330.944	39.46
331.41	42.36
331.875	43.06
332.34	45.06
332.805	43.66
333.271	45.36
333.736	48.36
334.201	49.66
334.666	52.16
335.131	56.36
335.596	52.76
336.061	53.86
336.526	48.96
336.991	50.86
337.456	52.16
337.921	44.36
338.386	46.16
338.851	45.56
339.316	50.56
339.781	44.76
340.246	55.16
340.711	50.86
341.175	50.36
341.64	43.96
342.105	52.66
342.569	53.76
343.034	54.96
343.499	61.16
343.963	58.66
344.428	70.26
344.893	66.26
345.357	64.56
345.822	65.36
346.286	66.06
346.751	76.16
347.215	67.46
347.679	75.56
348.144	101.06
348.608	82.06
349.073	80.46
349.537	78.06
350.001	88.56
350.465	93.66
350.93	78.16
351.394	82.56
351.858	70.86
352.322	92.06
352.786	87.96
353.25	99.26
353.715	116.06
354.179	102.96
354.643	119.86
355.107	137.66
355.571	111.06
356.035	107.56
356.498	124.76
356.962	121.36
357.426	142.56
357.89	122.26
358.354	91.16
358.818	82.56
359.281	90.16
359.745	79.06
360.209	79.06
360.673	80.66
361.136	84.96
361.6	75.86
362.064	85.76
362.527	94.26
362.991	94.86
363.454	82.96
363.918	79.26
364.381	81.36
364.845	87.86
365.308	90.46
365.772	85.86
366.235	85.76
366.698	87.56
367.162	90.76
367.625	94.36
368.088	82.36
368.552	88.76
369.015	89.66
369.478	96.36
369.941	97.56
370.404	96.96
370.867	110.06
371.331	104.66
371.794	121.26
372.257	112.46
372.72	122.36
373.183	113.96
373.646	101.86
374.109	107.86
374.572	111.16
375.035	108.36
375.497	107.56
375.96	109.26
376.423	107.86
376.886	118.46
377.349	111.36
377.811	112.86
378.274	103.46
378.737	110.96
379.199	113.46
379.662	114.96
380.125	132.06
380.587	121.66
381.05	133.76
381.512	132.16
381.975	142.36
382.437	130.46
382.9	127.16
383.362	134.26
383.825	153.56
384.287	157.16
384.75	143.76
385.212	141.96
385.674	144.46
386.136	141.46
386.599	130.36
387.061	133.96
387.523	131.66
387.985	136.26
388.447	148.36
388.91	141.46
389.372	163.56
389.834	156.86
390.296	149.76
390.758	156.16
391.22	172.96
391.682	216.06
392.144	303.56
392.606	235.06
393.068	169.66
393.529	180.76
393.991	159.96
394.453	154.96
394.915	155.26
395.377	191.26
395.838	217.56
396.3	153.46
396.762	146.66
397.224	132.36
397.685	135.36
398.147	136.56
398.608	130.26
399.07	134.56
399.531	142.36
399.993	140.86
400.454	157.46
400.916	154.56
401.377	146.36
401.839	153.26
402.3	160.46
402.762	170.56
403.223	186.96
403.684	173.26
404.145	167.86
404.607	164.26
405.068	171.46
405.529	175.66
405.99	196.56
406.451	174.76
406.913	182.66
407.374	168.16
407.835	166.86
408.296	164.66
408.757	174.96
409.218	196.26
409.679	183.36
410.14	182.56
410.601	183.86
411.062	185.66
411.522	194.96
411.983	191.76
412.444	178.26
412.905	182.76
413.366	191.36
413.826	193.86
414.287	220.46
414.748	268.26
415.208	258.16
415.669	221.16
416.13	213.26
416.59	207.26
417.051	222.46
417.511	225.26
417.972	239.86
418.432	257.96
418.893	285.86
419.353	256.76
419.814	199.16
420.274	187.36
420.734	180.36
421.195	202.36
421.655	201.86
422.115	195.76
422.576	198.56
423.036	204.16
423.496	210.26
423.956	222.06
424.416	236.76
424.876	277.56
425.336	272.36
425.797	274.46
426.257	263.46
426.717	253.46
427.177	243.86
427.637	227.26
428.097	237.26
428.556	251.56
429.016	276.86
429.476	272.46
429.936	285.16
430.396	282.86
430.856	294.96
431.315	320.46
431.775	362.96
432.235	394.96
432.694	364.26
433.154	376.16
433.614	409.36
434.073	354.06
434.533	295.66
434.993	281.26
435.452	286.46
435.912	300.56
436.371	290.46
436.83	290.86
437.29	276.46
437.749	256.66
438.209	251.06
438.668	281.96
439.127	298.56
439.587	271.96
440.046	257.56
440.505	264.36
440.964	288.36
441.424	333.56
441.883	321.06
442.342	272.26
442.801	231.26
443.26	229.36
443.719	225.06
444.178	224.96
444.637	214.36
445.096	229.76
445.555	231.36
446.014	234.36
446.473	231.86
446.932	242.66
447.391	233.86
447.849	233.86
448.308	221.36
448.767	220.96
449.226	240.06
449.685	241.86
450.143	256.86
450.602	244.46
451.061	228.06
451.519	239.76
451.978	235.76
452.436	247.86
452.895	242.76
453.353	261.86
453.812	242.96
454.27	250.26
454.729	247.96
455.187	242.36
455.646	253.66
456.104	255.16
456.562	269.86
457.021	277.26
457.479	270.16
457.937	280.06
458.395	279.86
458.854	255.76
459.312	255.46
459.77	283.06
460.228	266.56
460.686	257.26
461.144	248.06
461.602	251.46
462.06	242.26
462.518	258.86
462.976	264.06
463.434	271.66
463.892	270.56
464.35	285.66
464.808	291.86
465.266	276.56
465.724	272.26
466.181	277.06
466.639	277.66
467.097	300.16
467.555	307.76
468.012	306.06
468.47	315.66
468.928	335.66
469.385	353.16
469.843	358.26
470.3	364.36
470.758	380.56
471.215	388.16
471.673	418.26
472.13	415.16
472.588	426.86
473.045	390.06
473.503	390.86
473.96	400.06
474.417	417.36
474.875	443.06
475.332	489.26
475.789	475.06
476.246	480.16
476.704	495.46
477.161	525.26
477.618	538.56
478.075	579.16
478.532	629.16
478.989	716.66
479.446	832.76
479.903	799.86
480.36	831.06
480.817	885.76
481.274	988.76
481.731	1097.36
482.188	1182.76
482.645	1335.66
483.102	1437.56
483.558	1580.46
484.015	1635.66
484.472	1603.66
484.929	1548.96
485.385	1513.76
485.842	1463.86
486.299	1398.66
486.755	1324.56
487.212	1118.16
487.668	947.76
488.125	870.36
488.582	795.66
489.038	765.26
489.494	732.96
489.951	701.96
490.407	691.06
490.864	661.06
491.32	662.66
491.776	659.96
492.233	661.36
492.689	623.36
493.145	618.36
493.602	614.76
494.058	623.66
494.514	636.66
494.97	651.76
495.426	662.26
495.882	633.16
496.338	630.06
496.794	634.46
497.251	638.86
497.707	650.26
498.163	643.96
498.618	657.36
499.074	660.26
499.53	698.56
499.986	686.86
500.442	669.56
500.898	652.56
501.354	639.16
501.809	660.46
502.265	656.96
502.721	673.86
503.177	682.06
503.632	685.06
504.088	687.36
504.543	726.56
504.999	725.56
505.455	674.16
505.91	645.96
506.366	643.66
506.821	651.06
507.277	639.36
507.732	638.36
508.187	633.56
508.643	646.86
509.098	638.16
509.553	665.46
510.009	684.46
510.464	682.96
510.919	702.76
511.375	713.96
511.83	719.36
512.285	743.86
512.74	785.56
513.195	800.56
513.65	788.56
514.105	788.36
514.56	792.26
515.015	804.06
515.47	816.96
515.925	806.06
516.38	810.26
516.835	819.46
517.29	800.26
517.745	794.66
518.2	780.76
518.655	760.06
519.109	759.46
519.564	751.26
520.019	738.06
520.474	740.96
520.928	737.16
521.383	746.56
521.838	729.56
522.292	724.96
522.747	729.16
523.201	720.96
523.656	713.26
524.11	711.26
524.565	706.16
525.019	702.76
525.474	708.66
525.928	719.56
526.382	709.46
526.837	717.66
527.291	722.56
527.745	709.56
528.2	712.66
528.654	708.46
529.108	704.56
529.562	712.06
530.016	711.86
530.47	705.56
530.925	704.16
531.379	710.96
531.833	715.36
532.287	711.86
532.741	719.06
533.195	725.76
533.649	718.06
534.103	731.16
534.556	714.06
535.01	718.66
535.464	722.56
535.918	727.66
536.372	726.36
536.826	733.16
537.279	725.76
537.733	734.06
538.187	726.86
538.64	731.76
539.094	741.16
539.548	740.26
540.001	732.56
540.455	739.76
540.908	746.36
541.362	749.56
541.815	768.66
542.269	774.36
542.722	778.16
543.175	783.06
543.629	782.86
544.082	798.26
544.536	806.56
544.989	796.16
545.442	816.56
545.895	806.96
546.349	807.76
546.802	807.76
547.255	814.56
547.708	814.36
548.161	831.96
548.614	842.36
549.067	850.76
549.52	831.26
549.973	827.96
550.426	834.26
550.879	801.86
551.332	817.66
551.785	815.96
552.238	820.66
552.691	831.96
553.144	837.56
553.596	861.26
554.049	874.76
554.502	906.76
554.955	916.36
555.407	925.96
555.86	922.56
556.313	915.16
556.765	904.16
557.218	890.56
557.67	891.96
558.123	894.76
558.576	890.96
559.028	899.36
559.48	896.96
559.933	889.56
560.385	858.06
560.838	821.16
561.29	790.26
561.742	806.56
562.195	768.26
562.647	774.56
563.099	797.66
563.551	796.96
564.004	805.56
564.456	787.26
564.908	782.46
565.36	755.66
565.812	738.26
566.264	733.56
566.716	734.56
567.168	719.96
567.62	737.26
568.072	712.36
568.524	706.26
568.976	697.16
569.428	687.56
569.88	682.36
570.332	698.36
570.784	696.86
571.235	696.76
571.687	705.16
572.139	710.56
572.59	715.56
573.042	730.36
573.494	726.36
573.945	723.36
574.397	700.66
574.849	707.56
575.3	696.96
575.752	693.66
576.203	683.16
576.655	697.46
577.106	685.06
577.557	684.76
578.009	678.36
578.46	675.46
578.912	666.46
579.363	668.06
579.814	675.86
580.265	667.56
580.717	676.76
581.168	676.86
581.619	680.66
582.07	693.36
582.521	686.96
582.972	687.16
583.423	690.56
583.875	695.16
584.326	707.96
584.777	751.06
585.227	829.76
585.678	915.36
586.129	1006.16
586.58	1072.16
587.031	1165.66
587.482	1304.66
587.933	1495.86
588.384	1298.76
588.834	983.96
589.285	816.76
589.736	798.26
590.186	774.26
590.637	770.56
591.088	760.96
591.538	745.86
591.989	748.16
592.439	734.96
592.89	736.16
593.34	716.06
593.791	715.06
594.241	709.46
594.692	714.36
595.142	712.16
595.593	705.06
596.043	705.66
596.493	725.56
596.943	731.56
597.394	714.46
597.844	716.96
598.294	735.96
598.744	766.66
599.195	790.76
599.645	822.26
600.095	861.86
600.545	928.56
600.995	969.46
601.445	1033.66
601.895	1097.06
602.345	1135.56
602.795	1128.36
603.245	1084.16
603.695	1010.16
604.145	957.76
604.594	921.56
605.044	872.96
605.494	802.46
605.944	755.36
606.393	743.66
606.843	732.96
607.293	737.56
607.743	745.16
608.192	759.96
608.642	756.96
609.091	771.36
609.541	787.16
609.99	778.46
610.44	778.96
610.889	724.26
611.339	714.46
611.788	693.26
612.238	710.36
612.687	732.16
613.136	730.36
613.586	745.06
614.035	744.26
614.484	754.76
614.933	755.96
615.383	753.96
615.832	743.86
616.281	729.46
616.73	687.36
617.179	676.76
617.628	653.96
618.077	648.66
618.526	629.06
618.975	621.26
619.424	624.16
619.873	622.46
620.322	621.26
620.771	612.46
621.22	613.46
621.669	595.56
622.118	587.86
622.567	579.46
623.015	580.26
623.464	574.66
623.913	566.16
624.361	561.06
624.81	549.06
625.259	556.86
625.707	554.46
626.156	561.76
626.604	568.66
627.053	567.36
627.501	566.86
627.95	567.46
628.398	584.46
628.847	577.86
629.295	575.16
629.744	571.96
630.192	567.26
630.64	577.06
631.089	572.66
631.537	582.16
631.985	585.36
632.433	603.26
632.881	610.36
633.33	664.96
633.778	634.16
634.226	569.56
634.674	581.66
635.122	581.96
635.57	593.16
636.018	635.86
636.466	588.26
636.914	570.26
637.362	570.16
637.81	575.36
638.258	578.16
638.705	578.36
639.153	612.06
639.601	618.56
640.049	648.66
640.497	674.66
640.944	696.26
641.392	645.76
641.84	612.36
642.287	594.26
642.735	567.96
643.182	579.46
643.63	575.76
644.078	582.06
644.525	600.66
644.973	599.86
645.42	604.76
645.867	633.56
646.315	647.36
646.762	676.06
647.21	693.66
647.657	715.76
648.104	753.66
648.551	786.86
648.999	836.56
649.446	914.76
649.893	1012.56
650.34	1170.06
650.787	1387.56
651.234	1724.06
651.682	2247.56
652.129	3103.46
652.576	4445.96
653.023	6574.06
653.47	9019.26
653.917	11243.26
654.363	13039.76
654.81	14395.16
655.257	13682.56
655.704	8983.76
656.151	5285.86
656.598	3416.16
657.044	2443.56
657.491	1870.36
657.938	1497.26
658.385	1259.26
658.831	1071.46
659.278	961.16
659.724	852.86
660.171	792.56
660.618	726.36
661.064	694.86
661.511	669.56
661.957	659.36
662.404	647.26
662.85	654.96
663.296	629.66
663.743	562.06
664.189	543.26
664.635	534.06
665.082	524.86
665.528	538.86
665.974	518.06
666.42	504.86
666.867	493.86
667.313	489.26
667.759	484.46
668.205	469.96
668.651	486.66
669.097	488.36
669.543	494.76
669.989	462.86
670.435	445.16
670.881	438.16
671.327	451.76
671.773	475.26
672.219	492.46
672.665	545.96
673.11	579.36
673.556	624.76
674.002	677.96
674.448	650.26
674.893	546.26
675.339	481.26
675.785	445.06
676.23	413.96
676.676	384.86
677.122	381.56
677.567	370.36
678.013	365.66
678.458	363.16
678.904	361.96
679.349	346.86
679.794	348.46
680.24	347.06
680.685	342.46
681.131	341.06
681.576	348.86
682.021	354.76
682.466	350.76
682.912	345.46
683.357	351.86
683.802	384.06
684.247	404.16
684.692	452.96
685.137	496.96
685.583	537.56
686.028	561.26
686.473	511.06
686.918	436.36
687.363	416.46
687.807	389.66
688.252	369.96
688.697	359.46
689.142	335.56
689.587	332.86
690.032	328.76
690.477	342.36
690.921	347.36
691.366	377.66
691.811	385.06
692.255	433.36
692.7	454.56
693.145	508.96
693.589	682.66
694.034	1100.76
694.478	1514.96
694.923	1737.36
695.367	2248.06
695.812	1187.06
696.256	496.66
696.701	362.46
697.145	341.36
697.59	333.56
698.034	322.96
698.478	326.96
698.922	322.26
699.367	335.36
699.811	331.96
700.255	352.36
700.699	381.96
701.143	420.26
701.588	476.66
702.032	518.16
702.476	515.56
702.92	486.96
703.364	489.26
703.808	628.16
704.252	1020.56
704.696	1444.26
705.14	1648.36
705.584	2119.86
706.027	1058.16
706.471	513.56
706.915	395.16
707.359	354.06
707.803	318.56
708.246	311.06
708.69	309.96
709.134	315.46
709.577	305.46
710.021	310.16
710.465	302.36
710.908	293.96
711.352	298.66
711.795	308.06
712.239	348.56
712.682	385.76
713.126	417.26
713.569	462.16
714.012	372.56
714.456	314.96
714.899	298.56
715.342	267.46
715.786	266.06
716.229	255.96
716.672	250.86
717.115	253.96
717.558	249.56
718.002	244.06
718.445	259.46
718.888	277.16
719.331	298.16
719.774	305.86
720.217	306.16
720.66	283.96
721.103	271.86
721.546	248.66
721.989	248.16
722.432	234.66
722.874	231.16
723.317	240.36
723.76	237.16
724.203	253.56
724.645	315.06
725.088	441.66
725.531	567.66
725.974	641.66
726.416	543.46
726.859	298.56
727.301	246.16
727.744	234.96
728.187	227.46
728.629	232.56
729.071	243.56
729.514	262.86
729.956	269.06
730.399	279.16
730.841	287.36
731.283	275.06
731.726	269.36
732.168	254.66
732.61	266.16
733.053	282.96
733.495	319.26
733.937	348.86
734.379	402.56
734.821	434.76
735.263	536.66
735.705	813.16
736.148	1543.26
736.59	2555.66
737.032	3022.56
737.474	2434.36
737.916	798.46
738.357	423.06
738.799	332.46
739.241	296.46
739.683	279.16
740.125	290.16
740.567	294.76
741.008	318.96
741.45	313.86
741.892	319.86
742.334	345.06
742.775	356.66
743.217	341.36
743.658	269.96
744.1	256.06
744.542	264.56
744.983	311.06
745.425	340.46
745.866	338.86
746.307	280.46
746.749	287.96
747.19	319.16
747.632	451.76
748.073	861.36
748.514	1825.56
748.956	2798.96
749.397	3526.86
749.838	2932.16
750.279	2928.76
750.72	1486.76
751.162	529.86
751.603	317.76
752.044	246.86
752.485	213.66
752.926	212.16
753.367	203.36
753.808	193.46
754.249	190.26
754.69	183.86
755.131	175.86
755.572	178.76
756.013	183.26
756.453	183.16
756.894	186.26
757.335	194.16
757.776	198.66
758.216	188.96
758.657	198.16
759.098	198.56
759.538	219.26
759.979	265.56
760.42	361.86
760.86	689.16
761.301	1782.46
761.741	4345.26
762.182	6360.66
762.622	4475.76
763.063	1290.46
763.503	537.66
763.943	343.26
764.384	339.56
764.824	397.16
765.264	423.56
765.705	298.16
766.145	206.16
766.585	185.96
767.025	175.16
767.465	179.46
767.906	238.26
768.346	309.46
768.786	339.86
769.226	259.56
769.666	319.46
770.106	615.56
770.546	1530.86
770.986	2604.66
771.426	2355.66
771.866	781.96
772.306	325.96
772.745	211.56
773.185	177.56
773.625	173.86
774.065	163.66
774.505	190.66
774.944	299.76
775.384	654.06
775.824	1191.46
776.263	1161.56
776.703	500.66
777.142	219.86
777.582	158.96
778.021	135.36
778.461	143.66
778.9	135.16
779.34	136.66
779.779	120.66
780.219	109.46
780.658	111.26
781.097	116.46
781.537	113.96
781.976	106.86
782.415	109.56
782.855	103.86
783.294	107.36
783.733	112.36
784.172	116.86
784.611	104.76
785.05	113.66
785.489	104.66
785.928	117.06
786.367	119.26
786.806	112.86
787.245	126.36
787.684	141.36
788.123	150.36
788.562	139.56
789.001	126.96
789.44	122.76
789.879	113.06
790.317	121.96
790.756	124.96
791.195	123.46
791.634	145.36
792.072	199.46
792.511	357.26
792.95	984.76
793.388	2103.16
793.827	1919.36
794.265	672.96
794.704	279.06
795.142	184.06
795.581	147.86
796.019	137.56
796.458	131.26
796.896	126.36
797.334	130.66
797.773	155.46
798.211	217.46
798.649	434.86
799.087	1012.56
799.526	1559.06
799.964	1985.06
800.402	1986.46
800.84	741.76
801.278	297.96
801.716	184.26
802.154	153.06
802.592	143.06
803.03	132.06
803.468	131.36
803.906	144.96
804.344	147.66
804.782	139.46
805.22	134.16
805.658	130.56
806.096	149.16
806.533	162.36
806.971	172.36
807.409	211.86
807.847	313.66
808.284	649.56
808.722	1824.56
809.16	3243.76
809.597	3057.76
810.035	5313.86
810.472	5743.76
810.91	2053.46
811.347	771.96
811.785	400.06
812.222	254.46
812.66	195.26
813.097	160.56
813.535	135.36
813.972	125.76
814.409	120.66
814.846	111.66
815.284	109.06
815.721	91.76
816.158	103.06
816.595	118.96
817.032	173.46
817.47	191.96
817.907	164.86
818.344	143.36
818.781	119.46
819.218	100.56
819.655	119.76
820.092	185.46
820.529	217.16
820.966	180.86
821.403	140.06
821.839	111.56
822.276	103.86
822.713	120.96
823.15	131.46
823.587	113.76
824.023	142.56
824.46	288.26
824.897	882.56
825.333	1343.56
825.77	570.66
826.206	221.86
826.643	133.36
827.08	100.36
827.516	87.96
827.953	74.66
828.389	84.66
828.825	71.96
829.262	72.76
829.698	60.66
830.135	66.46
830.571	57.76
831.007	64.36
831.443	63.16
831.88	63.96
832.316	58.26
832.752	61.06
833.188	72.46
833.624	58.56
834.06	65.06
834.497	72.36
834.933	71.96
835.369	76.16
835.805	70.86
836.241	78.06
836.677	72.86
837.112	85.06
837.548	108.96
837.984	129.96
838.42	201.96
838.856	475.96
839.292	1488.56
839.727	2270.46
840.163	1059.76
840.599	903.76
841.034	1991.26
841.47	2086.96
841.906	770.16
842.341	326.56
842.777	232.16
843.212	315.36
843.648	308.86
844.083	154.06
844.519	96.76
844.954	75.56
845.39	66.46
845.825	61.56
846.261	59.66
846.696	51.86
847.131	55.86
847.566	60.76
848.002	56.86
848.437	50.86
848.872	63.36
849.307	62.96
849.742	86.96
850.177	178.76
850.613	537.86
851.048	862.26
851.483	373.36
851.918	155.46
852.353	82.86
852.788	61.56
853.223	58.76
853.657	53.46
854.092	51.06
854.527	46.26
854.962	44.36
855.397	39.76
855.832	50.96
856.266	40.56
856.701	46.16
857.136	33.36
857.57	42.86
858.005	54.76
858.44	54.46
858.874	43.76
859.309	54.46
859.743	45.06
860.178	48.56
860.612	37.16
861.047	52.76
861.481	72.56
861.915	71.16
862.35	55.16
862.784	35.76
863.218	33.66
863.653	28.36
864.087	43.06
864.521	55.06
864.955	74.16
865.39	156.96
865.824	172.56
866.258	118.06
866.692	162.76
867.126	170.76
867.56	103.46
867.994	48.16
868.428	37.66
868.862	41.86
869.296	50.16
869.73	56.36
870.164	48.76
870.598	48.26
871.031	40.76
871.465	33.26
871.899	28.16
872.333	27.46
872.766	28.46
873.2	24.46
873.634	28.46
874.067	29.76
874.501	29.66
874.935	31.26
875.368	32.06
875.802	21.46
876.235	23.56
876.669	24.76
877.102	28.16
877.535	21.76
877.969	27.06
878.402	24.66
878.836	20.86
879.269	23.26
879.702	24.06
880.135	28.36
880.569	21.16
881.002	29.46
881.435	28.86
881.868	22.96
882.301	22.46
882.734	17.36
883.167	28.86
883.601	18.46
884.034	27.66
884.467	14.86
884.899	22.16
885.332	14.26
885.765	17.86
886.198	22.36
886.631	20.86
887.064	24.36
887.497	18.56
887.929	24.86
888.362	16.86
888.795	9.26
889.228	15.26
889.66	23.46
890.093	16.26
890.526	14.46
890.958	19.46
891.391	8.06
891.823	23.36
892.256	14.66
892.688	13.86
893.121	15.46
893.553	13.06
893.985	25.76
894.418	20.66
894.85	16.16
895.282	15.76
895.715	16.86
896.147	17.26
896.579	17.36
897.011	9.76
897.444	15.96
897.876	13.26
898.308	18.36
898.74	12.16
899.172	11.26
899.604	21.66
900.036	19.46
900.468	21.86
900.9	14.86
901.332	15.46
901.764	13.96
902.196	21.76
902.628	17.76
903.06	13.86
903.491	25.66
903.923	25.06
904.355	21.36
904.787	26.66
905.218	28.86
905.65	21.36
906.082	8.26
906.513	10.56
906.945	16.36
907.376	11.76
907.808	15.66
908.239	21.96
908.671	20.16
909.102	20.66
909.534	22.06
909.965	46.56
910.397	94.96
910.828	301.46
911.259	469.46
911.691	206.76
912.122	106.46
912.553	54.86
912.984	37.06
913.415	21.96
913.847	25.26
914.278	17.76
914.709	12.86
915.14	16.06
915.571	17.56
916.002	14.86
916.433	15.76
916.864	14.26
917.295	13.96
917.726	20.96
918.157	20.96
918.587	30.16
919.018	22.66
919.449	21.96
919.88	27.66
920.311	31.46
920.741	56.36
921.172	163.66
921.603	153.76
922.033	72.76
922.464	46.26
922.895	19.26
923.325	21.46
923.756	18.86
924.186	18.56
924.617	27.66
925.047	43.46
925.478	57.16
925.908	48.26
926.338	25.36
926.769	19.26
927.199	14.86
927.629	9.06
928.06	9.96
928.49	21.56
928.92	11.06
929.35	14.46
929.78	14.76
930.21	8.06
930.641	11.06
931.071	12.06
931.501	3.66
931.931	11.66
932.361	8.86
932.791	0.56
933.221	11.96
933.651	7.56
934.08	14.06
934.51	33.06
934.94	10.86
935.37	10.76
935.8	7.56
936.229	11.06
936.659	8.96
937.089	3.46
937.519	14.86
937.948	26.36
938.378	18.36
938.807	8.16
939.237	4.06
939.666	5.16
940.096	1.96
940.525	3.56
940.955	6.76
941.384	2.06
941.814	-8.24
942.243	0.36
942.672	2.66
943.102	0.56
943.531	1.26
943.96	3.46
944.39	-1.44
944.819	-1.94
945.248	1.16
945.677	5.76
946.106	5.36
946.535	1.86
946.964	4.46
947.393	9.16
947.822	5.96
948.251	-1.44
948.68	6.46
949.109	8.66
949.538	3.06
949.967	-0.44
950.396	-1.54
950.825	3.96
951.254	0.26
951.682	-7.04
952.111	-0.44
952.54	6.46
952.969	-5.04
953.397	-7.54
953.826	3.96
954.254	-6.14
954.683	1.46
955.112	-5.94
955.54	1.26
955.969	-1.34
956.397	4.96
956.826	-1.04
957.254	6.56
957.682	-2.84
958.111	12.46
958.539	3.26
958.967	5.46
959.396	3.66
959.824	1.56
960.252	5.66
960.68	-7.44
961.109	-4.84
961.537	-2.74
961.965	-2.84
962.393	2.26
962.821	-6.84
963.249	-2.24
963.677	1.66
964.105	6.76
964.533	44.46
964.961	41.46
965.389	22.36
965.817	10.26
966.245	8.66
966.672	-2.24
967.1	-4.14
967.528	1.66
967.956	-1.64
968.383	2.86
968.811	1.26
969.239	0.16
969.666	-7.54
970.094	-5.04
970.522	3.76
970.949	3.66
971.377	-3.14
971.804	-2.24
972.232	-7.54
972.659	-1.34
973.087	-2.54
973.514	2.76
973.941	-6.04
974.369	2.26
974.796	7.76
975.223	1.06
975.651	-0.04
976.078	-0.24
976.505	-0.94
976.932	-0.44
977.359	18.76
977.786	22.56
978.214	-0.24
978.641	-6.74
979.068	-4.34
979.495	-7.24
979.922	-2.54
980.349	-3.64
980.776	-1.64
981.202	0.56
981.629	1.36
982.056	4.46
982.483	-2.24
982.91	-0.24
983.337	-5.34
983.763	-2.24
984.19	-5.44
984.617	-0.94
985.043	-9.24
985.47	-1.94
985.897	-5.04
986.323	-10.54
986.75	-0.04
987.176	-0.54
987.603	-0.04
988.029	2.36
988.456	-0.64
988.882	8.26
989.308	-6.54
989.735	-4.54
990.161	-4.44
990.587	-8.94
991.014	-0.14
991.44	1.26
991.866	-0.04
992.292	-7.94
992.719	-6.04
993.145	3.46
993.571	-9.14
993.997	-3.84
994.423	-3.04
994.849	-2.14
995.275	-2.84
995.701	-0.34
996.127	-7.44
996.553	4.46
996.979	-3.04
997.405	0.06
997.83	-8.34
998.256	-4.34
998.682	-6.04
999.108	-8.04
999.534	-0.44
999.959	-1.24
1000.385	-1.24
1000.811	-4.84
1001.236	-7.44
1001.662	-3.94
1002.087	-6.54
1002.513	3.76
1002.938	-1.94
1003.364	-2.34
1003.789	-0.34
1004.215	10.56
1004.64	-2.84
1005.066	0.06
1005.491	-5.44
1005.916	-2.34
1006.342	-3.04
1006.767	-12.74
1007.192	8.96
1007.617	-6.24
1008.042	-5.24
1008.468	-7.34
1008.893	-3.14
1009.318	0.16
1009.743	-6.34
1010.168	5.06
1010.593	0.66
1011.018	-3.84
1011.443	-0.84
1011.868	0.76
1012.293	0.86
1012.718	1.86
1013.143	-4.54
1013.567	-0.64
1013.992	-1.14
1014.417	-14.24
1014.842	-0.24
1015.267	-2.34
1015.691	-1.34
1016.116	3.46
1016.541	-0.34
1016.965	-0.64
1017.39	-0.44
1017.814	-0.94
1018.239	4.26
1018.663	-10.34
1019.088	-12.84
1019.512	1.56
1019.937	-7.24
1020.361	-2.54
1020.785	-12.04
1021.21	-2.44
1021.634	-2.34
1022.058	2.46
1022.483	7.26
1022.907	-5.14
1023.331	-2.44
1023.755	-1.64
1024.179	-3.84
1024.604	-9.44
1025.028	-8.44
1025.452	-9.54
1025.876	-5.64
1026.3	1.06
1026.724	-11.04
1027.148	-1.34
1027.572	-7.04
1027.996	1.46
1028.42	-7.04
1028.843	-10.94
1029.267	-5.84
1029.691	-3.64
1030.115	-5.24
1030.539	-7.74
1030.962	-3.24
1031.386	-11.14
1031.81	-2.34
1032.233	-0.04
1032.657	-1.54
1033.08	-0.04
1033.504	-3.74
1033.927	-6.54
1034.351	-10.04
1034.774	-6.84
1035.198	-6.04
1035.621	-3.64
1036.045	-8.44
1036.468	-0.34
1036.891	-8.44
1037.315	-12.14
1037.738	-12.14
1038.161	-0.64
1038.584	-4.04
1039.008	-6.44
1039.431	1.06
1039.854	-1.14
1040.277	-7.24
1040.7	-12.34
1041.123	-3.74
1041.546	-1.44
1041.969	-10.34
1042.392	-6.44
1042.815	-3.54
1043.238	-1.24
1043.661	4.66
1044.084	-4.54
1044.507	-1.14
1044.93	-1.34
1045.352	-3.24
1045.775	-0.44
1046.198	-2.74
1046.621	-5.64
1047.043	-4.34
1047.466	5.86
1047.889	-0.44
1048.311	-3.24
1048.734	-4.44
1049.156	-3.34
1049.579	-9.04
1050.001	-3.14
1050.424	-3.44
1050.846	-2.14
1051.269	-3.64
1051.691	-5.44
1052.113	-6.74
1052.536	1.76
1052.958	-4.14
1053.38	-1.84
1053.802	-9.94
1054.225	3.26
1054.647	-6.54
1055.069	-4.74
1055.491	2.76
1055.913	-5.14
1056.335	-1.54
1056.757	-5.14
1057.179	-6.94
1057.601	-1.24
1058.023	0.26
1058.445	-2.04
1058.867	-5.24
1059.289	-1.24
1059.711	-7.34
1060.133	-1.04
1060.555	-5.14
1060.976	-6.54
1061.398	-9.44
1061.82	-9.84
1062.241	-3.94
1062.663	-14.14
1063.085	-7.34
1063.506	-2.54
1063.928	-8.54
1064.35	-7.54
1064.771	-10.54
1065.193	-4.94
1065.614	-6.94
1066.035	-1.04
1066.457	-3.94
1066.878	-1.54
1067.3	-2.64
1067.721	5.86
1068.142	-2.14
1068.564	-8.04
1068.985	-0.04
1069.406	-5.74
1069.827	-3.54
1070.248	1.16
1070.67	-6.44
1071.091	-8.24
1071.512	-3.74
1071.933	-7.94
1072.354	-3.24
1072.775	-6.54
1073.196	-1.24
1073.617	-3.14
1074.038	-4.14
1074.459	-0.64
1074.88	-11.74
1075.3	0.56
1075.721	-4.44
1076.142	1.46
1076.563	-0.94
1076.983	-10.34
1077.404	-10.24
1077.825	-13.24
1078.246	1.56
1078.666	-16.64
1079.087	-5.14
1079.507	-6.64
1079.928	-7.64
1080.348	-2.74
1080.769	-7.64
1081.189	-2.04
1081.61	-9.04
1082.03	-3.74
1082.451	-3.34
1082.871	-2.54
1083.291	-11.34
1083.711	-4.24
1084.132	-5.04
1084.552	-4.14
1084.972	2.56
1085.392	-12.74
1085.813	-8.64
1086.233	-12.74
1086.653	-4.54
1087.073	-6.54
1087.493	-7.64
1087.913	-6.74
1088.333	-4.54
1088.753	-2.94
1089.173	2.56
1089.593	-7.24
1090.013	-0.54
1090.433	-2.04
1090.852	-3.54
1091.272	-6.74
1091.692	-0.94
1092.112	-5.64
1092.531	-8.04
1092.951	-12.34
1093.371	-5.54
1093.79	-4.54
1094.21	3.66
1094.63	-2.34
1095.049	-5.14
1095.469	-2.84
1095.888	-0.94
1096.308	-0.84
1096.727	5.86
1097.146	-2.34
1097.566	-2.54
1097.985	-10.34
1098.405	-10.24
1098.824	-6.24
1099.243	-7.74
1099.662	-5.14
1100.082	-5.54
1100.501	-6.14
1100.92	-7.94
1101.339	-2.44
1101.758	-3.44
