Data from 20171114-ORNL-Ar_H_NY_Subt18_08-04-15-438.txt Node
Date: Tue Nov 14 08:04:15 EST 2017
User: Ender
Spectrometer: HR+D1039
Trigger mode: 0
Integration Time (sec): 2.730000E-2
Scans to average: 10
Electric dark correction enabled: true
Nonlinearity correction enabled: false
Boxcar width: 0
XAxis mode: Wavelengths
Number of Pixels in Spectrum: 2048
>>>>>Begin Spectral Data<<<<<
187.836	-0.31
188.309	-0.31
188.782	-0.31
189.255	1.69
189.728	-4.61
190.201	4.49
190.674	2.79
191.147	0.49
191.619	-7.01
192.092	0.09
192.565	-1.71
193.038	3.09
193.511	2.79
193.984	3.49
194.456	0.09
194.929	-2.21
195.402	-1.41
195.874	-1.81
196.347	-2.21
196.82	-7.11
197.292	4.09
197.765	0.99
198.237	-1.41
198.71	2.09
199.182	0.39
199.655	5.99
200.127	3.59
200.6	0.29
201.072	-4.91
201.544	-5.21
202.017	-1.21
202.489	5.59
202.961	1.79
203.433	-3.61
203.906	-5.71
204.378	-4.71
204.85	-1.91
205.322	-6.21
205.794	-2.01
206.266	-2.31
206.739	-8.11
207.211	4.19
207.683	-5.51
208.155	-7.51
208.627	-5.41
209.099	0.49
209.57	-8.01
210.042	-8.61
210.514	2.29
210.986	-1.01
211.458	-14.91
211.93	0.49
212.402	-1.61
212.873	-1.41
213.345	-8.71
213.817	-10.01
214.288	-0.71
214.76	-12.81
215.232	0.29
215.703	0.69
216.175	-8.11
216.646	-2.21
217.118	-8.31
217.589	-2.51
218.061	1.39
218.532	-10.01
219.004	-4.51
219.475	-5.31
219.946	-0.21
220.418	-7.01
220.889	6.09
221.36	-3.21
221.832	-12.61
222.303	-12.71
222.774	6.29
223.245	-4.51
223.717	-12.11
224.188	0.19
224.659	-13.11
225.13	-2.81
225.601	-1.51
226.072	-0.11
226.543	1.29
227.014	4.49
227.485	2.49
227.956	-9.01
228.427	-3.81
228.898	0.39
229.369	1.69
229.839	-0.91
230.31	-11.31
230.781	3.19
231.252	-1.71
231.722	-0.81
232.193	-1.91
232.664	2.09
233.135	8.49
233.605	-0.51
234.076	-4.81
234.546	0.99
235.017	11.59
235.487	-3.11
235.958	5.29
236.428	-1.01
236.899	5.99
237.369	5.49
237.84	1.59
238.31	10.49
238.78	5.19
239.251	1.99
239.721	4.19
240.191	-1.21
240.662	-7.21
241.132	3.39
241.602	-1.81
242.072	4.39
242.542	6.49
243.013	5.49
243.483	0.99
243.953	5.49
244.423	-2.61
244.893	-2.51
245.363	4.29
245.833	2.79
246.303	0.39
246.773	8.09
247.243	6.89
247.712	7.39
248.182	8.89
248.652	2.39
249.122	-4.91
249.592	8.29
250.061	15.29
250.531	34.09
251.001	17.19
251.471	25.69
251.94	26.49
252.41	13.19
252.879	1.89
253.349	12.09
253.818	11.49
254.288	0.29
254.757	-0.41
255.227	8.19
255.696	5.89
256.166	9.59
256.635	5.19
257.105	8.19
257.574	5.79
258.043	10.29
258.513	7.69
258.982	18.69
259.451	6.79
259.92	14.99
260.389	12.99
260.859	11.79
261.328	8.29
261.797	16.89
262.266	10.49
262.735	11.59
263.204	7.09
263.673	4.79
264.142	5.19
264.611	-0.11
265.08	-1.71
265.549	3.09
266.018	6.39
266.487	0.79
266.955	-1.71
267.424	2.59
267.893	5.89
268.362	8.79
268.83	5.59
269.299	12.39
269.768	9.99
270.236	7.59
270.705	6.39
271.174	1.69
271.642	8.69
272.111	11.79
272.579	21.69
273.048	17.69
273.516	23.19
273.985	29.89
274.453	18.19
274.922	21.79
275.39	13.39
275.858	1.39
276.327	12.09
276.795	21.09
277.263	14.69
277.731	33.29
278.2	54.09
278.668	54.09
279.136	39.29
279.604	18.39
280.072	25.09
280.54	12.19
281.008	7.19
281.477	11.69
281.945	15.69
282.413	10.39
282.881	16.79
283.348	11.09
283.816	11.99
284.284	8.59
284.752	18.39
285.22	12.99
285.688	16.99
286.156	19.89
286.623	40.99
287.091	42.09
287.559	28.29
288.026	15.29
288.494	19.49
288.962	2.29
289.429	10.39
289.897	16.59
290.364	15.09
290.832	16.49
291.3	14.29
291.767	16.09
292.234	18.79
292.702	11.69
293.169	13.79
293.637	18.99
294.104	23.79
294.571	7.59
295.039	12.39
295.506	11.69
295.973	19.39
296.44	13.29
296.908	22.29
297.375	16.79
297.842	18.49
298.309	15.49
298.776	14.39
299.243	17.69
299.71	10.49
300.177	21.39
300.644	24.79
301.111	18.09
301.578	19.69
302.045	19.59
302.512	23.69
302.979	18.99
303.446	22.79
303.913	20.19
304.379	18.69
304.846	26.39
305.313	24.29
305.78	21.89
306.246	25.29
306.713	19.09
307.18	28.29
307.646	25.89
308.113	21.39
308.579	22.29
309.046	24.19
309.512	26.99
309.979	8.69
310.445	26.49
310.912	24.19
311.378	29.59
311.845	19.19
312.311	28.39
312.777	28.99
313.244	29.39
313.71	36.09
314.176	20.59
314.642	24.69
315.109	28.29
315.575	35.59
316.041	38.19
316.507	32.39
316.973	30.59
317.439	34.09
317.905	38.99
318.371	31.49
318.837	28.69
319.303	27.99
319.769	31.39
320.235	33.49
320.701	30.69
321.167	29.09
321.633	29.09
322.099	38.19
322.564	40.89
323.03	38.69
323.496	32.19
323.962	40.99
324.427	33.59
324.893	39.19
325.359	35.19
325.824	34.89
326.29	28.89
326.755	36.89
327.221	36.19
327.686	37.49
328.152	40.59
328.617	28.29
329.083	40.09
329.548	43.39
330.014	45.09
330.479	34.89
330.944	38.29
331.41	40.79
331.875	35.99
332.34	41.09
332.805	41.19
333.271	43.19
333.736	36.09
334.201	43.89
334.666	44.69
335.131	45.49
335.596	45.99
336.061	44.99
336.526	38.99
336.991	39.69
337.456	49.39
337.921	47.99
338.386	39.19
338.851	44.19
339.316	41.69
339.781	49.89
340.246	45.09
340.711	43.39
341.175	44.39
341.64	39.99
342.105	43.99
342.569	47.99
343.034	47.59
343.499	49.09
343.963	43.59
344.428	57.69
344.893	55.09
345.357	56.59
345.822	60.39
346.286	67.59
346.751	61.59
347.215	66.89
347.679	64.19
348.144	88.69
348.608	71.99
349.073	61.59
349.537	67.19
350.001	69.39
350.465	73.29
350.93	72.69
351.394	67.69
351.858	63.39
352.322	81.29
352.786	70.19
353.25	87.19
353.715	94.19
354.179	91.19
354.643	109.09
355.107	107.89
355.571	93.39
356.035	88.89
356.498	110.79
356.962	107.09
357.426	109.29
357.89	96.19
358.354	75.09
358.818	70.59
359.281	67.69
359.745	68.29
360.209	69.69
360.673	67.99
361.136	72.89
361.6	78.59
362.064	73.09
362.527	71.39
362.991	83.39
363.454	73.29
363.918	66.09
364.381	67.29
364.845	79.09
365.308	77.89
365.772	80.19
366.235	75.69
366.698	74.59
367.162	77.79
367.625	75.49
368.088	83.09
368.552	84.19
369.015	82.99
369.478	92.59
369.941	97.59
370.404	81.39
370.867	99.59
371.331	91.39
371.794	97.99
372.257	95.99
372.72	106.49
373.183	97.39
373.646	92.99
374.109	94.69
374.572	100.49
375.035	97.09
375.497	94.49
375.96	87.09
376.423	96.49
376.886	98.79
377.349	100.59
377.811	94.89
378.274	94.59
378.737	94.29
379.199	94.59
379.662	96.79
380.125	107.39
380.587	103.49
381.05	115.19
381.512	113.19
381.975	123.39
382.437	113.79
382.9	109.09
383.362	119.39
383.825	120.89
384.287	126.59
384.75	120.59
385.212	127.19
385.674	123.19
386.136	121.19
386.599	114.89
387.061	115.09
387.523	117.99
387.985	119.09
388.447	125.19
388.91	124.59
389.372	141.49
389.834	137.19
390.296	130.39
390.758	140.09
391.22	156.09
391.682	188.09
392.144	260.59
392.606	213.39
393.068	149.39
393.529	150.49
393.991	135.39
394.453	129.39
394.915	137.19
395.377	171.49
395.838	185.89
396.3	137.79
396.762	126.39
397.224	117.69
397.685	124.69
398.147	117.09
398.608	122.69
399.07	119.79
399.531	121.09
399.993	120.99
400.454	131.89
400.916	136.29
401.377	130.29
401.839	133.69
402.3	133.99
402.762	150.39
403.223	165.69
403.684	153.39
404.145	141.99
404.607	139.89
405.068	150.49
405.529	148.79
405.99	168.09
406.451	157.49
406.913	156.99
407.374	142.69
407.835	143.49
408.296	147.29
408.757	147.09
409.218	167.19
409.679	157.39
410.14	158.09
410.601	155.29
411.062	166.99
411.522	167.19
411.983	167.49
412.444	158.49
412.905	156.69
413.366	166.29
413.826	172.79
414.287	198.39
414.748	236.69
415.208	220.09
415.669	187.89
416.13	187.89
416.59	184.19
417.051	188.29
417.511	195.09
417.972	214.99
418.432	225.49
418.893	260.99
419.353	226.29
419.814	176.69
420.274	169.49
420.734	162.29
421.195	178.79
421.655	179.09
422.115	174.99
422.576	175.39
423.036	174.49
423.496	179.09
423.956	188.89
424.416	207.79
424.876	244.89
425.336	227.89
425.797	237.29
426.257	230.39
426.717	210.79
427.177	204.29
427.637	202.39
428.097	203.99
428.556	219.79
429.016	237.99
429.476	236.69
429.936	239.69
430.396	243.29
430.856	264.49
431.315	275.89
431.775	311.19
432.235	337.29
432.694	308.89
433.154	317.79
433.614	337.19
434.073	295.29
434.533	249.19
434.993	234.39
435.452	248.59
435.912	265.29
436.371	245.39
436.83	246.89
437.29	240.29
437.749	219.39
438.209	218.79
438.668	236.99
439.127	249.49
439.587	230.99
440.046	221.79
440.505	223.09
440.964	243.59
441.424	278.89
441.883	272.59
442.342	230.09
442.801	208.49
443.26	198.29
443.719	196.99
444.178	190.69
444.637	187.79
445.096	201.09
445.555	196.99
446.014	203.49
446.473	203.29
446.932	202.49
447.391	200.19
447.849	210.09
448.308	193.99
448.767	195.09
449.226	210.39
449.685	210.49
450.143	228.89
450.602	210.89
451.061	202.59
451.519	206.79
451.978	205.89
452.436	211.69
452.895	213.19
453.353	219.39
453.812	208.89
454.27	214.99
454.729	211.39
455.187	217.99
455.646	214.39
456.104	216.09
456.562	225.09
457.021	237.89
457.479	228.09
457.937	242.59
458.395	239.39
458.854	215.39
459.312	229.29
459.77	235.29
460.228	219.79
460.686	216.79
461.144	225.79
461.602	214.29
462.06	218.49
462.518	230.39
462.976	237.09
463.434	232.99
463.892	234.89
464.35	245.19
464.808	263.79
465.266	235.99
465.724	239.09
466.181	246.69
466.639	245.19
467.097	263.09
467.555	271.69
468.012	267.99
468.47	269.09
468.928	289.69
469.385	299.99
469.843	306.79
470.3	306.69
470.758	307.49
471.215	337.89
471.673	356.59
472.13	355.09
472.588	359.39
473.045	326.29
473.503	338.59
473.96	348.49
474.417	352.09
474.875	380.99
475.332	419.39
475.789	405.99
476.246	417.89
476.704	435.79
477.161	444.39
477.618	470.09
478.075	504.59
478.532	545.19
478.989	600.39
479.446	696.49
479.903	676.29
480.36	713.29
480.817	770.09
481.274	855.99
481.731	953.29
482.188	1043.09
482.645	1171.39
483.102	1251.89
483.558	1384.99
484.015	1433.59
484.472	1426.49
484.929	1359.69
485.385	1327.99
485.842	1279.79
486.299	1226.99
486.755	1150.49
487.212	970.49
487.668	823.89
488.125	756.49
488.582	698.49
489.038	675.59
489.494	635.29
489.951	627.29
490.407	598.09
490.864	578.19
491.32	560.19
491.776	572.59
492.233	565.79
492.689	533.09
493.145	532.99
493.602	530.09
494.058	545.99
494.514	547.49
494.97	567.09
495.426	570.79
495.882	542.29
496.338	551.39
496.794	556.89
497.251	548.49
497.707	564.49
498.163	558.19
498.618	561.99
499.074	570.19
499.53	595.39
499.986	588.79
500.442	575.39
500.898	561.39
501.354	553.99
501.809	559.39
502.265	569.99
502.721	585.79
503.177	588.99
503.632	580.19
504.088	603.69
504.543	614.69
504.999	623.69
505.455	575.49
505.91	556.09
506.366	553.59
506.821	545.49
507.277	546.59
507.732	553.99
508.187	554.19
508.643	561.09
509.098	557.39
509.553	574.79
510.009	585.09
510.464	591.79
510.919	600.59
511.375	612.19
511.83	622.69
512.285	632.29
512.74	668.59
513.195	689.69
513.65	677.59
514.105	680.39
514.56	682.69
515.015	692.69
515.47	710.29
515.925	706.19
516.38	701.79
516.835	703.79
517.29	698.29
517.745	692.19
518.2	669.59
518.655	661.59
519.109	660.39
519.564	654.69
520.019	641.79
520.474	642.09
520.928	638.69
521.383	632.09
521.838	629.79
522.292	623.29
522.747	612.09
523.201	611.99
523.656	604.09
524.11	603.39
524.565	600.99
525.019	597.89
525.474	615.89
525.928	618.49
526.382	603.29
526.837	606.99
527.291	606.69
527.745	608.79
528.2	598.99
528.654	598.59
529.108	603.89
529.562	599.59
530.016	610.09
530.47	608.09
530.925	602.79
531.379	612.29
531.833	614.09
532.287	614.99
532.741	609.59
533.195	615.99
533.649	628.09
534.103	633.29
534.556	618.89
535.01	629.29
535.464	616.89
535.918	628.79
536.372	626.79
536.826	633.19
537.279	607.39
537.733	617.39
538.187	620.49
538.64	620.39
539.094	629.49
539.548	623.49
540.001	627.19
540.455	637.59
540.908	628.39
541.362	638.49
541.815	641.59
542.269	651.69
542.722	652.69
543.175	670.69
543.629	669.29
544.082	679.49
544.536	678.19
544.989	680.89
545.442	683.39
545.895	676.79
546.349	671.09
546.802	684.49
547.255	684.09
547.708	687.39
548.161	690.19
548.614	707.29
549.067	719.29
549.52	710.49
549.973	695.89
550.426	691.59
550.879	680.09
551.332	681.39
551.785	687.69
552.238	689.19
552.691	697.79
553.144	708.19
553.596	731.39
554.049	746.19
554.502	763.49
554.955	788.09
555.407	777.89
555.86	773.49
556.313	776.19
556.765	758.09
557.218	754.39
557.67	762.89
558.123	750.69
558.576	750.89
559.028	755.09
559.48	753.29
559.933	747.79
560.385	723.09
560.838	685.99
561.29	664.79
561.742	671.99
562.195	651.09
562.647	649.99
563.099	659.39
563.551	651.09
564.004	665.09
564.456	658.09
564.908	638.39
565.36	624.79
565.812	614.79
566.264	615.79
566.716	618.39
567.168	602.29
567.62	607.39
568.072	597.99
568.524	585.29
568.976	586.59
569.428	558.39
569.88	563.69
570.332	580.69
570.784	574.99
571.235	579.39
571.687	582.09
572.139	591.99
572.59	601.69
573.042	591.09
573.494	600.19
573.945	593.59
574.397	577.09
574.849	580.09
575.3	575.09
575.752	572.99
576.203	572.29
576.655	581.49
577.106	565.89
577.557	560.59
578.009	563.49
578.46	551.79
578.912	554.09
579.363	547.89
579.814	559.79
580.265	550.49
580.717	558.19
581.168	545.79
581.619	556.79
582.07	565.09
582.521	559.69
582.972	557.89
583.423	563.09
583.875	557.79
584.326	582.39
584.777	620.49
585.227	690.89
585.678	761.29
586.129	845.29
586.58	911.79
587.031	981.39
587.482	1129.09
587.933	1284.19
588.384	1111.79
588.834	822.19
589.285	669.29
589.736	649.09
590.186	643.59
590.637	639.79
591.088	622.29
591.538	611.69
591.989	611.99
592.439	602.69
592.89	594.69
593.34	582.39
593.791	587.79
594.241	582.69
594.692	579.59
595.142	583.09
595.593	587.09
596.043	570.59
596.493	579.49
596.943	586.69
597.394	592.99
597.844	586.09
598.294	595.09
598.744	613.39
599.195	649.39
599.645	672.09
600.095	706.09
600.545	744.39
600.995	786.69
601.445	841.49
601.895	900.49
602.345	935.19
602.795	916.29
603.245	884.89
603.695	836.39
604.145	796.29
604.594	752.09
605.044	702.39
605.494	651.29
605.944	619.79
606.393	608.19
606.843	582.89
607.293	600.59
607.743	588.79
608.192	605.19
608.642	616.89
609.091	619.89
609.541	627.39
609.99	621.59
610.44	615.89
610.889	578.29
611.339	567.89
611.788	546.89
612.238	573.79
612.687	584.39
613.136	584.59
613.586	599.29
614.035	603.29
614.484	617.69
614.933	607.89
615.383	606.19
615.832	605.09
616.281	586.99
616.73	566.59
617.179	535.79
617.628	528.19
618.077	517.89
618.526	505.89
618.975	499.99
619.424	498.69
619.873	500.29
620.322	502.69
620.771	487.29
621.22	483.89
621.669	479.19
622.118	474.09
622.567	464.89
623.015	459.49
623.464	454.99
623.913	451.09
624.361	446.09
624.81	440.09
625.259	447.59
625.707	445.39
626.156	447.69
626.604	456.49
627.053	457.69
627.501	464.99
627.95	457.19
628.398	462.79
628.847	455.79
629.295	448.79
629.744	463.59
630.192	462.59
630.64	454.09
631.089	456.19
631.537	461.19
631.985	468.79
632.433	470.19
632.881	479.69
633.33	520.59
633.778	507.99
634.226	454.29
634.674	455.79
635.122	457.89
635.57	469.39
636.018	501.29
636.466	466.39
636.914	435.89
637.362	450.49
637.81	461.49
638.258	457.89
638.705	457.19
639.153	487.39
639.601	485.99
640.049	504.39
640.497	534.49
640.944	560.49
641.392	512.79
641.84	490.89
642.287	466.29
642.735	459.09
643.182	456.39
643.63	461.49
644.078	462.49
644.525	474.29
644.973	471.39
645.42	473.59
645.867	494.99
646.315	510.09
646.762	517.89
647.21	550.19
647.657	567.69
648.104	595.19
648.551	605.59
648.999	662.09
649.446	722.89
649.893	789.39
650.34	913.79
650.787	1078.89
651.234	1345.89
651.682	1745.89
652.129	2381.19
652.576	3441.59
653.023	5087.09
653.47	7102.89
653.917	8955.39
654.363	10510.89
654.81	11885.89
655.257	11358.09
655.704	7322.29
656.151	4271.69
656.598	2748.69
657.044	1955.29
657.491	1500.19
657.938	1197.49
658.385	993.49
658.831	871.29
659.278	769.59
659.724	678.79
660.171	627.99
660.618	570.79
661.064	541.19
661.511	522.79
661.957	506.09
662.404	501.09
662.85	499.19
663.296	475.59
663.743	442.39
664.189	426.09
664.635	417.09
665.082	417.19
665.528	413.89
665.974	401.79
666.42	403.29
666.867	396.29
667.313	385.69
667.759	374.79
668.205	383.19
668.651	371.89
669.097	376.59
669.543	394.19
669.989	373.79
670.435	357.49
670.881	347.09
671.327	358.59
671.773	375.09
672.219	388.69
672.665	423.59
673.11	460.89
673.556	495.59
674.002	520.39
674.448	510.09
674.893	434.09
675.339	373.99
675.785	345.29
676.23	323.49
676.676	299.89
677.122	297.89
677.567	285.09
678.013	285.69
678.458	276.39
678.904	277.39
679.349	270.99
679.794	272.49
680.24	265.69
680.685	270.19
681.131	262.99
681.576	268.29
682.021	274.69
682.466	263.69
682.912	264.89
683.357	275.79
683.802	300.69
684.247	310.99
684.692	351.89
685.137	383.69
685.583	420.09
686.028	433.39
686.473	411.49
686.918	341.39
687.363	329.69
687.807	299.39
688.252	282.69
688.697	271.89
689.142	262.99
689.587	260.09
690.032	256.09
690.477	273.39
690.921	278.09
691.366	294.69
691.811	308.29
692.255	335.59
692.7	365.19
693.145	386.39
693.589	522.69
694.034	861.79
694.478	1184.69
694.923	1377.59
695.367	1832.69
695.812	957.59
696.256	392.49
696.701	290.99
697.145	263.39
697.59	258.19
698.034	254.09
698.478	259.09
698.922	244.09
699.367	255.09
699.811	261.29
700.255	270.69
700.699	303.09
701.143	329.19
701.588	367.19
702.032	397.19
702.476	405.89
702.92	381.99
703.364	379.99
703.808	479.89
704.252	774.19
704.696	1104.79
705.14	1321.49
705.584	1711.19
706.027	842.09
706.471	411.99
706.915	306.69
707.359	272.69
707.803	251.09
708.246	232.59
708.69	248.89
709.134	240.69
709.577	243.19
710.021	241.79
710.465	243.39
710.908	233.69
711.352	227.19
711.795	241.99
712.239	269.59
712.682	292.49
713.126	322.09
713.569	368.09
714.012	287.89
714.456	257.49
714.899	237.59
715.342	215.39
715.786	206.59
716.229	207.49
716.672	196.19
717.115	193.59
717.558	193.79
718.002	201.39
718.445	200.79
718.888	220.79
719.331	226.79
719.774	225.69
720.217	237.59
720.66	223.99
721.103	202.39
721.546	195.99
721.989	181.39
722.432	174.59
722.874	188.49
723.317	176.59
723.76	181.39
724.203	204.69
724.645	240.79
725.088	339.99
725.531	436.29
725.974	507.39
726.416	440.29
726.859	237.89
727.301	193.99
727.744	177.69
728.187	180.89
728.629	180.19
729.071	179.79
729.514	202.69
729.956	215.69
730.399	221.79
730.841	219.89
731.283	215.59
731.726	206.79
732.168	198.09
732.61	211.89
733.053	217.39
733.495	242.19
733.937	265.09
734.379	307.29
734.821	325.49
735.263	410.19
735.705	624.59
736.148	1183.89
736.59	1964.79
737.032	2462.39
737.474	1998.59
737.916	626.19
738.357	333.19
738.799	248.69
739.241	223.19
739.683	217.29
740.125	221.99
740.567	226.39
741.008	244.29
741.45	248.19
741.892	234.39
742.334	271.19
742.775	278.69
743.217	269.69
743.658	210.79
744.1	199.59
744.542	208.59
744.983	234.19
745.425	270.49
745.866	269.39
746.307	218.99
746.749	215.99
747.19	245.39
747.632	343.89
748.073	652.79
748.514	1386.59
748.956	2232.29
749.397	2768.09
749.838	2318.29
750.279	2395.29
750.72	1190.79
751.162	423.99
751.603	243.49
752.044	201.39
752.485	164.49
752.926	152.59
753.367	156.19
753.808	144.19
754.249	147.09
754.69	142.79
755.131	140.09
755.572	140.79
756.013	136.99
756.453	141.19
756.894	146.79
757.335	146.49
757.776	155.59
758.216	146.29
758.657	150.19
759.098	161.89
759.538	171.09
759.979	199.49
760.42	281.09
760.86	523.09
761.301	1360.79
761.741	3381.29
762.182	5251.09
762.622	3696.19
763.063	1047.29
763.503	421.29
763.943	270.19
764.384	259.39
764.824	314.99
765.264	355.49
765.705	241.09
766.145	163.09
766.585	144.89
767.025	142.19
767.465	141.49
767.906	188.09
768.346	253.29
768.786	268.39
769.226	202.59
769.666	242.39
770.106	454.59
770.546	1165.79
770.986	2097.09
771.426	1927.39
771.866	624.89
772.306	249.49
772.745	164.59
773.185	136.99
773.625	134.39
774.065	125.49
774.505	154.69
774.944	230.19
775.384	517.29
775.824	996.49
776.263	980.59
776.703	413.69
777.142	171.19
777.582	122.79
778.021	99.49
778.461	106.89
778.9	113.99
779.34	102.99
779.779	88.19
780.219	83.59
780.658	82.99
781.097	83.09
781.537	90.99
781.976	87.19
782.415	81.09
782.855	78.39
783.294	84.39
783.733	82.89
784.172	82.39
784.611	73.99
785.05	81.09
785.489	85.79
785.928	84.29
786.367	87.89
786.806	89.89
787.245	93.79
787.684	100.89
788.123	116.69
788.562	101.69
789.001	97.69
789.44	92.69
789.879	97.19
790.317	87.99
790.756	94.59
791.195	96.39
791.634	115.89
792.072	159.29
792.511	273.99
792.95	741.29
793.388	1713.79
793.827	1585.29
794.265	537.79
794.704	217.59
795.142	137.09
795.581	112.69
796.019	98.49
796.458	91.19
796.896	95.49
797.334	97.99
797.773	114.29
798.211	162.19
798.649	323.39
799.087	781.49
799.526	1235.49
799.964	1572.79
800.402	1639.19
800.84	596.29
801.278	230.79
801.716	149.79
802.154	120.09
802.592	107.79
803.03	109.09
803.468	101.89
803.906	109.99
804.344	114.09
804.782	110.29
805.22	99.79
805.658	97.59
806.096	104.49
806.533	118.59
806.971	134.39
807.409	164.89
807.847	235.09
808.284	496.19
808.722	1409.29
809.16	2629.59
809.597	2408.19
810.035	4277.19
810.472	4812.39
810.91	1697.79
811.347	630.39
811.785	320.89
812.222	200.79
812.66	148.49
813.097	130.19
813.535	112.49
813.972	95.19
814.409	88.69
814.846	84.59
815.284	83.99
815.721	78.99
816.158	83.69
816.595	93.19
817.032	142.89
817.47	159.79
817.907	143.59
818.344	117.49
818.781	92.99
819.218	80.09
819.655	94.79
820.092	153.49
820.529	173.99
820.966	142.29
821.403	107.59
821.839	84.89
822.276	80.39
822.713	94.79
823.15	107.29
823.587	91.69
824.023	109.99
824.46	225.19
824.897	682.19
825.333	1099.19
825.77	473.19
826.206	179.59
826.643	105.49
827.08	79.09
827.516	62.19
827.953	57.89
828.389	58.39
828.825	48.99
829.262	54.09
829.698	44.49
830.135	53.09
830.571	45.59
831.007	49.59
831.443	50.69
831.88	44.49
832.316	47.79
832.752	45.99
833.188	53.49
833.624	50.79
834.06	49.49
834.497	53.19
834.933	56.89
835.369	56.09
835.805	48.19
836.241	61.19
836.677	64.29
837.112	69.59
837.548	80.49
837.984	103.79
838.42	152.19
838.856	371.49
839.292	1162.09
839.727	1870.39
840.163	858.99
840.599	710.49
841.034	1616.49
841.47	1761.59
841.906	621.39
842.341	261.79
842.777	183.99
843.212	243.09
843.648	260.69
844.083	117.59
844.519	73.89
844.954	61.09
845.39	46.39
845.825	47.19
846.261	47.49
846.696	44.19
847.131	42.69
847.566	42.19
848.002	41.39
848.437	43.79
848.872	43.79
849.307	49.59
849.742	65.49
850.177	137.39
850.613	432.39
851.048	707.89
851.483	302.29
851.918	116.79
852.353	73.09
852.788	45.49
853.223	39.49
853.657	35.19
854.092	32.79
854.527	32.99
854.962	34.49
855.397	37.69
855.832	41.19
856.266	32.59
856.701	33.29
857.136	30.79
857.57	27.99
858.005	36.99
858.44	41.99
858.874	29.79
859.309	40.39
859.743	29.69
860.178	32.39
860.612	26.99
861.047	34.79
861.481	45.79
861.915	54.09
862.35	39.89
862.784	22.59
863.218	28.99
863.653	25.39
864.087	39.79
864.521	42.99
864.955	56.89
865.39	120.49
865.824	135.59
866.258	93.49
866.692	139.69
867.126	143.29
867.56	91.39
867.994	46.29
868.428	29.89
868.862	33.29
869.296	45.39
869.73	45.39
870.164	42.59
870.598	42.89
871.031	30.49
871.465	23.59
871.899	22.39
872.333	15.19
872.766	22.19
873.2	12.39
873.634	19.09
874.067	16.99
874.501	16.29
874.935	29.19
875.368	23.49
875.802	17.49
876.235	19.09
876.669	19.19
877.102	11.19
877.535	16.09
877.969	10.29
878.402	21.09
878.836	17.79
879.269	18.09
879.702	17.29
880.135	19.59
880.569	18.49
881.002	21.89
881.435	19.69
881.868	10.39
882.301	23.59
882.734	14.79
883.167	18.09
883.601	13.19
884.034	13.99
884.467	10.89
884.899	12.59
885.332	15.09
885.765	11.89
886.198	10.29
886.631	16.69
887.064	24.09
887.497	19.79
887.929	23.19
888.362	7.79
888.795	7.59
889.228	11.89
889.66	19.89
890.093	12.89
890.526	12.59
890.958	14.09
891.391	15.49
891.823	19.39
892.256	10.79
892.688	6.59
893.121	14.69
893.553	7.19
893.985	18.29
894.418	12.99
894.85	9.39
895.282	11.59
895.715	14.99
896.147	6.49
896.579	15.99
897.011	12.69
897.444	16.59
897.876	7.69
898.308	13.19
898.74	13.69
899.172	7.59
899.604	20.69
900.036	13.29
900.468	10.09
900.9	9.29
901.332	16.19
901.764	12.89
902.196	18.79
902.628	17.09
903.06	11.99
903.491	27.69
903.923	14.09
904.355	14.69
904.787	20.99
905.218	15.69
905.65	19.49
906.082	7.39
906.513	13.69
906.945	15.49
907.376	15.99
907.808	15.29
908.239	19.49
908.671	18.39
909.102	17.49
909.534	17.39
909.965	40.39
910.397	70.49
910.828	242.39
911.259	391.89
911.691	180.39
912.122	83.29
912.553	42.29
912.984	29.59
913.415	20.29
913.847	17.39
914.278	11.49
914.709	11.49
915.14	18.69
915.571	14.99
916.002	10.99
916.433	16.99
916.864	11.59
917.295	8.79
917.726	13.99
918.157	6.99
918.587	24.19
919.018	14.19
919.449	19.29
919.88	19.09
920.311	22.29
920.741	39.99
921.172	131.09
921.603	119.89
922.033	54.69
922.464	31.39
922.895	19.99
923.325	17.99
923.756	10.79
924.186	8.79
924.617	22.59
925.047	31.39
925.478	45.99
925.908	40.69
926.338	16.59
926.769	12.69
927.199	21.79
927.629	9.09
928.06	16.19
928.49	17.79
928.92	12.09
929.35	12.09
929.78	9.99
930.21	7.49
930.641	7.19
931.071	7.19
931.501	10.29
931.931	8.49
932.361	5.59
932.791	4.29
933.221	6.19
933.651	2.09
934.08	11.19
934.51	30.19
934.94	8.09
935.37	7.99
935.8	2.69
936.229	2.09
936.659	2.69
937.089	1.09
937.519	12.29
937.948	21.19
938.378	9.49
938.807	1.69
939.237	8.59
939.666	9.49
940.096	-7.11
940.525	5.99
940.955	0.39
941.384	3.69
941.814	-6.31
942.243	-2.31
942.672	0.79
943.102	-1.51
943.531	-3.31
943.96	-1.51
944.39	1.29
944.819	1.29
945.248	7.09
945.677	3.39
946.106	4.99
946.535	7.09
946.964	0.39
947.393	2.79
947.822	5.09
948.251	-6.11
948.68	4.99
949.109	6.99
949.538	7.99
949.967	3.09
950.396	0.09
950.825	-4.01
951.254	1.99
951.682	1.89
952.111	2.99
952.54	6.89
952.969	-4.01
953.397	-6.31
953.826	0.99
954.254	-5.21
954.683	1.09
955.112	-3.41
955.54	-0.61
955.969	0.89
956.397	0.69
956.826	-4.61
957.254	1.79
957.682	0.69
958.111	8.79
958.539	3.19
958.967	-0.91
959.396	1.99
959.824	3.69
960.252	3.19
960.68	-8.71
961.109	-3.01
961.537	-4.21
961.965	-0.31
962.393	-1.01
962.821	-1.21
963.249	4.19
963.677	3.19
964.105	-1.11
964.533	39.49
964.961	32.29
965.389	6.79
965.817	9.69
966.245	0.89
966.672	0.79
967.1	-7.31
967.528	3.29
967.956	0.69
968.383	2.09
968.811	-5.01
969.239	-5.51
969.666	-5.71
970.094	-3.11
970.522	0.29
970.949	0.69
971.377	-6.71
971.804	2.49
972.232	-3.01
972.659	-0.81
973.087	-0.21
973.514	-2.81
973.941	-1.21
974.369	2.39
974.796	4.09
975.223	-1.71
975.651	1.49
976.078	0.09
976.505	0.29
976.932	1.19
977.359	9.19
977.786	12.19
978.214	2.09
978.641	-6.81
979.068	-7.31
979.495	-3.41
979.922	1.39
980.349	-3.11
980.776	4.79
981.202	-0.31
981.629	4.79
982.056	2.49
982.483	-5.31
982.91	5.89
983.337	-3.31
983.763	2.49
984.19	0.99
984.617	-9.61
985.043	-5.31
985.47	-3.71
985.897	0.69
986.323	-7.71
986.75	0.19
987.176	3.39
987.603	-0.01
988.029	3.39
988.456	-3.21
988.882	-2.01
989.308	-7.51
989.735	-3.41
990.161	4.19
990.587	-5.61
991.014	-3.21
991.44	7.99
991.866	-0.71
992.292	-1.41
992.719	-1.81
993.145	8.79
993.571	-8.31
993.997	-0.41
994.423	-1.61
994.849	-5.41
995.275	-3.61
995.701	-1.21
996.127	-0.91
996.553	6.89
996.979	-6.21
997.405	0.29
997.83	-8.61
998.256	-1.21
998.682	-11.01
999.108	-13.91
999.534	-0.61
999.959	-1.71
1000.385	-3.41
1000.811	2.99
1001.236	-6.21
1001.662	-8.41
1002.087	-5.91
1002.513	-3.61
1002.938	0.69
1003.364	-1.01
1003.789	-0.51
1004.215	7.29
1004.64	-0.81
1005.066	1.49
1005.491	2.49
1005.916	-3.91
1006.342	-2.11
1006.767	-4.01
1007.192	9.19
1007.617	-4.11
1008.042	0.39
1008.468	-10.41
1008.893	2.49
1009.318	0.29
1009.743	2.19
1010.168	4.69
1010.593	2.69
1011.018	-6.01
1011.443	-4.51
1011.868	0.59
1012.293	-6.41
1012.718	-12.21
1013.143	4.09
1013.567	4.89
1013.992	1.69
1014.417	-13.31
1014.842	3.59
1015.267	-2.61
1015.691	-4.61
1016.116	3.29
1016.541	3.09
1016.965	-1.51
1017.39	2.29
1017.814	1.29
1018.239	0.29
1018.663	-6.11
1019.088	-15.61
1019.512	-6.81
1019.937	0.09
1020.361	-8.91
1020.785	-8.31
1021.21	-1.11
1021.634	-3.11
1022.058	0.89
1022.483	0.99
1022.907	-6.11
1023.331	1.69
1023.755	-0.31
1024.179	-2.01
1024.604	-8.51
1025.028	-1.11
1025.452	-0.41
1025.876	3.99
1026.3	0.29
1026.724	-8.31
1027.148	-0.81
1027.572	-9.51
1027.996	-2.51
1028.42	-1.01
1028.843	-3.11
1029.267	-7.81
1029.691	-3.71
1030.115	-2.41
1030.539	-10.01
1030.962	-4.61
1031.386	-10.41
1031.81	3.29
1032.233	-1.31
1032.657	-3.51
1033.08	-0.31
1033.504	-2.81
1033.927	3.89
1034.351	-0.81
1034.774	-3.81
1035.198	-0.81
1035.621	-3.41
1036.045	-11.21
1036.468	-0.81
1036.891	-7.41
1037.315	-12.31
1037.738	-7.71
1038.161	2.19
1038.584	-8.51
1039.008	-5.71
1039.431	-2.01
1039.854	2.79
1040.277	-9.71
1040.7	-8.71
1041.123	-0.01
1041.546	-8.11
1041.969	-5.21
1042.392	-5.01
1042.815	-0.11
1043.238	4.39
1043.661	-0.61
1044.084	-9.81
1044.507	-3.11
1044.93	-5.31
1045.352	-9.11
1045.775	-1.31
1046.198	-0.01
1046.621	-4.61
1047.043	-2.31
1047.466	9.79
1047.889	-5.41
1048.311	-2.21
1048.734	-4.21
1049.156	-3.41
1049.579	-7.31
1050.001	-0.11
1050.424	3.79
1050.846	-1.11
1051.269	0.69
1051.691	-8.91
1052.113	-10.51
1052.536	0.19
1052.958	-2.21
1053.38	-3.11
1053.802	-12.71
1054.225	-3.61
1054.647	-4.81
1055.069	-3.31
1055.491	-0.91
1055.913	-5.71
1056.335	0.39
1056.757	-4.21
1057.179	-9.61
1057.601	-5.61
1058.023	-4.71
1058.445	-9.31
1058.867	-9.41
1059.289	-3.31
1059.711	-7.21
1060.133	2.09
1060.555	-6.41
1060.976	-6.51
1061.398	-10.11
1061.82	-5.11
1062.241	-8.41
1062.663	-8.41
1063.085	2.49
1063.506	2.39
1063.928	-4.71
1064.35	-3.31
1064.771	-8.01
1065.193	-4.31
1065.614	-2.51
1066.035	3.09
1066.457	0.29
1066.878	3.29
1067.3	-0.51
1067.721	-0.51
1068.142	1.39
1068.564	-5.11
1068.985	-6.71
1069.406	-7.31
1069.827	-7.01
1070.248	-0.21
1070.67	-7.81
1071.091	-3.41
1071.512	-1.01
1071.933	-10.11
1072.354	-8.01
1072.775	-6.31
1073.196	-3.11
1073.617	-2.61
1074.038	-6.81
1074.459	2.59
1074.88	-8.71
1075.3	3.59
1075.721	-0.91
1076.142	4.99
1076.563	3.89
1076.983	-5.21
1077.404	-2.31
1077.825	-9.51
1078.246	-6.01
1078.666	-5.61
1079.087	-2.51
1079.507	-6.21
1079.928	3.69
1080.348	-1.71
1080.769	-0.91
1081.189	2.59
1081.61	-4.51
1082.03	-2.41
1082.451	-6.81
1082.871	-3.51
1083.291	-6.01
1083.711	-4.11
1084.132	-5.51
1084.552	-4.01
1084.972	3.29
1085.392	-11.31
1085.813	-10.21
1086.233	-5.71
1086.653	-3.51
1087.073	-5.01
1087.493	-0.71
1087.913	-6.81
1088.333	-6.71
1088.753	-5.71
1089.173	3.79
1089.593	0.59
1090.013	2.69
1090.433	1.79
1090.852	-2.51
1091.272	2.39
1091.692	-2.81
1092.112	-7.61
1092.531	-10.81
1092.951	-15.01
1093.371	1.09
1093.79	8.49
1094.21	-4.61
1094.63	-6.31
1095.049	-1.51
1095.469	-3.41
1095.888	-8.01
1096.308	-3.61
1096.727	0.49
1097.146	-6.41
1097.566	0.99
1097.985	-8.51
1098.405	-6.21
1098.824	-6.61
1099.243	-2.71
1099.662	-8.51
1100.082	-7.01
1100.501	1.09
1100.92	-6.81
1101.339	-2.01
1101.758	-5.21
