Data from 20171114-ORNL-Ar_H_NY_Subt18_08-05-46-066.txt Node
Date: Tue Nov 14 08:05:46 EST 2017
User: Ender
Spectrometer: HR+D1039
Trigger mode: 0
Integration Time (sec): 2.730000E-2
Scans to average: 10
Electric dark correction enabled: true
Nonlinearity correction enabled: false
Boxcar width: 0
XAxis mode: Wavelengths
Number of Pixels in Spectrum: 2048
>>>>>Begin Spectral Data<<<<<
187.836	-1.48
188.309	-1.48
188.782	-1.48
189.255	6.12
189.728	1.62
190.201	2.62
190.674	3.12
191.147	2.32
191.619	-7.48
192.092	-2.68
192.565	3.02
193.038	-2.58
193.511	2.32
193.984	-2.78
194.456	-1.98
194.929	0.62
195.402	-2.08
195.874	-0.68
196.347	-7.88
196.82	-7.18
197.292	-0.88
197.765	-4.88
198.237	-8.88
198.71	3.82
199.182	-2.38
199.655	1.82
200.127	2.32
200.6	-6.48
201.072	-3.88
201.544	-7.58
202.017	-5.38
202.489	-1.18
202.961	-5.58
203.433	-3.88
203.906	-8.78
204.378	-3.78
204.85	-8.38
205.322	-9.98
205.794	-3.08
206.266	-6.18
206.739	-9.88
207.211	-1.38
207.683	-5.58
208.155	-8.08
208.627	-5.28
209.099	-5.18
209.57	-11.28
210.042	-5.48
210.514	-5.08
210.986	-7.08
211.458	-12.68
211.93	-2.68
212.402	-2.88
212.873	-11.18
213.345	-7.48
213.817	-16.38
214.288	-7.78
214.76	-15.08
215.232	-7.78
215.703	-1.78
216.175	-4.08
216.646	-11.28
217.118	-6.28
217.589	-7.58
218.061	4.82
218.532	-7.78
219.004	-5.78
219.475	-7.08
219.946	-9.88
220.418	-5.58
220.889	3.22
221.36	0.22
221.832	-6.68
222.303	-4.18
222.774	4.22
223.245	-14.18
223.717	-4.58
224.188	-9.08
224.659	-8.68
225.13	-5.58
225.601	-8.58
226.072	5.72
226.543	-7.28
227.014	-5.08
227.485	-4.38
227.956	-2.18
228.427	-2.48
228.898	-0.58
229.369	0.92
229.839	-4.48
230.31	-4.58
230.781	-0.88
231.252	-1.28
231.722	-5.28
232.193	-7.58
232.664	-3.58
233.135	-5.78
233.605	-0.98
234.076	-9.78
234.546	0.32
235.017	5.62
235.487	0.92
235.958	-5.48
236.428	-5.68
236.899	4.62
237.369	2.02
237.84	-4.38
238.31	-5.08
238.78	2.52
239.251	-6.08
239.721	3.32
240.191	0.72
240.662	4.12
241.132	4.72
241.602	0.12
242.072	-2.28
242.542	2.42
243.013	-3.98
243.483	8.82
243.953	2.82
244.423	-7.48
244.893	-6.28
245.363	3.42
245.833	-2.68
246.303	-5.08
246.773	6.82
247.243	6.92
247.712	0.72
248.182	6.82
248.652	2.52
249.122	-2.98
249.592	12.52
250.061	15.82
250.531	36.12
251.001	17.92
251.471	20.02
251.94	17.82
252.41	3.62
252.879	-4.28
253.349	8.52
253.818	12.02
254.288	6.12
254.757	1.42
255.227	-3.28
255.696	2.12
256.166	11.82
256.635	5.52
257.105	11.12
257.574	5.62
258.043	8.52
258.513	15.52
258.982	21.42
259.451	11.22
259.92	17.02
260.389	9.62
260.859	21.02
261.328	9.12
261.797	18.02
262.266	7.32
262.735	10.62
263.204	6.22
263.673	6.52
264.142	6.52
264.611	2.02
265.08	1.82
265.549	-4.18
266.018	3.32
266.487	-4.58
266.955	2.32
267.424	-0.28
267.893	7.42
268.362	5.92
268.83	4.32
269.299	7.92
269.768	5.42
270.236	4.92
270.705	1.42
271.174	7.82
271.642	7.52
272.111	8.82
272.579	15.42
273.048	25.92
273.516	30.02
273.985	27.62
274.453	19.22
274.922	19.12
275.39	12.32
275.858	4.02
276.327	6.22
276.795	18.12
277.263	9.62
277.731	29.22
278.2	55.72
278.668	63.22
279.136	47.02
279.604	20.02
280.072	23.02
280.54	13.02
281.008	9.22
281.477	15.22
281.945	11.62
282.413	12.12
282.881	20.22
283.348	9.12
283.816	18.32
284.284	18.72
284.752	21.22
285.22	13.02
285.688	12.32
286.156	16.32
286.623	44.52
287.091	54.12
287.559	31.82
288.026	13.42
288.494	17.02
288.962	12.52
289.429	8.82
289.897	14.72
290.364	10.82
290.832	15.72
291.3	18.82
291.767	18.02
292.234	13.42
292.702	14.02
293.169	20.42
293.637	23.62
294.104	19.32
294.571	8.82
295.039	11.32
295.506	14.82
295.973	22.02
296.44	13.22
296.908	15.62
297.375	21.72
297.842	14.72
298.309	17.12
298.776	9.22
299.243	21.62
299.71	16.22
300.177	22.02
300.644	24.72
301.111	18.02
301.578	19.52
302.045	20.92
302.512	27.62
302.979	26.12
303.446	23.52
303.913	22.22
304.379	15.22
304.846	27.32
305.313	25.22
305.78	23.92
306.246	24.72
306.713	31.12
307.18	29.02
307.646	27.42
308.113	36.62
308.579	25.32
309.046	27.22
309.512	33.12
309.979	19.82
310.445	31.82
310.912	27.52
311.378	35.62
311.845	24.12
312.311	35.62
312.777	36.22
313.244	36.32
313.71	38.02
314.176	31.42
314.642	30.02
315.109	31.42
315.575	36.42
316.041	38.42
316.507	32.42
316.973	45.72
317.439	32.32
317.905	39.12
318.371	39.52
318.837	35.12
319.303	31.32
319.769	38.12
320.235	37.72
320.701	34.12
321.167	37.42
321.633	36.22
322.099	39.82
322.564	43.42
323.03	44.62
323.496	41.02
323.962	42.92
324.427	35.32
324.893	42.52
325.359	39.42
325.824	39.92
326.29	38.72
326.755	39.52
327.221	42.82
327.686	40.82
328.152	47.82
328.617	44.82
329.083	50.42
329.548	54.62
330.014	48.02
330.479	39.72
330.944	45.82
331.41	44.32
331.875	50.72
332.34	47.42
332.805	39.72
333.271	49.22
333.736	44.52
334.201	52.22
334.666	57.52
335.131	58.22
335.596	49.72
336.061	49.82
336.526	41.62
336.991	47.62
337.456	55.82
337.921	49.12
338.386	42.12
338.851	49.22
339.316	54.92
339.781	48.52
340.246	53.12
340.711	51.82
341.175	53.52
341.64	42.42
342.105	55.12
342.569	62.62
343.034	59.02
343.499	56.32
343.963	56.82
344.428	65.72
344.893	62.72
345.357	58.42
345.822	62.92
346.286	69.42
346.751	72.02
347.215	75.12
347.679	76.82
348.144	94.42
348.608	78.92
349.073	73.72
349.537	72.92
350.001	80.12
350.465	84.72
350.93	84.32
351.394	84.92
351.858	74.22
352.322	87.42
352.786	84.92
353.25	104.82
353.715	108.72
354.179	103.42
354.643	122.32
355.107	130.72
355.571	114.82
356.035	100.72
356.498	118.62
356.962	129.52
357.426	136.22
357.89	118.02
358.354	90.42
358.818	83.32
359.281	81.02
359.745	79.42
360.209	71.52
360.673	71.62
361.136	75.82
361.6	89.52
362.064	85.82
362.527	80.72
362.991	85.82
363.454	79.32
363.918	78.12
364.381	81.72
364.845	82.72
365.308	89.32
365.772	83.32
366.235	87.02
366.698	85.92
367.162	90.72
367.625	85.22
368.088	93.62
368.552	90.92
369.015	94.12
369.478	102.62
369.941	95.02
370.404	93.12
370.867	106.02
371.331	117.92
371.794	116.62
372.257	114.02
372.72	115.92
373.183	108.62
373.646	103.82
374.109	106.12
374.572	107.12
375.035	109.02
375.497	107.72
375.96	108.42
376.423	103.62
376.886	113.12
377.349	111.02
377.811	106.32
378.274	110.62
378.737	112.62
379.199	110.32
379.662	110.72
380.125	113.12
380.587	112.92
381.05	128.02
381.512	135.12
381.975	138.42
382.437	124.32
382.9	126.12
383.362	125.82
383.825	145.72
384.287	145.32
384.75	142.82
385.212	142.12
385.674	143.72
386.136	135.52
386.599	125.42
387.061	129.22
387.523	137.32
387.985	139.92
388.447	148.72
388.91	146.62
389.372	155.32
389.834	147.72
390.296	145.92
390.758	156.62
391.22	169.82
391.682	211.82
392.144	299.72
392.606	225.62
393.068	167.62
393.529	172.52
393.991	153.32
394.453	146.82
394.915	160.52
395.377	195.62
395.838	213.92
396.3	151.02
396.762	141.42
397.224	141.92
397.685	130.72
398.147	134.12
398.608	130.92
399.07	133.22
399.531	133.22
399.993	138.82
400.454	158.32
400.916	147.62
401.377	142.32
401.839	149.92
402.3	153.72
402.762	173.92
403.223	184.22
403.684	174.12
404.145	159.02
404.607	166.72
405.068	168.42
405.529	174.62
405.99	195.42
406.451	178.92
406.913	174.42
407.374	168.32
407.835	163.52
408.296	171.32
408.757	175.02
409.218	186.02
409.679	183.82
410.14	175.42
410.601	188.22
411.062	187.92
411.522	192.12
411.983	199.82
412.444	178.32
412.905	178.72
413.366	185.12
413.826	196.22
414.287	215.92
414.748	265.12
415.208	253.32
415.669	208.92
416.13	204.12
416.59	203.92
417.051	220.12
417.511	218.82
417.972	239.62
418.432	251.02
418.893	291.42
419.353	246.22
419.814	203.02
420.274	189.02
420.734	184.52
421.195	201.02
421.655	198.82
422.115	196.92
422.576	193.72
423.036	199.62
423.496	212.32
423.956	219.62
424.416	229.12
424.876	262.92
425.336	271.32
425.797	269.82
426.257	258.42
426.717	239.32
427.177	233.42
427.637	232.22
428.097	237.12
428.556	249.72
429.016	271.72
429.476	273.02
429.936	275.82
430.396	282.22
430.856	298.02
431.315	324.22
431.775	352.92
432.235	379.92
432.694	357.12
433.154	358.62
433.614	392.12
434.073	341.02
434.533	283.02
434.993	276.22
435.452	287.12
435.912	298.42
436.371	289.62
436.83	286.92
437.29	273.02
437.749	248.02
438.209	246.42
438.668	274.72
439.127	283.52
439.587	265.12
440.046	249.22
440.505	267.52
440.964	278.32
441.424	328.92
441.883	315.02
442.342	273.22
442.801	225.12
443.26	222.22
443.719	228.02
444.178	227.42
444.637	213.22
445.096	217.82
445.555	220.72
446.014	221.72
446.473	228.52
446.932	235.82
447.391	236.42
447.849	230.82
448.308	223.82
448.767	222.82
449.226	239.22
449.685	244.12
450.143	259.42
450.602	238.12
451.061	230.62
451.519	238.72
451.978	241.62
452.436	242.42
452.895	244.72
453.353	259.72
453.812	246.72
454.27	249.02
454.729	244.72
455.187	244.72
455.646	251.12
456.104	251.12
456.562	266.42
457.021	273.12
457.479	266.92
457.937	278.12
458.395	263.82
458.854	251.82
459.312	263.12
459.77	283.32
460.228	261.82
460.686	240.82
461.144	254.82
461.602	253.62
462.06	246.52
462.518	262.72
462.976	254.82
463.434	266.42
463.892	274.12
464.35	284.12
464.808	294.12
465.266	278.42
465.724	279.22
466.181	284.22
466.639	274.92
467.097	290.72
467.555	312.82
468.012	311.92
468.47	311.82
468.928	338.52
469.385	355.22
469.843	359.22
470.3	361.22
470.758	364.42
471.215	387.82
471.673	412.52
472.13	412.22
472.588	435.12
473.045	373.02
473.503	384.82
473.96	400.42
474.417	410.22
474.875	446.22
475.332	482.92
475.789	474.72
476.246	469.92
476.704	495.72
477.161	515.62
477.618	541.82
478.075	571.12
478.532	626.32
478.989	699.02
479.446	811.82
479.903	779.62
480.36	829.82
480.817	884.62
481.274	994.72
481.731	1095.52
482.188	1193.72
482.645	1330.22
483.102	1429.22
483.558	1570.92
484.015	1623.52
484.472	1600.82
484.929	1550.02
485.385	1500.62
485.842	1447.02
486.299	1391.22
486.755	1317.52
487.212	1121.82
487.668	945.32
488.125	870.82
488.582	786.42
489.038	753.42
489.494	723.92
489.951	687.72
490.407	675.82
490.864	658.52
491.32	657.02
491.776	654.82
492.233	660.52
492.689	621.92
493.145	618.92
493.602	611.52
494.058	625.22
494.514	625.52
494.97	662.72
495.426	660.52
495.882	634.52
496.338	624.42
496.794	654.22
497.251	629.32
497.707	649.12
498.163	657.22
498.618	657.22
499.074	663.82
499.53	691.62
499.986	687.82
500.442	670.72
500.898	649.62
501.354	632.72
501.809	641.92
502.265	660.22
502.721	671.52
503.177	674.12
503.632	663.62
504.088	687.22
504.543	718.42
504.999	716.12
505.455	677.62
505.91	645.02
506.366	642.32
506.821	648.32
507.277	634.22
507.732	631.32
508.187	634.72
508.643	648.02
509.098	643.32
509.553	672.02
510.009	678.32
510.464	675.82
510.919	700.52
511.375	712.32
511.83	725.32
512.285	724.52
512.74	774.72
513.195	803.12
513.65	793.02
514.105	777.92
514.56	792.42
515.015	809.12
515.47	821.42
515.925	805.92
516.38	806.02
516.835	800.72
517.29	797.52
517.745	793.92
518.2	777.52
518.655	765.22
519.109	765.72
519.564	764.72
520.019	748.92
520.474	740.02
520.928	742.92
521.383	733.12
521.838	725.02
522.292	727.82
522.747	719.42
523.201	717.72
523.656	706.82
524.11	699.02
524.565	711.82
525.019	706.22
525.474	713.62
525.928	719.32
526.382	702.62
526.837	714.12
527.291	716.22
527.745	705.12
528.2	711.62
528.654	705.62
529.108	689.72
529.562	701.62
530.016	698.52
530.47	706.12
530.925	708.82
531.379	707.72
531.833	713.82
532.287	710.82
532.741	713.92
533.195	716.92
533.649	725.02
534.103	735.82
534.556	730.52
535.01	726.92
535.464	725.22
535.918	727.82
536.372	735.12
536.826	735.32
537.279	715.42
537.733	724.32
538.187	722.72
538.64	729.32
539.094	733.42
539.548	753.02
540.001	741.52
540.455	737.42
540.908	746.52
541.362	754.92
541.815	753.12
542.269	762.42
542.722	769.22
543.175	777.52
543.629	776.82
544.082	798.92
544.536	795.52
544.989	798.22
545.442	812.02
545.895	802.92
546.349	808.62
546.802	812.92
547.255	810.42
547.708	804.32
548.161	822.42
548.614	828.92
549.067	845.82
549.52	827.32
549.973	818.42
550.426	815.32
550.879	815.02
551.332	811.32
551.785	813.02
552.238	817.72
552.691	836.32
553.144	856.62
553.596	870.82
554.049	880.62
554.502	904.72
554.955	914.52
555.407	920.32
555.86	918.52
556.313	913.82
556.765	898.72
557.218	902.42
557.67	902.52
558.123	890.12
558.576	883.02
559.028	886.32
559.48	899.32
559.933	875.92
560.385	851.52
560.838	817.92
561.29	801.22
561.742	793.62
562.195	775.52
562.647	773.62
563.099	781.72
563.551	772.62
564.004	784.12
564.456	787.92
564.908	760.42
565.36	752.12
565.812	741.82
566.264	739.02
566.716	736.52
567.168	722.82
567.62	739.92
568.072	717.02
568.524	710.22
568.976	695.52
569.428	680.42
569.88	682.52
570.332	694.02
570.784	691.42
571.235	698.22
571.687	699.52
572.139	716.72
572.59	717.32
573.042	718.12
573.494	708.82
573.945	720.62
574.397	685.72
574.849	693.82
575.3	699.52
575.752	687.02
576.203	687.42
576.655	698.32
577.106	681.52
577.557	674.02
578.009	681.72
578.46	680.72
578.912	678.02
579.363	666.12
579.814	668.42
580.265	671.92
580.717	671.22
581.168	667.62
581.619	689.22
582.07	694.82
582.521	671.72
582.972	675.12
583.423	683.32
583.875	683.52
584.326	699.52
584.777	742.12
585.227	834.12
585.678	910.12
586.129	991.32
586.58	1072.32
587.031	1156.42
587.482	1314.42
587.933	1477.62
588.384	1289.32
588.834	970.92
589.285	803.72
589.736	783.72
590.186	783.82
590.637	771.12
591.088	741.92
591.538	745.42
591.989	735.02
592.439	724.52
592.89	722.22
593.34	707.82
593.791	713.52
594.241	710.62
594.692	714.72
595.142	708.02
595.593	706.52
596.043	702.32
596.493	721.82
596.943	709.42
597.394	724.62
597.844	717.52
598.294	729.42
598.744	758.92
599.195	778.42
599.645	824.42
600.095	849.92
600.545	911.62
600.995	968.72
601.445	1016.92
601.895	1092.52
602.345	1146.12
602.795	1112.52
603.245	1072.22
603.695	1013.52
604.145	967.52
604.594	911.72
605.044	869.32
605.494	805.32
605.944	744.72
606.393	745.62
606.843	729.92
607.293	741.12
607.743	723.22
608.192	747.02
608.642	754.32
609.091	760.02
609.541	766.12
609.99	776.12
610.44	762.52
610.889	723.32
611.339	702.42
611.788	687.82
612.238	703.82
612.687	711.02
613.136	715.82
613.586	738.72
614.035	740.92
614.484	747.82
614.933	761.72
615.383	751.02
615.832	738.02
616.281	726.22
616.73	684.02
617.179	658.32
617.628	648.02
618.077	633.72
618.526	628.02
618.975	614.82
619.424	622.72
619.873	613.12
620.322	629.72
620.771	605.82
621.22	604.82
621.669	595.72
622.118	591.12
622.567	578.52
623.015	573.62
623.464	572.22
623.913	555.12
624.361	539.42
624.81	547.72
625.259	548.92
625.707	552.72
626.156	561.82
626.604	557.82
627.053	562.82
627.501	559.72
627.95	567.92
628.398	573.42
628.847	562.22
629.295	559.92
629.744	569.72
630.192	564.32
630.64	564.72
631.089	561.12
631.537	576.22
631.985	585.62
632.433	587.42
632.881	593.52
633.33	648.22
633.778	628.22
634.226	563.32
634.674	564.12
635.122	573.42
635.57	598.62
636.018	615.42
636.466	582.42
636.914	558.92
637.362	559.32
637.81	564.12
638.258	577.92
638.705	569.62
639.153	605.72
639.601	608.72
640.049	636.12
640.497	658.52
640.944	689.32
641.392	639.72
641.84	610.62
642.287	578.42
642.735	557.32
643.182	556.82
643.63	564.12
644.078	569.42
644.525	577.22
644.973	589.42
645.42	589.62
645.867	610.72
646.315	630.72
646.762	657.02
647.21	684.32
647.657	700.12
648.104	757.62
648.551	762.32
648.999	829.22
649.446	899.32
649.893	990.72
650.34	1136.22
650.787	1385.02
651.234	1697.02
651.682	2207.52
652.129	3042.42
652.576	4365.32
653.023	6425.62
653.47	8864.12
653.917	11094.72
654.363	12849.32
654.81	14251.22
655.257	13590.92
655.704	8919.52
656.151	5262.92
656.598	3408.02
657.044	2405.92
657.491	1847.02
657.938	1475.12
658.385	1237.12
658.831	1070.72
659.278	965.22
659.724	849.02
660.171	785.62
660.618	714.82
661.064	672.82
661.511	661.82
661.957	654.62
662.404	635.02
662.85	651.12
663.296	614.92
663.743	550.92
664.189	525.82
664.635	525.72
665.082	522.02
665.528	521.22
665.974	508.12
666.42	498.62
666.867	499.52
667.313	481.92
667.759	470.82
668.205	462.42
668.651	469.72
669.097	475.92
669.543	493.62
669.989	455.22
670.435	446.02
670.881	443.42
671.327	451.02
671.773	461.82
672.219	480.62
672.665	528.02
673.11	575.92
673.556	623.62
674.002	656.22
674.448	643.12
674.893	540.92
675.339	468.02
675.785	431.72
676.23	410.02
676.676	390.72
677.122	376.52
677.567	367.32
678.013	362.52
678.458	355.72
678.904	341.92
679.349	338.62
679.794	340.02
680.24	342.12
680.685	340.52
681.131	349.52
681.576	336.22
682.021	351.32
682.466	343.92
682.912	340.52
683.357	345.82
683.802	375.92
684.247	400.22
684.692	440.02
685.137	481.82
685.583	523.02
686.028	547.32
686.473	511.52
686.918	431.22
687.363	403.32
687.807	382.52
688.252	362.52
688.697	349.02
689.142	328.72
689.587	322.92
690.032	310.82
690.477	339.32
690.921	344.22
691.366	371.02
691.811	394.22
692.255	417.02
692.7	456.12
693.145	489.82
693.589	673.42
694.034	1087.72
694.478	1499.62
694.923	1710.62
695.367	2223.62
695.812	1170.12
696.256	482.82
696.701	361.82
697.145	336.42
697.59	322.42
698.034	315.42
698.478	314.62
698.922	309.72
699.367	317.52
699.811	325.92
700.255	348.42
700.699	381.62
701.143	417.02
701.588	464.32
702.032	502.62
702.476	490.42
702.92	479.32
703.364	477.52
703.808	615.12
704.252	997.82
704.696	1403.12
705.14	1640.12
705.584	2083.12
706.027	1041.32
706.471	506.62
706.915	378.42
707.359	339.82
707.803	306.52
708.246	294.12
708.69	303.22
709.134	308.42
709.577	300.72
710.021	319.42
710.465	296.42
710.908	290.42
711.352	291.32
711.795	312.52
712.239	341.22
712.682	377.32
713.126	407.32
713.569	457.72
714.012	365.32
714.456	319.42
714.899	292.62
715.342	267.12
715.786	258.52
716.229	251.42
716.672	251.62
717.115	237.82
717.558	244.12
718.002	242.32
718.445	250.12
718.888	281.72
719.331	287.62
719.774	295.42
720.217	298.72
720.66	274.72
721.103	260.02
721.546	248.72
721.989	241.92
722.432	224.82
722.874	241.12
723.317	221.62
723.76	229.32
724.203	247.22
724.645	310.32
725.088	427.02
725.531	554.82
725.974	634.32
726.416	528.72
726.859	292.62
727.301	233.72
727.744	233.32
728.187	230.32
728.629	226.42
729.071	234.92
729.514	256.62
729.956	261.72
730.399	280.62
730.841	276.92
731.283	265.22
731.726	257.32
732.168	257.02
732.61	257.62
733.053	274.72
733.495	300.42
733.937	342.12
734.379	386.42
734.821	423.22
735.263	506.52
735.705	802.02
736.148	1501.12
736.59	2474.02
737.032	2989.42
737.474	2426.32
737.916	789.42
738.357	414.72
738.799	321.02
739.241	285.62
739.683	269.42
740.125	282.72
740.567	292.12
741.008	306.32
741.45	301.92
741.892	307.32
742.334	338.32
742.775	346.12
743.217	334.22
743.658	270.12
744.1	246.82
744.542	262.62
744.983	304.92
745.425	334.52
745.866	331.32
746.307	278.52
746.749	271.72
747.19	310.52
747.632	437.42
748.073	847.02
748.514	1774.22
748.956	2754.52
749.397	3473.82
749.838	2890.52
750.279	2891.62
750.72	1455.92
751.162	528.12
751.603	305.02
752.044	246.12
752.485	214.02
752.926	207.62
753.367	192.62
753.808	183.22
754.249	184.22
754.69	176.62
755.131	174.42
755.572	177.22
756.013	173.02
756.453	177.92
756.894	183.02
757.335	188.82
757.776	188.72
758.216	195.02
758.657	190.82
759.098	196.22
759.538	210.82
759.979	250.32
760.42	362.72
760.86	659.42
761.301	1703.22
761.741	4222.12
762.182	6302.32
762.622	4443.52
763.063	1277.12
763.503	523.32
763.943	334.22
764.384	334.62
764.824	385.72
765.264	429.12
765.705	294.62
766.145	200.42
766.585	177.12
767.025	171.12
767.465	169.82
767.906	226.92
768.346	307.42
768.786	335.82
769.226	245.12
769.666	297.32
770.106	586.72
770.546	1483.02
770.986	2572.22
771.426	2329.72
771.866	780.12
772.306	317.12
772.745	205.32
773.185	172.92
773.625	163.92
774.065	161.52
774.505	191.02
774.944	292.82
775.384	635.02
775.824	1168.52
776.263	1153.62
776.703	493.82
777.142	211.12
777.582	154.22
778.021	136.72
778.461	139.72
778.9	142.12
779.34	128.42
779.779	113.72
780.219	105.42
780.658	108.62
781.097	108.12
781.537	104.92
781.976	104.62
782.415	105.02
782.855	100.52
783.294	103.32
783.733	100.12
784.172	106.52
784.611	104.02
785.05	108.22
785.489	108.42
785.928	110.12
786.367	115.42
786.806	116.62
787.245	127.92
787.684	130.92
788.123	141.32
788.562	130.52
789.001	123.82
789.44	116.22
789.879	112.02
790.317	111.62
790.756	123.12
791.195	118.02
791.634	136.12
792.072	195.72
792.511	351.72
792.95	954.02
793.388	2066.92
793.827	1898.22
794.265	647.52
794.704	270.42
795.142	182.32
795.581	147.02
796.019	135.02
796.458	122.92
796.896	114.82
797.334	128.92
797.773	141.32
798.211	206.82
798.649	411.02
799.087	978.62
799.526	1535.62
799.964	1920.72
800.402	1980.82
800.84	733.02
801.278	289.92
801.716	175.62
802.154	144.12
802.592	147.42
803.03	133.32
803.468	126.02
803.906	139.62
804.344	144.42
804.782	129.82
805.22	128.32
805.658	126.22
806.096	141.52
806.533	157.92
806.971	171.12
807.409	214.32
807.847	299.72
808.284	616.62
808.722	1768.72
809.16	3185.62
809.597	3001.32
810.035	5194.22
810.472	5691.32
810.91	2027.12
811.347	762.42
811.785	391.32
812.222	243.22
812.66	190.12
813.097	157.82
813.535	129.72
813.972	124.82
814.409	115.42
814.846	104.92
815.284	113.22
815.721	97.62
816.158	101.92
816.595	114.72
817.032	166.02
817.47	190.72
817.907	157.22
818.344	144.22
818.781	107.92
819.218	100.52
819.655	119.62
820.092	181.32
820.529	209.92
820.966	171.72
821.403	130.72
821.839	103.02
822.276	100.02
822.713	111.92
823.15	131.12
823.587	110.72
824.023	139.02
824.46	284.52
824.897	853.52
825.333	1325.72
825.77	566.12
826.206	223.62
826.643	131.42
827.08	96.42
827.516	82.82
827.953	74.02
828.389	81.12
828.825	70.12
829.262	65.32
829.698	58.12
830.135	60.62
830.571	61.52
831.007	58.32
831.443	64.92
831.88	58.72
832.316	66.52
832.752	67.32
833.188	59.92
833.624	59.82
834.06	61.92
834.497	70.02
834.933	69.52
835.369	70.42
835.805	68.02
836.241	70.02
836.677	70.12
837.112	83.92
837.548	98.02
837.984	124.52
838.42	187.22
838.856	472.42
839.292	1452.62
839.727	2246.02
840.163	1041.92
840.599	883.42
841.034	1945.42
841.47	2090.12
841.906	753.72
842.341	322.22
842.777	217.92
843.212	301.32
843.648	300.42
844.083	150.32
844.519	94.72
844.954	71.52
845.39	51.22
845.825	49.62
846.261	58.72
846.696	54.72
847.131	46.82
847.566	51.02
848.002	58.42
848.437	53.62
848.872	56.62
849.307	56.12
849.742	80.22
850.177	166.22
850.613	526.62
851.048	858.52
851.483	370.92
851.918	149.32
852.353	82.02
852.788	58.72
853.223	52.62
853.657	48.72
854.092	47.32
854.527	40.82
854.962	38.32
855.397	45.32
855.832	48.82
856.266	36.62
856.701	39.52
857.136	36.22
857.57	36.92
858.005	45.52
858.44	62.62
858.874	36.92
859.309	43.62
859.743	30.42
860.178	42.72
860.612	43.42
861.047	47.92
861.481	63.82
861.915	65.72
862.35	46.32
862.784	31.42
863.218	40.12
863.653	34.32
864.087	46.02
864.521	53.32
864.955	64.32
865.39	155.82
865.824	177.12
866.258	106.22
866.692	163.52
867.126	173.42
867.56	103.42
867.994	51.32
868.428	31.32
868.862	45.62
869.296	47.72
869.73	53.22
870.164	52.62
870.598	45.52
871.031	37.92
871.465	25.42
871.899	34.32
872.333	23.82
872.766	22.62
873.2	18.02
873.634	21.82
874.067	16.42
874.501	27.82
874.935	33.02
875.368	27.02
875.802	28.02
876.235	24.42
876.669	26.22
877.102	23.42
877.535	27.22
877.969	25.62
878.402	22.72
878.836	13.82
879.269	22.92
879.702	24.92
880.135	24.02
880.569	14.42
881.002	25.32
881.435	21.72
881.868	10.72
882.301	20.82
882.734	19.22
883.167	21.32
883.601	14.12
884.034	22.52
884.467	18.62
884.899	16.32
885.332	10.42
885.765	6.92
886.198	11.12
886.631	15.52
887.064	15.42
887.497	21.02
887.929	20.92
888.362	17.72
888.795	12.72
889.228	17.32
889.66	18.42
890.093	18.02
890.526	15.92
890.958	15.82
891.391	14.32
891.823	20.52
892.256	10.12
892.688	5.02
893.121	16.62
893.553	12.22
893.985	21.32
894.418	20.32
894.85	11.32
895.282	10.62
895.715	20.32
896.147	14.72
896.579	20.02
897.011	17.62
897.444	12.72
897.876	12.12
898.308	17.12
898.74	12.02
899.172	12.12
899.604	22.42
900.036	16.62
900.468	17.12
900.9	11.92
901.332	11.62
901.764	7.12
902.196	14.72
902.628	13.02
903.06	17.32
903.491	27.92
903.923	23.72
904.355	20.22
904.787	25.02
905.218	20.52
905.65	19.22
906.082	10.82
906.513	12.32
906.945	11.62
907.376	7.72
907.808	23.12
908.239	22.52
908.671	17.02
909.102	23.52
909.534	23.12
909.965	46.52
910.397	86.72
910.828	298.22
911.259	470.72
911.691	206.72
912.122	101.52
912.553	38.92
912.984	28.82
913.415	24.62
913.847	20.52
914.278	14.72
914.709	11.22
915.14	17.02
915.571	19.02
916.002	9.02
916.433	18.82
916.864	6.92
917.295	9.82
917.726	18.82
918.157	16.12
918.587	18.52
919.018	14.42
919.449	18.32
919.88	18.22
920.311	26.52
920.741	46.92
921.172	163.62
921.603	144.32
922.033	70.12
922.464	44.22
922.895	19.52
923.325	18.92
923.756	7.92
924.186	17.02
924.617	24.22
925.047	39.62
925.478	54.02
925.908	44.52
926.338	26.32
926.769	12.72
927.199	17.52
927.629	12.92
928.06	13.92
928.49	5.62
928.92	12.02
929.35	10.82
929.78	11.82
930.21	0.32
930.641	12.62
931.071	6.72
931.501	0.12
931.931	2.32
932.361	9.52
932.791	0.92
933.221	10.42
933.651	4.22
934.08	12.22
934.51	29.52
934.94	8.82
935.37	2.72
935.8	11.72
936.229	6.12
936.659	8.12
937.089	2.62
937.519	14.62
937.948	19.42
938.378	13.62
938.807	10.82
939.237	-0.58
939.666	7.22
940.096	-9.78
940.525	-1.18
940.955	-2.08
941.384	-0.18
941.814	-5.48
942.243	-3.98
942.672	-0.48
943.102	-3.18
943.531	-0.48
943.96	1.62
944.39	1.72
944.819	1.12
945.248	-0.58
945.677	-0.08
946.106	6.22
946.535	0.52
946.964	-2.68
947.393	4.62
947.822	3.82
948.251	-4.28
948.68	0.02
949.109	6.92
949.538	3.82
949.967	3.32
950.396	-0.98
950.825	0.32
951.254	-0.68
951.682	-7.98
952.111	0.02
952.54	-0.48
952.969	-0.28
953.397	-1.78
953.826	5.62
954.254	-1.58
954.683	0.52
955.112	0.72
955.54	-1.58
955.969	3.22
956.397	-1.78
956.826	-7.78
957.254	-0.68
957.682	-1.18
958.111	4.62
958.539	-0.98
958.967	2.32
959.396	-6.38
959.824	1.32
960.252	-1.58
960.68	-8.38
961.109	0.22
961.537	-5.08
961.965	-2.38
962.393	1.32
962.821	-8.88
963.249	-4.48
963.677	5.02
964.105	8.42
964.533	41.22
964.961	34.62
965.389	18.22
965.817	7.42
966.245	-4.58
966.672	-2.88
967.1	-5.18
967.528	-1.68
967.956	-3.48
968.383	-0.38
968.811	-4.08
969.239	-5.98
969.666	-9.58
970.094	0.62
970.522	0.12
970.949	-4.78
971.377	-4.68
971.804	-2.18
972.232	-6.48
972.659	-3.88
973.087	-1.88
973.514	-1.78
973.941	-9.38
974.369	2.02
974.796	-1.48
975.223	3.32
975.651	2.02
976.078	4.42
976.505	-5.18
976.932	-0.08
977.359	17.62
977.786	15.82
978.214	0.12
978.641	-5.18
979.068	-4.38
979.495	-11.58
979.922	-4.88
980.349	-7.28
980.776	3.92
981.202	-0.18
981.629	4.62
982.056	2.92
982.483	-4.38
982.91	3.42
983.337	-9.58
983.763	2.72
984.19	-8.48
984.617	-7.38
985.043	-6.68
985.47	0.52
985.897	-5.78
986.323	-9.18
986.75	2.92
987.176	-7.38
987.603	5.12
988.029	1.72
988.456	-3.78
988.882	2.62
989.308	-7.58
989.735	-5.28
990.161	-1.48
990.587	-1.58
991.014	-2.98
991.44	2.32
991.866	-6.48
992.292	-10.88
992.719	-1.58
993.145	1.52
993.571	-9.78
993.997	-5.18
994.423	-1.98
994.849	-1.98
995.275	0.22
995.701	-1.68
996.127	-3.38
996.553	2.22
996.979	-4.48
997.405	-2.58
997.83	-5.78
998.256	-3.98
998.682	-3.78
999.108	-7.78
999.534	-2.08
999.959	-5.88
1000.385	-7.98
1000.811	-1.08
1001.236	-7.68
1001.662	-6.08
1002.087	-8.28
1002.513	-5.58
1002.938	2.42
1003.364	-3.88
1003.789	-6.28
1004.215	4.12
1004.64	-6.48
1005.066	-2.58
1005.491	-4.28
1005.916	-7.08
1006.342	-5.18
1006.767	-7.98
1007.192	6.42
1007.617	-4.48
1008.042	-14.38
1008.468	-10.48
1008.893	-5.88
1009.318	-2.38
1009.743	3.02
1010.168	3.32
1010.593	0.32
1011.018	-11.28
1011.443	-6.58
1011.868	-0.28
1012.293	-2.08
1012.718	-6.28
1013.143	-2.18
1013.567	1.32
1013.992	-2.98
1014.417	-17.08
1014.842	-2.38
1015.267	-4.38
1015.691	-5.68
1016.116	-0.78
1016.541	2.32
1016.965	2.52
1017.39	2.62
1017.814	0.12
1018.239	-5.28
1018.663	-14.18
1019.088	-10.78
1019.512	-2.18
1019.937	-6.38
1020.361	-3.58
1020.785	-9.78
1021.21	-6.88
1021.634	-13.48
1022.058	-5.08
1022.483	4.62
1022.907	-0.88
1023.331	-4.68
1023.755	-4.18
1024.179	-3.88
1024.604	-11.58
1025.028	-13.18
1025.452	-9.78
1025.876	-7.38
1026.3	0.62
1026.724	-12.28
1027.148	2.02
1027.572	-10.38
1027.996	-6.18
1028.42	0.72
1028.843	-2.68
1029.267	-9.88
1029.691	-4.48
1030.115	-7.28
1030.539	-5.38
1030.962	-6.58
1031.386	-12.08
1031.81	-2.88
1032.233	2.52
1032.657	-2.98
1033.08	-3.38
1033.504	1.92
1033.927	-5.18
1034.351	-2.18
1034.774	-3.88
1035.198	-0.08
1035.621	-6.18
1036.045	-6.38
1036.468	-2.78
1036.891	-12.28
1037.315	-2.78
1037.738	-6.88
1038.161	-0.38
1038.584	-5.68
1039.008	-0.08
1039.431	-1.28
1039.854	-3.18
1040.277	-8.68
1040.7	-15.38
1041.123	-1.38
1041.546	-9.98
1041.969	-2.28
1042.392	-9.18
1042.815	-2.68
1043.238	1.72
1043.661	-0.48
1044.084	-8.38
1044.507	-3.18
1044.93	-5.48
1045.352	-1.98
1045.775	-1.78
1046.198	-9.98
1046.621	-7.58
1047.043	4.62
1047.466	6.32
1047.889	-0.68
1048.311	-7.18
1048.734	-3.08
1049.156	-6.48
1049.579	-4.78
1050.001	-4.88
1050.424	-5.18
1050.846	-6.58
1051.269	-6.28
1051.691	-5.58
1052.113	-4.58
1052.536	-2.78
1052.958	-4.28
1053.38	-7.58
1053.802	-6.98
1054.225	3.32
1054.647	-11.08
1055.069	-9.28
1055.491	1.32
1055.913	-10.78
1056.335	-0.58
1056.757	-1.28
1057.179	-5.08
1057.601	-5.38
1058.023	-5.28
1058.445	-1.38
1058.867	-3.48
1059.289	-8.88
1059.711	-3.18
1060.133	-2.48
1060.555	-4.48
1060.976	-5.48
1061.398	-7.58
1061.82	-8.48
1062.241	-7.28
1062.663	-10.28
1063.085	-12.38
1063.506	-2.18
1063.928	-3.78
1064.35	-0.28
1064.771	-12.38
1065.193	-6.68
1065.614	-6.28
1066.035	-3.78
1066.457	-2.78
1066.878	0.22
1067.3	-6.78
1067.721	-4.18
1068.142	-5.28
1068.564	-0.68
1068.985	-6.18
1069.406	-6.78
1069.827	-4.98
1070.248	1.92
1070.67	-7.18
1071.091	-2.88
1071.512	-1.48
1071.933	-0.38
1072.354	-1.58
1072.775	-2.88
1073.196	-7.18
1073.617	-8.08
1074.038	-10.98
1074.459	-5.88
1074.88	-7.78
1075.3	-2.28
1075.721	-5.48
1076.142	2.42
1076.563	-2.78
1076.983	-10.88
1077.404	-11.88
1077.825	-9.98
1078.246	-3.88
1078.666	-12.88
1079.087	-9.78
1079.507	-4.38
1079.928	-2.68
1080.348	-4.58
1080.769	-8.68
1081.189	3.72
1081.61	-7.58
1082.03	-8.48
1082.451	-6.58
1082.871	-11.88
1083.291	-2.48
1083.711	-6.48
1084.132	-4.78
1084.552	-4.08
1084.972	-3.88
1085.392	-12.78
1085.813	-10.08
1086.233	-2.48
1086.653	3.22
1087.073	-0.08
1087.493	-6.18
1087.913	-5.58
1088.333	-11.28
1088.753	-3.38
1089.173	1.22
1089.593	-5.08
1090.013	-2.08
1090.433	-2.18
1090.852	-5.08
1091.272	-5.98
1091.692	-2.88
1092.112	-4.88
1092.531	-11.38
1092.951	-17.68
1093.371	-7.18
1093.79	2.22
1094.21	-7.18
1094.63	-6.68
1095.049	-7.48
1095.469	-9.38
1095.888	-7.48
1096.308	0.92
1096.727	0.22
1097.146	-6.48
1097.566	-2.38
1097.985	-3.78
1098.405	-3.48
1098.824	-8.78
1099.243	-3.28
1099.662	-7.88
1100.082	-10.68
1100.501	-6.18
1100.92	-11.38
1101.339	-5.68
1101.758	-8.58
