Data from 20171114-ORNL-Ar_H_NY_Subt18_08-07-36-076.txt Node
Date: Tue Nov 14 08:07:36 EST 2017
User: Ender
Spectrometer: HR+D1039
Trigger mode: 0
Integration Time (sec): 2.730000E-2
Scans to average: 10
Electric dark correction enabled: true
Nonlinearity correction enabled: false
Boxcar width: 0
XAxis mode: Wavelengths
Number of Pixels in Spectrum: 2048
>>>>>Begin Spectral Data<<<<<
187.836	-1.44
188.309	-1.44
188.782	-1.44
189.255	-1.84
189.728	-4.24
190.201	2.56
190.674	0.66
191.147	2.06
191.619	-5.04
192.092	7.06
192.565	2.86
193.038	1.66
193.511	3.76
193.984	2.06
194.456	-1.14
194.929	-1.74
195.402	-5.84
195.874	-1.34
196.347	-3.34
196.82	-8.64
197.292	3.96
197.765	1.96
198.237	-11.34
198.71	-0.94
199.182	-7.84
199.655	0.96
200.127	-1.84
200.6	-3.94
201.072	-5.14
201.544	-6.44
202.017	-0.24
202.489	3.16
202.961	-0.74
203.433	-2.54
203.906	-4.64
204.378	-9.44
204.85	-10.64
205.322	-8.64
205.794	-0.14
206.266	-4.84
206.739	-9.74
207.211	-2.94
207.683	-7.94
208.155	-13.44
208.627	-7.14
209.099	-5.44
209.57	-12.74
210.042	-6.64
210.514	-1.94
210.986	-1.44
211.458	-12.44
211.93	-2.54
212.402	-0.54
212.873	-5.14
213.345	-13.44
213.817	-14.44
214.288	-2.64
214.76	-12.84
215.232	-5.34
215.703	-6.84
216.175	-7.64
216.646	-4.64
217.118	-6.14
217.589	-5.44
218.061	-4.04
218.532	-4.24
219.004	-0.84
219.475	-6.14
219.946	-6.64
220.418	-9.94
220.889	2.66
221.36	-0.74
221.832	-5.84
222.303	-8.54
222.774	-2.94
223.245	-13.14
223.717	-8.74
224.188	-5.54
224.659	-9.74
225.13	-9.84
225.601	-4.64
226.072	-0.64
226.543	-2.84
227.014	-5.64
227.485	-6.44
227.956	-7.44
228.427	-9.24
228.898	-7.14
229.369	-4.54
229.839	-7.34
230.31	-10.94
230.781	-0.34
231.252	-5.14
231.722	-3.64
232.193	-3.64
232.664	-2.94
233.135	-2.44
233.605	-7.94
234.076	-10.14
234.546	-0.94
235.017	0.26
235.487	-2.94
235.958	-1.44
236.428	-10.94
236.899	-1.94
237.369	4.16
237.84	-3.74
238.31	2.76
238.78	-6.84
239.251	-3.04
239.721	-1.54
240.191	-1.54
240.662	-6.84
241.132	-5.14
241.602	-2.84
242.072	0.36
242.542	5.76
243.013	-3.04
243.483	0.66
243.953	4.46
244.423	-3.14
244.893	-1.04
245.363	1.66
245.833	0.66
246.303	-4.64
246.773	4.56
247.243	6.46
247.712	1.96
248.182	6.56
248.652	5.06
249.122	-6.44
249.592	-0.84
250.061	14.96
250.531	28.96
251.001	12.26
251.471	13.66
251.94	14.16
252.41	3.46
252.879	1.16
253.349	4.36
253.818	7.46
254.288	3.76
254.757	-3.14
255.227	-3.74
255.696	0.36
256.166	3.06
256.635	6.76
257.105	0.16
257.574	0.76
258.043	-0.64
258.513	0.26
258.982	11.86
259.451	5.66
259.92	3.96
260.389	4.36
260.859	13.16
261.328	6.96
261.797	13.66
262.266	-2.14
262.735	5.26
263.204	1.16
263.673	-5.44
264.142	4.46
264.611	-2.14
265.08	-1.04
265.549	-9.04
266.018	0.66
266.487	-2.84
266.955	-9.14
267.424	-1.44
267.893	2.06
268.362	-1.64
268.83	2.96
269.299	0.66
269.768	3.56
270.236	1.46
270.705	-2.04
271.174	0.96
271.642	-0.24
272.111	2.56
272.579	9.26
273.048	9.56
273.516	17.76
273.985	23.26
274.453	19.06
274.922	6.96
275.39	3.36
275.858	0.76
276.327	1.66
276.795	11.96
277.263	5.06
277.731	25.76
278.2	40.66
278.668	46.86
279.136	34.86
279.604	12.56
280.072	3.86
280.54	7.76
281.008	5.86
281.477	8.06
281.945	8.76
282.413	5.16
282.881	10.66
283.348	-1.14
283.816	7.36
284.284	6.16
284.752	13.06
285.22	10.16
285.688	8.36
286.156	15.36
286.623	32.66
287.091	39.46
287.559	18.76
288.026	7.26
288.494	5.36
288.962	-0.64
289.429	2.76
289.897	14.06
290.364	4.66
290.832	12.36
291.3	11.66
291.767	18.36
292.234	16.36
292.702	5.06
293.169	11.86
293.637	17.66
294.104	14.76
294.571	5.26
295.039	10.06
295.506	5.96
295.973	15.16
296.44	5.76
296.908	9.56
297.375	11.86
297.842	11.56
298.309	15.06
298.776	7.96
299.243	12.46
299.71	0.86
300.177	10.16
300.644	13.26
301.111	14.66
301.578	19.36
302.045	11.06
302.512	18.86
302.979	16.26
303.446	9.56
303.913	14.36
304.379	10.96
304.846	15.06
305.313	18.16
305.78	16.96
306.246	25.56
306.713	18.26
307.18	17.66
307.646	16.96
308.113	20.56
308.579	16.76
309.046	18.56
309.512	17.96
309.979	13.96
310.445	24.06
310.912	22.36
311.378	22.86
311.845	24.56
312.311	22.76
312.777	28.26
313.244	22.26
313.71	31.66
314.176	23.26
314.642	25.06
315.109	19.46
315.575	24.46
316.041	28.66
316.507	30.06
316.973	32.06
317.439	29.06
317.905	31.66
318.371	26.06
318.837	24.96
319.303	26.56
319.769	26.36
320.235	20.26
320.701	26.76
321.167	24.06
321.633	22.86
322.099	22.56
322.564	37.06
323.03	27.26
323.496	31.86
323.962	34.76
324.427	25.46
324.893	32.56
325.359	30.16
325.824	30.36
326.29	28.26
326.755	27.06
327.221	27.16
327.686	32.26
328.152	34.66
328.617	24.16
329.083	34.06
329.548	41.26
330.014	36.66
330.479	30.56
330.944	36.86
331.41	34.46
331.875	35.76
332.34	33.56
332.805	34.26
333.271	36.66
333.736	29.06
334.201	42.76
334.666	45.76
335.131	43.56
335.596	41.46
336.061	37.56
336.526	38.16
336.991	38.86
337.456	37.16
337.921	39.26
338.386	30.76
338.851	37.56
339.316	44.56
339.781	35.56
340.246	37.96
340.711	39.96
341.175	41.26
341.64	36.06
342.105	37.16
342.569	46.16
343.034	45.76
343.499	42.36
343.963	44.76
344.428	54.26
344.893	51.86
345.357	51.16
345.822	47.56
346.286	56.36
346.751	60.76
347.215	51.26
347.679	60.36
348.144	77.96
348.608	64.86
349.073	53.26
349.537	63.46
350.001	62.76
350.465	68.46
350.93	71.86
351.394	63.96
351.858	55.86
352.322	67.86
352.786	67.26
353.25	79.96
353.715	95.26
354.179	77.16
354.643	101.66
355.107	102.66
355.571	82.76
356.035	85.56
356.498	100.86
356.962	97.86
357.426	105.96
357.89	93.56
358.354	72.76
358.818	69.26
359.281	67.16
359.745	60.46
360.209	64.26
360.673	62.46
361.136	62.96
361.6	72.96
362.064	74.96
362.527	75.36
362.991	79.46
363.454	66.96
363.918	66.36
364.381	66.36
364.845	72.86
365.308	71.96
365.772	70.96
366.235	66.96
366.698	69.26
367.162	73.46
367.625	79.06
368.088	75.86
368.552	77.06
369.015	75.96
369.478	86.06
369.941	89.96
370.404	81.56
370.867	96.46
371.331	89.56
371.794	104.06
372.257	94.06
372.72	102.96
373.183	91.76
373.646	85.26
374.109	84.96
374.572	91.46
375.035	94.26
375.497	95.06
375.96	91.86
376.423	94.86
376.886	92.36
377.349	99.76
377.811	91.86
378.274	93.36
378.737	93.96
379.199	101.56
379.662	95.16
380.125	104.16
380.587	100.66
381.05	109.66
381.512	109.36
381.975	118.36
382.437	115.46
382.9	107.26
383.362	112.76
383.825	124.46
384.287	132.56
384.75	127.96
385.212	129.06
385.674	130.56
386.136	119.46
386.599	114.76
387.061	119.06
387.523	116.26
387.985	116.46
388.447	129.06
388.91	133.46
389.372	140.86
389.834	139.66
390.296	131.46
390.758	139.36
391.22	151.96
391.682	182.16
392.144	270.36
392.606	203.06
393.068	149.16
393.529	144.76
393.991	135.66
394.453	139.96
394.915	136.86
395.377	175.66
395.838	190.66
396.3	136.46
396.762	131.56
397.224	123.56
397.685	117.66
398.147	113.86
398.608	117.16
399.07	118.46
399.531	126.16
399.993	127.56
400.454	140.26
400.916	131.56
401.377	135.66
401.839	134.26
402.3	135.16
402.762	152.16
403.223	157.96
403.684	153.26
404.145	154.56
404.607	144.66
405.068	147.86
405.529	156.36
405.99	170.46
406.451	165.46
406.913	154.26
407.374	155.76
407.835	149.86
408.296	147.26
408.757	153.36
409.218	169.56
409.679	161.56
410.14	161.06
410.601	159.46
411.062	168.46
411.522	178.56
411.983	176.96
412.444	157.86
412.905	165.56
413.366	166.56
413.826	175.76
414.287	204.46
414.748	234.06
415.208	223.56
415.669	195.36
416.13	188.16
416.59	181.66
417.051	198.26
417.511	207.96
417.972	220.96
418.432	229.96
418.893	269.96
419.353	234.16
419.814	185.66
420.274	175.16
420.734	170.96
421.195	182.56
421.655	182.36
422.115	178.86
422.576	178.66
423.036	187.46
423.496	201.26
423.956	199.16
424.416	214.56
424.876	243.06
425.336	239.56
425.797	242.06
426.257	237.76
426.717	222.36
427.177	215.16
427.637	210.46
428.097	216.56
428.556	232.06
429.016	248.56
429.476	245.46
429.936	255.16
430.396	256.16
430.856	273.16
431.315	294.56
431.775	329.86
432.235	353.16
432.694	331.56
433.154	338.76
433.614	365.56
434.073	317.36
434.533	270.56
434.993	254.96
435.452	266.36
435.912	268.06
436.371	266.76
436.83	263.76
437.29	255.06
437.749	236.36
438.209	220.96
438.668	250.56
439.127	266.86
439.587	243.66
440.046	229.36
440.505	237.36
440.964	258.96
441.424	300.06
441.883	290.66
442.342	244.66
442.801	211.56
443.26	202.06
443.719	207.76
444.178	204.16
444.637	197.26
445.096	199.36
445.555	209.26
446.014	204.76
446.473	213.96
446.932	220.36
447.391	214.16
447.849	210.76
448.308	201.66
448.767	212.06
449.226	219.16
449.685	224.46
450.143	234.66
450.602	219.36
451.061	210.26
451.519	223.46
451.978	220.86
452.436	215.06
452.895	221.36
453.353	240.86
453.812	227.56
454.27	226.16
454.729	223.56
455.187	224.96
455.646	233.66
456.104	233.36
456.562	244.56
457.021	255.56
457.479	241.96
457.937	257.26
458.395	241.16
458.854	235.36
459.312	238.76
459.77	255.36
460.228	241.96
460.686	228.36
461.144	243.66
461.602	230.56
462.06	221.96
462.518	245.06
462.976	241.66
463.434	241.76
463.892	251.06
464.35	268.46
464.808	277.76
465.266	256.16
465.724	257.96
466.181	250.96
466.639	255.26
467.097	273.76
467.555	285.66
468.012	286.36
468.47	294.96
468.928	312.86
469.385	312.06
469.843	324.36
470.3	328.46
470.758	348.06
471.215	366.06
471.673	379.96
472.13	385.26
472.588	393.06
473.045	358.06
473.503	364.56
473.96	369.16
474.417	384.76
474.875	415.26
475.332	446.06
475.789	434.46
476.246	450.86
476.704	467.86
477.161	484.76
477.618	502.16
478.075	534.66
478.532	581.26
478.989	649.86
479.446	758.26
479.903	735.06
480.36	772.86
480.817	826.86
481.274	916.96
481.731	1017.56
482.188	1102.16
482.645	1234.66
483.102	1333.16
483.558	1464.66
484.015	1511.46
484.472	1479.86
484.929	1440.26
485.385	1384.46
485.842	1351.26
486.299	1293.56
486.755	1231.96
487.212	1037.96
487.668	875.26
488.125	809.76
488.582	745.56
489.038	717.36
489.494	685.96
489.951	651.66
490.407	629.86
490.864	615.36
491.32	614.96
491.776	616.16
492.233	611.46
492.689	582.66
493.145	576.36
493.602	577.76
494.058	575.56
494.514	582.36
494.97	609.66
495.426	618.76
495.882	590.26
496.338	589.96
496.794	591.86
497.251	590.36
497.707	601.66
498.163	603.26
498.618	611.56
499.074	614.06
499.53	651.26
499.986	644.36
500.442	616.16
500.898	602.26
501.354	599.86
501.809	609.96
502.265	617.86
502.721	632.16
503.177	636.06
503.632	634.66
504.088	647.96
504.543	680.26
504.999	677.66
505.455	623.86
505.91	603.76
506.366	607.86
506.821	603.46
507.277	597.76
507.732	598.36
508.187	602.76
508.643	605.56
509.098	605.66
509.553	638.26
510.009	635.76
510.464	650.56
510.919	651.26
511.375	668.16
511.83	671.06
512.285	696.56
512.74	731.46
513.195	762.86
513.65	734.96
514.105	731.36
514.56	733.16
515.015	761.26
515.47	781.16
515.925	763.06
516.38	759.16
516.835	753.16
517.29	749.76
517.745	739.46
518.2	723.26
518.655	714.96
519.109	709.06
519.564	710.06
520.019	701.76
520.474	701.96
520.928	692.76
521.383	696.56
521.838	682.86
522.292	677.76
522.747	671.56
523.201	666.56
523.656	669.16
524.11	675.96
524.565	668.56
525.019	668.66
525.474	671.16
525.928	669.86
526.382	666.96
526.837	673.86
527.291	673.36
527.745	671.86
528.2	665.96
528.654	661.56
529.108	656.86
529.562	657.26
530.016	667.96
530.47	663.86
530.925	668.96
531.379	676.76
531.833	681.66
532.287	679.36
532.741	674.36
533.195	680.06
533.649	691.16
534.103	696.86
534.556	680.16
535.01	673.26
535.464	683.46
535.918	685.06
536.372	693.36
536.826	701.86
537.279	684.76
537.733	688.76
538.187	688.66
538.64	689.76
539.094	698.16
539.548	700.36
540.001	703.16
540.455	693.26
540.908	701.46
541.362	708.66
541.815	715.26
542.269	726.66
542.722	734.06
543.175	737.76
543.629	747.16
544.082	751.86
544.536	762.26
544.989	762.86
545.442	761.96
545.895	771.16
546.349	763.46
546.802	763.76
547.255	767.16
547.708	779.16
548.161	790.26
548.614	790.06
549.067	804.66
549.52	789.66
549.973	789.16
550.426	773.56
550.879	766.56
551.332	762.46
551.785	778.46
552.238	780.26
552.691	790.56
553.144	805.36
553.596	819.06
554.049	835.86
554.502	856.46
554.955	884.06
555.407	878.36
555.86	876.36
556.313	859.16
556.765	853.86
557.218	846.46
557.67	843.56
558.123	848.86
558.576	836.66
559.028	844.86
559.48	846.36
559.933	843.06
560.385	814.06
560.838	784.66
561.29	758.36
561.742	755.56
562.195	742.96
562.647	741.66
563.099	756.46
563.551	750.56
564.004	757.26
564.456	751.76
564.908	739.06
565.36	728.26
565.812	708.86
566.264	692.46
566.716	701.66
567.168	689.06
567.62	691.06
568.072	683.86
568.524	678.66
568.976	659.26
569.428	646.16
569.88	654.56
570.332	663.36
570.784	658.06
571.235	663.66
571.687	672.96
572.139	667.26
572.59	686.16
573.042	686.26
573.494	683.16
573.945	678.96
574.397	665.06
574.849	665.96
575.3	668.96
575.752	668.06
576.203	653.16
576.655	659.66
577.106	651.26
577.557	645.76
578.009	652.16
578.46	651.56
578.912	645.06
579.363	639.56
579.814	648.76
580.265	649.96
580.717	651.16
581.168	640.56
581.619	651.36
582.07	658.76
582.521	657.96
582.972	648.56
583.423	662.36
583.875	667.06
584.326	681.06
584.777	720.76
585.227	794.46
585.678	875.36
586.129	962.76
586.58	1024.26
587.031	1114.66
587.482	1241.36
587.933	1416.36
588.384	1239.66
588.834	942.26
589.285	787.26
589.736	758.96
590.186	750.16
590.637	747.86
591.088	715.76
591.538	718.06
591.989	715.36
592.439	713.96
592.89	706.76
593.34	690.06
593.791	685.26
594.241	680.06
594.692	688.96
595.142	673.66
595.593	678.56
596.043	686.96
596.493	694.56
596.943	695.56
597.394	695.46
597.844	685.16
598.294	710.16
598.744	730.76
599.195	751.66
599.645	803.26
600.095	828.06
600.545	887.96
600.995	938.16
601.445	1005.96
601.895	1047.06
602.345	1105.16
602.795	1078.26
603.245	1036.76
603.695	970.56
604.145	930.26
604.594	886.76
605.044	826.96
605.494	773.76
605.944	732.66
606.393	717.86
606.843	700.26
607.293	714.66
607.743	714.76
608.192	721.96
608.642	733.96
609.091	745.86
609.541	746.66
609.99	759.36
610.44	747.56
610.889	699.46
611.339	681.46
611.788	676.26
612.238	687.46
612.687	704.56
613.136	704.26
613.586	714.86
614.035	712.36
614.484	735.96
614.933	732.76
615.383	725.96
615.832	718.56
616.281	702.46
616.73	662.26
617.179	651.26
617.628	630.66
618.077	612.66
618.526	613.76
618.975	608.86
619.424	601.26
619.873	595.06
620.322	603.36
620.771	596.16
621.22	591.56
621.669	583.36
622.118	567.16
622.567	570.86
623.015	554.36
623.464	559.36
623.913	548.16
624.361	537.36
624.81	534.16
625.259	539.36
625.707	534.16
626.156	537.36
626.604	564.66
627.053	543.16
627.501	554.56
627.95	556.06
628.398	565.36
628.847	549.76
629.295	557.06
629.744	565.16
630.192	548.86
630.64	554.06
631.089	547.06
631.537	567.36
631.985	573.26
632.433	590.06
632.881	581.96
633.33	628.26
633.778	620.76
634.226	548.56
634.674	559.46
635.122	564.56
635.57	579.46
636.018	609.56
636.466	567.16
636.914	539.86
637.362	554.36
637.81	555.46
638.258	563.86
638.705	566.76
639.153	594.96
639.601	596.76
640.049	620.66
640.497	662.76
640.944	676.26
641.392	616.36
641.84	596.96
642.287	571.46
642.735	552.06
643.182	556.06
643.63	555.16
644.078	566.56
644.525	570.66
644.973	576.76
645.42	581.66
645.867	601.86
646.315	624.56
646.762	645.76
647.21	673.06
647.657	697.86
648.104	734.96
648.551	760.06
648.999	819.96
649.446	893.76
649.893	985.06
650.34	1137.56
650.787	1364.96
651.234	1685.86
651.682	2223.56
652.129	3048.86
652.576	4384.26
653.023	6452.06
653.47	8829.06
653.917	10923.26
654.363	12604.56
654.81	13885.26
655.257	13191.26
655.704	8669.76
656.151	5123.96
656.598	3315.96
657.044	2354.66
657.491	1805.46
657.938	1449.86
658.385	1222.46
658.831	1058.16
659.278	940.96
659.724	831.86
660.171	766.26
660.618	703.26
661.064	675.06
661.511	650.46
661.957	635.76
662.404	635.56
662.85	636.46
663.296	606.66
663.743	545.86
664.189	529.26
664.635	525.46
665.082	513.56
665.528	517.36
665.974	513.66
666.42	499.56
666.867	493.96
667.313	474.66
667.759	472.66
668.205	459.76
668.651	463.06
669.097	468.26
669.543	487.56
669.989	451.76
670.435	436.86
670.881	433.76
671.327	431.36
671.773	457.76
672.219	485.36
672.665	535.36
673.11	571.56
673.556	616.16
674.002	655.46
674.448	637.76
674.893	528.56
675.339	464.76
675.785	425.46
676.23	410.26
676.676	375.16
677.122	371.96
677.567	358.76
678.013	354.06
678.458	348.66
678.904	353.96
679.349	350.66
679.794	347.06
680.24	344.16
680.685	342.26
681.131	341.56
681.576	342.36
682.021	344.26
682.466	346.86
682.912	342.86
683.357	348.86
683.802	375.66
684.247	403.16
684.692	442.36
685.137	481.26
685.583	523.36
686.028	541.86
686.473	513.66
686.918	432.06
687.363	408.36
687.807	389.26
688.252	356.76
688.697	343.46
689.142	327.06
689.587	326.56
690.032	319.36
690.477	333.66
690.921	335.76
691.366	362.56
691.811	391.66
692.255	424.16
692.7	450.96
693.145	489.16
693.589	689.16
694.034	1118.36
694.478	1496.66
694.923	1689.56
695.367	2183.96
695.812	1149.16
696.256	489.86
696.701	365.26
697.145	335.16
697.59	320.06
698.034	310.26
698.478	316.66
698.922	315.66
699.367	315.86
699.811	330.16
700.255	351.06
700.699	378.86
701.143	419.86
701.588	463.76
702.032	502.36
702.476	500.56
702.92	481.86
703.364	483.76
703.808	627.36
704.252	1026.56
704.696	1433.86
705.14	1622.96
705.584	2048.86
706.027	1030.26
706.471	511.46
706.915	382.56
707.359	342.26
707.803	314.06
708.246	299.86
708.69	296.76
709.134	301.26
709.577	307.56
710.021	308.26
710.465	297.66
710.908	290.06
711.352	294.56
711.795	301.16
712.239	339.56
712.682	380.06
713.126	406.16
713.569	449.76
714.012	362.86
714.456	309.96
714.899	290.86
715.342	274.36
715.786	250.86
716.229	247.76
716.672	248.16
717.115	241.86
717.558	241.96
718.002	247.06
718.445	253.96
718.888	272.16
719.331	284.66
719.774	303.36
720.217	296.96
720.66	278.46
721.103	258.06
721.546	247.76
721.989	246.26
722.432	220.66
722.874	236.96
723.317	222.56
723.76	226.26
724.203	253.56
724.645	304.46
725.088	437.96
725.531	557.36
725.974	627.86
726.416	527.46
726.859	295.66
727.301	239.16
727.744	230.06
728.187	228.66
728.629	227.46
729.071	236.86
729.514	247.46
729.956	263.96
730.399	273.96
730.841	282.16
731.283	268.86
731.726	257.26
732.168	255.56
732.61	265.96
733.053	285.36
733.495	305.56
733.937	346.36
734.379	394.26
734.821	431.46
735.263	534.36
735.705	828.86
736.148	1583.96
736.59	2534.56
737.032	2950.86
737.474	2404.36
737.916	791.16
738.357	422.26
738.799	318.06
739.241	295.96
739.683	272.06
740.125	278.46
740.567	293.86
741.008	300.76
741.45	304.66
741.892	310.46
742.334	338.06
742.775	344.86
743.217	328.66
743.658	263.96
744.1	251.06
744.542	253.16
744.983	304.36
745.425	326.66
745.866	323.56
746.307	275.06
746.749	273.96
747.19	317.76
747.632	452.66
748.073	874.66
748.514	1837.46
748.956	2790.56
749.397	3507.56
749.838	2889.56
750.279	2854.46
750.72	1450.76
751.162	538.76
751.603	314.76
752.044	244.56
752.485	212.96
752.926	204.76
753.367	191.06
753.808	183.66
754.249	179.56
754.69	184.86
755.131	176.36
755.572	181.76
756.013	176.66
756.453	179.86
756.894	185.06
757.335	182.76
757.776	188.36
758.216	188.86
758.657	191.96
759.098	202.66
759.538	221.96
759.979	266.06
760.42	381.26
760.86	711.16
761.301	1836.66
761.741	4371.66
762.182	6233.16
762.622	4368.86
763.063	1274.86
763.503	529.26
763.943	340.76
764.384	330.16
764.824	387.96
765.264	406.66
765.705	289.16
766.145	206.66
766.585	184.26
767.025	179.86
767.465	180.36
767.906	230.26
768.346	302.86
768.786	316.66
769.226	256.06
769.666	313.56
770.106	621.56
770.546	1551.36
770.986	2572.86
771.426	2299.86
771.866	775.26
772.306	326.06
772.745	203.26
773.185	168.06
773.625	171.36
774.065	157.86
774.505	190.96
774.944	299.26
775.384	653.26
775.824	1165.86
776.263	1121.36
776.703	480.26
777.142	211.46
777.582	148.56
778.021	136.76
778.461	131.46
778.9	137.96
779.34	123.26
779.779	113.46
780.219	104.16
780.658	108.86
781.097	105.46
781.537	105.36
781.976	106.86
782.415	104.66
782.855	105.16
783.294	103.46
783.733	105.86
784.172	110.36
784.611	103.16
785.05	111.06
785.489	108.86
785.928	114.36
786.367	111.96
786.806	119.96
787.245	123.06
787.684	136.86
788.123	141.66
788.562	130.46
789.001	124.76
789.44	117.16
789.879	109.16
790.317	116.56
790.756	128.16
791.195	126.06
791.634	146.16
792.072	194.66
792.511	363.36
792.95	1009.96
793.388	2091.46
793.827	1869.26
794.265	658.86
794.704	282.46
795.142	174.96
795.581	155.16
796.019	126.26
796.458	126.86
796.896	118.36
797.334	126.76
797.773	154.46
798.211	210.06
798.649	443.36
799.087	1017.36
799.526	1566.36
799.964	1972.96
800.402	1945.86
800.84	734.66
801.278	295.86
801.716	181.16
802.154	155.26
802.592	143.26
803.03	139.86
803.468	133.96
803.906	143.86
804.344	141.76
804.782	141.26
805.22	132.96
805.658	128.66
806.096	142.36
806.533	158.06
806.971	170.56
807.409	215.46
807.847	310.86
808.284	663.56
808.722	1850.86
809.16	3202.06
809.597	3080.36
810.035	5341.76
810.472	5565.86
810.91	2031.46
811.347	776.56
811.785	395.96
812.222	246.26
812.66	191.76
813.097	165.36
813.535	141.36
813.972	121.86
814.409	113.76
814.846	104.96
815.284	106.96
815.721	98.06
816.158	100.36
816.595	119.86
817.032	174.06
817.47	195.96
817.907	152.76
818.344	142.56
818.781	113.86
819.218	98.16
819.655	118.96
820.092	174.36
820.529	203.86
820.966	171.76
821.403	126.16
821.839	97.36
822.276	102.46
822.713	122.56
823.15	131.86
823.587	111.76
824.023	141.16
824.46	293.66
824.897	892.06
825.333	1326.46
825.77	572.96
826.206	225.86
826.643	138.46
827.08	96.16
827.516	75.96
827.953	78.36
828.389	78.96
828.825	67.76
829.262	65.46
829.698	57.66
830.135	63.56
830.571	61.56
831.007	59.36
831.443	62.16
831.88	56.36
832.316	55.26
832.752	61.86
833.188	58.26
833.624	62.06
834.06	58.36
834.497	68.46
834.933	70.26
835.369	68.66
835.805	65.56
836.241	76.06
836.677	67.76
837.112	90.36
837.548	102.66
837.984	131.16
838.42	195.96
838.856	499.56
839.292	1500.06
839.727	2228.66
840.163	1042.26
840.599	930.46
841.034	1999.86
841.47	2050.36
841.906	746.76
842.341	323.16
842.777	222.26
843.212	300.26
843.648	298.96
844.083	147.86
844.519	96.16
844.954	75.36
845.39	56.06
845.825	54.26
846.261	59.66
846.696	51.56
847.131	55.26
847.566	56.16
848.002	46.96
848.437	48.46
848.872	60.86
849.307	54.06
849.742	82.76
850.177	179.66
850.613	554.86
851.048	859.86
851.483	366.46
851.918	153.56
852.353	79.06
852.788	53.66
853.223	53.56
853.657	54.36
854.092	45.36
854.527	38.86
854.962	35.76
855.397	50.66
855.832	53.56
856.266	39.26
856.701	40.96
857.136	35.46
857.57	41.06
858.005	41.96
858.44	55.76
858.874	55.06
859.309	52.06
859.743	35.46
860.178	46.36
860.612	43.36
861.047	49.76
861.481	65.46
861.915	67.46
862.35	48.66
862.784	36.06
863.218	33.66
863.653	30.26
864.087	43.96
864.521	50.46
864.955	76.06
865.39	149.26
865.824	170.76
866.258	115.76
866.692	158.16
867.126	167.56
867.56	99.46
867.994	44.86
868.428	35.96
868.862	43.96
869.296	49.26
869.73	56.06
870.164	51.16
870.598	38.76
871.031	33.76
871.465	31.76
871.899	20.66
872.333	22.26
872.766	23.16
873.2	23.46
873.634	24.16
874.067	23.16
874.501	27.96
874.935	32.66
875.368	32.46
875.802	26.26
876.235	17.36
876.669	21.16
877.102	20.16
877.535	20.56
877.969	25.86
878.402	21.66
878.836	22.96
879.269	19.36
879.702	25.36
880.135	19.66
880.569	22.36
881.002	25.36
881.435	21.26
881.868	20.86
882.301	21.66
882.734	17.76
883.167	23.66
883.601	19.76
884.034	24.86
884.467	12.86
884.899	17.86
885.332	13.26
885.765	16.46
886.198	17.16
886.631	15.66
887.064	10.16
887.497	14.96
887.929	18.46
888.362	11.16
888.795	16.86
889.228	11.96
889.66	19.16
890.093	16.36
890.526	14.46
890.958	19.06
891.391	18.96
891.823	15.86
892.256	11.16
892.688	11.26
893.121	18.26
893.553	16.26
893.985	21.56
894.418	19.16
894.85	15.36
895.282	11.46
895.715	11.96
896.147	15.76
896.579	16.96
897.011	15.06
897.444	22.16
897.876	11.26
898.308	13.96
898.74	12.66
899.172	12.66
899.604	22.06
900.036	16.66
900.468	14.96
900.9	17.16
901.332	12.36
901.764	15.46
902.196	16.56
902.628	17.16
903.06	20.86
903.491	26.06
903.923	19.76
904.355	20.56
904.787	26.46
905.218	25.86
905.65	18.26
906.082	8.26
906.513	9.86
906.945	10.26
907.376	14.76
907.808	20.96
908.239	21.06
908.671	23.46
909.102	13.96
909.534	21.86
909.965	43.16
910.397	88.66
910.828	309.46
911.259	463.56
911.691	210.26
912.122	102.16
912.553	50.96
912.984	29.96
913.415	33.16
913.847	27.26
914.278	12.46
914.709	13.36
915.14	13.46
915.571	15.26
916.002	6.06
916.433	18.66
916.864	17.66
917.295	10.26
917.726	16.16
918.157	6.76
918.587	32.06
919.018	19.46
919.449	18.86
919.88	20.36
920.311	27.96
920.741	44.36
921.172	164.96
921.603	140.96
922.033	66.56
922.464	41.56
922.895	20.66
923.325	19.56
923.756	15.46
924.186	12.26
924.617	23.96
925.047	39.46
925.478	49.36
925.908	38.96
926.338	24.26
926.769	17.36
927.199	14.46
927.629	5.66
928.06	12.76
928.49	11.86
928.92	14.16
929.35	8.56
929.78	9.66
930.21	12.86
930.641	9.36
931.071	8.56
931.501	-1.14
931.931	2.76
932.361	7.36
932.791	1.86
933.221	8.36
933.651	5.36
934.08	14.26
934.51	25.76
934.94	11.36
935.37	11.66
935.8	5.46
936.229	-1.14
936.659	10.56
937.089	3.46
937.519	10.66
937.948	18.36
938.378	16.46
938.807	4.86
939.237	6.06
939.666	6.26
940.096	-7.04
940.525	-2.24
940.955	-0.04
941.384	2.96
941.814	-9.64
942.243	-3.74
942.672	2.76
943.102	-1.24
943.531	-2.44
943.96	1.96
944.39	2.16
944.819	-0.74
945.248	3.46
945.677	0.46
946.106	3.76
946.535	4.26
946.964	-1.44
947.393	0.26
947.822	5.76
948.251	-5.54
948.68	-0.94
949.109	5.46
949.538	1.66
949.967	1.86
950.396	-1.64
950.825	-1.24
951.254	-1.24
951.682	-7.34
952.111	2.46
952.54	7.76
952.969	-1.64
953.397	-7.34
953.826	-5.44
954.254	-8.24
954.683	3.06
955.112	-5.74
955.54	-2.24
955.969	1.86
956.397	-4.44
956.826	-10.34
957.254	2.56
957.682	2.36
958.111	1.86
958.539	-0.74
958.967	0.86
959.396	-1.24
959.824	-0.84
960.252	-0.04
960.68	-5.34
961.109	-4.64
961.537	-6.94
961.965	-2.24
962.393	-0.74
962.821	-8.84
963.249	0.56
963.677	1.86
964.105	5.26
964.533	44.86
964.961	39.66
965.389	19.36
965.817	6.66
966.245	3.26
966.672	-2.04
967.1	-9.54
967.528	7.86
967.956	-5.44
968.383	-1.74
968.811	-7.74
969.239	1.86
969.666	-5.04
970.094	-4.24
970.522	1.16
970.949	-3.84
971.377	-4.24
971.804	-7.84
972.232	-4.24
972.659	-3.24
973.087	-5.44
973.514	-3.64
973.941	-12.54
974.369	0.56
974.796	-4.34
975.223	1.46
975.651	-4.84
976.078	-1.84
976.505	-9.04
976.932	-1.04
977.359	19.06
977.786	7.26
978.214	-2.04
978.641	-4.84
979.068	-3.84
979.495	-7.64
979.922	-4.64
980.349	-6.14
980.776	-5.94
981.202	-1.84
981.629	-3.74
982.056	-0.04
982.483	-5.14
982.91	-0.14
983.337	-4.14
983.763	2.26
984.19	-11.84
984.617	-10.84
985.043	-3.84
985.47	-4.34
985.897	-2.64
986.323	-4.54
986.75	2.16
987.176	-1.74
987.603	-2.44
988.029	-3.34
988.456	-3.34
988.882	-0.14
989.308	-13.04
989.735	-6.34
990.161	0.56
990.587	-7.24
991.014	0.26
991.44	6.96
991.866	-3.74
992.292	-6.64
992.719	-3.54
993.145	2.56
993.571	-13.04
993.997	-3.04
994.423	-3.24
994.849	-2.84
995.275	3.46
995.701	-3.94
996.127	-2.24
996.553	-0.94
996.979	-4.04
997.405	0.06
997.83	-6.74
998.256	-9.34
998.682	-9.64
999.108	-7.44
999.534	2.06
999.959	-2.04
1000.385	-5.44
1000.811	-0.04
1001.236	-10.24
1001.662	-11.34
1002.087	-9.84
1002.513	-4.74
1002.938	1.46
1003.364	-7.94
1003.789	-9.84
1004.215	0.16
1004.64	-7.94
1005.066	-4.24
1005.491	-4.14
1005.916	-6.84
1006.342	-3.54
1006.767	-4.94
1007.192	6.96
1007.617	-3.94
1008.042	-6.54
1008.468	-9.34
1008.893	-3.74
1009.318	-4.44
1009.743	-3.84
1010.168	-4.44
1010.593	-1.64
1011.018	-10.34
1011.443	-4.74
1011.868	-2.04
1012.293	-7.74
1012.718	-11.44
1013.143	-2.54
1013.567	2.66
1013.992	-5.34
1014.417	-11.54
1014.842	-3.24
1015.267	-4.14
1015.691	-1.14
1016.116	2.16
1016.541	-2.74
1016.965	-3.94
1017.39	-3.74
1017.814	-7.84
1018.239	-0.94
1018.663	-7.54
1019.088	-14.44
1019.512	-5.14
1019.937	-6.54
1020.361	-6.74
1020.785	-8.94
1021.21	-3.54
1021.634	-5.34
1022.058	-1.74
1022.483	2.86
1022.907	-12.84
1023.331	-8.64
1023.755	-6.04
1024.179	-1.44
1024.604	-4.64
1025.028	-7.24
1025.452	-5.14
1025.876	-0.74
1026.3	-3.24
1026.724	-13.24
1027.148	-6.24
1027.572	-8.94
1027.996	-9.34
1028.42	-3.54
1028.843	-5.34
1029.267	-7.34
1029.691	-4.34
1030.115	-7.04
1030.539	-8.34
1030.962	-4.24
1031.386	-10.54
1031.81	-1.84
1032.233	-1.94
1032.657	-2.44
1033.08	-3.34
1033.504	-9.24
1033.927	-7.64
1034.351	-5.64
1034.774	-8.34
1035.198	-5.74
1035.621	-4.24
1036.045	-9.24
1036.468	-7.04
1036.891	-15.54
1037.315	-15.54
1037.738	-11.14
1038.161	0.66
1038.584	-6.24
1039.008	-8.54
1039.431	-6.64
1039.854	-3.04
1040.277	-14.74
1040.7	-16.94
1041.123	-1.34
1041.546	-8.24
1041.969	-8.54
1042.392	-8.24
1042.815	-2.64
1043.238	-4.54
1043.661	-0.34
1044.084	-11.24
1044.507	-4.04
1044.93	-7.34
1045.352	-9.84
1045.775	-8.44
1046.198	-10.74
1046.621	-1.84
1047.043	-2.74
1047.466	7.16
1047.889	-0.94
1048.311	-7.14
1048.734	-1.44
1049.156	-3.54
1049.579	-3.54
1050.001	-3.54
1050.424	-2.74
1050.846	-8.94
1051.269	-6.84
1051.691	-5.64
1052.113	-6.84
1052.536	-3.34
1052.958	-0.44
1053.38	-3.34
1053.802	-11.44
1054.225	-5.44
1054.647	-10.54
1055.069	-8.14
1055.491	-1.44
1055.913	-11.74
1056.335	-4.34
1056.757	-7.14
1057.179	-8.64
1057.601	-9.74
1058.023	-12.94
1058.445	-9.04
1058.867	-7.34
1059.289	-5.74
1059.711	-8.54
1060.133	-6.74
1060.555	-10.24
1060.976	-14.14
1061.398	-12.64
1061.82	-3.94
1062.241	-9.14
1062.663	-10.04
1063.085	-9.14
1063.506	-3.34
1063.928	-6.64
1064.35	-7.84
1064.771	-9.84
1065.193	-1.94
1065.614	-10.34
1066.035	-0.64
1066.457	-8.44
1066.878	-5.14
1067.3	-5.44
1067.721	1.66
1068.142	-2.44
1068.564	-5.14
1068.985	-8.14
1069.406	-11.44
1069.827	-13.24
1070.248	-3.44
1070.67	-9.94
1071.091	-9.44
1071.512	-10.74
1071.933	-10.74
1072.354	-10.94
1072.775	-3.44
1073.196	-7.34
1073.617	-6.54
1074.038	-9.24
1074.459	-2.74
1074.88	-6.94
1075.3	1.46
1075.721	-7.94
1076.142	-3.14
1076.563	-2.24
1076.983	-9.24
1077.404	-10.44
1077.825	-15.34
1078.246	-7.14
1078.666	-9.54
1079.087	-7.54
1079.507	-5.64
1079.928	-4.64
1080.348	1.06
1080.769	-5.24
1081.189	-8.44
1081.61	-4.34
1082.03	-11.14
1082.451	-4.74
1082.871	-4.04
1083.291	-7.94
1083.711	-6.44
1084.132	-11.44
1084.552	-6.54
1084.972	-2.24
1085.392	-14.64
1085.813	-10.94
1086.233	-9.44
1086.653	-9.04
1087.073	-9.94
1087.493	-12.84
1087.913	-5.14
1088.333	-6.94
1088.753	-10.04
1089.173	2.86
1089.593	-5.34
1090.013	0.16
1090.433	-0.94
1090.852	-1.74
1091.272	-1.34
1091.692	-8.84
1092.112	-11.24
1092.531	-13.04
1092.951	-20.64
1093.371	-3.74
1093.79	-2.44
1094.21	-5.94
1094.63	-7.74
1095.049	-8.04
1095.469	-8.54
1095.888	-10.34
1096.308	-6.74
1096.727	-1.74
1097.146	-10.54
1097.566	-2.54
1097.985	-9.14
1098.405	-5.64
1098.824	-14.64
1099.243	-7.84
1099.662	-9.74
1100.082	-1.84
1100.501	-3.34
1100.92	-8.84
1101.339	-4.44
1101.758	-3.24
