Data from 20171114-ORNL-Ar_H_NY_Subt18_08-04-47-103.txt Node
Date: Tue Nov 14 08:04:47 EST 2017
User: Ender
Spectrometer: HR+D1039
Trigger mode: 0
Integration Time (sec): 2.730000E-2
Scans to average: 10
Electric dark correction enabled: true
Nonlinearity correction enabled: false
Boxcar width: 0
XAxis mode: Wavelengths
Number of Pixels in Spectrum: 2048
>>>>>Begin Spectral Data<<<<<
187.836	-3.49
188.309	-3.49
188.782	-3.49
189.255	3.71
189.728	1.21
190.201	7.51
190.674	-1.39
191.147	0.91
191.619	-8.09
192.092	-2.39
192.565	2.41
193.038	-0.19
193.511	-0.49
193.984	-0.19
194.456	3.01
194.929	-1.49
195.402	-2.89
195.874	1.91
196.347	4.41
196.82	-4.49
197.292	9.01
197.765	-1.89
198.237	-6.99
198.71	-1.09
199.182	-3.39
199.655	3.61
200.127	-1.39
200.6	0.11
201.072	0.31
201.544	-3.69
202.017	-3.49
202.489	-0.29
202.961	1.31
203.433	1.11
203.906	-5.99
204.378	-3.39
204.85	-1.09
205.322	-8.69
205.794	-2.59
206.266	-5.39
206.739	-5.89
207.211	6.91
207.683	-5.79
208.155	-7.49
208.627	-8.39
209.099	-5.69
209.57	-7.89
210.042	-2.59
210.514	-2.59
210.986	-1.79
211.458	-0.49
211.93	-3.69
212.402	7.91
212.873	0.31
213.345	-7.39
213.817	-12.39
214.288	-4.89
214.76	-10.39
215.232	4.21
215.703	-0.79
216.175	-7.49
216.646	-0.99
217.118	-7.19
217.589	-3.59
218.061	0.91
218.532	-0.69
219.004	3.51
219.475	-1.59
219.946	0.01
220.418	-4.89
220.889	2.21
221.36	-0.49
221.832	2.41
222.303	-2.99
222.774	-0.09
223.245	-6.49
223.717	-4.39
224.188	-3.49
224.659	-5.59
225.13	-10.69
225.601	-4.29
226.072	4.81
226.543	4.71
227.014	2.21
227.485	-1.49
227.956	-6.19
228.427	-1.99
228.898	1.41
229.369	4.01
229.839	-4.89
230.31	-5.99
230.781	-1.59
231.252	-0.99
231.722	-8.09
232.193	-0.89
232.664	-0.19
233.135	-0.79
233.605	2.81
234.076	-6.59
234.546	2.91
235.017	10.01
235.487	2.81
235.958	-1.69
236.428	-1.59
236.899	5.11
237.369	3.11
237.84	7.91
238.31	6.51
238.78	1.41
239.251	2.21
239.721	4.81
240.191	2.61
240.662	1.41
241.132	5.11
241.602	-4.19
242.072	2.41
242.542	11.41
243.013	2.31
243.483	8.71
243.953	2.81
244.423	3.21
244.893	-2.69
245.363	10.41
245.833	1.41
246.303	5.21
246.773	11.41
247.243	5.21
247.712	3.01
248.182	8.11
248.652	13.91
249.122	7.71
249.592	15.01
250.061	24.41
250.531	39.11
251.001	20.11
251.471	29.11
251.94	24.51
252.41	9.21
252.879	4.91
253.349	10.41
253.818	13.61
254.288	5.81
254.757	12.51
255.227	4.71
255.696	6.21
256.166	5.31
256.635	11.41
257.105	9.71
257.574	10.01
258.043	16.71
258.513	14.51
258.982	23.91
259.451	11.61
259.92	17.11
260.389	16.71
260.859	21.21
261.328	18.41
261.797	22.11
262.266	19.01
262.735	15.31
263.204	11.51
263.673	0.61
264.142	10.11
264.611	-1.69
265.08	6.31
265.549	3.71
266.018	7.71
266.487	2.21
266.955	-1.69
267.424	0.71
267.893	11.91
268.362	3.41
268.83	8.01
269.299	18.01
269.768	6.81
270.236	7.91
270.705	5.71
271.174	9.71
271.642	9.41
272.111	13.81
272.579	14.71
273.048	28.01
273.516	30.41
273.985	28.71
274.453	27.21
274.922	25.21
275.39	13.51
275.858	3.71
276.327	15.01
276.795	19.71
277.263	11.61
277.731	31.71
278.2	58.21
278.668	69.41
279.136	56.21
279.604	20.81
280.072	26.01
280.54	10.41
281.008	17.11
281.477	23.01
281.945	20.41
282.413	18.41
282.881	17.61
283.348	8.81
283.816	18.31
284.284	19.61
284.752	28.81
285.22	22.11
285.688	17.51
286.156	25.71
286.623	49.61
287.091	57.01
287.559	35.71
288.026	23.41
288.494	20.21
288.962	13.91
289.429	11.31
289.897	20.11
290.364	15.81
290.832	25.21
291.3	20.51
291.767	20.91
292.234	28.81
292.702	15.51
293.169	20.91
293.637	29.71
294.104	28.01
294.571	14.41
295.039	17.51
295.506	17.61
295.973	24.41
296.44	15.61
296.908	24.11
297.375	14.61
297.842	20.61
298.309	17.71
298.776	19.61
299.243	20.71
299.71	16.31
300.177	24.41
300.644	25.21
301.111	24.31
301.578	21.71
302.045	20.81
302.512	26.91
302.979	29.71
303.446	23.01
303.913	20.41
304.379	29.11
304.846	33.51
305.313	29.61
305.78	27.01
306.246	22.31
306.713	31.71
307.18	29.31
307.646	25.21
308.113	31.81
308.579	23.01
309.046	32.21
309.512	36.41
309.979	19.31
310.445	28.71
310.912	28.91
311.378	33.51
311.845	40.71
312.311	32.31
312.777	40.31
313.244	31.01
313.71	43.21
314.176	31.41
314.642	36.21
315.109	31.21
315.575	39.31
316.041	41.71
316.507	32.71
316.973	42.21
317.439	35.21
317.905	38.71
318.371	33.61
318.837	36.61
319.303	35.01
319.769	37.41
320.235	36.91
320.701	36.51
321.167	37.11
321.633	38.21
322.099	42.31
322.564	43.51
323.03	45.71
323.496	43.81
323.962	42.11
324.427	43.21
324.893	41.21
325.359	37.61
325.824	34.81
326.29	37.21
326.755	43.31
327.221	42.81
327.686	45.41
328.152	44.61
328.617	45.41
329.083	55.41
329.548	57.51
330.014	52.51
330.479	43.11
330.944	42.41
331.41	44.01
331.875	47.21
332.34	43.11
332.805	46.61
333.271	48.21
333.736	50.31
334.201	60.81
334.666	56.51
335.131	51.41
335.596	53.31
336.061	52.01
336.526	44.81
336.991	47.31
337.456	52.81
337.921	48.31
338.386	48.51
338.851	49.91
339.316	49.51
339.781	47.31
340.246	56.41
340.711	52.41
341.175	54.21
341.64	43.71
342.105	53.81
342.569	61.91
343.034	60.51
343.499	60.61
343.963	56.91
344.428	68.01
344.893	63.01
345.357	63.41
345.822	61.91
346.286	67.21
346.751	75.91
347.215	70.61
347.679	79.11
348.144	104.41
348.608	82.81
349.073	73.91
349.537	77.21
350.001	74.61
350.465	84.71
350.93	83.51
351.394	83.31
351.858	79.11
352.322	91.91
352.786	82.41
353.25	106.21
353.715	107.31
354.179	104.61
354.643	124.11
355.107	131.21
355.571	115.21
356.035	106.11
356.498	125.61
356.962	124.11
357.426	130.61
357.89	113.81
358.354	88.51
358.818	85.11
359.281	84.61
359.745	79.71
360.209	81.81
360.673	78.81
361.136	83.61
361.6	86.51
362.064	83.51
362.527	86.81
362.991	89.41
363.454	85.61
363.918	77.31
364.381	76.91
364.845	76.61
365.308	86.91
365.772	82.71
366.235	82.51
366.698	82.21
367.162	89.61
367.625	84.01
368.088	92.01
368.552	82.61
369.015	88.11
369.478	95.11
369.941	97.31
370.404	91.61
370.867	103.71
371.331	106.81
371.794	120.31
372.257	111.01
372.72	119.81
373.183	112.01
373.646	103.31
374.109	102.51
374.572	102.51
375.035	108.21
375.497	107.21
375.96	99.71
376.423	101.11
376.886	110.21
377.349	102.51
377.811	101.71
378.274	99.51
378.737	102.91
379.199	102.11
379.662	107.61
380.125	105.71
380.587	114.91
381.05	117.11
381.512	124.41
381.975	129.11
382.437	125.31
382.9	121.51
383.362	131.31
383.825	136.11
384.287	150.11
384.75	130.61
385.212	136.31
385.674	133.51
386.136	132.11
386.599	117.81
387.061	123.01
387.523	131.51
387.985	131.31
388.447	137.01
388.91	139.21
389.372	157.51
389.834	150.01
390.296	148.61
390.758	147.61
391.22	163.91
391.682	206.51
392.144	287.21
392.606	221.71
393.068	165.01
393.529	160.31
393.991	147.11
394.453	144.71
394.915	154.11
395.377	184.21
395.838	195.91
396.3	149.91
396.762	139.61
397.224	126.61
397.685	127.01
398.147	121.81
398.608	124.91
399.07	126.41
399.531	131.31
399.993	132.31
400.454	146.91
400.916	138.71
401.377	143.01
401.839	145.31
402.3	139.91
402.762	161.11
403.223	176.31
403.684	166.21
404.145	152.61
404.607	151.21
405.068	159.61
405.529	165.41
405.99	188.91
406.451	169.01
406.913	164.61
407.374	153.91
407.835	153.81
408.296	155.91
408.757	162.61
409.218	177.91
409.679	173.51
410.14	164.31
410.601	169.91
411.062	179.11
411.522	185.41
411.983	179.41
412.444	166.81
412.905	171.01
413.366	179.11
413.826	185.81
414.287	210.71
414.748	244.81
415.208	227.61
415.669	209.01
416.13	195.51
416.59	190.31
417.051	201.61
417.511	208.91
417.972	227.11
418.432	244.51
418.893	268.41
419.353	234.01
419.814	188.21
420.274	177.61
420.734	176.51
421.195	190.11
421.655	175.91
422.115	182.11
422.576	188.71
423.036	182.51
423.496	195.01
423.956	207.31
424.416	220.41
424.876	257.41
425.336	250.61
425.797	246.81
426.257	245.11
426.717	225.81
427.177	219.41
427.637	212.81
428.097	224.11
428.556	238.01
429.016	257.11
429.476	253.81
429.936	259.71
430.396	268.81
430.856	271.81
431.315	300.51
431.775	338.01
432.235	363.41
432.694	330.61
433.154	341.41
433.614	371.21
434.073	325.21
434.533	265.61
434.993	253.91
435.452	274.71
435.912	281.91
436.371	274.81
436.83	270.21
437.29	254.01
437.749	225.41
438.209	231.81
438.668	264.31
439.127	271.11
439.587	253.21
440.046	244.61
440.505	246.51
440.964	266.71
441.424	315.11
441.883	291.41
442.342	243.71
442.801	213.91
443.26	214.11
443.719	212.71
444.178	212.81
444.637	202.61
445.096	203.51
445.555	213.81
446.014	217.21
446.473	220.11
446.932	219.21
447.391	216.51
447.849	212.01
448.308	207.01
448.767	213.31
449.226	225.51
449.685	222.31
450.143	236.31
450.602	226.41
451.061	218.21
451.519	224.71
451.978	223.31
452.436	218.41
452.895	224.11
453.353	240.91
453.812	229.11
454.27	227.81
454.729	226.51
455.187	222.91
455.646	234.31
456.104	233.11
456.562	237.91
457.021	251.01
457.479	243.31
457.937	260.71
458.395	243.21
458.854	238.71
459.312	246.01
459.77	259.01
460.228	242.71
460.686	227.51
461.144	238.11
461.602	233.21
462.06	232.81
462.518	235.51
462.976	242.61
463.434	244.91
463.892	257.21
464.35	261.51
464.808	273.81
465.266	253.81
465.724	257.01
466.181	255.71
466.639	257.71
467.097	280.61
467.555	281.41
468.012	284.81
468.47	294.41
468.928	304.91
469.385	324.71
469.843	333.81
470.3	331.91
470.758	344.71
471.215	367.61
471.673	383.71
472.13	385.21
472.588	389.01
473.045	354.11
473.503	359.31
473.96	376.31
474.417	385.01
474.875	411.41
475.332	447.71
475.789	440.61
476.246	443.71
476.704	460.71
477.161	480.31
477.618	491.51
478.075	531.11
478.532	583.41
478.989	649.31
479.446	760.31
479.903	740.11
480.36	781.51
480.817	830.91
481.274	923.31
481.731	1032.91
482.188	1110.61
482.645	1253.21
483.102	1347.81
483.558	1485.71
484.015	1542.41
484.472	1517.31
484.929	1469.91
485.385	1419.31
485.842	1368.91
486.299	1309.31
486.755	1243.81
487.212	1043.81
487.668	877.01
488.125	817.31
488.582	743.01
489.038	717.01
489.494	673.41
489.951	657.91
490.407	641.41
490.864	621.21
491.32	611.61
491.776	605.11
492.233	607.61
492.689	572.91
493.145	577.71
493.602	571.91
494.058	577.31
494.514	591.31
494.97	601.11
495.426	615.51
495.882	596.81
496.338	575.21
496.794	598.91
497.251	587.91
497.707	611.11
498.163	610.51
498.618	602.81
499.074	618.71
499.53	640.91
499.986	646.31
500.442	617.11
500.898	602.71
501.354	596.21
501.809	598.61
502.265	606.51
502.721	635.31
503.177	630.81
503.632	634.21
504.088	642.71
504.543	668.21
504.999	674.71
505.455	624.61
505.91	600.61
506.366	603.31
506.821	592.71
507.277	593.61
507.732	590.71
508.187	594.71
508.643	606.31
509.098	598.81
509.553	617.61
510.009	629.61
510.464	632.31
510.919	645.61
511.375	652.81
511.83	676.01
512.285	683.11
512.74	718.11
513.195	747.21
513.65	737.01
514.105	728.51
514.56	737.91
515.015	760.31
515.47	772.61
515.925	747.61
516.38	749.91
516.835	748.71
517.29	749.31
517.745	738.41
518.2	726.21
518.655	711.41
519.109	711.81
519.564	709.71
520.019	694.31
520.474	696.11
520.928	682.61
521.383	684.81
521.838	682.21
522.292	673.81
522.747	669.71
523.201	663.11
523.656	647.81
524.11	646.71
524.565	654.11
525.019	650.91
525.474	660.41
525.928	663.51
526.382	658.01
526.837	654.61
527.291	654.91
527.745	652.01
528.2	646.61
528.654	658.61
529.108	642.31
529.562	651.61
530.016	653.81
530.47	646.61
530.925	655.91
531.379	657.11
531.833	665.41
532.287	664.81
532.741	661.31
533.195	670.41
533.649	679.31
534.103	681.11
534.556	667.21
535.01	676.11
535.464	662.41
535.918	682.81
536.372	682.91
536.826	676.31
537.279	668.61
537.733	674.81
538.187	672.51
538.64	672.01
539.094	683.41
539.548	681.11
540.001	685.11
540.455	671.51
540.908	687.51
541.362	694.51
541.815	710.21
542.269	710.11
542.722	711.01
543.175	720.71
543.629	718.81
544.082	739.21
544.536	743.01
544.989	737.81
545.442	743.61
545.895	740.11
546.349	737.31
546.802	740.81
547.255	736.71
547.708	751.71
548.161	774.41
548.614	771.01
549.067	777.21
549.52	762.01
549.973	758.01
550.426	747.61
550.879	746.51
551.332	738.21
551.785	745.11
552.238	751.21
552.691	776.21
553.144	784.91
553.596	788.41
554.049	799.21
554.502	837.21
554.955	864.81
555.407	859.01
555.86	842.61
556.313	838.11
556.765	828.71
557.218	830.91
557.67	822.21
558.123	824.41
558.576	818.71
559.028	826.81
559.48	823.01
559.933	806.91
560.385	781.61
560.838	747.01
561.29	728.61
561.742	726.01
562.195	709.01
562.647	710.51
563.099	723.11
563.551	712.41
564.004	727.51
564.456	724.51
564.908	701.71
565.36	695.41
565.812	688.91
566.264	674.31
566.716	683.01
567.168	668.61
567.62	678.31
568.072	653.71
568.524	651.11
568.976	632.71
569.428	625.21
569.88	628.21
570.332	631.81
570.784	631.01
571.235	630.61
571.687	639.71
572.139	647.21
572.59	656.11
573.042	651.01
573.494	653.71
573.945	651.81
574.397	633.11
574.849	640.21
575.3	644.31
575.752	633.01
576.203	630.71
576.655	631.21
577.106	607.91
577.557	605.71
578.009	616.41
578.46	617.91
578.912	606.81
579.363	601.01
579.814	610.21
580.265	610.01
580.717	612.91
581.168	612.21
581.619	617.41
582.07	622.21
582.521	624.51
582.972	611.61
583.423	621.81
583.875	631.11
584.326	634.81
584.777	685.61
585.227	746.51
585.678	832.61
586.129	917.51
586.58	994.71
587.031	1071.91
587.482	1223.41
587.933	1403.11
588.384	1210.81
588.834	903.51
589.285	733.61
589.736	720.71
590.186	710.21
590.637	695.31
591.088	677.71
591.538	679.71
591.989	675.61
592.439	670.71
592.89	661.91
593.34	656.41
593.791	644.91
594.241	648.81
594.692	644.41
595.142	632.11
595.593	643.11
596.043	647.01
596.493	659.61
596.943	655.91
597.394	659.31
597.844	650.51
598.294	665.11
598.744	683.01
599.195	705.01
599.645	744.71
600.095	770.31
600.545	835.11
600.995	869.01
601.445	924.41
601.895	984.81
602.345	1029.01
602.795	1012.11
603.245	970.01
603.695	910.71
604.145	861.41
604.594	826.61
605.044	775.01
605.494	728.61
605.944	685.81
606.393	671.81
606.843	655.71
607.293	665.71
607.743	655.51
608.192	671.61
608.642	679.81
609.091	700.91
609.541	701.61
609.99	696.91
610.44	684.71
610.889	649.41
611.339	626.41
611.788	617.01
612.238	633.21
612.687	652.91
613.136	660.41
613.586	666.71
614.035	671.61
614.484	684.91
614.933	685.01
615.383	676.01
615.832	664.71
616.281	644.81
616.73	618.71
617.179	602.11
617.628	594.11
618.077	576.61
618.526	559.41
618.975	558.41
619.424	553.21
619.873	551.91
620.322	555.91
620.771	545.01
621.22	540.91
621.669	541.51
622.118	533.21
622.567	525.41
623.015	515.81
623.464	509.11
623.913	497.41
624.361	500.31
624.81	497.01
625.259	495.11
625.707	499.71
626.156	498.21
626.604	505.21
627.053	491.81
627.501	508.51
627.95	502.41
628.398	516.81
628.847	505.51
629.295	511.31
629.744	520.01
630.192	504.81
630.64	509.61
631.089	508.21
631.537	514.21
631.985	523.81
632.433	534.61
632.881	536.81
633.33	584.61
633.778	556.51
634.226	502.31
634.674	507.31
635.122	521.11
635.57	524.11
636.018	546.91
636.466	514.31
636.914	493.41
637.362	511.11
637.81	506.41
638.258	508.91
638.705	522.61
639.153	543.21
639.601	551.91
640.049	573.91
640.497	595.41
640.944	611.81
641.392	564.71
641.84	542.71
642.287	515.71
642.735	503.01
643.182	508.81
643.63	509.21
644.078	509.61
644.525	520.81
644.973	523.11
645.42	538.01
645.867	556.81
646.315	562.41
646.762	581.61
647.21	610.41
647.657	634.91
648.104	670.11
648.551	679.31
648.999	740.21
649.446	810.81
649.893	884.61
650.34	1023.71
650.787	1228.31
651.234	1518.21
651.682	1965.61
652.129	2705.61
652.576	3872.01
653.023	5747.31
653.47	7951.21
653.917	10022.11
654.363	11731.41
654.81	13111.11
655.257	12484.01
655.704	8094.91
656.151	4745.11
656.598	3050.51
657.044	2171.71
657.491	1657.41
657.938	1344.71
658.385	1106.01
658.831	970.31
659.278	851.71
659.724	750.11
660.171	694.31
660.618	628.11
661.064	601.81
661.511	585.31
661.957	574.81
662.404	557.01
662.85	579.71
663.296	541.91
663.743	492.31
664.189	473.21
664.635	470.61
665.082	466.61
665.528	464.61
665.974	457.61
666.42	444.51
666.867	443.21
667.313	426.71
667.759	425.61
668.205	421.51
668.651	430.61
669.097	431.21
669.543	443.01
669.989	418.41
670.435	391.61
670.881	388.81
671.327	396.91
671.773	414.31
672.219	428.11
672.665	469.01
673.11	512.41
673.556	552.11
674.002	594.31
674.448	573.11
674.893	478.61
675.339	412.31
675.785	388.51
676.23	359.01
676.676	342.01
677.122	333.11
677.567	321.41
678.013	326.51
678.458	314.11
678.904	316.51
679.349	297.91
679.794	303.51
680.24	308.51
680.685	298.31
681.131	300.31
681.576	301.71
682.021	307.71
682.466	299.31
682.912	307.81
683.357	297.01
683.802	328.91
684.247	347.21
684.692	392.41
685.137	431.01
685.583	475.01
686.028	493.11
686.473	450.51
686.918	386.21
687.363	358.41
687.807	353.71
688.252	316.41
688.697	313.61
689.142	299.21
689.587	296.21
690.032	279.81
690.477	299.11
690.921	300.31
691.366	335.01
691.811	347.21
692.255	381.61
692.7	404.61
693.145	432.61
693.589	588.61
694.034	953.51
694.478	1330.41
694.923	1522.11
695.367	2019.71
695.812	1045.51
696.256	435.31
696.701	325.41
697.145	301.41
697.59	284.51
698.034	277.61
698.478	283.21
698.922	282.31
699.367	281.61
699.811	288.41
700.255	306.51
700.699	330.91
701.143	366.11
701.588	411.11
702.032	443.01
702.476	442.21
702.92	431.31
703.364	423.51
703.808	539.51
704.252	874.61
704.696	1237.71
705.14	1465.51
705.584	1880.11
706.027	934.51
706.471	458.91
706.915	344.81
707.359	305.31
707.803	271.01
708.246	271.61
708.69	273.51
709.134	269.51
709.577	271.51
710.021	282.71
710.465	266.11
710.908	260.31
711.352	252.31
711.795	270.81
712.239	303.71
712.682	333.11
713.126	360.61
713.569	410.41
714.012	322.71
714.456	282.21
714.899	265.11
715.342	237.71
715.786	224.81
716.229	223.51
716.672	227.31
717.115	215.41
717.558	219.41
718.002	219.91
718.445	228.21
718.888	244.11
719.331	254.01
719.774	267.21
720.217	264.71
720.66	244.31
721.103	229.91
721.546	220.11
721.989	218.61
722.432	200.71
722.874	204.61
723.317	202.11
723.76	204.71
724.203	224.31
724.645	273.51
725.088	383.91
725.531	492.71
725.974	558.91
726.416	477.51
726.859	268.71
727.301	214.91
727.744	205.91
728.187	202.61
728.629	202.01
729.071	209.51
729.514	224.51
729.956	228.71
730.399	241.11
730.841	254.71
731.283	238.11
731.726	226.61
732.168	221.31
732.61	229.81
733.053	238.51
733.495	276.31
733.937	301.51
734.379	340.01
734.821	368.71
735.263	450.81
735.705	705.61
736.148	1309.41
736.59	2212.11
737.032	2687.61
737.474	2198.51
737.916	697.91
738.357	371.81
738.799	282.51
739.241	252.61
739.683	242.91
740.125	251.21
740.567	258.21
741.008	268.91
741.45	266.61
741.892	265.41
742.334	297.21
742.775	310.91
743.217	302.71
743.658	227.91
744.1	219.11
744.542	219.01
744.983	267.71
745.425	298.31
745.866	303.81
746.307	248.41
746.749	240.81
747.19	278.01
747.632	386.81
748.073	728.61
748.514	1558.11
748.956	2469.01
749.397	3055.01
749.838	2550.01
750.279	2619.21
750.72	1305.71
751.162	469.21
751.603	273.81
752.044	217.61
752.485	181.31
752.926	181.01
753.367	167.51
753.808	160.21
754.249	163.01
754.69	166.51
755.131	155.31
755.572	156.71
756.013	153.41
756.453	158.11
756.894	164.41
757.335	164.01
757.776	166.71
758.216	174.41
758.657	171.11
759.098	178.31
759.538	192.21
759.979	223.31
760.42	314.81
760.86	587.01
761.301	1493.61
761.741	3742.61
762.182	5710.81
762.622	3977.11
763.063	1133.01
763.503	465.61
763.943	295.41
764.384	288.91
764.824	352.81
765.264	384.11
765.705	266.31
766.145	185.81
766.585	164.61
767.025	157.81
767.465	158.21
767.906	216.61
768.346	276.31
768.786	295.01
769.226	233.81
769.666	270.91
770.106	507.61
770.546	1286.51
770.986	2321.71
771.426	2095.81
771.866	676.91
772.306	287.51
772.745	181.11
773.185	146.81
773.625	150.61
774.065	145.81
774.505	169.81
774.944	275.51
775.384	581.71
775.824	1094.81
776.263	1084.81
776.703	450.81
777.142	190.11
777.582	135.51
778.021	112.61
778.461	113.91
778.9	118.31
779.34	115.91
779.779	102.91
780.219	89.91
780.658	92.41
781.097	101.11
781.537	98.91
781.976	95.01
782.415	88.31
782.855	93.21
783.294	87.51
783.733	85.01
784.172	91.91
784.611	86.51
785.05	97.91
785.489	97.31
785.928	107.11
786.367	111.41
786.806	109.41
787.245	116.51
787.684	116.91
788.123	128.11
788.562	112.31
789.001	111.71
789.44	102.01
789.879	98.01
790.317	106.41
790.756	108.31
791.195	111.91
791.634	131.71
792.072	172.61
792.511	293.91
792.95	833.71
793.388	1855.81
793.827	1726.31
794.265	591.01
794.704	238.21
795.142	158.01
795.581	136.71
796.019	114.31
796.458	110.61
796.896	102.51
797.334	108.71
797.773	126.81
798.211	184.51
798.649	358.81
799.087	866.51
799.526	1372.51
799.964	1719.11
800.402	1786.01
800.84	663.71
801.278	260.11
801.716	153.31
802.154	137.01
802.592	127.11
803.03	116.11
803.468	116.01
803.906	127.71
804.344	125.11
804.782	121.11
805.22	114.71
805.658	112.61
806.096	129.01
806.533	131.01
806.971	156.51
807.409	191.81
807.847	268.71
808.284	545.61
808.722	1562.41
809.16	2866.41
809.597	2646.81
810.035	4676.11
810.472	5161.31
810.91	1835.51
811.347	700.61
811.785	349.71
812.222	222.51
812.66	162.91
813.097	140.91
813.535	125.61
813.972	107.21
814.409	103.31
814.846	90.21
815.284	96.81
815.721	89.91
816.158	99.11
816.595	104.91
817.032	162.91
817.47	181.51
817.907	136.91
818.344	134.61
818.781	94.21
819.218	88.31
819.655	111.51
820.092	161.51
820.529	190.71
820.966	158.11
821.403	120.01
821.839	95.51
822.276	90.61
822.713	102.91
823.15	116.71
823.587	101.21
824.023	122.31
824.46	248.51
824.897	760.31
825.333	1198.51
825.77	513.11
826.206	188.71
826.643	111.61
827.08	86.01
827.516	73.21
827.953	65.41
828.389	64.71
828.825	59.81
829.262	64.91
829.698	54.91
830.135	54.81
830.571	54.31
831.007	47.91
831.443	62.91
831.88	51.21
832.316	57.51
832.752	59.21
833.188	55.61
833.624	57.41
834.06	61.61
834.497	59.91
834.933	64.81
835.369	63.71
835.805	54.81
836.241	65.61
836.677	64.21
837.112	78.41
837.548	89.01
837.984	119.71
838.42	170.11
838.856	406.41
839.292	1292.51
839.727	2046.01
840.163	941.41
840.599	771.91
841.034	1751.31
841.47	1899.51
841.906	678.21
842.341	284.11
842.777	205.41
843.212	282.21
843.648	283.01
844.083	134.61
844.519	83.81
844.954	63.41
845.39	53.41
845.825	54.51
846.261	52.31
846.696	46.31
847.131	43.81
847.566	49.31
848.002	52.31
848.437	48.61
848.872	55.21
849.307	52.31
849.742	70.01
850.177	146.61
850.613	472.61
851.048	768.21
851.483	338.21
851.918	125.71
852.353	75.11
852.788	56.51
853.223	51.41
853.657	49.61
854.092	39.91
854.527	40.31
854.962	32.51
855.397	36.81
855.832	46.11
856.266	40.31
856.701	37.61
857.136	36.51
857.57	40.51
858.005	47.21
858.44	52.11
858.874	35.31
859.309	49.51
859.743	30.01
860.178	34.81
860.612	39.21
861.047	48.71
861.481	58.21
861.915	60.01
862.35	40.11
862.784	26.91
863.218	32.01
863.653	27.11
864.087	40.71
864.521	49.11
864.955	63.91
865.39	136.41
865.824	147.21
866.258	104.01
866.692	140.61
867.126	157.51
867.56	98.31
867.994	51.41
868.428	35.01
868.862	40.71
869.296	47.51
869.73	59.11
870.164	50.41
870.598	42.11
871.031	35.31
871.465	24.61
871.899	34.11
872.333	22.71
872.766	17.61
873.2	19.91
873.634	27.11
874.067	24.21
874.501	23.41
874.935	28.81
875.368	25.21
875.802	23.51
876.235	25.01
876.669	28.11
877.102	22.31
877.535	21.31
877.969	20.01
878.402	22.11
878.836	14.51
879.269	22.91
879.702	19.01
880.135	15.01
880.569	21.41
881.002	20.81
881.435	20.01
881.868	14.91
882.301	22.61
882.734	16.21
883.167	22.21
883.601	16.11
884.034	21.21
884.467	13.11
884.899	18.41
885.332	12.81
885.765	10.61
886.198	9.21
886.631	18.91
887.064	23.51
887.497	23.31
887.929	20.21
888.362	18.11
888.795	10.21
889.228	17.81
889.66	20.31
890.093	20.41
890.526	10.51
890.958	15.71
891.391	22.21
891.823	21.91
892.256	13.81
892.688	10.31
893.121	16.51
893.553	9.71
893.985	18.91
894.418	18.91
894.85	8.31
895.282	14.91
895.715	16.21
896.147	14.41
896.579	10.91
897.011	15.31
897.444	13.31
897.876	13.81
898.308	17.71
898.74	17.41
899.172	17.21
899.604	19.51
900.036	15.01
900.468	10.01
900.9	12.81
901.332	14.91
901.764	14.51
902.196	18.91
902.628	18.11
903.06	19.81
903.491	28.51
903.923	15.91
904.355	16.01
904.787	30.01
905.218	20.21
905.65	14.51
906.082	15.61
906.513	4.71
906.945	14.61
907.376	12.71
907.808	20.91
908.239	18.71
908.671	14.81
909.102	18.51
909.534	19.91
909.965	39.91
910.397	76.01
910.828	270.11
911.259	422.31
911.691	193.21
912.122	92.21
912.553	44.61
912.984	30.21
913.415	22.01
913.847	20.61
914.278	16.51
914.709	18.61
915.14	20.91
915.571	13.21
916.002	10.31
916.433	16.91
916.864	18.01
917.295	12.81
917.726	24.31
918.157	14.41
918.587	29.11
919.018	20.91
919.449	13.31
919.88	14.21
920.311	27.41
920.741	42.21
921.172	150.91
921.603	139.51
922.033	62.41
922.464	43.91
922.895	19.81
923.325	19.41
923.756	12.11
924.186	18.61
924.617	17.41
925.047	38.51
925.478	50.01
925.908	41.61
926.338	20.01
926.769	18.31
927.199	21.31
927.629	8.31
928.06	20.81
928.49	14.71
928.92	13.71
929.35	10.51
929.78	15.61
930.21	11.21
930.641	10.61
931.071	13.61
931.501	6.41
931.931	7.71
932.361	5.61
932.791	4.91
933.221	6.51
933.651	0.71
934.08	21.71
934.51	34.81
934.94	10.01
935.37	7.81
935.8	10.21
936.229	5.61
936.659	11.31
937.089	2.51
937.519	18.51
937.948	24.21
938.378	13.31
938.807	3.21
939.237	6.91
939.666	10.71
940.096	-2.09
940.525	6.41
940.955	2.51
941.384	-1.99
941.814	-3.59
942.243	-4.99
942.672	3.41
943.102	1.41
943.531	0.91
943.96	1.61
944.39	5.21
944.819	0.81
945.248	6.81
945.677	5.01
946.106	1.81
946.535	3.41
946.964	4.41
947.393	5.71
947.822	4.31
948.251	-2.59
948.68	2.91
949.109	9.31
949.538	4.11
949.967	0.21
950.396	5.51
950.825	0.61
951.254	2.41
951.682	-3.59
952.111	3.21
952.54	0.41
952.969	-4.29
953.397	-8.69
953.826	-1.09
954.254	-10.79
954.683	6.31
955.112	4.81
955.54	3.41
955.969	6.21
956.397	3.61
956.826	3.11
957.254	-1.99
957.682	4.61
958.111	6.41
958.539	5.61
958.967	3.71
959.396	-2.49
959.824	2.81
960.252	-1.39
960.68	1.01
961.109	0.21
961.537	-3.29
961.965	-1.99
962.393	0.41
962.821	-0.69
963.249	0.11
963.677	2.71
964.105	4.01
964.533	43.41
964.961	39.71
965.389	24.31
965.817	8.91
966.245	1.61
966.672	-0.29
967.1	-4.49
967.528	-1.09
967.956	-2.59
968.383	-1.39
968.811	-3.29
969.239	-5.69
969.666	-4.99
970.094	-2.19
970.522	3.91
970.949	-6.39
971.377	-3.19
971.804	-3.89
972.232	3.91
972.659	4.41
973.087	-5.09
973.514	-5.09
973.941	-4.19
974.369	4.31
974.796	6.91
975.223	0.01
975.651	-2.09
976.078	6.21
976.505	-10.19
976.932	1.51
977.359	6.81
977.786	17.91
978.214	4.11
978.641	-4.59
979.068	-2.89
979.495	-5.59
979.922	1.61
980.349	-2.39
980.776	7.01
981.202	-1.19
981.629	8.61
982.056	8.91
982.483	3.51
982.91	5.91
983.337	-2.49
983.763	3.91
984.19	-3.69
984.617	-8.09
985.043	-4.89
985.47	1.41
985.897	-4.09
986.323	-4.29
986.75	1.61
987.176	4.31
987.603	2.71
988.029	0.01
988.456	-0.29
988.882	4.81
989.308	-4.29
989.735	-1.29
990.161	4.61
990.587	-3.59
991.014	-3.89
991.44	8.91
991.866	-1.79
992.292	-4.59
992.719	3.01
993.145	5.31
993.571	-7.79
993.997	-2.19
994.423	0.21
994.849	-2.09
995.275	4.11
995.701	-0.99
996.127	-3.19
996.553	1.11
996.979	0.61
997.405	-2.49
997.83	-1.69
998.256	-4.59
998.682	-3.19
999.108	-5.49
999.534	2.01
999.959	-1.99
1000.385	-3.59
1000.811	4.91
1001.236	-10.79
1001.662	-5.69
1002.087	-11.59
1002.513	2.01
1002.938	2.01
1003.364	3.61
1003.789	1.21
1004.215	1.41
1004.64	-5.79
1005.066	4.21
1005.491	2.31
1005.916	-6.09
1006.342	-2.29
1006.767	-3.29
1007.192	2.11
1007.617	-6.29
1008.042	-1.19
1008.468	-6.89
1008.893	-2.79
1009.318	-2.29
1009.743	3.31
1010.168	-0.09
1010.593	3.21
1011.018	-9.49
1011.443	-0.09
1011.868	1.31
1012.293	-2.39
1012.718	4.71
1013.143	3.21
1013.567	-4.39
1013.992	0.81
1014.417	-6.69
1014.842	-0.69
1015.267	-5.59
1015.691	-2.19
1016.116	7.91
1016.541	-0.29
1016.965	6.51
1017.39	3.21
1017.814	8.81
1018.239	1.11
1018.663	-3.59
1019.088	-6.19
1019.512	-2.79
1019.937	1.31
1020.361	-7.99
1020.785	-6.99
1021.21	-3.99
1021.634	-4.79
1022.058	-2.39
1022.483	5.71
1022.907	-1.09
1023.331	2.91
1023.755	-2.09
1024.179	-2.09
1024.604	-6.79
1025.028	-8.09
1025.452	-2.89
1025.876	0.71
1026.3	7.01
1026.724	-11.39
1027.148	1.51
1027.572	-4.49
1027.996	-4.89
1028.42	-3.69
1028.843	5.41
1029.267	-4.29
1029.691	-5.39
1030.115	-4.89
1030.539	-7.69
1030.962	-6.29
1031.386	-4.19
1031.81	-4.89
1032.233	4.11
1032.657	1.91
1033.08	-0.89
1033.504	0.61
1033.927	-1.59
1034.351	-0.89
1034.774	-2.99
1035.198	-0.79
1035.621	-6.79
1036.045	-0.89
1036.468	1.01
1036.891	-8.19
1037.315	-10.79
1037.738	-6.89
1038.161	2.51
1038.584	-4.49
1039.008	-8.89
1039.431	0.41
1039.854	0.01
1040.277	-9.09
1040.7	-5.89
1041.123	-3.69
1041.546	-2.99
1041.969	-3.79
1042.392	-4.49
1042.815	1.81
1043.238	3.91
1043.661	-1.79
1044.084	-7.59
1044.507	-6.39
1044.93	-4.39
1045.352	-7.69
1045.775	-5.79
1046.198	2.01
1046.621	-0.89
1047.043	-0.79
1047.466	5.41
1047.889	-8.89
1048.311	-5.39
1048.734	-1.19
1049.156	-3.39
1049.579	-7.09
1050.001	-3.69
1050.424	0.91
1050.846	-5.69
1051.269	-0.79
1051.691	-8.29
1052.113	-5.69
1052.536	-3.99
1052.958	-3.59
1053.38	-0.89
1053.802	-7.69
1054.225	6.21
1054.647	-8.89
1055.069	-5.59
1055.491	-1.19
1055.913	-6.59
1056.335	-0.59
1056.757	-2.49
1057.179	0.51
1057.601	-1.89
1058.023	-4.49
1058.445	-0.89
1058.867	0.21
1059.289	-0.69
1059.711	-6.29
1060.133	-5.09
1060.555	1.81
1060.976	-9.19
1061.398	0.21
1061.82	-8.09
1062.241	-7.59
1062.663	-5.79
1063.085	-2.09
1063.506	-5.59
1063.928	-3.49
1064.35	-1.29
1064.771	-14.69
1065.193	-1.29
1065.614	-4.09
1066.035	3.11
1066.457	-0.39
1066.878	1.51
1067.3	-10.99
1067.721	-1.59
1068.142	-6.79
1068.564	-4.79
1068.985	-2.49
1069.406	-3.29
1069.827	-3.69
1070.248	-1.79
1070.67	-10.09
1071.091	-7.69
1071.512	-7.19
1071.933	-9.89
1072.354	-5.59
1072.775	-3.69
1073.196	-7.99
1073.617	-2.19
1074.038	-4.09
1074.459	-2.19
1074.88	-8.09
1075.3	1.91
1075.721	1.61
1076.142	-1.39
1076.563	4.71
1076.983	-12.39
1077.404	-6.79
1077.825	-9.39
1078.246	0.71
1078.666	-11.29
1079.087	-5.69
1079.507	-6.19
1079.928	0.31
1080.348	1.51
1080.769	-4.59
1081.189	-1.69
1081.61	1.51
1082.03	0.31
1082.451	-4.79
1082.871	-3.29
1083.291	-0.69
1083.711	-3.39
1084.132	-5.29
1084.552	-7.29
1084.972	2.61
1085.392	-10.79
1085.813	-16.79
1086.233	-5.89
1086.653	-3.39
1087.073	-2.49
1087.493	-9.49
1087.913	-7.89
1088.333	-4.49
1088.753	-6.89
1089.173	-3.09
1089.593	-2.89
1090.013	-0.09
1090.433	-0.19
1090.852	-0.59
1091.272	2.91
1091.692	-2.59
1092.112	-1.49
1092.531	-11.79
1092.951	-7.89
1093.371	-3.39
1093.79	-0.49
1094.21	-5.09
1094.63	-3.59
1095.049	-7.59
1095.469	-2.49
1095.888	-2.39
1096.308	7.91
1096.727	9.91
1097.146	-4.19
1097.566	-2.59
1097.985	-7.79
1098.405	-2.69
1098.824	-6.79
1099.243	-5.79
1099.662	-7.49
1100.082	-1.79
1100.501	-2.69
1100.92	-6.29
1101.339	1.01
1101.758	-6.09
